30, 0.0
31, 0.0
32, 0.0
33, 0.0
34, 0.0
35, 0.0
36, 0.0
37, 0.0
38, 0.0
39, 0.0
40, 0.0
41, 0.0
42, 0.0
43, 0.0
44, 0.0
45, 0.0
46, 0.0
47, 0.0
48, 0.0
49, 0.0
50, 0.0
51, 0.0
52, 0.0
53, 0.0
54, 0.0
55, 0.0
56, 0.0
57, 0.0
58, 0.0
59, 0.0
60, 0.0
61, 0.0
62, 0.0
63, 0.0
64, 0.0
65, 0.0
66, 0.0
67, 0.0
68, 0.0
69, 0.0
70, 0.0
71, 0.0
72, 0.0
73, 0.0
74, 0.0
75, 0.0
76, 0.0
77, 0.0
78, 0.0
79, 0.0
80, 0.0
81, 0.0
82, 0.0
83, 0.0
84, 0.0
85, 0.0
86, 0.0
87, 0.0
88, 0.0
89, 0.0
90, 0.0
91, 0.0
92, 0.0
93, 0.0
94, 0.0
95, 0.0
96, 0.0
97, 0.0
98, 0.0
99, 0.0
100, 0.0
101, 0.0
102, 0.0
103, 0.0
104, 0.0
105, 0.0
106, 0.0
107, 0.0
108, 0.0
109, 0.0
110, 0.0
111, 0.0
112, 0.0
113, 0.0
114, 0.0
115.0, 0.004833481408574031
116.0, 0.013000045506830137
117.0, 0.018838480356254815
118.0, 0.011825794312790072
119.0, 0.005769926634285192
120.0, 0.001942446544836292
121.0, 0.0004987928807859985
122.0, 0.0011304938256074047
123.0, 0.0033047961139837214
124.0, 0.0008993281074378487
125.0, 0.0026919023074472538
126.0, 0.0028344967773812875
127.0, 0.0009700790058420159
128.0, 0.0043407543073235005
129.0, 0.01128990880736919
130.0, 0.015563102455553
131.0, 0.019826455341993086
132.0, 0.02296298229951445
133.0, 0.022764770354631068
134.0, 0.022832762756802495
135.0, 0.024928007475444165
136.0, 0.029047881781996666
137.0, 0.03505800277119343
138.0, 0.04317477439638446
139.0, 0.05474864193703689
140.0, 0.06387278617741021
141.0, 0.06353912043672218
142.0, 0.05808644711828285
143.0, 0.05070750012841859
144.0, 0.042574540182441764
145.0, 0.03447037398162979
146.0, 0.031135912747430414
147.0, 0.028106546519987567
148.0, 0.023910788423113345
149.0, 0.019030167082820862
150.0, 0.01691492434841432
151.0, 0.014690094654501626
152.0, 0.01613287637492848
153.0, 0.018835973789071772
154.0, 0.02016794923746871
155.0, 0.018785311134949956
156.0, 0.0191036756551072
157.0, 0.01877574283201259
158.0, 0.020023209663807013
159.0, 0.021752131407120758
160.0, 0.02210545165132205
161.0, 0.029844101884971806
162.0, 0.03692731169380382
163.0, 0.04747539583596039
164.0, 0.06120790307023805
165.0, 0.07643558258973439
166.0, 0.09089870770536115
167.0, 0.0959813667632218
168.0, 0.10068885654791418
169.0, 0.1016454169061454
170.0, 0.1008415542663203
171.0, 0.10362898007897951
172.0, 0.09497016076828463
173.0, 0.08642939320858392
174.0, 0.07949389104951793
175.0, 0.07442424421294021
176.0, 0.07064503856275006
177.0, 0.06647230669063602
178.0, 0.0660142007933952
179.0, 0.06396860317450195
180.0, 0.06166040341677465
181.0, 0.05978793200514537
182.0, 0.057880410636814934
183.0, 0.05656372158890707
184.0, 0.05909333542469511
185.0, 0.061599936814610415
186.0, 0.06360014171828335
187.0, 0.06584459252820546
188.0, 0.06893350129613758
189.0, 0.07159707006288268
190.0, 0.0744088840210108
191.0, 0.07705937086318046
192.0, 0.07949055684248499
193.0, 0.0820072744384468
194.0, 0.08478886678547594
195.0, 0.08442755585526449
196.0, 0.0838031932298672
197.0, 0.08134762669972878
198.0, 0.07581067132676407
199.0, 0.07236720897079943
200.0, 0.07308557890147563
201.0, 0.07590840547675479
202.0, 0.08108423045607484
203.0, 0.08531120466563005
204.0, 0.08121738509978679
205.0, 0.05257756111773626
206.0, 0.02838018059099747
207.0, 0.013859040647272499
208.0, 0.008005209848737937
209.0, 0.0065064251047248665
210.0, 0.0028486755291290294
211.0, 0.006028867067243486
212.0, 0.006280362149029018
213.0, 0.005228467190716939
214.0, 0.005182871560210549
215.0, 0.007520815543717416
216.0, 0.006260664399318272
217.0, 0.0031070419583007205
218.0, 0.007010037850847528
219.0, 0.008892342674232268
220.0, 0.0031678989598446605
221.0, 0.0025372889477879566
222.0, 0.012821383233323828
223.0, 0.007718891928036049
224.0, 0.0048217204243694725
225.0, 0.006033025944434863
226.0, 0.0035226162193700153
227.0, 0.004141615170819678
228.0, 0.0073774675973882625
229.0, 0.00835602734667885
230.0, 0.008437182765510101
231.0, 0.007991190331090227
232.0, 0.004406999717461342
233.0, 0.004401149166482781
234.0, 0.0018767945914549733
235.0, 0.0009890856049840028
236.0, 0.0014687774345460546
237.0, 0.0016398304541072961
238.0, 0.0024430542612350857
239.0, 0.006271032739314837
240.0, 0.00581429967687166
241.0, 0.00662754383701423
242.0, 0.009839723600446682
243.0, 0.011450033934531523
244.0, 0.012131664044222888
245.0, 0.01264968525491577
246.0, 0.01137475237070058
247.0, 0.012894147781489713
248.0, 0.01785045773359408
249.0, 0.01620091449547852
250.0, 0.020435534878738865
251.0, 0.02440135226365411
252.0, 0.025895744022016894
253.0, 0.027213555110002167
254.0, 0.03105463962238197
255.0, 0.03103459854937812
256.0, 0.0334326032648121
257.0, 0.03489068962099208
258.0, 0.03825413498596224
259.0, 0.04612426406318681
260.0, 0.05898508016304835
261.0, 0.06716669949969123
262.0, 0.05598019727525075
263.0, 0.04367957524162827
264.0, 0.03731434111145569
265.0, 0.037583085032689076
266.0, 0.039099086012809425
267.0, 0.03460043259750848
268.0, 0.03227779271101681
269.0, 0.030476614948842448
270.0, 0.02918963117130371
271.0, 0.02901312424903933
272.0, 0.029373502158740045
273.0, 0.028577816013044342
274.0, 0.026664722905780345
275.0, 0.02662164982455384
276.0, 0.027776984919351454
277.0, 0.026804145706300936
278.0, 0.027020177751864913
279.0, 0.02793885743358318
280.0, 0.028851861600335166
281.0, 0.02901370379563567
282.0, 0.029373246617150725
283.0, 0.03281502380878512
284.0, 0.032621289541962493
285.0, 0.03472809057564232
286.0, 0.03817121918554758
287.0, 0.03998056171177331
288.0, 0.03967725064307981
289.0, 0.04406769631359505
290.0, 0.04678955492448625
291.0, 0.05092540132092901
292.0, 0.053492126342856404
293.0, 0.055035087740113404
294.0, 0.05734298051036502
295.0, 0.05834436749834073
296.0, 0.05894097017808663
297.0, 0.0611474597246141
298.0, 0.06477805765842698
299.0, 0.06880228620778553
300.0, 0.07217715962698569
301.0, 0.07703663981955242
302.0, 0.08168814814962987
303.0, 0.08848534363950086
304.0, 0.0940557110481874
305.0, 0.09824892424356274
306.0, 0.10556447245573247
307.0, 0.1129994991546453
308.0, 0.11898936163402839
309.0, 0.12693657301462155
310.0, 0.13595793334959327
311.0, 0.1456758833390481
312.0, 0.15844866507335315
313.0, 0.16971461005814906
314.0, 0.1831704690337904
315.0, 0.19332522796960513
316.0, 0.203135412172153
317.0, 0.2165048247668542
318.0, 0.23134657742194603
319.0, 0.2502103665539142
320.0, 0.2679724046884514
321.0, 0.286289919686835
322.0, 0.30618311841509854
323.0, 0.32844348882056185
324.0, 0.35476569028111454
325.0, 0.3871975864588395
326.0, 0.41649884159059675
327.0, 0.44600102964544885
328.0, 0.4791469048167916
329.0, 0.5163327272483317
330.0, 0.5479645259271023
331.0, 0.5851845146183959
332.0, 0.617799657466084
333.0, 0.6498604478951563
334.0, 0.680984905756177
335.0, 0.7072364842962108
336.0, 0.7314918826752131
337.0, 0.7537723364251727
338.0, 0.7697149134547493
339.0, 0.7849693385947818
340.0, 0.7974006066451109
341.0, 0.8002120140137107
342.0, 0.815862504772281
343.0, 0.8130692543473841
344.0, 0.8176589895520504
345.0, 0.825115106372439
346.0, 0.8312586870631967
347.0, 0.8381558371437163
348.0, 0.8465367851480086
349.0, 0.851432722750686
350.0, 0.8631116457817033
351.0, 0.8754355786403045
352.0, 0.8834241164673406
353.0, 0.8882671631870903
354.0, 0.893254264830129
355.0, 0.8984820042098474
356.0, 0.9009287238830127
357.0, 0.8964137119729583
358.0, 0.8840843553510871
359.0, 0.8677438662107805
360.0, 0.8513602465039203
361.0, 0.8308796960429928
362.0, 0.8162352308595419
363.0, 0.7966410575918236
364.0, 0.7681372547189218
365.0, 0.7419700613310367
366.0, 0.7151867410306235
367.0, 0.6970320001236803
368.0, 0.6698706000468648
369.0, 0.6419752163598867
370.0, 0.6192022131730781
371.0, 0.5951967289501978
372.0, 0.5684405946836822
373.0, 0.5400518321589624
374.0, 0.5133578698171389
375.0, 0.48916907417823063
376.0, 0.4660806304817777
377.0, 0.44141083340530496
378.0, 0.42008953266909066
379.0, 0.3996713472121447
380.0, 0.38039221966806147
381.0, 0.3612940341656333
382.0, 0.34209178477077457
383.0, 0.32361969709249827
384.0, 0.3056635286719644
385.0, 0.28723104804412886
386.0, 0.2696653593805921
387.0, 0.2520853619188251
388.0, 0.23493063117220916
389.0, 0.2198841141260531
390.0, 0.20210947027565304
391.0, 0.19124273324689747
392.0, 0.17652635760565402
393.0, 0.16268750942991153
394.0, 0.15164790106039852
395.0, 0.13998054579814775
396.0, 0.12854627543296004
397.0, 0.1209203119387816
398.0, 0.11228340394547687
399.0, 0.10229153368150488
400.0, 0.09185181824216167
401.0, 0.0829827448193989
402.0, 0.081072434281514
403.0, 0.072055018729302
404.0, 0.06633170779105296
405.0, 0.062243509997303485
406.0, 0.05844004601286328
407.0, 0.05485844499664758
408.0, 0.05128133469606061
409.0, 0.04917783009375603
410.0, 0.04923864050458623
411.0, 0.04758420104851226
412.0, 0.04475061507138436
413.0, 0.043402223013167866
414.0, 0.04336467906249673
415.0, 0.04117299193502711
416.0, 0.03985122589519988
417.0, 0.038686404429805366
418.0, 0.03799867217136104
419.0, 0.03810412516509684
420.0, 0.03809273574368635
421.0, 0.03929080028083768
422.0, 0.036628366505813977
423.0, 0.03590906890543302
424.0, 0.035142191864691065
425.0, 0.033757283222124235
426.0, 0.03739835766344439
427.0, 0.03443890056576715
428.0, 0.034832593894534504
429.0, 0.03347634221451312
430.0, 0.03370915821430634
431.0, 0.03539461534353571
432.0, 0.033174874240856723
433.0, 0.03573617468931853
434.0, 0.03589234662559102
435.0, 0.03407426120914976
436.0, 0.03272521639862284
437.0, 0.03246292385057488
438.0, 0.03187253916343966
439.0, 0.029676188799493023
440.0, 0.02751949447129291
441.0, 0.023674131231806676
442.0, 0.020058584572513763
443.0, 0.016296863539975084
444.0, 0.010968594126082972
445.0, 0.004569547283569982
446.0, 0.004176990576664464
447.0, 0.0024210382347321464
448.0, 0.001834404485804253
449.0, 0.0018438649750735642
450.0, 0.0013832710201746592
451.0, 0.0012067179273576865
452.0, 0.0023770711909343483
453.0, 0.0021673279208702413
454.0, 0.0035781240474414807
455.0, 0.004226991441884181
456.0, 0.0031490164105838457
457.0, 0.0025864763387685582
458.0, 0.0028741298544426104
459.0, 0.0036745987422263054
460.0, 0.0032073280758937103
461.0, 0.006169707384690842
462.0, 0.012044898259052314
463.0, 0.016456024443177873
464.0, 0.018527185155052882
465.0, 0.0237272354211657
466.0, 0.029274789480622152
467.0, 0.0342824081659439
468.0, 0.039510519623330916
469.0, 0.04501415525952501
470.0, 0.04835408609133428
471.0, 0.054888204539842896
472.0, 0.0636653110147791
473.0, 0.06955212289437318
474.0, 0.07506632640249059
475.0, 0.08243915505043069
476.0, 0.0908008776140984
477.0, 0.09893610650083882
478.0, 0.10932596476451217
479.0, 0.11737861923836279
480.0, 0.12703252029860737
481.0, 0.13825501804826343
482.0, 0.1484767834367645
483.0, 0.15845248650253205
484.0, 0.16601029601980472
485.0, 0.1731276248343682
486.0, 0.18021830329663016
487.0, 0.18447003548837068
488.0, 0.18422511154190896
489.0, 0.18148825213573216
490.0, 0.17620858669614786
491.0, 0.17385009988198427
492.0, 0.16915778336408302
493.0, 0.16406829590186495
494.0, 0.1613574648993027
495.0, 0.16239773600658566
496.0, 0.16583228550249798
497.0, 0.17217487366864026
498.0, 0.1830436622562061
499.0, 0.1980265841383342
500.0, 0.21511705979125015
501.0, 0.2334255333459665
502.0, 0.255093961861429
503.0, 0.2807834420870626
504.0, 0.3031462436103595
505.0, 0.32037948296880103
506.0, 0.33472129417245045
507.0, 0.34645434280750514
508.0, 0.3540865785093547
509.0, 0.3600973314783361
510.0, 0.3530172997910222
511.0, 0.3469829962338265
512.0, 0.3409985337568461
513.0, 0.33289914206110466
514.0, 0.32236321948740304
515.0, 0.31224929689904757
516.0, 0.3012273781483905
517.0, 0.29119049143204256
518.0, 0.28024790351960044
519.0, 0.26966453718801797
520.0, 0.2601960689408022
521.0, 0.2524793138292565
522.0, 0.2506722780861261
523.0, 0.24431457307241677
524.0, 0.23453669164061136
525.0, 0.2301749683926132
526.0, 0.22698938873714755
527.0, 0.22168615937301384
528.0, 0.22014025842212215
529.0, 0.21296332549619942
530.0, 0.21263213777860712
531.0, 0.20944501655196016
532.0, 0.20389461782609047
533.0, 0.20005282146233053
534.0, 0.19993274535454633
535.0, 0.19672700729760714
536.0, 0.1965997161330957
537.0, 0.19382469273907343
538.0, 0.189778908257876
539.0, 0.18633102770085208
540.0, 0.18419419378885107
541.0, 0.18212533406560674
542.0, 0.17676901944920628
543.0, 0.17247334510783607
544.0, 0.1666253559671853
545.0, 0.1607191629892365
546.0, 0.15399102869437553
547.0, 0.14705693856959834
548.0, 0.14442820201468914
549.0, 0.13589737230558466
550.0, 0.12827268089731658
551.0, 0.12253511322937656
552.0, 0.11618102403363195
553.0, 0.10956637652624629
554.0, 0.10310289442303147
555.0, 0.08934960322893
556.0, 0.08447115342210419
557.0, 0.07545447139292372
558.0, 0.06732680555472678
559.0, 0.060645541812338305
560.0, 0.05436117346975872
561.0, 0.04790951914568282
562.0, 0.04288365450726085
563.0, 0.038693125790202516
564.0, 0.0352625900141447
565.0, 0.03267564075050999
566.0, 0.03104643727610536
567.0, 0.030508697776610024
568.0, 0.031140768048464443
569.0, 0.03259882355140945
570.0, 0.034960142033224235
571.0, 0.03840084432410013
572.0, 0.042086183823501114
573.0, 0.046199890350774674
574.0, 0.051052051737584744
575.0, 0.05574559581840754
576.0, 0.06249520869209058
577.0, 0.0666990542274767
578.0, 0.07017570710550529
579.0, 0.07230033965496745
580.0, 0.07299817299455796
581.0, 0.07259006506042595
582.0, 0.07006824757401067
583.0, 0.07028365432889325
584.0, 0.06745980698925351
585.0, 0.06490905243216268
586.0, 0.06331188106303992
587.0, 0.06153380436584101
588.0, 0.05884242465346539
589.0, 0.05933350356115457
590.0, 0.0565857308454751
591.0, 0.053444426543874386
592.0, 0.050752151036352555
593.0, 0.04919998287485453
594.0, 0.047590883276660285
595.0, 0.04381704537248611
596.0, 0.04127010788709935
597.0, 0.04107017002409987
598.0, 0.0374424215801215
599.0, 0.035225466880827096
600.0, 0.033421185335164194
601.0, 0.030634490612331217
602.0, 0.028590959058304784
603.0, 0.02727623845783259
604.0, 0.02515014904353696
605.0, 0.020694206602558954
606.0, 0.01852887108072502
607.0, 0.0169781259205994
608.0, 0.013843394647270184
609.0, 0.011078142747493526
610.0, 0.009412945450288375
611.0, 0.007996884720451352
612.0, 0.006351377760504289
613.0, 0.004518402202565802
614.0, 0.0032606944164095997
615.0, 0.0025911804983939075
616.0, 0.0013725939348533005
617.0, 0.002230425586634299
618.0, 0.004156774001357029
619.0, 0.0035308796605592395
620.0, 0.002780810486259037
621.0, 0.0032491507483217957
622.0, 0.0040365819397046076
623.0, 0.0033163276193729184
624.0, 0.006216303076298481
625.0, 0.0022178001951002847
626.0, 0.003341343805838775
627.0, 0.004321661566754015
628.0, 0.0034344031300409324
629.0, 0.0021245251230270984
630.0, 0.0018468728881648458
631.0, 0.0021302714978238477
632.0, 0.0005029916058263172
633.0, 0.0015844580198368968
634.0, 0.0043801295260402825
635.0, 0.006834777239275966
636.0, 0.00784669902631569
637.0, 0.008111934408063197
638.0, 0.008480539681125767
639.0, 0.01121345754270578
640.0, 0.012728602678911875
641.0, 0.012697768512933177
642.0, 0.012605641155359002
643.0, 0.01294828301867049
644.0, 0.012512396485468199
645.0, 0.012648952168345365
646.0, 0.01253192368112877
647.0, 0.01265960734242159
648.0, 0.012250153445431351
649.0, 0.010696497849251555
650.0, 0.00882143314318444
651.0, 0.008306477263798762
652.0, 0.008464535849308157
653.0, 0.005980563856193784
654.0, 0.005194939904749183
655.0, 0.004188343457814809
656.0, 0.0032407485395301353
657.0, 0.002689033709325646
658.0, 0.002167439998806624
659.0, 0.0014102487801875585
660.0, 0.0014026613029391127
661.0, 0.0005045067594924871
662.0, 0.00025920810272857047
663.0, 0.0006287111125602308
664.0, 0.0012986344779891655
665.0, 0.0021426181928210384
666.0, 0.0032588961540920215
667.0, 0.005688282272054731
668.0, 0.006231366936893129
669.0, 0.007009714230644527
670.0, 0.008533588225159733
671.0, 0.009835456146940607
672.0, 0.010314543263991121
673.0, 0.010897141627754608
674.0, 0.009335910498755895
675.0, 0.011719744814959304
676.0, 0.01182153737342006
677.0, 0.012243302738890263
678.0, 0.012101350047704287
679.0, 0.010772840406967082
680.0, 0.010099658692896852
681.0, 0.009317010541842074
682.0, 0.010852815368105478
683.0, 0.01012699192629577
684.0, 0.009976721990294857
685.0, 0.009807835175720132
686.0, 0.009103575680586295
687.0, 0.008297573984488235
688.0, 0.006965908415729868
689.0, 0.006148168505336111
690.0, 0.004442582291194155
691.0, 0.0024069691013426132
692.0, 0.0014866359487023747
693.0, 0.0014257259275192973
694.0, 0.0017895479782757085
695.0, 0.003854006660472202
696.0, 0.006825357416539314
697.0, 0.00816040675770892
698.0, 0.008426962548629183
699.0, 0.009067780620814871
700.0, 0.011393892416676982
701.0, 0.014071941194132725
702.0, 0.014752609785876098
703.0, 0.018058976113477877
704.0, 0.02013819259221057
705.0, 0.02161389046712663
706.0, 0.022261704346258678
707.0, 0.023616247152330717
708.0, 0.024463559006842505
709.0, 0.0234680494088398
710.0, 0.02404182484059605
711.0, 0.02569056177607033
712.0, 0.026135628974283637
713.0, 0.0256651299398693
714.0, 0.026550856169519854
715.0, 0.02789447659687133
716.0, 0.02896694184828743
717.0, 0.03078411812413505
718.0, 0.03135286612305265
719.0, 0.03266667843217783
720.0, 0.035145699363778087
721.0, 0.03555184976175399
722.0, 0.03603797685291127
723.0, 0.03823876194431083
724.0, 0.041664382261905566
725.0, 0.04511465374065735
726.0, 0.04821791494452981
727.0, 0.051730968863245824
728.0, 0.055064713590055867
729.0, 0.05849516386387389
730.0, 0.061702054173471584
731.0, 0.065684432771209
732.0, 0.07153449747109165
733.0, 0.074685040676742
734.0, 0.08300957938232037
735.0, 0.08637120630617769
736.0, 0.09157889198755995
737.0, 0.09531734196244146
738.0, 0.09874147726595472
739.0, 0.10529080576336924
740.0, 0.11387550290057026
741.0, 0.12110337442017355
742.0, 0.12684213047329326
743.0, 0.1355755565413661
744.0, 0.14228866337003312
745.0, 0.1510012478432277
746.0, 0.16111386087523105
747.0, 0.16790055239436436
748.0, 0.17438305313807886
749.0, 0.1813452913152073
750.0, 0.18872953731563186
751.0, 0.19355580942288883
752.0, 0.19939672890308657
753.0, 0.20436005614454705
754.0, 0.2071853849629263
755.0, 0.21016340435640815
756.0, 0.21246539915253626
757.0, 0.20992939789621354
758.0, 0.21024792335170078
759.0, 0.2114820105572019
760.0, 0.21163915166018765
761.0, 0.20870865609819378
762.0, 0.20501152945388004
763.0, 0.2068641790338858
764.0, 0.21094324065529121
765.0, 0.20950479976200645
766.0, 0.21429436548516412
767.0, 0.21984695090517237
768.0, 0.22584799800434355
769.0, 0.23157415603336295
770.0, 0.23711989584670135
771.0, 0.2450270464956167
772.0, 0.24995390421287456
773.0, 0.26090247536223377
774.0, 0.2675995996381574
775.0, 0.2770262716886396
776.0, 0.2875050368145852
777.0, 0.29852271824115323
778.0, 0.3108743459055905
779.0, 0.3215490203972603
780.0, 0.33224138321792157
781.0, 0.34234792157882055
782.0, 0.35725203920713294
783.0, 0.37265994163210564
784.0, 0.38445814253308264
785.0, 0.3966803675711023
786.0, 0.4133638815849148
787.0, 0.42570345814225974
788.0, 0.43980347893397537
789.0, 0.4619500883224229
790.0, 0.4786754341999339
791.0, 0.4937230946672949
792.0, 0.5116709533487652
793.0, 0.5323662411931385
794.0, 0.55377206713811
795.0, 0.5775744620761671
796.0, 0.5940244927958881
797.0, 0.6211802049335833
798.0, 0.643124121115429
799.0, 0.6642176065531836
800.0, 0.6836779309721106
801.0, 0.7038517350194358
802.0, 0.728010217389675
803.0, 0.751209537899513
804.0, 0.7754921449088498
805.0, 0.7977408235140387
806.0, 0.8207543154886682
807.0, 0.8414618877981447
808.0, 0.8608448097189082
809.0, 0.8799250530176796
810.0, 0.8984526194589246
811.0, 0.9162558196687648
812.0, 0.932033890389131
813.0, 0.9456609388399775
814.0, 0.9581510487349598
815.0, 0.9686754697768206
816.0, 0.9772104649201863
817.0, 0.9844328446332574
818.0, 0.9914583195983645
819.0, 0.9984161693925757
820.0, 0.9996013616465201
821.0, 0.9999486804334728
822.0, 0.9989696902364841
823.0, 0.9956775274136778
824.0, 0.9908195056321273
825.0, 0.9823308046734378
826.0, 0.9710131627784728
827.0, 0.9622114327978065
828.0, 0.9505657074714008
829.0, 0.9366823346767789
830.0, 0.9268014949207076
831.0, 0.918881045170574
832.0, 0.9079941538036814
833.0, 0.8981754447120628
834.0, 0.8910866984288975
835.0, 0.881663721266401
836.0, 0.8722664936172984
837.0, 0.8695194571118713
838.0, 0.8638231778084072
839.0, 0.8535106684875416
840.0, 0.8425148695518644
841.0, 0.8350562939607751
842.0, 0.8300738342048544
843.0, 0.8244653966426524
844.0, 0.8200247175092665
845.0, 0.8125690295981226
846.0, 0.8076160261783246
847.0, 0.8065440544106495
848.0, 0.8059402341451588
849.0, 0.8071356786113123
850.0, 0.8099435146101643
851.0, 0.8130336398517459
852.0, 0.8167608749677123
853.0, 0.8217082322200299
854.0, 0.8246925090335696
855.0, 0.8272184497999817
856.0, 0.8317331954737475
857.0, 0.8342473481734431
858.0, 0.8381535869805098
859.0, 0.8436591190605082
860.0, 0.8465437659953142
861.0, 0.8507881757029988
862.0, 0.8525095521558316
863.0, 0.8621759464834787
864.0, 0.8643551549545208
865.0, 0.8675562649913271
866.0, 0.8703041740412365
867.0, 0.874948538691975
868.0, 0.8815197228768608
869.0, 0.8812812049798732
870.0, 0.880218677808611
871.0, 0.8887861152487704
872.0, 0.8808150433675572
873.0, 0.878267117503029
874.0, 0.8810743040305935
875.0, 0.8821939670349059
876.0, 0.8771380406663717
877.0, 0.8682828464687212
878.0, 0.8612946392263495
879.0, 0.8470216021837877
880.0, 0.839510972022117
881.0, 0.8263500928353922
882.0, 0.8157926923735654
883.0, 0.7990757946178707
884.0, 0.778133067172582
885.0, 0.7582957785333503
886.0, 0.7360274201903181
887.0, 0.7082319316854558
888.0, 0.6820849823694286
889.0, 0.6488864289494456
890.0, 0.619215347463293
891.0, 0.5905767884360015
892.0, 0.5585279301339561
893.0, 0.5275791919654811
894.0, 0.4996368891131717
895.0, 0.4674859377992151
896.0, 0.4477192242786182
897.0, 0.41943416753595
898.0, 0.3958423720275498
899.0, 0.37469690133306816
900.0, 0.3556893401651971
901.0, 0.3375551442494228
902.0, 0.3202420415114621
903.0, 0.3044475158367434
904.0, 0.2889650688325345
905.0, 0.27124575030442855
906.0, 0.26313379654546426
907.0, 0.24869757328101705
908.0, 0.2387682614805018
909.0, 0.22770525832151448
910.0, 0.21746970063289012
911.0, 0.2093287276183436
912.0, 0.2008298190309934
913.0, 0.19343915412757587
914.0, 0.18541948065956002
915.0, 0.18375690109609505
916.0, 0.17519913157797604
917.0, 0.16963975841070922
918.0, 0.16813690467417014
919.0, 0.16516541692796372
920.0, 0.15954900662559673
921.0, 0.1554558854848262
922.0, 0.15336038321675835
923.0, 0.15183585902148883
924.0, 0.14849436079771297
925.0, 0.14594092340879344
926.0, 0.14518176783103226
927.0, 0.14336608969267722
928.0, 0.14088677136101918
929.0, 0.13835295949992746
930.0, 0.13683817862090372
931.0, 0.13837885180189657
932.0, 0.12755448047724507
933.0, 0.1299574296564224
934.0, 0.12642733356425567
935.0, 0.12077576493779692
936.0, 0.11766425165601069
937.0, 0.11565024954104239
938.0, 0.11188636290237063
939.0, 0.10743112512545873
940.0, 0.10595294108146562
941.0, 0.10352510879758466
942.0, 0.10015707780710191
943.0, 0.09669758664912871
944.0, 0.0947653407856297
945.0, 0.09167949342829074
946.0, 0.08754470909938632
947.0, 0.0861071124916857
948.0, 0.08662711538798472
949.0, 0.08271459729698649
950.0, 0.08123586244351602
951.0, 0.08277883363857018
952.0, 0.08217788820403495
953.0, 0.07943175006785057
954.0, 0.07976418569822387
955.0, 0.08220191250800582
956.0, 0.08252111828614411
957.0, 0.08045350924648481
958.0, 0.07979214337031125
959.0, 0.07980267081705297
960.0, 0.08208742518378483
961.0, 0.0825914533214534
962.0, 0.08475942950395805
963.0, 0.08571939039321763
964.0, 0.08710182309227198
965.0, 0.08758835160574481
966.0, 0.08827364481649676
967.0, 0.09037383449061398
968.0, 0.08973124777522068
969.0, 0.09350837901942025
970.0, 0.09059610948894951
971.0, 0.0926656506525615
972.0, 0.09293667847370038
973.0, 0.0908165902979273
974.0, 0.09091558348807059
975.0, 0.09126711818066657
976.0, 0.08952310042810337
977.0, 0.08917456622491282
978.0, 0.0888058484985423
979.0, 0.08669355107259366
980.0, 0.0847545289528735
981.0, 0.08386535777671254
982.0, 0.08527847690684263
983.0, 0.08403607991881787
984.0, 0.08190051815848046
985.0, 0.08039971253300633
986.0, 0.07826123625671237
987.0, 0.07650434312512232
988.0, 0.0759364729180029
989.0, 0.0747160933397677
990.0, 0.07265733722649802
991.0, 0.06912272588113419
992.0, 0.0659494505044819
993.0, 0.06211064300117699
994.0, 0.05749819183057918
995.0, 0.05266247014859436
996.0, 0.04786861759974308
997.0, 0.04371543052352691
998.0, 0.03955196484902167
999.0, 0.037529709921459535
1000.0, 0.03534732163996552
1001.0, 0.03488697529168762
1002.0, 0.036717012702942114
1003.0, 0.04319460529514481
1004.0, 0.05026062254739937
1005.0, 0.05598940716428779
1006.0, 0.06456522286506604
1007.0, 0.07347539316289282
1008.0, 0.0827598583106236
1009.0, 0.09007133323098866
1010.0, 0.09679884528601722
1011.0, 0.10107972838806552
1012.0, 0.10249763440149884
1013.0, 0.09773904408124338
1014.0, 0.0904553427335681
1015.0, 0.08380036136738947
1016.0, 0.07457119183170696
1017.0, 0.06527942791895365
1018.0, 0.05564671871704578
1019.0, 0.04192856340368584
1020.0, 0.03403239276047567
1021.0, 0.02389213982699523
1022.0, 0.01863089441925828
1023.0, 0.014494061294551124
1024.0, 0.008038649068027466
1025.0, 0.0025263560552740193
1026.0, 0.0013832309021825525
1027.0, 0.0011325527549395915
1028.0, 0.002593785013428282
1029.0, 0.005171805002718003
1030.0, 0.006301933857467338
1031.0, 0.006950112521534366
1032.0, 0.007578983736214415
1033.0, 0.008035886989379482
1034.0, 0.008461074099903541
1035.0, 0.009066684409115934
1036.0, 0.009476617986113484
1037.0, 0.009211522502215172
1038.0, 0.009822638032570571
1039.0, 0.007905368889014391
1040.0, 0.009340146670165174
1041.0, 0.009180305351839129
1042.0, 0.007516980312700035
1043.0, 0.007299893168446818
1044.0, 0.008181698918393349
1045.0, 0.008917875848224455
1046.0, 0.00899227373023101
1047.0, 0.00755944876362607
1048.0, 0.006805138912742953
1049.0, 0.006286141041965151
1050.0, 0.007945866338893994
1051.0, 0.006226610957670872
1052.0, 0.005396897747501309
1053.0, 0.004787505697628348
1054.0, 0.0036902254392295114
1055.0, 0.003495001430124826
1056.0, 0.0038432101513552414
1057.0, 0.00246958879884849
1058.0, 0.002376091583472606
1059.0, 0.0037185458486748944
1060.0, 0.0015761231401857012
1061.0, 0.0019435228847689608
1062.0, 0.00241025887005735
1063.0, 0.0018526156345420107
1064.0, 0.0009084164177835006
1065.0, 0.0002985350133103199
1066.0, 0.0006083607741452677
1067.0, 0.0013841676760603134
1068.0, 0.0009296738494408592
1069.0, 0.00038788799723890426
1070.0, 0.0016914962885311614
1071.0, 0.0018570680333691533
1072.0, 0.0016962019352306766
1073.0, 0.0025688965381231287
1074.0, 0.002440065021975427
1075.0, 0.0027753784283346197
1076.0, 0.004055660745249863
1077.0, 0.004845212379838078
1078.0, 0.005266887842603589
1079.0, 0.006899475558811119
1080.0, 0.00491088219152667
1081.0, 0.005599858631338514
1082.0, 0.006277753395155678
1083.0, 0.007174044232370974
1084.0, 0.009974379335809016
1085.0, 0.013205761786230098
1086.0, 0.012956333188482024
1087.0, 0.011037886282806685
1088.0, 0.010075352661072946
1089.0, 0.008453563061765288
1090.0, 0.007604637098874061
1091.0, 0.009418464571991372
1092.0, 0.008537222583422372
1093.0, 0.008019825194181755
1094.0, 0.00916137797066903
1095.0, 0.01071374082083235
1096.0, 0.01150520600102545
1097.0, 0.011028841126569086
1098.0, 0.01080759216589045
1099.0, 0.011254687628050885
1100.0, 0.011212113221253827
1101.0, 0.012198985485310367
1102.0, 0.012319620877177717
1103.0, 0.012797006128969236
1104.0, 0.011914940095507233
1105.0, 0.011598179411037095
1106.0, 0.010538910697335918
1107.0, 0.011231214926288908
1108.0, 0.012029725353011103
1109.0, 0.011835353421901488
1110.0, 0.011821761152597117
1111.0, 0.01254702453910353
1112.0, 0.01279150332187771
1113.0, 0.012343579000521203
1114.0, 0.012212718425754335
1115.0, 0.013195846362935153
1116.0, 0.012815116298007625
1117.0, 0.014076596676570189
1118.0, 0.014594638913063165
1119.0, 0.014153834425927658
1120.0, 0.014947562939780569
1121.0, 0.016621398456521868
1122.0, 0.016970874254472648
1123.0, 0.016474667731903342
1124.0, 0.016247764537391046
1125.0, 0.015980800875575716
1126.0, 0.01642116347425411
1127.0, 0.015748654356157472
1128.0, 0.015615634229266465
1129.0, 0.013797756720458028
1130.0, 0.01412769008770985
1131.0, 0.014466166330637667
1132.0, 0.013812535922970152
1133.0, 0.01256817639432009
1134.0, 0.010717821529042068
1135.0, 0.011196958168684932
1136.0, 0.011593474213059068
1137.0, 0.013886481424476089
1138.0, 0.012501036640341452
1139.0, 0.01158924929499842
1140.0, 0.011715855421129713
1141.0, 0.012013499662275868
1142.0, 0.013050637911665313
1143.0, 0.013313226844288793
1144.0, 0.01336157500816331
1145.0, 0.013887839660833555
1146.0, 0.013375849885972822
1147.0, 0.013459993947621905
1148.0, 0.012280661672949644
1149.0, 0.013682270350877533
1150.0, 0.014693459407013543
1151.0, 0.014323724224194546
1152.0, 0.014903227745244904
1153.0, 0.015141624480385125
1154.0, 0.015468672163764088
1155.0, 0.015011089220789609
1156.0, 0.015245769419356738
1157.0, 0.01694388789111261
1158.0, 0.01731898558573961
1159.0, 0.01730784621229808
1160.0, 0.01579026071787523
1161.0, 0.01790771349661346
1162.0, 0.015901336100365284
1163.0, 0.01706853682203501
1164.0, 0.016408848900874178
1165.0, 0.017600020330955764
1166.0, 0.016854059107741036
1167.0, 0.015796254257624803
1168.0, 0.014702705040582891
1169.0, 0.014100288488374961
1170.0, 0.015882203191600323
1171.0, 0.014065052653702333
1172.0, 0.012812910160375491
1173.0, 0.01511152433866584
1174.0, 0.015389120285356455
1175.0, 0.015885452297157588
1176.0, 0.013593675037657186
1177.0, 0.012663914256664249
1178.0, 0.01353523243523549
1179.0, 0.014178648514787137
1180.0, 0.014630273097183732
1181.0, 0.01283387401763747
1182.0, 0.009579325788356425
1183.0, 0.011294104989204185
1184.0, 0.009930395895815998
1185.0, 0.012282586633814612
1186.0, 0.01145021046403924
1187.0, 0.01105196232402892
1188.0, 0.012668881527081986
1189.0, 0.01128281656181703
1190.0, 0.00959173737417844
1191.0, 0.009118046528028056
1192.0, 0.009208115667517463
1193.0, 0.008881361514074659
1194.0, 0.008562627914753545
1195.0, 0.008878142906063015
1196.0, 0.00854888388346869
1197.0, 0.007661566938486197
1198.0, 0.008369998583572942
1199.0, 0.008537803117802648
1200.0, 0.007292403882554939
1201.0, 0.007462779326989306
1202.0, 0.006260306067058349
1203.0, 0.006848411346940789
1204.0, 0.00700061746094624
1205.0, 0.005801865790345136
1206.0, 0.004937653432726931
1207.0, 0.0048813730154630966
1208.0, 0.004804099157281196
1209.0, 0.005228705036975271
1210.0, 0.005960022547430411
1211.0, 0.006287538436768556
1212.0, 0.004351598337563445
1213.0, 0.006857829925605586
1214.0, 0.005999600685518466
1215.0, 0.0033281337939924348
1216.0, 0.0038728319735557
1217.0, 0.004367644448620437
1218.0, 0.0036614134733066704
1219.0, 0.0026022410969376844
1220.0, 0.0021015422056453277
1221.0, 0.0027368182400512304
1222.0, 0.003414758311546075
1223.0, 0.0038471764017451843
1224.0, 0.0035209299925125204
1225.0, 0.004525754192441259
1226.0, 0.003940140840687773
1227.0, 0.003797494558028682
1228.0, 0.0036611674560770397
1229.0, 0.0020125031290113646
1230.0, 0.0020496437286635317
1231.0, 0.0020619633204818923
1232.0, 0.0012339818937543833
1233.0, 0.0011386645978355779
1234.0, 0.0014462324602336515
1235.0, 0.0008530850180819739
1236.0, 0.0008008983210429522
1237.0, 0.00023680318897358724
1238.0, 0.0002749062881880301
1239.0, 0.0015286140292936584
1240.0, 0.0005846041665378916
1241.0, 0.00027973385398889674
1242.0, 0.0012915129024874295
1243.0, 0.0012756734482540027
1244.0, 0.0017765089835478998
1245.0, 0.001487808354259382
1246.0, 0.0005291209114571709
1247.0, 0.0008210632138277915
1248.0, 0.0013237903748754846
1249.0, 0.0002580951486146981
1250.0, 0.0003748162564862545
1251.0, 0.00031446858495403035
1252.0, 0.002082177034064964
1253.0, 0.0004210932551318451
1254.0, 0.0015917850747632408
1255.0, 0.0023980362680122414
1256.0, 0.000822005522815783
1257.0, 0.00017351438017413265
1258.0, 0.0009025319662352535
1259.0, 0.0011701462271178425
1260.0, 0.0008034019171514879
1261.0, 0.0007463723484241908
1262.0, 0.0007126930151086874
1263.0, 0.0003227612682882079
1264.0, 0.0006037797892256467
1265.0, 0.0004620605809875968
1266.0, 9.092010096015208e-05
1267.0, 0.00047178999797871276
1268.0, 0.0005006863865135416
1269.0, 0.001097792855821743
1270.0, 0.0013040570637979252
1271.0, 0.0014692335884530488
1272.0, 0.0017020187141292078
1273.0, 0.0009797801686155976
1274.0, 0.0007346196306276618
1275.0, 0.0006884230792074783
1276.0, 0.00028861053737302847
1277.0, 0.0007397009885519741
1278.0, 0.0015941497651348019
1279.0, 0.0018175877030228648
1280.0, 0.0014559657219312798
1281.0, 0.0014651007916535862
1282.0, 0.0011965568823658654
1283.0, 0.0002640024026453715
1284.0, 0.0009571188044528753
1285.0, 0.0016502131985552235
1286.0, 0.0005938238870920578
1287.0, 0.0013817045147152677
1288.0, 0.003015669407914574
1289.0, 0.0032241664455739272
1290.0, 0.0030953664420753893
1291.0, 0.0022527274965994377
1292.0, 0.0009255882055974258
1293.0, 0.002095979977975898
1294.0, 0.0017176229557809945
1295.0, 0.002503268917968777
1296.0, 0.0030087581492032507
1297.0, 0.0039000980177687546
1298.0, 0.003979469365556757
1299.0, 0.0017799980562961777
1300.0, 0.00222461924298219
1301.0, 0.0015405250717579469
1302.0, 0.0027748095356660164
1303.0, 0.002558868760357162
1304.0, 0.0018986034341908788
1305.0, 0.0012039480180389857
1306.0, 0.0018776261126349303
1307.0, 0.003936089517356157
1308.0, 0.004179342841445415
1309.0, 0.0036024509770250838
1310.0, 0.0018622398480395215
1311.0, 0.0013944545880840067
1312.0, 0.0012918958916087319
1313.0, 0.0005026675492730625
1314.0, 0.003681564689557452
1315.0, 0.0034009021505569613
1316.0, 0.00256037202375875
1317.0, 0.002442408799815752
1318.0, 0.0016180741795748606
1319.0, 0.0017475238809470852
1320.0, 0.002910396333065543
1321.0, 0.0034874806791514276
1322.0, 0.0033911698383449406
1323.0, 0.003489978075969876
1324.0, 0.003377196272280239
1325.0, 0.0030466553098592876
1326.0, 0.003747302562549874
1327.0, 0.00261489284981704
1328.0, 0.0038541517516275663
1329.0, 0.004228791503493143
1330.0, 0.0035500026101696076
1331.0, 0.0028493837330494367
1332.0, 0.004052309542234966
1333.0, 0.004202615785755524
1334.0, 0.004735253870686582
1335.0, 0.005127724582405393
1336.0, 0.00434683358745182
1337.0, 0.0038675941774188346
1338.0, 0.0037647030027649396
1339.0, 0.0034093833391625654
1340.0, 0.0032817869957037847
1341.0, 0.0032634872992517772
1342.0, 0.00316857232955092
1343.0, 0.0030061390431778212
1344.0, 0.002730245865792647
1345.0, 0.0024678052396025114
1346.0, 0.0030703818026919937
1347.0, 0.0029754533033846424
1348.0, 0.0038196654362918337
1349.0, 0.005058348496734883
1350.0, 0.005820853564915141
1351.0, 0.005674838075457324
1352.0, 0.005413853651600934
1353.0, 0.004449600806742617
1354.0, 0.004372461278108028
1355.0, 0.00433647217014162
1356.0, 0.0041119607202449796
1357.0, 0.004718969399567142
1358.0, 0.005106691895773783
1359.0, 0.00563305303611544
1360.0, 0.0068653889825321425
1361.0, 0.006436338024973594
1362.0, 0.005034860184822033
1363.0, 0.005461996078774329
1364.0, 0.0035248244511130408
1365.0, 0.007161090588979236
1366.0, 0.004413779868955704
1367.0, 0.003287847306804152
1368.0, 0.006012429775306238
1369.0, 0.00483339152464694
1370.0, 0.003820222046130811
1371.0, 0.004240555797864985
1372.0, 0.005072985740957385
1373.0, 0.005740591684973013
1374.0, 0.006213065752766723
1375.0, 0.006324215172641942
1376.0, 0.005648891761402479
1377.0, 0.00468389275204244
1378.0, 0.004227500271101033
1379.0, 0.0036890048686881896
1380.0, 0.002725617234036091
1381.0, 0.00443696315734403
1382.0, 0.003374175767392533
1383.0, 0.003687825700522322
1384.0, 0.005247336120786189
1385.0, 0.00409958119502641
1386.0, 0.005429925714452015
1387.0, 0.004870333874279297
1388.0, 0.004071494890950058
1389.0, 0.004177918921079714
1390.0, 0.004457227734294129
1391.0, 0.004386944756921351
1392.0, 0.003482154691127946
1393.0, 0.0037234128079372338
1394.0, 0.005282124360486345
1395.0, 0.005375044456136205
1396.0, 0.004307675884455888
1397.0, 0.002945114441930988
1398.0, 0.004867345578846517
1399.0, 0.004286960073443191
1400.0, 0.005031845226275667
1401.0, 0.006526443998146387
1402.0, 0.0028536486788322112
1403.0, 0.004655730356331829
1404.0, 0.0030303430040835564
1405.0, 0.00508718042296255
1406.0, 0.003099671920701328
1407.0, 0.003267449319616589
1408.0, 0.0037336567291466746
1409.0, 0.003784016478835929
1410.0, 0.00243910491950417
1411.0, 0.003170358705684023
1412.0, 0.0031206587249019047
1413.0, 0.0023801614361325186
1414.0, 0.0036268517922752085
1415.0, 0.0033134981925755647
1416.0, 0.003049536004589198
1417.0, 0.0037753291402827884
1418.0, 0.001036376556310433
1419.0, 0.00022711860729419326
1420.0, 0.000719859279847874
1421.0, 0.001360860446676131
1422.0, 0.0006806411504425547
1423.0, 0.0004692735228207944
1424.0, 0.0005977459016684716
1425.0, 0.0008874881063568239
1426.0, 0.0005447500476285625
1427.0, 0.0008460169067727514
1428.0, 0.0013909233750599003
1429.0, 0.0011985887710175443
1430.0, 0.0021139563174372416
1431.0, 0.0020307067693075796
1432.0, 0.0007790280028605695
1433.0, 0.00021213340010211315
1434.0, 0.0010310189642021516
1435.0, 0.00143757784611283
1436.0, 0.0005900609647297809
1437.0, 0.0003092620085657362
1438.0, 0.00019542003423675443
1439.0, 0.0006466823304491076
1440.0, 0.0010829872283365635
1441.0, 0.0015693493991091256
1442.0, 0.001747010187742962
1443.0, 0.0012304239141970423
1444.0, 0.0024973645058107355
1445.0, 0.0008143255520324989
1446.0, 0.003640475782771326
1447.0, 0.001296530157273333
1448.0, 0.0005312188413185279
1449.0, 0.002147686087954405
1450.0, 0.002336990027126853
1451.0, 0.002352507968234057
1452.0, 0.0032627457759646728
1453.0, 0.002924120866518028
1454.0, 0.0017838459843097934
1455.0, 0.0024196462365930252
1456.0, 0.0034518498974893783
1457.0, 0.0036982311926028956
1458.0, 0.005125692886485201
1459.0, 0.0075072567453265395
1460.0, 0.008450746578514148
1461.0, 0.006466656381754407
1462.0, 0.0027444418250731264
1463.0, 0.004062801137538388
1464.0, 0.006370647077362523
1465.0, 0.006057522615478085
1466.0, 0.007442542434177099
1467.0, 0.0068306710133887736
1468.0, 0.006731634963158621
1469.0, 0.004902510449277544
1470.0, 0.003621876839735835
1471.0, 0.003472023279765899
1472.0, 0.005149362666691575
1473.0, 0.0037713227973503417
1474.0, 0.005359066096875885
1475.0, 0.0064311664896730195
1476.0, 0.005591805560346096
1477.0, 0.005408328259068933
1478.0, 0.005283220756826841
1479.0, 0.007149318262026685
1480.0, 0.008300383885443442
1481.0, 0.008459383256576724
1482.0, 0.008071736548555735
1483.0, 0.007571334517757645
1484.0, 0.00887252669765527
1485.0, 0.009046795939202651
1486.0, 0.010513938653734305
1487.0, 0.011133530276759635
1488.0, 0.010910107476297386
1489.0, 0.01107989561795479
1490.0, 0.010448612654847993
1491.0, 0.01037164858855185
1492.0, 0.009974178843593045
1493.0, 0.00991504308553938
1494.0, 0.010671904995652196
1495.0, 0.010234357444729633
1496.0, 0.011625419182600136
1497.0, 0.010425475052881996
1498.0, 0.009251405075548912
1499.0, 0.009388485312950933
1500.0, 0.010530513745604285
1501.0, 0.011227839151877297
1502.0, 0.011950619327697445
1503.0, 0.012479902124077067
1504.0, 0.013650037515171144
1505.0, 0.013692232308738646
1506.0, 0.013701284306895867
1507.0, 0.014585091671993013
1508.0, 0.014513851925951513
1509.0, 0.013715712832348877
1510.0, 0.013391948144863441
1511.0, 0.012938274473177476
1512.0, 0.012331676766337606
1513.0, 0.011961422940996063
1514.0, 0.01146043847475409
1515.0, 0.011099588455663686
1516.0, 0.011138748912619139
1517.0, 0.010670750850432266
1518.0, 0.011549069321934191
1519.0, 0.010925890547596726
1520.0, 0.011101029176574588
1521.0, 0.011934951356386416
1522.0, 0.012899531511463532
1523.0, 0.013628043911297447
1524.0, 0.010310673082058106
1525.0, 0.011182444281405754
1526.0, 0.008572532100284172
1527.0, 0.009183173277414431
1528.0, 0.010534727013263065
1529.0, 0.009559530437201052
1530.0, 0.008047180757701106
1531.0, 0.008691100579667712
1532.0, 0.008508867296632224
1533.0, 0.00663587583627511
1534.0, 0.006023793315099377
1535.0, 0.005760920397490526
1536.0, 0.005335364259843631
1537.0, 0.0064147458857730785
1538.0, 0.006035276121681456
1539.0, 0.0050920201639320034
1540.0, 0.004578560767524106
1541.0, 0.003770712865941345
1542.0, 0.004104277515700578
1543.0, 0.004902352976099916
1544.0, 0.005964978853822496
1545.0, 0.0039806121633768335
1546.0, 0.001642978306165626
1547.0, 0.000680783146421871
1548.0, 0.0022910112232926907
1549.0, 0.002360653673044718
1550.0, 0.0049504851279233725
1551.0, 0.004122501792442107
1552.0, 0.008366320764397769
1553.0, 0.008400401605549397
1554.0, 0.01230692982592499
1555.0, 0.012854988832113473
1556.0, 0.008296165299977318
1557.0, 0.005678061225995652
1558.0, 0.004519296280956811
1559.0, 0.001102827764387783
1560.0, 0.00026450874296233304
1561.0, 0.0002559861599584122
1562.0, 0.0011203327296177936
1563.0, 0.0009034741181182336
1564.0, 0.0012857749473193763
1565.0, 0.0016045748030342555
1566.0, 0.0009415107805000074
1567.0, 0.0019098852920955054
1568.0, 0.0007933878867636216
1569.0, 0.001084519868596916
1570.0, 0.0006214617524849135
1571, 0.0
1572, 0.0
1573, 0.0
1574, 0.0
1575, 0.0
1576, 0.0
1577, 0.0
1578, 0.0
1579, 0.0
1580, 0.0
1581, 0.0
1582, 0.0
1583, 0.0
1584, 0.0
1585, 0.0
1586, 0.0
1587, 0.0
1588, 0.0
1589, 0.0
1590, 0.0
1591, 0.0
1592, 0.0
1593, 0.0
1594, 0.0
1595, 0.0
1596, 0.0
1597, 0.0
1598, 0.0
1599, 0.0
