30, 0.0
31, 0.0
32, 0.0
33, 0.0
34, 0.0
35, 0.0
36, 0.0
37, 0.0
38, 0.0
39, 0.0
40, 0.0
41, 0.0
42, 0.0
43, 0.0
44, 0.0
45, 0.0
46, 0.0
47, 0.0
48, 0.0
49, 0.0
50, 0.0
51, 0.0
52, 0.0
53, 0.0
54, 0.0
55, 0.0
56, 0.0
57, 0.0
58, 0.0
59, 0.0
60, 0.0
61, 0.0
62, 0.0
63, 0.0
64, 0.0
65, 0.0
66, 0.0
67, 0.0
68, 0.0
69, 0.0
70, 0.0
71, 0.0
72, 0.0
73, 0.0
74, 0.0
75, 0.0
76, 0.0
77, 0.0
78, 0.0
79, 0.0
80, 0.0
81, 0.0
82, 0.0
83, 0.0
84, 0.0
85, 0.0
86, 0.0
87, 0.0
88, 0.0
89, 0.0
90, 0.0
91, 0.0
92, 0.0
93.0, 2.9752179760010434e-05
94.0, 8.407774286827421e-05
95.0, 0.00040930638763373757
96.0, 0.0003289389418217012
97.0, 6.2136412039808935e-06
98.0, 8.86916565960085e-05
99.0, 0.0002693990818577695
100.0, 0.00030994620506086577
101.0, 0.00027414530536495657
102.0, 0.00014915883035409607
103.0, 0.0003108558490211112
104.0, 0.0002524359412789024
105.0, 6.339206449479856e-05
106.0, 1.3412166140255971e-05
107.0, 0.0001714865643067185
108.0, 7.435272987639245e-05
109.0, 0.00014338355380379025
110.0, 0.0002233821782678495
111.0, 0.00013611094318979292
112.0, 5.5241225779900007e-05
113.0, 7.095518743597824e-05
114.0, 0.00013715302474643376
115.0, 5.4599220973202854e-05
116.0, 7.290271133267821e-05
117.0, 0.00033508269648312844
118.0, 0.00047146922875570754
119.0, 0.0001085130958117809
120.0, 0.00025385167216831773
121.0, 0.0002275858267387886
122.0, 0.00023662476766528865
123.0, 0.000624685116481191
124.0, 0.0007311939236691768
125.0, 0.0005080201509005886
126.0, 0.00046239893507054545
127.0, 0.000808656278217778
128.0, 0.0010050544578802253
129.0, 0.0012425508313670393
130.0, 0.0014057487013076106
131.0, 0.001466439056897333
132.0, 0.001581016808325569
133.0, 0.0018675006336932392
134.0, 0.001693879037288681
135.0, 0.0014531148231793445
136.0, 0.001978508634645972
137.0, 0.0020279322157682926
138.0, 0.002001122143422091
139.0, 0.002041900658755517
140.0, 0.0020893493358896064
141.0, 0.0019524869579306877
142.0, 0.0019535847056271934
143.0, 0.0020365169034112494
144.0, 0.0021820109836477933
145.0, 0.002745528822529788
146.0, 0.0028736126949452895
147.0, 0.0026618065699174232
148.0, 0.0024571769502165397
149.0, 0.0027037774105588435
150.0, 0.0029659167755607648
151.0, 0.003374481568099901
152.0, 0.0037617590509573815
153.0, 0.003940140296390105
154.0, 0.004954365401079969
155.0, 0.006729218876064636
156.0, 0.008546149587400317
157.0, 0.009774042028360574
158.0, 0.010135309619658708
159.0, 0.010569514564594306
160.0, 0.011434357558049196
161.0, 0.012586500744344559
162.0, 0.013705350333837489
163.0, 0.015015783050015715
164.0, 0.016727161281458677
165.0, 0.018749735711723805
166.0, 0.021088580558836355
167.0, 0.024441931809266994
168.0, 0.028022737067919183
169.0, 0.03368476491161424
170.0, 0.04373449009514444
171.0, 0.059899358889014265
172.0, 0.08283285759430224
173.0, 0.11736603475221581
174.0, 0.14351867249361963
175.0, 0.13006334991094473
176.0, 0.07701274272661035
177.0, 0.037784862233353166
178.0, 0.019804409787683858
179.0, 0.012215341805149613
180.0, 0.00863690722969204
181.0, 0.006353621387320227
182.0, 0.004870416480075537
183.0, 0.00400744337311453
184.0, 0.003376196463696444
185.0, 0.002800141305360641
186.0, 0.0024269801993330397
187.0, 0.0021544392860121148
188.0, 0.0017844798722907033
189.0, 0.0014337475495472137
190.0, 0.0013630781920728964
191.0, 0.0011905300987723943
192.0, 0.000815557639541836
193.0, 0.0009810517806647932
194.0, 0.000683986026525598
195.0, 0.0003968182813889943
196.0, 0.0003961754018154388
197.0, 0.0004521247864141694
198.0, 0.000524421232611102
199.0, 0.0004015406023074398
200.0, 0.0001688814800046468
201.0, 2.3596788727486293e-05
202.0, 0.00011766515031427937
203.0, 9.670184484076646e-05
204.0, 5.362330945503204e-05
205.0, 0.00014222980462496354
206.0, 0.00017832280368253384
207.0, 0.0002966750782847609
208.0, 0.0003072596251511537
209.0, 0.00020184800892198787
210.0, 6.245451722624651e-05
211.0, 0.00026986385400931104
212.0, 0.00046124883332113333
213.0, 0.0006699634830695548
214.0, 0.001022411233785546
215.0, 0.001559393847447158
216.0, 0.002542122354321484
217.0, 0.003871978980110446
218.0, 0.005609584746970646
219.0, 0.007859168886347639
220.0, 0.009699318591111167
221.0, 0.010915306328171448
222.0, 0.012128048633029949
223.0, 0.013720953891266319
224.0, 0.01538984299675826
225.0, 0.017579550919637883
226.0, 0.02047227959285396
227.0, 0.02437638230613311
228.0, 0.029519075788323176
229.0, 0.03568077371215308
230.0, 0.041197804723755775
231.0, 0.04624971802953321
232.0, 0.05220035453917814
233.0, 0.06238708066776702
234.0, 0.07973378733403906
235.0, 0.1067267567441421
236.0, 0.1375367081833336
237.0, 0.1523292613031038
238.0, 0.11170792670678253
239.0, 0.06329015057938583
240.0, 0.03080777797975437
241.0, 0.016751990354977764
242.0, 0.010706378032800386
243.0, 0.006875561181520028
244.0, 0.004683973247876356
245.0, 0.00341251226258321
246.0, 0.0023519875773478196
247.0, 0.0021048183275596817
248.0, 0.0021066145778223955
249.0, 0.002019666652479588
250.0, 0.001722159495011831
251.0, 0.001323842259635487
252.0, 0.001278295396385692
253.0, 0.0012525313141410897
254.0, 0.0012907358469050258
255.0, 0.0015484976874566038
256.0, 0.0018684590913763547
257.0, 0.0022078444677682777
258.0, 0.0027786403440118955
259.0, 0.00361356373216564
260.0, 0.004697810357272486
261.0, 0.006962223596918205
262.0, 0.010660428717433319
263.0, 0.0156466481580044
264.0, 0.02152597046203078
265.0, 0.027841177079317048
266.0, 0.025327038546450988
267.0, 0.016103758680505474
268.0, 0.006726335343707888
269.0, 0.0026175120704758532
270.0, 0.0006902399219055637
271.0, 0.0005756750360459109
272.0, 0.0013824477949336879
273.0, 0.001762709699778849
274.0, 0.002033216113432412
275.0, 0.0018440771984549213
276.0, 0.0017751391700181359
277.0, 0.0019443340647885448
278.0, 0.002043967632705075
279.0, 0.0017221835236262378
280.0, 0.0011439692554344903
281.0, 0.0008469278806175163
282.0, 0.0006915501737321961
283.0, 0.00014517378686557074
284.0, 0.00015592589089920717
285.0, 0.0005694721080369335
286.0, 0.000996947452088584
287.0, 0.00144272062050566
288.0, 0.0023411230345997303
289.0, 0.003555802695600655
290.0, 0.004930458980419444
291.0, 0.006446272207534059
292.0, 0.00856356134090894
293.0, 0.012291364838902157
294.0, 0.016324592676723038
295.0, 0.020428216901409283
296.0, 0.024035041598578097
297.0, 0.02593748238059562
298.0, 0.02433298340142906
299.0, 0.021109545204106416
300.0, 0.017867318925575984
301.0, 0.015813001995583303
302.0, 0.015555756565067172
303.0, 0.016299195904067247
304.0, 0.018344939084118318
305.0, 0.021806119453623478
306.0, 0.026983767607803827
307.0, 0.03499107649235975
308.0, 0.04589358882312224
309.0, 0.059827838673459886
310.0, 0.0777509951286706
311.0, 0.09886980022809343
312.0, 0.11877396212237734
313.0, 0.11834066816991204
314.0, 0.09533111088275335
315.0, 0.06287067741038904
316.0, 0.039933819419824865
317.0, 0.02802812842876032
318.0, 0.022035035085537814
319.0, 0.019950834628524594
320.0, 0.02091292478339779
321.0, 0.02321387470391239
322.0, 0.028055991220085414
323.0, 0.03421097976193528
324.0, 0.04123842304783447
325.0, 0.047634501234615115
326.0, 0.04664276309015194
327.0, 0.03736848809281103
328.0, 0.027508307454331086
329.0, 0.021393303807265018
330.0, 0.019572603751902215
331.0, 0.019472573358244
332.0, 0.021507686073088735
333.0, 0.025536663609688325
334.0, 0.03156907857267144
335.0, 0.03975691525833997
336.0, 0.048595649182060816
337.0, 0.0567967177361723
338.0, 0.06477195346008831
339.0, 0.07347556479691984
340.0, 0.08415398458171719
341.0, 0.0967098590437355
342.0, 0.11164748478312866
343.0, 0.12992732659139727
344.0, 0.153184096569946
345.0, 0.18307088335419297
346.0, 0.22228462714210917
347.0, 0.27333357972111605
348.0, 0.3415835275567636
349.0, 0.4296859897087651
350.0, 0.5278090806366759
351.0, 0.6316930915440135
352.0, 0.7049857721078291
353.0, 0.7047389621057932
354.0, 0.6099535725053082
355.0, 0.47796175155295617
356.0, 0.3710252258057034
357.0, 0.30199054392438723
358.0, 0.2649015385732849
359.0, 0.25167577810754693
360.0, 0.2523552007121238
361.0, 0.263733489752572
362.0, 0.28503739479798884
363.0, 0.3179984259651079
364.0, 0.3662079753483384
365.0, 0.4335376288430237
366.0, 0.5230578905593556
367.0, 0.6339694955118521
368.0, 0.7589757346422288
369.0, 0.8806435103797933
370.0, 0.9749181090572046
371.0, 0.994252858196473
372.0, 0.9236821218185924
373.0, 0.7817493362287625
374.0, 0.6163025383127543
375.0, 0.4735219589705811
376.0, 0.364029571781884
377.0, 0.2845208517548475
378.0, 0.22882683548644078
379.0, 0.1919146714100841
380.0, 0.16514838651583527
381.0, 0.146030564566616
382.0, 0.13286834569273373
383.0, 0.12162306020617018
384.0, 0.1057716748735835
385.0, 0.08642595047610292
386.0, 0.06853334156941904
387.0, 0.053891172788754625
388.0, 0.04261504002601678
389.0, 0.03563087388950836
390.0, 0.030253246127944614
391.0, 0.025721446843527073
392.0, 0.022127241740345895
393.0, 0.01954337566275395
394.0, 0.017624096614019716
395.0, 0.01548249507196474
396.0, 0.013602051826912221
397.0, 0.011866566666900464
398.0, 0.01010334396239939
399.0, 0.00893550969826797
400.0, 0.007759712061014526
401.0, 0.006630709115746937
402.0, 0.005747933616242736
403.0, 0.005211757070078893
404.0, 0.004915883276239107
405.0, 0.004247852270284473
406.0, 0.0036195964630676707
407.0, 0.0032616884569834598
408.0, 0.0029988108663990087
409.0, 0.00218701224953238
410.0, 0.0022391565146994683
411.0, 0.0018878489099253863
412.0, 0.0012957998466522828
413.0, 0.0012537776686576939
414.0, 0.001241287343600456
415.0, 0.0008585896070840687
416.0, 0.0005065499582560362
417.0, 0.00014250190066946456
418.0, 0.00028178894390784804
419.0, 0.00036065490902005673
420.0, 0.0007667518329151397
421.0, 0.0008085332280978863
422.0, 0.0008043602803559145
423.0, 0.0011037569862108155
424.0, 0.001283982482526092
425.0, 0.0012225516062501559
426.0, 0.0012080402598980574
427.0, 0.0013319016010244975
428.0, 0.0014220995711107553
429.0, 0.001169476956248087
430.0, 0.0013448264903957244
431.0, 0.0013609715421530905
432.0, 0.0012985176190199856
433.0, 0.001220429526973481
434.0, 0.0008446703471401541
435.0, 0.0008774285725150002
436.0, 0.0002909801266366263
437.0, 0.0005170855338287653
438.0, 0.0007783632356822832
439.0, 0.0012521886685249648
440.0, 0.0016647995776685198
441.0, 0.0022444660843192643
442.0, 0.0029533371154835514
443.0, 0.003719272369484575
444.0, 0.004633912135481656
445.0, 0.005983833633047893
446.0, 0.007753489984904349
447.0, 0.01010770382285726
448.0, 0.012779336856955906
449.0, 0.015368736695348188
450.0, 0.01854675826107282
451.0, 0.021692510823912926
452.0, 0.02400788093135589
453.0, 0.02416409793586301
454.0, 0.021179564564357135
455.0, 0.016161709492403267
456.0, 0.011023108479679229
457.0, 0.00701552465498069
458.0, 0.004343291960806195
459.0, 0.002666856303166259
460.0, 0.0015423617289455256
461.0, 0.0011744782985918317
462.0, 0.000627999547379438
463.0, 9.331106536437226e-05
464.0, 0.00011885359329036221
465.0, 0.00027000082718737096
466.0, 0.00038681403329700575
467.0, 0.0006237532327115622
468.0, 0.0005157433601851405
469.0, 6.029713647589028e-05
470.0, 0.00026705485879385316
471.0, 0.0008425519524201809
472.0, 0.0013097258712443465
473.0, 0.0018344072644212457
474.0, 0.0025957277221870623
475.0, 0.003668912149540865
476.0, 0.005063033796468237
477.0, 0.006626047520173097
478.0, 0.008412643683916986
479.0, 0.010152622016865948
480.0, 0.011907296272624705
481.0, 0.014456783023073214
482.0, 0.017279562526361036
483.0, 0.020008139227499323
484.0, 0.023171942696767728
485.0, 0.027499805881666825
486.0, 0.03344687268242126
487.0, 0.04022660507310584
488.0, 0.04941018086012877
489.0, 0.059866498164683056
490.0, 0.07135572371893001
491.0, 0.08424040369936166
492.0, 0.09653306291870292
493.0, 0.10241532177509376
494.0, 0.0995830673404727
495.0, 0.08933382709942955
496.0, 0.07537919967561385
497.0, 0.06275236377638133
498.0, 0.05243545841406312
499.0, 0.045969903840669894
500.0, 0.043451859619118696
501.0, 0.04359242493258235
502.0, 0.04480732204946174
503.0, 0.048039260240723414
504.0, 0.05156275822264628
505.0, 0.05713913713377697
506.0, 0.06552681892464954
507.0, 0.07622671254328887
508.0, 0.09059866984358252
509.0, 0.10948060505488581
510.0, 0.1347053290257487
511.0, 0.16584286358177577
512.0, 0.20229796749130835
513.0, 0.24524567579614476
514.0, 0.29188654472351533
515.0, 0.3314531910055879
516.0, 0.3505795174338616
517.0, 0.33806603999886664
518.0, 0.2920814047926044
519.0, 0.23215797948119565
520.0, 0.17666226374185318
521.0, 0.13202348319585117
522.0, 0.0994373860403906
523.0, 0.07698274314435717
524.0, 0.060317566489830006
525.0, 0.04861268506033231
526.0, 0.0393728330702072
527.0, 0.03265249477227732
528.0, 0.028243939711457874
529.0, 0.024187898162789056
530.0, 0.021091608942008386
531.0, 0.018519228079706032
532.0, 0.01604810207277208
533.0, 0.014229664543034011
534.0, 0.013537198482383009
535.0, 0.012770427233725937
536.0, 0.011671459480116438
537.0, 0.011175763963562815
538.0, 0.010937491523190937
539.0, 0.010649587332758354
540.0, 0.010776086577984562
541.0, 0.010321056191523513
542.0, 0.010410249713216713
543.0, 0.010699328321734617
544.0, 0.010951093917121364
545.0, 0.011493968470028855
546.0, 0.012573763121940643
547.0, 0.013342138126006535
548.0, 0.014889250770349078
549.0, 0.016563990656516293
550.0, 0.018072600259891332
551.0, 0.020378572886852693
552.0, 0.022512766776770336
553.0, 0.023224201917639752
554.0, 0.02264141214805783
555.0, 0.02062526308937065
556.0, 0.017187378633947505
557.0, 0.013584157459835716
558.0, 0.010304591927636981
559.0, 0.008241928107872417
560.0, 0.007137083523136829
561.0, 0.006365842354602675
562.0, 0.005825230457439415
563.0, 0.0062666108123025565
564.0, 0.006073275537870602
565.0, 0.006339609562306526
566.0, 0.007255949652697595
567.0, 0.008318674189476972
568.0, 0.009197959513711967
569.0, 0.011129457606782323
570.0, 0.013115293237912481
571.0, 0.01533129484853722
572.0, 0.01805346645350064
573.0, 0.021133126307110037
574.0, 0.024261775728678162
575.0, 0.02704662683991829
576.0, 0.02879233927716032
577.0, 0.027545077086618453
578.0, 0.023287960174712137
579.0, 0.018185131045331676
580.0, 0.013322708514630782
581.0, 0.009455032360488166
582.0, 0.006826123498926094
583.0, 0.005008323519498149
584.0, 0.0036071666413816108
585.0, 0.00287828660798095
586.0, 0.0024277752085877014
587.0, 0.0022493939894523917
588.0, 0.002169830681537083
589.0, 0.0019336405601644406
590.0, 0.0015358571185810068
591.0, 0.001487118271332929
592.0, 0.0011875918583787142
593.0, 0.0009250249924822066
594.0, 0.0006647692727952999
595.0, 0.0004141836064385561
596.0, 0.00035184362351608876
597.0, 0.00034405097712381533
598.0, 0.000309232833497583
599.0, 9.618974343468999e-05
600.0, 0.00019445685114683454
601.0, 5.709845292774977e-05
602.0, 1.557829410698487e-05
603.0, 1.178292341987199e-05
604.0, 9.244286446089377e-05
605.0, 9.091745425788526e-05
606.0, 0.00011166311159997296
607.0, 9.663552450470543e-05
608.0, 0.00034821468363421614
609.0, 0.00015707288125696024
610.0, 0.0003001190462568952
611.0, 0.0004588077504417931
612.0, 0.0004932605504227532
613.0, 0.0005299617820936377
614.0, 0.0003065764137764065
615.0, 0.00039461822576301566
616.0, 0.00038296851954410703
617.0, 0.0004693718018648787
618.0, 0.0005832134185216355
619.0, 0.00046089187647601026
620.0, 0.0004582723886107253
621.0, 0.0002011825411240606
622.0, 0.0003526139438654373
623.0, 0.00022529029081028463
624.0, 0.00014837842682709364
625.0, 5.03148235822354e-05
626.0, 0.0001969384471736659
627.0, 5.435875876669419e-05
628.0, 8.129925427726532e-05
629.0, 5.761460367141903e-05
630.0, 0.00011282884293015044
631.0, 0.0003664550015518553
632.0, 0.0005161226863577211
633.0, 0.00038611767810083677
634.0, 0.00037216371073902857
635.0, 0.0007255486444598199
636.0, 0.001052124463931678
637.0, 0.0006953619219863316
638.0, 0.0009056640735337043
639.0, 0.0009484288186122061
640.0, 0.0009860585665300145
641.0, 0.0011138487511044943
642.0, 0.0012032378621254715
643.0, 0.0011386577895623547
644.0, 0.0010480513463316783
645.0, 0.0012286091598027646
646.0, 0.0013771276778258186
647.0, 0.0014353647642938567
648.0, 0.0014635795176318812
649.0, 0.001466478640375574
650.0, 0.0015201145101491462
651.0, 0.0014914756352469266
652.0, 0.001550581706947924
653.0, 0.001676808784968549
654.0, 0.0017207914705945637
655.0, 0.0016572142485966682
656.0, 0.001672558649919824
657.0, 0.001568809875471817
658.0, 0.001560047648689239
659.0, 0.001740492815898753
660.0, 0.0018058435726112055
661.0, 0.0014627105461750287
662.0, 0.0016757843559778562
663.0, 0.002100074151380605
664.0, 0.002097643106881284
665.0, 0.0020125249370795714
666.0, 0.0021784798481640257
667.0, 0.0023721462507010614
668.0, 0.002086291182477816
669.0, 0.002084345818670195
670.0, 0.002100322786118015
671.0, 0.0021818301274270004
672.0, 0.0022883068245988197
673.0, 0.002186614129059012
674.0, 0.002126940662710451
675.0, 0.0021870705915743287
676.0, 0.0021889839732354512
677.0, 0.0020957535235654363
678.0, 0.0019410316223488044
679.0, 0.0018396592377564341
680.0, 0.001835694167628571
681.0, 0.0018746438600878742
682.0, 0.0018420990152783667
683.0, 0.0017691090275692373
684.0, 0.0017430099007592083
685.0, 0.0017736677812821258
686.0, 0.0017888881185948793
687.0, 0.0017991454270958507
688.0, 0.0016539063733943076
689.0, 0.001652140197973227
690.0, 0.0017052029321693199
691.0, 0.001676313706637164
692.0, 0.0017412858552236054
693.0, 0.0019287366672058172
694.0, 0.001896108413068037
695.0, 0.0020774798176853657
696.0, 0.0021162491466980757
697.0, 0.0019984160763450573
698.0, 0.002244834165101329
699.0, 0.0021831690727763704
700.0, 0.002404387168138056
701.0, 0.002184498170388396
702.0, 0.0021446016605723576
703.0, 0.0024772012349806925
704.0, 0.0026920343302099183
705.0, 0.002862560898233145
706.0, 0.0029116558105049544
707.0, 0.0028801827774352987
708.0, 0.0030274462605755655
709.0, 0.0032265932889307936
710.0, 0.0032873248910696325
711.0, 0.0033497789564537334
712.0, 0.0033226218237566115
713.0, 0.003333983825611708
714.0, 0.0032848205749517827
715.0, 0.0032267742202634468
716.0, 0.0032498022979996185
717.0, 0.003306402241972157
718.0, 0.003103053332352055
719.0, 0.003093002245649872
720.0, 0.0029409615693575335
721.0, 0.0030689040068158126
722.0, 0.0033276978997056586
723.0, 0.003168465170605138
724.0, 0.002859407515545447
725.0, 0.002807971347185643
726.0, 0.002770142417302789
727.0, 0.0026339660652576627
728.0, 0.00260700325311419
729.0, 0.0026782150344500494
730.0, 0.0024729754700754257
731.0, 0.002441069092787325
732.0, 0.002053883619781695
733.0, 0.0022441679532244504
734.0, 0.0023001612773079247
735.0, 0.002020714358836643
736.0, 0.001976745385772235
737.0, 0.001650039682589646
738.0, 0.0016773614699175559
739.0, 0.0016332070454706906
740.0, 0.0016023556390276257
741.0, 0.0017164663785077083
742.0, 0.001735485896310081
743.0, 0.001217464686203269
744.0, 0.0013376158789643496
745.0, 0.001368927520731539
746.0, 0.0011060491650163899
747.0, 0.0009961468889764457
748.0, 0.0011191232174473753
749.0, 0.001064127184900749
750.0, 0.0007320657670936438
751.0, 0.0005981174202014767
752.0, 0.0003443250716153415
753.0, 0.0004931963549102318
754.0, 0.0005130735155496108
755.0, 0.00013293848778419735
756.0, 3.671211337360485e-05
757.0, 0.00017069897740530968
758.0, 0.000118959062870549
759.0, 0.0003543000297536184
760.0, 0.0005199652526848227
761.0, 0.0005834743789467194
762.0, 0.0006515639522519561
763.0, 0.0003829128028172086
764.0, 0.0003434841019943342
765.0, 0.0006050581127896206
766.0, 0.0006846207318706469
767.0, 0.0006668774882079283
768.0, 0.0006819785748509707
769.0, 0.0006806880136195192
770.0, 0.0007417199589593785
771.0, 0.0006949076249492872
772.0, 0.0007447382228878818
773.0, 0.0007671669794618041
774.0, 0.0004814582525159121
775.0, 0.00022619465638317466
776.0, 0.0005225564106101322
777.0, 0.0002687520562521948
778.0, 0.0004472716715311841
779.0, 0.0004990552456790692
780.0, 0.000297606103869264
781.0, 0.00014039032091920097
782.0, 8.63893693738063e-05
783.0, 0.00013664342217234595
784.0, 0.0005077676208891006
785.0, 0.0008398078981771671
786.0, 0.001140212520890754
787.0, 0.0013428227699631512
788.0, 0.0015329663061921456
789.0, 0.0018878606136128997
790.0, 0.0024609709846176303
791.0, 0.0033765406866289194
792.0, 0.004312740525297442
793.0, 0.005193667974328481
794.0, 0.006046060512229648
795.0, 0.007093664543653122
796.0, 0.008573381375448453
797.0, 0.010323712847122904
798.0, 0.011594420507286948
799.0, 0.014005442626941759
800.0, 0.016326485510732094
801.0, 0.018918690825568032
802.0, 0.022364099453565153
803.0, 0.026293494690976343
804.0, 0.030552901615266703
805.0, 0.036251071860840464
806.0, 0.04212174417066218
807.0, 0.049214495240975126
808.0, 0.05751442897206879
809.0, 0.06722340324791914
810.0, 0.0790645108697172
811.0, 0.0926804556565768
812.0, 0.10770754472332156
813.0, 0.12445388850236282
814.0, 0.13991568746416952
815.0, 0.15046988429797328
816.0, 0.15365824010703588
817.0, 0.14812357718289182
818.0, 0.13409352018206197
819.0, 0.11591059564160876
820.0, 0.09635349611927968
821.0, 0.079487014274322
822.0, 0.06725770131683005
823.0, 0.05873395660036511
824.0, 0.052450062544208524
825.0, 0.04890479585882042
826.0, 0.04748034904652212
827.0, 0.04733586989658925
828.0, 0.04903470149595306
829.0, 0.05112657571732645
830.0, 0.05292947747199645
831.0, 0.055789375768766705
832.0, 0.060493879945380906
833.0, 0.06541426691589833
834.0, 0.0715221304153848
835.0, 0.08077050892524912
836.0, 0.09163045400235907
837.0, 0.10389255862680437
838.0, 0.11815707156278454
839.0, 0.13254034268895934
840.0, 0.14648147232642356
841.0, 0.1573487517970478
842.0, 0.1612926465098421
843.0, 0.15781410737457746
844.0, 0.14744094277949366
845.0, 0.13168299545250553
846.0, 0.11441863578765676
847.0, 0.10031947545947015
848.0, 0.0883638117979814
849.0, 0.07841524353103652
850.0, 0.07078160628714132
851.0, 0.06591647186297361
852.0, 0.06348376919018835
853.0, 0.06254168909059228
854.0, 0.0631081244755066
855.0, 0.06444581661887618
856.0, 0.06830149039844
857.0, 0.07337462647268597
858.0, 0.08035962730404517
859.0, 0.09040887947148368
860.0, 0.10387287169398766
861.0, 0.1206792517523793
862.0, 0.13912845053978054
863.0, 0.15996192403967402
864.0, 0.18403634758745258
865.0, 0.21143249725185362
866.0, 0.24541988990554492
867.0, 0.28842803884541945
868.0, 0.34060667003986395
869.0, 0.4073860294944416
870.0, 0.48665148768479094
871.0, 0.5824452937626673
872.0, 0.680829004956621
873.0, 0.7618875722406108
874.0, 0.7978654224265794
875.0, 0.7658005844666409
876.0, 0.6677677436037103
877.0, 0.5283659487782102
878.0, 0.40109574407939685
879.0, 0.2989415763898368
880.0, 0.22254638991678835
881.0, 0.16799100219945445
882.0, 0.12891851477515898
883.0, 0.10112871630595038
884.0, 0.08084089246567112
885.0, 0.06533455225249127
886.0, 0.053509748420955974
887.0, 0.04436216225615204
888.0, 0.037073041775382086
889.0, 0.031274376567638526
890.0, 0.026830577896199644
891.0, 0.023398481835807894
892.0, 0.020236719401635756
893.0, 0.01752310088478972
894.0, 0.015065277114355288
895.0, 0.013386859111595132
896.0, 0.011877872770712065
897.0, 0.010389707363434333
898.0, 0.009580255938275753
899.0, 0.008073659246836989
900.0, 0.007237746848370653
901.0, 0.006823725571324429
902.0, 0.005865906609884645
903.0, 0.00525771357131308
904.0, 0.00475694670695143
905.0, 0.003990202178091896
906.0, 0.004009498332534858
907.0, 0.003784420166053442
908.0, 0.0033646352548512577
909.0, 0.003052154318874767
910.0, 0.0029719128386557847
911.0, 0.002737206578417473
912.0, 0.00232908250757519
913.0, 0.001963539951856319
914.0, 0.0015240510213805278
915.0, 0.0013597042204749096
916.0, 0.0005952776217982296
917.0, 0.0006867966082180616
918.0, 0.0005793650157653918
919.0, 0.0005051103990878144
920.0, 0.00047454449999177913
921.0, 5.419295251356168e-05
922.0, 0.00010108428287853059
923.0, 0.0004277791641456635
924.0, 0.0003896126969267573
925.0, 0.00042627315540323993
926.0, 0.0003499420079877352
927.0, 0.00036321573862726884
928.0, 0.0005860299854840611
929.0, 0.0006852301612738887
930.0, 0.0007192132975439824
931.0, 0.0009835239026610408
932.0, 0.0008117214005954339
933.0, 0.0005877809281799686
934.0, 0.0006802374088638378
935.0, 0.0008491873696304454
936.0, 0.0008350391426241358
937.0, 0.0008260876348774596
938.0, 0.000987069433147364
939.0, 0.0007904242352561662
940.0, 0.0006040877468909282
941.0, 0.0004445994509357378
942.0, 0.00042753539071638404
943.0, 0.00033654788964334914
944.0, 9.272536265584271e-05
945.0, 0.00010939154166971188
946.0, 0.0002561239498341809
947.0, 0.00044206163034773375
948.0, 0.000569671328938888
949.0, 0.0006086257027532365
950.0, 0.0006780639346848588
951.0, 0.0007422849257424004
952.0, 0.0007540209682529538
953.0, 0.0008708118263951148
954.0, 0.0012501146172867903
955.0, 0.00158179902930517
956.0, 0.0016237681989347617
957.0, 0.0013778850797100852
958.0, 0.0016225138418329355
959.0, 0.0017435683737005146
960.0, 0.0017624809604080464
961.0, 0.001983058844048157
962.0, 0.0020450332297940843
963.0, 0.002263678406517247
964.0, 0.0022719043178176103
965.0, 0.002440080341459239
966.0, 0.0025828381744933543
967.0, 0.0027744672193837578
968.0, 0.0030380498731459858
969.0, 0.0032091276886397737
970.0, 0.003269922262809876
971.0, 0.0034550239970415875
972.0, 0.0034072931430032018
973.0, 0.0038071367174434233
974.0, 0.0040542612009003155
975.0, 0.004317460020352257
976.0, 0.004427640248197679
977.0, 0.004618732781203499
978.0, 0.004989287766082231
979.0, 0.004973571132296509
980.0, 0.0055749709347494725
981.0, 0.0062651890785272125
982.0, 0.0066414416603493035
983.0, 0.006991842149845653
984.0, 0.0076389657610348985
985.0, 0.008810407995604914
986.0, 0.009921965697341042
987.0, 0.01053876476576515
988.0, 0.012184558179226803
989.0, 0.014018051936667445
990.0, 0.016074984299658583
991.0, 0.019172392150854253
992.0, 0.02245080976270999
993.0, 0.026024020276025173
994.0, 0.030100788666227948
995.0, 0.03313936118746829
996.0, 0.03317023942016638
997.0, 0.030261626091777422
998.0, 0.024972973990995188
999.0, 0.019933811744942073
1000.0, 0.015296222096640427
1001.0, 0.011621937518996322
1002.0, 0.009297346411068486
1003.0, 0.0077958302890800335
1004.0, 0.006457294542731746
1005.0, 0.005348550309907552
1006.0, 0.004682182196016227
1007.0, 0.004223548879201411
1008.0, 0.0037473971314241454
1009.0, 0.0031135141152542132
1010.0, 0.0027406608630569755
1011.0, 0.002543983780687237
1012.0, 0.0023943065413530966
1013.0, 0.002301432656006073
1014.0, 0.002043241541636457
1015.0, 0.002223626482143753
1016.0, 0.0027486091776154175
1017.0, 0.0020433974622059074
1018.0, 0.0023232634948424954
1019.0, 0.0021542976619497384
1020.0, 0.0015785706333226626
1021.0, 0.0016242706276662715
1022.0, 0.001643936319885539
1023.0, 0.0014479267937743362
1024.0, 0.0011368015529094218
1025.0, 0.001068604947745
1026.0, 0.0012027109105173636
1027.0, 0.001432377717182479
1028.0, 0.0012891211453438921
1029.0, 0.001114063179620146
1030.0, 0.0011373551569269214
1031.0, 0.0009196093986538026
1032.0, 0.0006591855914901253
1033.0, 0.0006964348565899334
1034.0, 0.0007230097131286767
1035.0, 0.0006030135477338507
1036.0, 0.0006363661075143969
1037.0, 0.0004940230927891883
1038.0, 0.0003334846790824143
1039.0, 0.0003096281153388909
1040.0, 0.0002588233443457844
1041.0, 0.0002476314768263603
1042.0, 0.0003254690323984264
1043.0, 5.034222952148761e-05
1044.0, 8.672621682819591e-06
1045.0, 1.773900616037303e-05
1046.0, 0.00011091911097186122
1047.0, 8.856026770978917e-05
1048.0, 9.861316142491728e-05
1049.0, 9.264821227946378e-05
1050.0, 7.473017606732521e-05
1051.0, 9.938674128941599e-05
1052.0, 3.446839451388308e-05
1053.0, 6.795847475409166e-05
1054.0, 1.015150844979042e-05
1055.0, 0.00014461184704654047
1056.0, 6.573127325309947e-05
1057.0, 6.425463287876702e-05
1058.0, 0.00017906499264747436
1059.0, 9.410069155405295e-05
1060.0, 0.0003375703364762711
1061.0, 0.00044798270173048924
1062.0, 0.0005066358489989297
1063.0, 0.0005651394367321784
1064.0, 0.00043735461954861135
1065.0, 0.0008960274833218611
1066.0, 0.0011567946242456487
1067.0, 0.0009380595278416041
1068.0, 0.0009064072690046935
1069.0, 0.0010505926552284467
1070.0, 0.0011429142864936685
1071.0, 0.0013848654043387152
1072.0, 0.0016391323009606
1073.0, 0.0018888488179997648
1074.0, 0.001709467336682462
1075.0, 0.0016415164430621657
1076.0, 0.0020040367834551183
1077.0, 0.0022136670796459317
1078.0, 0.0021460894801382225
1079.0, 0.0024635786319056594
1080.0, 0.002488011868508065
1081.0, 0.0026267317871877887
1082.0, 0.002670201728172802
1083.0, 0.0028028032645605484
1084.0, 0.0029604370525697873
1085.0, 0.00312858170882586
1086.0, 0.0032659419016496977
1087.0, 0.003330750094749686
1088.0, 0.003364354646977336
1089.0, 0.0033545067699888775
1090.0, 0.0033163121668461372
1091.0, 0.003563850049028592
1092.0, 0.003465077817203785
1093.0, 0.003513053700057652
1094.0, 0.003637006231731063
1095.0, 0.0037736402150696647
1096.0, 0.0037551387650793635
1097.0, 0.003670146442990637
1098.0, 0.0037481972083670528
1099.0, 0.003807900744415056
1100.0, 0.00394248527133395
1101.0, 0.0038509693478765115
1102.0, 0.0037289123206463624
1103.0, 0.003899413034142476
1104.0, 0.003936113753356735
1105.0, 0.003745458604210817
1106.0, 0.0035044587871019867
1107.0, 0.0034578728259456637
1108.0, 0.0034834424139666663
1109.0, 0.0031444596445116177
1110.0, 0.003172125345452407
1111.0, 0.0031555565371309624
1112.0, 0.0029612929865978133
1113.0, 0.0027255863357808535
1114.0, 0.002515354464173722
1115.0, 0.002453840208526235
1116.0, 0.0024741309280520538
1117.0, 0.0022031042521817577
1118.0, 0.0017862057979833733
1119.0, 0.0017399914649969693
1120.0, 0.0017098728463183165
1121.0, 0.0015430164390628635
1122.0, 0.00109185455485864
1123.0, 0.0009904602091991225
1124.0, 0.001065011169594427
1125.0, 0.0010664028892971454
1126.0, 0.0009865469237278028
1127.0, 0.0007244070363952862
1128.0, 0.000525469026738607
1129.0, 0.0005614785876307943
1130.0, 0.0004131850347881912
1131.0, 0.0003516047279342265
1132.0, 0.00028351533502066136
1133.0, 3.9457905452813094e-05
1134.0, 0.00011414898054987185
1135.0, 0.00019193150442802062
1136.0, 0.00015638632007107997
1137.0, 0.00011643155371804723
1138.0, 9.51233202382196e-05
1139.0, 0.00011102899917465666
1140.0, 3.0524412886834797e-05
1141.0, 0.00013950099410687028
1142.0, 3.335304778495156e-05
1143.0, 1.2888221373812315e-05
1144.0, 3.15313858565888e-05
1145.0, 2.5145071461520692e-05
1146.0, 0.00011096016222356671
1147.0, 0.00024284734073281544
1148.0, 0.00030055237866531275
1149.0, 0.0002850614901306516
1150.0, 0.00016887538686363393
1151.0, 0.00016117542973607634
1152.0, 0.0003917982098831076
1153.0, 0.00046610795458949903
1154.0, 0.00043162447461989723
1155.0, 0.00025287730289832723
1156.0, 0.0005108948183279883
1157.0, 0.0005416248948821406
1158.0, 0.00046170309517860436
1159.0, 0.00048135329298169805
1160.0, 0.0007259903502795391
1161.0, 0.0010392687881186254
1162.0, 0.001065653998062123
1163.0, 0.000931252860599514
1164.0, 0.0008571467345081863
1165.0, 0.0012074974479730004
1166.0, 0.0011165426308210168
1167.0, 0.0011958542804729802
1168.0, 0.001560682049426272
1169.0, 0.0015322437580797012
1170.0, 0.001447266943382123
1171.0, 0.001619299767536081
1172.0, 0.0018856363180212534
1173.0, 0.0019534932130613023
1174.0, 0.0017858285234638885
1175.0, 0.0020740110075779805
1176.0, 0.0021611554027138654
1177.0, 0.0022210289221808043
1178.0, 0.002182625262611092
1179.0, 0.002254108141555097
1180.0, 0.0024433168212849607
1181.0, 0.0023771933117437884
1182.0, 0.002240288522610735
1183.0, 0.0024060285077704534
1184.0, 0.0025693661839096002
1185.0, 0.00242295772231064
1186.0, 0.002346923663322954
1187.0, 0.002384772814987594
1188.0, 0.0025475198575929765
1189.0, 0.0023350454520387385
1190.0, 0.0022550452907067753
1191.0, 0.002286510398661872
1192.0, 0.002318330556215414
1193.0, 0.0022470068733328975
1194.0, 0.0021198059455867575
1195.0, 0.002140914034843028
1196.0, 0.00209471568412513
1197.0, 0.001879332360839247
1198.0, 0.0020164630746999247
1199.0, 0.002082917475144914
1200.0, 0.002138726242860692
1201.0, 0.0020798214429160323
1202.0, 0.002060483720052652
1203.0, 0.0021122609133739667
1204.0, 0.00213440515890366
1205.0, 0.002064553410675159
1206.0, 0.0019285349939756533
1207.0, 0.0018896435450602156
1208.0, 0.001891925997620198
1209.0, 0.001863080213003779
1210.0, 0.0020062457222964915
1211.0, 0.0020448647247419457
1212.0, 0.0018049110151591575
1213.0, 0.0017802865479846647
1214.0, 0.0016468325990252387
1215.0, 0.0016290415315599878
1216.0, 0.0015184134154509565
1217.0, 0.0014305470635436071
1218.0, 0.0012464805924588317
1219.0, 0.0011915046249090342
1220.0, 0.0012728890252044313
1221.0, 0.0011114562465822854
1222.0, 0.0008793972160358515
1223.0, 0.0008296651817097635
1224.0, 0.0007203150063077
1225.0, 0.000784142046799003
1226.0, 0.0008480040488395567
1227.0, 0.0005647907564585186
1228.0, 0.0006641993864483891
1229.0, 0.0006006973927753232
1230.0, 0.0005628238964293966
1231.0, 0.0003856414229814822
1232.0, 0.0003184345780766526
1233.0, 0.0004035951656749054
1234.0, 0.00031808433697145367
1235.0, 0.0002627773585835153
1236.0, 6.544718063509236e-05
1237.0, 9.567622115717929e-05
1238.0, 3.573867525376914e-05
1239.0, 8.680836795894738e-06
1240.0, 0.00010475770794371396
1241.0, 0.00012741671026904672
1242.0, 3.668455232342924e-05
1243.0, 1.1474406333801653e-06
1244.0, 9.628056748241326e-06
1245.0, 1.9004058533357465e-05
1246.0, 4.575542862629461e-05
1247.0, 2.3656292173932802e-05
1248.0, 6.296251228814357e-05
1249.0, 2.0029172500391285e-05
1250.0, 2.369986142598329e-05
1251.0, 7.485855033748697e-05
1252.0, 5.67600307198734e-05
1253.0, 0.0019037931830256415
1254.0, 0.000829064560041414
1255.0, 0.00023523167154238965
1256.0, 1.6570391051131186e-05
1257.0, 0.00010790920174372305
1258.0, 3.7872020141310155e-05
1259.0, 5.925329020989234e-05
1260.0, 5.37847663602306e-05
1261.0, 0.00014192864813658492
1262.0, 0.00026315992513583757
1263.0, 8.575477418878394e-05
1264.0, 0.00021932504761730615
1265.0, 0.00033867997655164254
1266.0, 0.00022734109689006156
1267.0, 0.0003034633265223983
1268.0, 0.00030489364387519896
1269.0, 0.00036495949902816524
1270.0, 0.0002782798955776036
1271.0, 0.0003880919861646666
1272.0, 0.000576802266060904
1273.0, 0.0006275201573885284
1274.0, 0.0006492654179824038
1275.0, 0.0006791146202189507
1276.0, 0.0006477750148464823
1277.0, 0.0005641117310499652
1278.0, 0.0005770494535392543
1279.0, 0.00044651850560692663
1280.0, 0.0006274621077949096
1281.0, 0.0004613514327160786
1282.0, 0.00020918709986724067
1283.0, 0.00037585809360506225
1284.0, 0.000370028378572783
1285.0, 0.00033873203043630285
1286.0, 0.0005396495067091578
1287.0, 0.0006026369124459903
1288.0, 0.0004924059115885823
1289.0, 0.0003876963610093334
1290.0, 0.0002980302176817892
1291.0, 0.00038254815547374344
1292.0, 0.00032802733675661245
1293.0, 0.000351109062335211
1294.0, 0.00011884498069888712
1295.0, 0.0003795256956318865
1296.0, 0.00017008862801917338
1297.0, 5.309521064460249e-05
1298.0, 0.0001265459444667869
1299.0, 0.00021205524462193835
1300.0, 0.0002397614446445808
1301.0, 0.00024097854020852912
1302.0, 0.00010792912837140303
1303.0, 4.063565485008308e-05
1304.0, 8.212812390780318e-05
1305, 0.0
1306, 0.0
1307, 0.0
1308, 0.0
1309, 0.0
1310, 0.0
1311, 0.0
1312, 0.0
1313, 0.0
1314, 0.0
1315, 0.0
1316, 0.0
1317, 0.0
1318, 0.0
1319, 0.0
1320, 0.0
1321, 0.0
1322, 0.0
1323, 0.0
1324, 0.0
1325, 0.0
1326, 0.0
1327, 0.0
1328, 0.0
1329, 0.0
1330, 0.0
1331, 0.0
1332, 0.0
1333, 0.0
1334, 0.0
1335, 0.0
1336, 0.0
1337, 0.0
1338, 0.0
1339, 0.0
1340, 0.0
1341, 0.0
1342, 0.0
1343, 0.0
1344, 0.0
1345, 0.0
1346, 0.0
1347, 0.0
1348, 0.0
1349, 0.0
1350, 0.0
1351, 0.0
1352, 0.0
1353, 0.0
1354, 0.0
1355, 0.0
1356, 0.0
1357, 0.0
1358, 0.0
1359, 0.0
1360, 0.0
1361, 0.0
1362, 0.0
1363, 0.0
1364, 0.0
1365, 0.0
1366, 0.0
1367, 0.0
1368, 0.0
1369, 0.0
1370, 0.0
1371, 0.0
1372, 0.0
1373, 0.0
1374, 0.0
1375, 0.0
1376, 0.0
1377, 0.0
1378, 0.0
1379, 0.0
1380, 0.0
1381, 0.0
1382, 0.0
1383, 0.0
1384, 0.0
1385, 0.0
1386, 0.0
1387, 0.0
1388, 0.0
1389, 0.0
1390, 0.0
1391, 0.0
1392, 0.0
1393, 0.0
1394, 0.0
1395, 0.0
1396, 0.0
1397, 0.0
1398, 0.0
1399, 0.0
1400, 0.0
1401, 0.0
1402, 0.0
1403, 0.0
1404, 0.0
1405, 0.0
1406, 0.0
1407, 0.0
1408, 0.0
1409, 0.0
1410, 0.0
1411, 0.0
1412, 0.0
1413, 0.0
1414, 0.0
1415, 0.0
1416, 0.0
1417, 0.0
1418, 0.0
1419, 0.0
1420, 0.0
1421, 0.0
1422, 0.0
1423, 0.0
1424, 0.0
1425, 0.0
1426, 0.0
1427, 0.0
1428, 0.0
1429, 0.0
1430, 0.0
1431, 0.0
1432, 0.0
1433, 0.0
1434, 0.0
1435, 0.0
1436, 0.0
1437, 0.0
1438, 0.0
1439, 0.0
1440, 0.0
1441, 0.0
1442, 0.0
1443, 0.0
1444, 0.0
1445, 0.0
1446, 0.0
1447, 0.0
1448, 0.0
1449, 0.0
1450, 0.0
1451, 0.0
1452, 0.0
1453, 0.0
1454, 0.0
1455, 0.0
1456, 0.0
1457, 0.0
1458, 0.0
1459, 0.0
1460, 0.0
1461, 0.0
1462, 0.0
1463, 0.0
1464, 0.0
1465, 0.0
1466, 0.0
1467, 0.0
1468, 0.0
1469, 0.0
1470, 0.0
1471, 0.0
1472, 0.0
1473, 0.0
1474, 0.0
1475, 0.0
1476, 0.0
1477, 0.0
1478, 0.0
1479, 0.0
1480, 0.0
1481, 0.0
1482, 0.0
1483, 0.0
1484, 0.0
1485, 0.0
1486, 0.0
1487, 0.0
1488, 0.0
1489, 0.0
1490, 0.0
1491, 0.0
1492, 0.0
1493, 0.0
1494, 0.0
1495, 0.0
1496, 0.0
1497, 0.0
1498, 0.0
1499, 0.0
1500, 0.0
1501, 0.0
1502, 0.0
1503, 0.0
1504, 0.0
1505, 0.0
1506, 0.0
1507, 0.0
1508, 0.0
1509, 0.0
1510, 0.0
1511, 0.0
1512, 0.0
1513, 0.0
1514, 0.0
1515, 0.0
1516, 0.0
1517, 0.0
1518, 0.0
1519, 0.0
1520, 0.0
1521, 0.0
1522, 0.0
1523, 0.0
1524, 0.0
1525, 0.0
1526, 0.0
1527, 0.0
1528, 0.0
1529, 0.0
1530, 0.0
1531, 0.0
1532, 0.0
1533, 0.0
1534, 0.0
1535, 0.0
1536, 0.0
1537, 0.0
1538, 0.0
1539, 0.0
1540, 0.0
1541, 0.0
1542, 0.0
1543, 0.0
1544, 0.0
1545, 0.0
1546, 0.0
1547, 0.0
1548, 0.0
1549, 0.0
1550, 0.0
1551, 0.0
1552, 0.0
1553, 0.0
1554, 0.0
1555, 0.0
1556, 0.0
1557, 0.0
1558, 0.0
1559, 0.0
1560, 0.0
1561, 0.0
1562, 0.0
1563, 0.0
1564, 0.0
1565, 0.0
1566, 0.0
1567, 0.0
1568, 0.0
1569, 0.0
1570, 0.0
1571, 0.0
1572, 0.0
1573, 0.0
1574, 0.0
1575, 0.0
1576, 0.0
1577, 0.0
1578, 0.0
1579, 0.0
1580, 0.0
1581, 0.0
1582, 0.0
1583, 0.0
1584, 0.0
1585, 0.0
1586, 0.0
1587, 0.0
1588, 0.0
1589, 0.0
1590, 0.0
1591, 0.0
1592, 0.0
1593, 0.0
1594, 0.0
1595, 0.0
1596, 0.0
1597, 0.0
1598, 0.0
1599, 0.0
