30, 0.0
31, 0.0
32, 0.0
33, 0.0
34, 0.0
35, 0.0
36, 0.0
37, 0.0
38, 0.0
39, 0.0
40, 0.0
41, 0.0
42, 0.0
43, 0.0
44, 0.0
45, 0.0
46, 0.0
47, 0.0
48, 0.0
49, 0.0
50, 0.0
51, 0.0
52, 0.0
53, 0.0
54, 0.0
55, 0.0
56, 0.0
57, 0.0
58, 0.0
59, 0.0
60, 0.0
61, 0.0
62, 0.0
63, 0.0
64, 0.0
65, 0.0
66, 0.0
67, 0.0
68, 0.0
69, 0.0
70, 0.0
71, 0.0
72, 0.0
73, 0.0
74, 0.0
75, 0.0
76, 0.0
77, 0.0
78, 0.0
79, 0.0
80, 0.0
81, 0.0
82, 0.0
83, 0.0
84, 0.0
85, 0.0
86, 0.0
87, 0.0
88, 0.0
89, 0.0
90, 0.0
91, 0.0
92, 0.0
93, 0.0
94, 0.0
95, 0.0
96, 0.0
97, 0.0
98, 0.0
99, 0.0
100, 0.0
101, 0.0
102, 0.0
103, 0.0
104, 0.0
105, 0.0
106, 0.0
107, 0.0
108, 0.0
109, 0.0
110, 0.0
111, 0.0
112, 0.0
113, 0.0
114, 0.0
115, 0.0
116, 0.0
117, 0.0
118, 0.0
119, 0.0
120, 0.0
121, 0.0
122, 0.0
123, 0.0
124, 0.0
125, 0.0
126, 0.0
127, 0.0
128, 0.0
129, 0.0
130, 0.0
131, 0.0
132, 0.0
133, 0.0
134, 0.0
135, 0.0
136, 0.0
137, 0.0
138, 0.0
139, 0.0
140, 0.0
141, 0.0
142, 0.0
143, 0.0
144, 0.0
145, 0.0
146, 0.0
147, 0.0
148, 0.0
149, 0.0
150, 0.0
151, 0.0
152, 0.0
153, 0.0
154, 0.0
155, 0.0
156, 0.0
157, 0.0
158.0, 0.023217368945469198
159.0, 0.03873975374833857
160.0, 0.02168498191466375
161.0, 0.0209254903503637
162.0, 0.02068079718142944
163.0, 0.01232573260438129
164.0, 0.0019016787944391386
165.0, 0.011730790409678176
166.0, 0.01351212032019992
167.0, 0.007869001705306593
168.0, 0.0040501286549327825
169.0, 0.0038351501923456015
170.0, 0.02269254239819348
171.0, 0.016843937282882353
172.0, 0.001932812554860899
173.0, 0.002475256834839117
174.0, 0.0007632900075620348
175.0, 0.0042830222073686735
176.0, 0.008663829457259154
177.0, 0.008561003429122686
178.0, 0.008279906368942509
179.0, 0.004988044944091888
180.0, 0.0010322646784649589
181.0, 0.0013524176519206998
182.0, 0.0013348216971041564
183.0, 0.0006207471189803218
184.0, 0.005804327269342258
185.0, 0.010215295693389118
186.0, 0.008545530936825935
187.0, 0.021751123869406582
188.0, 0.015680808911495515
189.0, 0.014455937114153048
190.0, 0.032553654008126716
191.0, 0.03173823136440622
192.0, 0.02481400345183421
193.0, 0.016006141963025838
194.0, 0.01702945668210148
195.0, 0.039602454248359516
196.0, 0.042789727504986996
197.0, 0.04831687936092063
198.0, 0.050371841985607776
199.0, 0.04136000841417969
200.0, 0.07064860347390382
201.0, 0.09631164071869534
202.0, 0.10302809395134269
203.0, 0.09141434846618868
204.0, 0.08425209961092826
205.0, 0.08349814788779981
206.0, 0.08815476557202652
207.0, 0.09866531341536074
208.0, 0.11181338254767624
209.0, 0.11304541430244097
210.0, 0.11223302388205487
211.0, 0.11549207970456257
212.0, 0.12632269816921676
213.0, 0.14681055242445043
214.0, 0.1599966479499509
215.0, 0.13239000398802866
216.0, 0.15687250134026784
217.0, 0.16087561394495767
218.0, 0.1529677322301731
219.0, 0.1513564535164007
220.0, 0.14789104478973572
221.0, 0.15069483203454784
222.0, 0.16388443564666078
223.0, 0.14537058644648354
224.0, 0.1590297237685695
225.0, 0.14655954280768388
226.0, 0.14546450970593047
227.0, 0.14980873550617754
228.0, 0.14408464933871737
229.0, 0.14700921369611225
230.0, 0.1325501634881407
231.0, 0.12166351864673579
232.0, 0.09658642473129919
233.0, 0.04422325138539863
234.0, 0.002641760091125889
235.0, 0.005563064240546844
236.0, 0.004815915952695157
237.0, 0.003940235680883175
238.0, 0.0009794840576262814
239.0, 0.00451045644740133
240.0, 0.0038033792922207033
241.0, 0.00671363457624569
242.0, 0.003940484352096451
243.0, 0.01910229692537302
244.0, 0.015186475539086575
245.0, 0.01941818714562024
246.0, 0.006795545307522582
247.0, 0.009850607469278249
248.0, 0.03943701522336297
249.0, 0.03493034923032727
250.0, 0.025226041224772025
251.0, 0.025467461031416894
252.0, 0.03358243782282099
253.0, 0.0392935681125016
254.0, 0.0370478368262899
255.0, 0.04733905214915424
256.0, 0.052550225510001276
257.0, 0.044787728822998085
258.0, 0.03339006116873604
259.0, 0.03884781902687699
260.0, 0.03998895761640848
261.0, 0.04622205540144542
262.0, 0.06299538078380479
263.0, 0.06744013171341372
264.0, 0.07257568167110176
265.0, 0.07433216675557758
266.0, 0.07242291956104582
267.0, 0.07060311171792148
268.0, 0.06521589183050068
269.0, 0.0627869112997047
270.0, 0.06702554287455692
271.0, 0.07588125303255866
272.0, 0.08040330881062333
273.0, 0.06638521275320573
274.0, 0.06455871078172845
275.0, 0.06875330272259828
276.0, 0.06125254631117179
277.0, 0.056453991851617896
278.0, 0.05943727493441559
279.0, 0.05804843351823657
280.0, 0.03892490001437993
281.0, 0.053059882863704125
282.0, 0.03297304620692895
283.0, 0.03449288300627566
284.0, 0.037468875077255284
285.0, 0.03232913878969882
286.0, 0.03341105838622831
287.0, 0.02781955776209183
288.0, 0.029993787639645053
289.0, 0.02022935541721833
290.0, 0.019352411100218615
291.0, 0.018723601290087728
292.0, 0.010550026359233855
293.0, 0.009617344614279714
294.0, 0.01004027303398448
295.0, 0.015447639792690062
296.0, 0.00586254726870563
297.0, 0.005272178972206743
298.0, 0.01130715055780536
299.0, 0.016734551064880553
300.0, 0.01950954336126454
301.0, 0.011598694748000116
302.0, 0.0029902006612005845
303.0, 0.004091075987194581
304.0, 0.006050033634478067
305.0, 0.011983033899394887
306.0, 0.0143572578345321
307.0, 0.006596396637755367
308.0, 0.002066697085966662
309.0, 0.0009851664350204825
310.0, 0.0032310312399951523
311.0, 0.0028611726001492354
312.0, 0.007280490071735235
313.0, 0.015565428621775195
314.0, 0.016525327120153168
315.0, 0.010735414056214
316.0, 0.020328047667800806
317.0, 0.022325358777502156
318.0, 0.007957189173048912
319.0, 0.002201652978320861
320.0, 0.0025372738621915825
321.0, 0.015827788524564342
322.0, 0.029664576395036772
323.0, 0.024015819140771024
324.0, 0.01121322269579327
325.0, 0.03086556111674355
326.0, 0.022977934010210737
327.0, 0.00844140944543282
328.0, 0.009878015626383192
329.0, 0.007230219859198065
330.0, 0.014906290546937742
331.0, 0.00933398752007362
332.0, 0.0033072487016869074
333.0, 0.011412644850192782
334.0, 0.017943786054943782
335.0, 0.030493016151641482
336.0, 0.03147543509010163
337.0, 0.023092416860347534
338.0, 0.01792925839645853
339.0, 0.01795715518103346
340.0, 0.010903799898117248
341.0, 0.018244655614653653
342.0, 0.026695415309357446
343.0, 0.013992234179483887
344.0, 0.02342178583429865
345.0, 0.021759753806117756
346.0, 0.01752127821860097
347.0, 0.0221290286879034
348.0, 0.03095694421174967
349.0, 0.0242545820574668
350.0, 0.032018076812312966
351.0, 0.032854672363061985
352.0, 0.019738665011748542
353.0, 0.012125831963226502
354.0, 0.02667508156342979
355.0, 0.03204055261497913
356.0, 0.020264343419034922
357.0, 0.013402151885556506
358.0, 0.032540733753794675
359.0, 0.04130527775336146
360.0, 0.041137906481644726
361.0, 0.02564934197149539
362.0, 0.007819593467684299
363.0, 0.012752198621230558
364.0, 0.01816363812898947
365.0, 0.012108374034175754
366.0, 0.019694313496844897
367.0, 0.030329636337203703
368.0, 0.010381432915255824
369.0, 0.018286961046558314
370.0, 0.0345134607766264
371.0, 0.043852153104250724
372.0, 0.0342078699978819
373.0, 0.0027144508318357866
374.0, 0.005486219677073744
375.0, 0.012426515801242054
376.0, 0.006203802587663362
377.0, 0.004268112693891946
378.0, 0.020215787031947804
379.0, 0.0073607424606436656
380.0, 0.0008575075635426936
381.0, 0.018067418660027486
382.0, 0.03725065421461834
383.0, 0.010780743511011466
384.0, 0.007663769249447365
385.0, 0.006943429073580889
386.0, 0.009424793736011468
387.0, 0.019671690032466195
388.0, 0.008192793829272255
389.0, 0.000896017037679911
390.0, 0.0004931016917590451
391.0, 0.018329585814870403
392.0, 0.036121785713473006
393.0, 0.03122520923204869
394.0, 0.013611049487223251
395.0, 0.019443000022499653
396.0, 0.019251813502882836
397.0, 0.008823915370024476
398.0, 0.00489859875850495
399.0, 0.009960888239732913
400.0, 0.01256030549935332
401.0, 0.009000014062295912
402.0, 0.004322801786309455
403.0, 0.005741748826806285
404.0, 0.01692375073487867
405.0, 0.025768255980285558
406.0, 0.01983206217615974
407.0, 0.005335578375223325
408.0, 0.0016514909116746438
409.0, 0.008331151816782257
410.0, 0.004712207490478388
411.0, 0.001263060617189035
412.0, 0.000855127202155535
413.0, 0.006281745300526095
414.0, 0.015138924763602325
415.0, 0.012498361591708572
416.0, 0.011069320881783926
417.0, 0.0179746037248938
418.0, 0.02454532068230092
419.0, 0.008042429018206149
420.0, 0.01127485389433251
421.0, 0.017434758431154794
422.0, 0.03126388972023843
423.0, 0.05325828719406537
424.0, 0.06454767414957475
425.0, 0.05632657978209576
426.0, 0.055226678536997156
427.0, 0.062038940978135566
428.0, 0.07121349744842186
429.0, 0.08189176593739185
430.0, 0.0872416300625226
431.0, 0.09045393484980743
432.0, 0.09441098105219797
433.0, 0.09892664379409688
434.0, 0.1054612805889213
435.0, 0.1162238988178345
436.0, 0.11241766423232509
437.0, 0.11674669046254059
438.0, 0.12547289157857502
439.0, 0.12747775222286617
440.0, 0.11675160657112629
441.0, 0.1368122474555886
442.0, 0.14737478663999629
443.0, 0.15316774456479923
444.0, 0.1676422240855304
445.0, 0.18681513450302806
446.0, 0.18100041214833865
447.0, 0.1681615856343226
448.0, 0.16748516963975202
449.0, 0.17244463496113158
450.0, 0.17097339946258286
451.0, 0.1693590069601117
452.0, 0.16165863574990938
453.0, 0.15009896732377648
454.0, 0.1579547745161788
455.0, 0.1779408054164532
456.0, 0.15949881181353084
457.0, 0.16422884388726583
458.0, 0.15443145780439818
459.0, 0.13997097635322925
460.0, 0.13243155242103377
461.0, 0.1285515518893527
462.0, 0.11604279172791512
463.0, 0.1241170572288564
464.0, 0.12167530799548754
465.0, 0.1070257791267407
466.0, 0.092998979535788
467.0, 0.06980128103085312
468.0, 0.06831913976645541
469.0, 0.06974424920309483
470.0, 0.07475891786194586
471.0, 0.07658823675597554
472.0, 0.056662134799962995
473.0, 0.04108586898819176
474.0, 0.03818842727459144
475.0, 0.021986298102041675
476.0, 0.03584999868559638
477.0, 0.01865425008551567
478.0, 0.015352994432726717
479.0, 0.012868410519506024
480.0, 0.016108839484519258
481.0, 0.014994763023100932
482.0, 0.024209073481458725
483.0, 0.01961391842154306
484.0, 0.007128777906206977
485.0, 0.0019624320898315624
486.0, 0.01931836879579066
487.0, 0.013534115099112459
488.0, 0.007590351307061738
489.0, 0.002866516131336471
490.0, 0.0030870986992959696
491.0, 0.009789722271203397
492.0, 0.005388198463236754
493.0, 0.004879826503682502
494.0, 0.015059951527790305
495.0, 0.002859802823579799
496.0, 0.013259998889274517
497.0, 0.0037611320431943512
498.0, 0.016774421785359022
499.0, 0.018998610998985196
500.0, 0.024399232216180736
501.0, 0.021905897009516676
502.0, 0.03505499716705168
503.0, 0.04354380972995955
504.0, 0.04286523430767763
505.0, 0.050312521458178744
506.0, 0.07360280024427969
507.0, 0.07184190043346372
508.0, 0.07423804387998961
509.0, 0.08578745017079259
510.0, 0.10213456472826406
511.0, 0.12978661050666324
512.0, 0.159089323359622
513.0, 0.15911520360455586
514.0, 0.16013322341153366
515.0, 0.17865333193339694
516.0, 0.20647791560794967
517.0, 0.22874158995591073
518.0, 0.23429116612390105
519.0, 0.25438321550606896
520.0, 0.26814499669933606
521.0, 0.280065905267241
522.0, 0.31630199128342085
523.0, 0.33650745799214987
524.0, 0.34310481474023585
525.0, 0.3579913974269791
526.0, 0.3695502412136262
527.0, 0.37423505233875826
528.0, 0.39081126437455765
529.0, 0.3633973581666758
530.0, 0.35607622976319525
531.0, 0.34848982268736267
532.0, 0.32233144145165066
533.0, 0.2858718227277098
534.0, 0.2536207318559804
535.0, 0.22895779213863668
536.0, 0.21522809196812662
537.0, 0.1901985997944001
538.0, 0.1586572936246814
539.0, 0.14354348448575546
540.0, 0.12454807763096966
541.0, 0.11050728220371364
542.0, 0.09157933951072109
543.0, 0.07435263416544123
544.0, 0.06860472351110083
545.0, 0.06936973336750847
546.0, 0.0561593015125288
547.0, 0.05068442242422603
548.0, 0.047897718366534
549.0, 0.03942762898752534
550.0, 0.02982815940719111
551.0, 0.030225941635727973
552.0, 0.03000408228355497
553.0, 0.030395713869911058
554.0, 0.03062644392908854
555.0, 0.026722575651859665
556.0, 0.0205763592899714
557.0, 0.02316585611921389
558.0, 0.021621212114012585
559.0, 0.011485069854615008
560.0, 0.011148070376682567
561.0, 0.01968499717397079
562.0, 0.028257506585369494
563.0, 0.03581615256228067
564.0, 0.008187131176345733
565.0, 0.020143815619984594
566.0, 0.022005200892342938
567.0, 0.018316941442800806
568.0, 0.03198978479922443
569.0, 0.014222329311149277
570.0, 0.00778873611837548
571.0, 0.0108357183554884
572.0, 0.03063337451142245
573.0, 0.04053024067303564
574.0, 0.028370109406361345
575.0, 0.03160270429585698
576.0, 0.03010896358813397
577.0, 0.021282351763566843
578.0, 0.038672015741402055
579.0, 0.04736696805313898
580.0, 0.01683053915778708
581.0, 0.021204597138626685
582.0, 0.023856171463635584
583.0, 0.029925561267969424
584.0, 0.03252005403835476
585.0, 0.029038676033019642
586.0, 0.02667721489803153
587.0, 0.03149111628569173
588.0, 0.03535264656722319
589.0, 0.05027176145380737
590.0, 0.05203296229515375
591.0, 0.04834148629041645
592.0, 0.05326930922654637
593.0, 0.056616803440693045
594.0, 0.06502092103613141
595.0, 0.067290063548278
596.0, 0.06371963359882721
597.0, 0.06603898247157955
598.0, 0.076914326899524
599.0, 0.0875334787020559
600.0, 0.11184789414763319
601.0, 0.10252957624667634
602.0, 0.10116517331911427
603.0, 0.11703839803907394
604.0, 0.12213833166058226
605.0, 0.09740727937212923
606.0, 0.11146532625740921
607.0, 0.11203260249739294
608.0, 0.11427059615358795
609.0, 0.11499627703023795
610.0, 0.11226789509500168
611.0, 0.11100199290120476
612.0, 0.10657296692574439
613.0, 0.10558989263107159
614.0, 0.10097196513068829
615.0, 0.091775785084536
616.0, 0.08307439080689946
617.0, 0.08194416153065968
618.0, 0.0960940073592176
619.0, 0.09344724559612595
620.0, 0.09293838984064888
621.0, 0.09683102822760037
622.0, 0.09830244700428933
623.0, 0.08881205373482474
624.0, 0.08563565932571686
625.0, 0.0791459704181608
626.0, 0.08611375483117005
627.0, 0.07917350035267663
628.0, 0.08670636929020657
629.0, 0.0826085169840168
630.0, 0.06709970457194582
631.0, 0.07102325344777694
632.0, 0.07558794092018493
633.0, 0.07067736398619928
634.0, 0.05640819058173386
635.0, 0.054394053660906085
636.0, 0.053721116028822444
637.0, 0.0577419372068751
638.0, 0.05041576865614319
639.0, 0.0421718146991826
640.0, 0.043694058715584565
641.0, 0.038660653175933764
642.0, 0.028398015116880927
643.0, 0.028081395992565324
644.0, 0.016099059977305808
645.0, 0.029909751588723946
646.0, 0.03073066785968991
647.0, 0.026869013378385743
648.0, 0.021882486551202254
649.0, 0.016063628290701043
650.0, 0.028201805787766834
651.0, 0.020592345010887973
652.0, 0.013705967368345031
653.0, 0.0197433998481174
654.0, 0.021670257545009477
655.0, 0.01050299357612183
656.0, 0.0028890835146319453
657.0, 0.007930439068552429
658.0, 0.007536025238995429
659.0, 0.005871948822209821
660.0, 0.009308291924305441
661.0, 0.004394956604024887
662.0, 0.01738803679630295
663.0, 0.028772064366714104
664.0, 0.006493550168409591
665.0, 0.0036721750120210666
666.0, 0.007807209505424002
667.0, 0.010457746111433767
668.0, 0.007128806707184649
669.0, 0.018551556367377695
670.0, 0.014333616268672791
671.0, 0.0050158515342928365
672.0, 0.0004944861981460266
673.0, 0.006151666469160392
674.0, 0.0011181930654040459
675.0, 0.005833224803922154
676.0, 0.014774003836145173
677.0, 0.01972404656552625
678.0, 0.005351968706522506
679.0, 0.004283074083367851
680.0, 0.005850290106019564
681.0, 0.00212409515563505
682.0, 0.009595674422316625
683.0, 0.025384350313484808
684.0, 0.030627598487546138
685.0, 0.007667500075793037
686.0, 0.006585810623333044
687.0, 0.016779790847043438
688.0, 0.012906619155682156
689.0, 0.0010155139395816083
690.0, 0.0010139356384741647
691.0, 0.001624516923869014
692.0, 0.0013892934319481316
693.0, 0.009820548296532157
694.0, 0.009012892439801709
695.0, 0.002376413126316084
696.0, 0.009450555670398162
697.0, 0.016593145275500536
698.0, 0.009417220491875723
699.0, 0.005042077101623886
700.0, 0.010393658517041073
701.0, 0.015435477214778852
702.0, 0.010195143905166917
703.0, 0.00023031978063968277
704.0, 0.004433869210618297
705.0, 0.02225518021044473
706.0, 0.026459986672045462
707.0, 0.019629399190163356
708.0, 0.02194346800142944
709.0, 0.024001808015232027
710.0, 0.00293727435204669
711.0, 0.0005106120842726562
712.0, 0.0188739545552527
713.0, 0.02006642608559493
714.0, 0.014966605010313279
715.0, 0.017110751626335574
716.0, 0.021264692745039733
717.0, 0.014590914367226093
718.0, 0.010105197379211386
719.0, 0.01928192056451516
720.0, 0.021960358422700704
721.0, 0.02478147577242529
722.0, 0.012747981593805996
723.0, 0.0014963897137631884
724.0, 0.021505875252631007
725.0, 0.027953706366545632
726.0, 0.011523728588539589
727.0, 0.007527880505171261
728.0, 0.0070234067616672235
729.0, 0.0025363345497268763
730.0, 0.003985480011909343
731.0, 0.01350593391616608
732.0, 0.0071875617530157525
733.0, 0.006750609970695641
734.0, 0.015216024151890236
735.0, 0.011078024232100216
736.0, 0.009002769230873186
737.0, 0.014555594317328358
738.0, 0.010893947842996902
739.0, 0.00885493029323445
740.0, 0.016529467865451387
741.0, 0.006130604984020266
742.0, 0.013468623589936186
743.0, 0.010648998475251175
744.0, 0.005837265208868297
745.0, 0.02091222323885884
746.0, 0.008502204776114295
747.0, 0.018960047441862946
748.0, 0.008302794652457013
749.0, 0.012139782747740052
750.0, 0.020417601345295803
751.0, 0.014350651267124826
752.0, 0.003957638633585245
753.0, 0.007583402096499425
754.0, 0.007816692843705945
755.0, 0.008247864069080763
756.0, 0.016530666310966346
757.0, 0.007345055366308301
758.0, 0.0019379464758730637
759.0, 0.0024339261532936494
760.0, 0.0030371228486683784
761.0, 0.0009658821722366697
762.0, 0.0016319282202496045
763.0, 0.007623352538972526
764.0, 0.012421166645694287
765.0, 0.009376445103500943
766.0, 0.010389431030599295
767.0, 0.015407897959840877
768.0, 0.01004726434996618
769.0, 0.010071319667569648
770.0, 0.003633667187900782
771.0, 0.0026538279552641786
772.0, 0.011658642833830724
773.0, 0.009361907428038678
774.0, 0.00462182724691457
775.0, 0.016971443067592462
776.0, 0.00996607401064235
777.0, 0.008641802769588187
778.0, 0.0034398709254839285
779.0, 0.0004325703073663922
780.0, 0.0084701479119367
781.0, 0.010196804186700298
782.0, 0.002273284497884809
783.0, 0.015116367728971469
784.0, 0.01477637398996545
785.0, 0.008085903313727471
786.0, 0.012685623183596204
787.0, 0.010518268363350671
788.0, 0.00706643475680289
789.0, 0.010858742102240214
790.0, 0.008470286897215679
791.0, 0.017630881512948452
792.0, 0.01248674432462327
793.0, 0.025430363465648625
794.0, 0.02576622858650057
795.0, 0.013516565896915866
796.0, 0.020363710114087247
797.0, 0.029308045403693885
798.0, 0.021332550261382952
799.0, 0.008654738392130228
800.0, 0.010721401556538352
801.0, 0.014404485351758986
802.0, 0.021098828732978504
803.0, 0.022032243501408734
804.0, 0.015378399988282832
805.0, 0.01438540892269798
806.0, 0.017364296533309974
807.0, 0.005204230227402453
808.0, 0.01770862310285848
809.0, 0.019781011577630948
810.0, 0.0328958621623925
811.0, 0.02552441996889357
812.0, 0.0176391630762
813.0, 0.029065213844576245
814.0, 0.018123896236120395
815.0, 0.01462466179916552
816.0, 0.01043277844125494
817.0, 0.02106505439641814
818.0, 0.027573246290225836
819.0, 0.021152025437998014
820.0, 0.017814986572528647
821.0, 0.021815516430359214
822.0, 0.01690826142766253
823.0, 0.012550645614617922
824.0, 0.0298251556694722
825.0, 0.022327695781478855
826.0, 0.029221976006910746
827.0, 0.024997948720554504
828.0, 0.022976503367317977
829.0, 0.030900132591118252
830.0, 0.028087752589170543
831.0, 0.023751031578270156
832.0, 0.03167978276884934
833.0, 0.019372514742919206
834.0, 0.03221908747728524
835.0, 0.024086726622163407
836.0, 0.023385292626133168
837.0, 0.03586040217370575
838.0, 0.029220262250957897
839.0, 0.02878632688962637
840.0, 0.04612730958375025
841.0, 0.02733503639238131
842.0, 0.03095857374107005
843.0, 0.026143447745933114
844.0, 0.023471253033407326
845.0, 0.022233615898969817
846.0, 0.014369681482469173
847.0, 0.023706151437481476
848.0, 0.02745383998382442
849.0, 0.0181950829292917
850.0, 0.017408712718974536
851.0, 0.03108602546151966
852.0, 0.03399692459023118
853.0, 0.02744254253344357
854.0, 0.023384556098769944
855.0, 0.017642401263769657
856.0, 0.011812707420494836
857.0, 0.033429549488573816
858.0, 0.041684872458913017
859.0, 0.03918689272030058
860.0, 0.03854931965573635
861.0, 0.027337459518350142
862.0, 0.013993151175782457
863.0, 0.016285205022178364
864.0, 0.027794211444255503
865.0, 0.035738564423863604
866.0, 0.029896894540836043
867.0, 0.0289764613987477
868.0, 0.02943034510959389
869.0, 0.02958843107338539
870.0, 0.0242963412764537
871.0, 0.021891138872113768
872.0, 0.024451095368116106
873.0, 0.018093198680149625
874.0, 0.035138084559422314
875.0, 0.02715297328926705
876.0, 0.014343082697185641
877.0, 0.011563342363251697
878.0, 0.020162191303135665
879.0, 0.018382313693151207
880.0, 0.007753295413016425
881.0, 0.012259758630977753
882.0, 0.025606543280153753
883.0, 0.013723164767547612
884.0, 0.016782343817799004
885.0, 0.01705804888052625
886.0, 0.02561114782948574
887.0, 0.03100602115626337
888.0, 0.020937824328825756
889.0, 0.0029483263607375317
890.0, 0.008395990867241932
891.0, 0.002382210302408591
892.0, 0.007568430667933796
893.0, 0.012140659163564767
894.0, 0.007305536490957302
895.0, 0.01298661797289059
896.0, 0.01881587247008809
897.0, 0.009399960037209219
898.0, 0.0007607477329990868
899.0, 0.003594708885943098
900.0, 0.009152193697052773
901.0, 0.008074070686378103
902.0, 8.326539517640295e-05
903.0, 0.006524014553757477
904.0, 0.004723364760044306
905.0, 0.004300389244437476
906.0, 0.005680037783073905
907.0, 0.002252887586935134
908.0, 0.006335837771567548
909.0, 0.0022773800904134648
910.0, 0.006255358214302951
911.0, 0.009250284729629141
912.0, 0.00910581655682298
913.0, 0.004446289153127045
914.0, 0.0006260677431719344
915.0, 0.011889506397404007
916.0, 0.01920925928137474
917.0, 0.0024867014819087646
918.0, 0.005059000041867457
919.0, 0.019564176581632623
920.0, 0.0035015903123976353
921.0, 0.0019803665729705485
922.0, 0.0017252346391994368
923.0, 0.007410596215236625
924.0, 0.0028594538747548984
925.0, 0.0028020836730589293
926.0, 0.011649102986960558
927.0, 0.01023188415178972
928.0, 0.0012764325235331538
929.0, 0.009835783960374357
930.0, 0.006037177673910768
931.0, 0.009420118130662177
932.0, 0.00953778641734529
933.0, 0.008691825495512031
934.0, 0.003260860761064818
935.0, 0.004996015618617395
936.0, 0.014925412706188914
937.0, 0.005669553979090627
938.0, 0.003812733088974355
939.0, 0.017196688265796817
940.0, 0.012057712720449263
941.0, 0.01601167815438391
942.0, 0.016405250301771427
943.0, 0.020306228824910795
944.0, 0.022952926796506904
945.0, 0.026083350231524468
946.0, 0.024175518011577937
947.0, 0.014008371451398266
948.0, 0.025720812674863928
949.0, 0.03658240880366097
950.0, 0.054170449591507394
951.0, 0.050516719410832384
952.0, 0.0661190173805803
953.0, 0.08761916951101231
954.0, 0.09585241011214136
955.0, 0.11253431753485106
956.0, 0.1349279188798778
957.0, 0.1454111482688698
958.0, 0.18809667777493644
959.0, 0.2240000799935383
960.0, 0.2725520989083262
961.0, 0.3154728479176982
962.0, 0.3535417853605363
963.0, 0.4125207049434673
964.0, 0.46819936847060706
965.0, 0.5243959570532994
966.0, 0.5836472052575231
967.0, 0.6298583502184576
968.0, 0.6849772037327332
969.0, 0.7393781278172514
970.0, 0.7682162837878919
971.0, 0.8122164271760947
972.0, 0.870702976777258
973.0, 0.9261296532151287
974.0, 0.9604461140036812
975.0, 0.9901501620473643
976.0, 0.9934930769225699
977.0, 0.9655036757910013
978.0, 0.9415525618444732
979.0, 0.9070224966476969
980.0, 0.8725148797394272
981.0, 0.8153717656281926
982.0, 0.7682439509347241
983.0, 0.6922445648836495
984.0, 0.6246103629845343
985.0, 0.5755509520343502
986.0, 0.5194687431752648
987.0, 0.4433451076227701
988.0, 0.36920823840580574
989.0, 0.3099301684588013
990.0, 0.24135657235420058
991.0, 0.1879847612294098
992.0, 0.15180237408154942
993.0, 0.12092603934450584
994.0, 0.09937940989678276
995.0, 0.08112964796786463
996.0, 0.07127151816333188
997.0, 0.06997891675233808
998.0, 0.06457643751071451
999.0, 0.05286421512118441
1000.0, 0.04431644523771646
1001.0, 0.032876863109955884
1002.0, 0.038490646423151274
1003.0, 0.028940388414505074
1004.0, 0.015511407584875262
1005.0, 0.02054283276971974
1006.0, 0.025977277682972342
1007.0, 0.016980522355376112
1008.0, 0.005612812024101531
1009.0, 0.007105565413773201
1010.0, 0.01490834107130241
1011.0, 0.010770627699126786
1012.0, 0.003441471415905187
1013.0, 0.005803642384465502
1014.0, 0.0025454739253361843
1015.0, 0.006969514355440792
1016.0, 0.01490080911790712
1017.0, 0.006870738447379395
1018.0, 0.007845830169063279
1019.0, 0.011725669756015283
1020.0, 0.004457453836551326
1021.0, 0.01124707739613992
1022.0, 0.02392193624718115
1023.0, 0.013489126945456035
1024.0, 0.009081290464858761
1025.0, 0.006781637546791225
1026.0, 0.02054237216491038
1027.0, 0.020303069901859486
1028.0, 0.030697922016890634
1029.0, 0.0075852360003372254
1030.0, 0.010190509055492092
1031.0, 0.015678104945258477
1032.0, 0.010510538590617943
1033.0, 0.0038899163582745934
1034.0, 0.0005852869252564958
1035.0, 0.0007714121996688595
1036.0, 0.0059799661262539055
1037.0, 0.0033861702130495203
1038.0, 0.019402213746456412
1039.0, 0.015581290877687577
1040.0, 0.009186123999139291
1041.0, 0.010889084304661829
1042.0, 0.01136852215593727
1043.0, 0.017088056137160648
1044.0, 0.018843261375605637
1045.0, 0.009114677836295262
1046.0, 0.00654640501561776
1047.0, 0.007496671534678172
1048.0, 0.012910468113076452
1049.0, 0.005349629773260558
1050.0, 0.008107892882918523
1051.0, 0.004281533511019399
1052.0, 0.0021419897353990597
1053.0, 0.001395443146900012
1054.0, 0.003492331817155922
1055.0, 0.001445321331494239
1056.0, 0.0015749112205574105
1057.0, 0.004038123111024244
1058.0, 0.009674898371172967
1059.0, 0.006947502671568845
1060.0, 0.019439003552341617
1061.0, 0.007102093531571508
1062.0, 0.01502324465640397
1063.0, 0.0032594966869296986
1064.0, 0.0027171583016874145
1065.0, 0.011003666559613977
1066.0, 0.0067111007767011194
1067.0, 0.01149180294754387
1068.0, 0.007991391184376712
1069.0, 0.014576720048717658
1070.0, 0.014222565567820962
1071.0, 0.008856924611548207
1072.0, 0.009030785454118916
1073.0, 0.01795743905536385
1074.0, 0.003161586885265648
1075.0, 0.012815258730302172
1076.0, 0.020302948566008686
1077.0, 0.02611951592439014
1078.0, 0.01267769742027302
1079.0, 0.021986493611085595
1080.0, 0.010747141719673768
1081.0, 0.0160022145021197
1082.0, 0.023826113606468975
1083.0, 0.02063105739004173
1084.0, 0.029513934608572694
1085.0, 0.03314067349771361
1086.0, 0.03642643608569632
1087.0, 0.032064280556149446
1088.0, 0.029233485048725714
1089.0, 0.027535369024256247
1090.0, 0.024360986943110303
1091.0, 0.023165892791399096
1092.0, 0.026580971564432843
1093.0, 0.03207482963217751
1094.0, 0.039379207063937556
1095.0, 0.03081166081969937
1096.0, 0.02768222688624971
1097.0, 0.03493600461440439
1098.0, 0.02745351960039366
1099.0, 0.018223409516652442
1100.0, 0.01782766009611737
1101.0, 0.015497108898817573
1102.0, 0.019327292510225823
1103.0, 0.030720705683015437
1104.0, 0.015232247389891793
1105.0, 0.023287434261143245
1106.0, 0.030841860542112222
1107.0, 0.022700869045947435
1108.0, 0.021383600558919472
1109.0, 0.029498741506209167
1110.0, 0.027167272174952472
1111.0, 0.02460361897772839
1112.0, 0.03030790045632599
1113.0, 0.024856075973887237
1114.0, 0.017911170394361905
1115.0, 0.014507031817712127
1116.0, 0.012464442702185574
1117.0, 0.01760140664145997
1118.0, 0.01706271186831605
1119.0, 0.023341541834664522
1120.0, 0.020263624485801063
1121.0, 0.016841773924763735
1122.0, 0.00907529230209012
1123.0, 0.025437705343155925
1124.0, 0.009326424672379065
1125.0, 0.007964639384672593
1126.0, 0.007445123679678853
1127.0, 0.013374820490982292
1128.0, 0.014266077840533036
1129.0, 0.018104574297628757
1130.0, 0.015366723709329573
1131.0, 0.0029214282712921296
1132.0, 0.017230360937373054
1133.0, 0.012972825006370405
1134.0, 0.0076173750815588
1135.0, 0.0062071005860406675
1136.0, 0.016539136218027047
1137.0, 0.01227749497052597
1138.0, 0.016126552604874684
1139.0, 0.009349618313490035
1140.0, 0.0012211654276885401
1141.0, 0.011800892565546155
1142.0, 0.017059146313341943
1143.0, 0.01865175088955236
1144.0, 0.02475044751874051
1145.0, 0.009335161313667873
1146.0, 0.006416531521484065
1147.0, 0.0013903725682387269
1148.0, 0.009229421135473563
1149.0, 0.020809566018857764
1150.0, 0.021651106011482527
1151.0, 0.004614857218834834
1152.0, 0.006132645024483148
1153.0, 0.00787235349251436
1154.0, 0.008486685739973247
1155.0, 0.014265731612829232
1156.0, 0.017196772647702398
1157.0, 0.016006661103827837
1158.0, 0.013377867503321917
1159.0, 0.005364014536582091
1160.0, 0.0016088936562802048
1161.0, 0.009508296019615009
1162.0, 0.009029768572164905
1163.0, 0.02705230706180518
1164.0, 0.01275497793914354
1165.0, 0.002686714497093887
1166.0, 0.0026610485122419395
1167.0, 0.0028811648984508513
1168.0, 0.002689612054780303
1169.0, 0.007154328227426658
1170.0, 0.014553824533160883
1171.0, 0.006147735282241437
1172.0, 0.004778102145484268
1173.0, 0.006978602248181538
1174.0, 0.012290481921830701
1175.0, 0.021556775170469545
1176.0, 0.017156382427554077
1177.0, 0.013375370132992675
1178.0, 0.018227446017315706
1179.0, 0.007978346311403987
1180.0, 0.010693494624578694
1181.0, 0.017497118136190017
1182.0, 0.0253235405014371
1183.0, 0.016094397314961224
1184.0, 0.006311492141117296
1185.0, 0.02235338300291518
1186.0, 0.013921902414307494
1187.0, 0.016190384064699477
1188.0, 0.018221672551138112
1189.0, 0.02279775052795058
1190.0, 0.016797182052263864
1191.0, 0.010886095302366651
1192.0, 0.003516171196579028
1193.0, 0.00533938104771456
1194.0, 0.015882030472832463
1195.0, 0.012486487909292222
1196.0, 0.0018941939816047285
1197.0, 0.0032305846917629636
1198.0, 0.009009534630747504
1199.0, 0.005695813686690906
1200.0, 0.010729440978321084
1201.0, 0.017020667043902215
1202.0, 0.015200418137916937
1203.0, 0.01405612356537797
1204.0, 0.007997139164515575
1205.0, 0.014733963191906736
1206.0, 0.013834009993118528
1207.0, 0.009035699182926148
1208.0, 0.00627555785589899
1209.0, 0.007620069167865688
1210.0, 0.00616537766599599
1211.0, 0.016775600830723936
1212.0, 0.01409664813122849
1213.0, 0.01619939482953141
1214.0, 0.0216654441923927
1215.0, 0.011816069806775447
1216.0, 0.009264466943306428
1217.0, 0.005126372933713776
1218.0, 0.015545523746990066
1219.0, 0.011591468184973279
1220.0, 0.02147893529597954
1221.0, 0.010488673543245081
1222.0, 0.014466588737649555
1223.0, 0.010385690548339906
1224.0, 0.01192896743234338
1225.0, 0.005621063478985546
1226.0, 0.015568194236657264
1227.0, 0.003447317602464421
1228.0, 0.010291733486644843
1229.0, 0.014010972287738956
1230.0, 0.0022617803729658562
1231.0, 0.008253795474933106
1232.0, 0.01727740989544675
1233.0, 0.007071427734859643
1234.0, 0.010267671426425644
1235.0, 0.021380462297665284
1236.0, 0.006251079670878618
1237.0, 0.002291942795478718
1238.0, 0.007618641191854346
1239.0, 0.019514503340817488
1240.0, 0.01908465933815641
1241.0, 0.006350363419594889
1242.0, 0.00685798471687797
1243.0, 0.006323833050261967
1244.0, 0.004180292018089915
1245.0, 0.011779406510812546
1246.0, 0.015745166106857767
1247.0, 0.017347277685866535
1248.0, 0.01173320391170208
1249.0, 0.007202619219731595
1250.0, 0.006657470743382824
1251.0, 0.016378539264692408
1252.0, 0.022041601699893266
1253.0, 0.0030376016318115913
1254.0, 0.018899203279812572
1255.0, 0.002312913982980528
1256.0, 0.005460291958386759
1257.0, 0.010719488332596634
1258.0, 0.011385635529793891
1259.0, 0.014266066213248543
1260.0, 0.013444258198217943
1261.0, 0.015257429689206677
1262.0, 0.0053666096229059435
1263.0, 0.013295391667034518
1264.0, 0.014922613501179554
1265.0, 0.01219779912216799
1266.0, 0.006988428126003853
1267.0, 0.01127827185717803
1268.0, 0.0063813187925902855
1269.0, 0.00513605167129436
1270.0, 0.002633685665088727
1271.0, 0.008190157305187469
1272.0, 0.006364917905935275
1273.0, 0.010934706424176287
1274.0, 0.010167071828490462
1275.0, 0.003974528951963682
1276.0, 0.008413423603651712
1277.0, 0.01160633227938845
1278.0, 0.009550208017889673
1279.0, 0.019559336605878518
1280.0, 0.01482780780561599
1281.0, 0.0043350921060421824
1282.0, 0.004388612659619703
1283.0, 0.0151177226394512
1284.0, 0.011805267932073385
1285.0, 0.0035452891740872195
1286.0, 2.2765845275226244e-05
1287, 0.0
1288, 0.0
1289, 0.0
1290, 0.0
1291, 0.0
1292, 0.0
1293, 0.0
1294, 0.0
1295, 0.0
1296, 0.0
1297, 0.0
1298, 0.0
1299, 0.0
1300, 0.0
1301, 0.0
1302, 0.0
1303, 0.0
1304, 0.0
1305, 0.0
1306, 0.0
1307, 0.0
1308, 0.0
1309, 0.0
1310, 0.0
1311, 0.0
1312, 0.0
1313, 0.0
1314, 0.0
1315, 0.0
1316, 0.0
1317, 0.0
1318, 0.0
1319, 0.0
1320, 0.0
1321, 0.0
1322, 0.0
1323, 0.0
1324, 0.0
1325, 0.0
1326, 0.0
1327, 0.0
1328, 0.0
1329, 0.0
1330, 0.0
1331, 0.0
1332, 0.0
1333, 0.0
1334, 0.0
1335, 0.0
1336, 0.0
1337, 0.0
1338, 0.0
1339, 0.0
1340, 0.0
1341, 0.0
1342, 0.0
1343, 0.0
1344, 0.0
1345, 0.0
1346, 0.0
1347, 0.0
1348, 0.0
1349, 0.0
1350, 0.0
1351, 0.0
1352, 0.0
1353, 0.0
1354, 0.0
1355, 0.0
1356, 0.0
1357, 0.0
1358, 0.0
1359, 0.0
1360, 0.0
1361, 0.0
1362, 0.0
1363, 0.0
1364, 0.0
1365, 0.0
1366, 0.0
1367, 0.0
1368, 0.0
1369, 0.0
1370, 0.0
1371, 0.0
1372, 0.0
1373, 0.0
1374, 0.0
1375, 0.0
1376, 0.0
1377, 0.0
1378, 0.0
1379, 0.0
1380, 0.0
1381, 0.0
1382, 0.0
1383, 0.0
1384, 0.0
1385, 0.0
1386, 0.0
1387, 0.0
1388, 0.0
1389, 0.0
1390, 0.0
1391, 0.0
1392, 0.0
1393, 0.0
1394, 0.0
1395, 0.0
1396, 0.0
1397, 0.0
1398, 0.0
1399, 0.0
1400, 0.0
1401, 0.0
1402, 0.0
1403, 0.0
1404, 0.0
1405, 0.0
1406, 0.0
1407, 0.0
1408, 0.0
1409, 0.0
1410, 0.0
1411, 0.0
1412, 0.0
1413, 0.0
1414, 0.0
1415, 0.0
1416, 0.0
1417, 0.0
1418, 0.0
1419, 0.0
1420, 0.0
1421, 0.0
1422, 0.0
1423, 0.0
1424, 0.0
1425, 0.0
1426, 0.0
1427, 0.0
1428, 0.0
1429, 0.0
1430, 0.0
1431, 0.0
1432, 0.0
1433, 0.0
1434, 0.0
1435, 0.0
1436, 0.0
1437, 0.0
1438, 0.0
1439, 0.0
1440, 0.0
1441, 0.0
1442, 0.0
1443, 0.0
1444, 0.0
1445, 0.0
1446, 0.0
1447, 0.0
1448, 0.0
1449, 0.0
1450, 0.0
1451, 0.0
1452, 0.0
1453, 0.0
1454, 0.0
1455, 0.0
1456, 0.0
1457, 0.0
1458, 0.0
1459, 0.0
1460, 0.0
1461, 0.0
1462, 0.0
1463, 0.0
1464, 0.0
1465, 0.0
1466, 0.0
1467, 0.0
1468, 0.0
1469, 0.0
1470, 0.0
1471, 0.0
1472, 0.0
1473, 0.0
1474, 0.0
1475, 0.0
1476, 0.0
1477, 0.0
1478, 0.0
1479, 0.0
1480, 0.0
1481, 0.0
1482, 0.0
1483, 0.0
1484, 0.0
1485, 0.0
1486, 0.0
1487, 0.0
1488, 0.0
1489, 0.0
1490, 0.0
1491, 0.0
1492, 0.0
1493, 0.0
1494, 0.0
1495, 0.0
1496, 0.0
1497, 0.0
1498, 0.0
1499, 0.0
1500, 0.0
1501, 0.0
1502, 0.0
1503, 0.0
1504, 0.0
1505, 0.0
1506, 0.0
1507, 0.0
1508, 0.0
1509, 0.0
1510, 0.0
1511, 0.0
1512, 0.0
1513, 0.0
1514, 0.0
1515, 0.0
1516, 0.0
1517, 0.0
1518, 0.0
1519, 0.0
1520, 0.0
1521, 0.0
1522, 0.0
1523, 0.0
1524, 0.0
1525, 0.0
1526, 0.0
1527, 0.0
1528, 0.0
1529, 0.0
1530, 0.0
1531, 0.0
1532, 0.0
1533, 0.0
1534, 0.0
1535, 0.0
1536, 0.0
1537, 0.0
1538, 0.0
1539, 0.0
1540, 0.0
1541, 0.0
1542, 0.0
1543, 0.0
1544, 0.0
1545, 0.0
1546, 0.0
1547, 0.0
1548, 0.0
1549, 0.0
1550, 0.0
1551, 0.0
1552, 0.0
1553, 0.0
1554, 0.0
1555, 0.0
1556, 0.0
1557, 0.0
1558, 0.0
1559, 0.0
1560, 0.0
1561, 0.0
1562, 0.0
1563, 0.0
1564, 0.0
1565, 0.0
1566, 0.0
1567, 0.0
1568, 0.0
1569, 0.0
1570, 0.0
1571, 0.0
1572, 0.0
1573, 0.0
1574, 0.0
1575, 0.0
1576, 0.0
1577, 0.0
1578, 0.0
1579, 0.0
1580, 0.0
1581, 0.0
1582, 0.0
1583, 0.0
1584, 0.0
1585, 0.0
1586, 0.0
1587, 0.0
1588, 0.0
1589, 0.0
1590, 0.0
1591, 0.0
1592, 0.0
1593, 0.0
1594, 0.0
1595, 0.0
1596, 0.0
1597, 0.0
1598, 0.0
1599, 0.0
