30, 0.0
31, 0.0
32, 0.0
33, 0.0
34, 0.0
35, 0.0
36, 0.0
37, 0.0
38, 0.0
39, 0.0
40, 0.0
41, 0.0
42, 0.0
43, 0.0
44, 0.0
45, 0.0
46, 0.0
47, 0.0
48, 0.0
49, 0.0
50, 0.0
51, 0.0
52, 0.0
53, 0.0
54, 0.0
55, 0.0
56, 0.0
57, 0.0
58, 0.0
59, 0.0
60, 0.0
61, 0.0
62, 0.0
63, 0.0
64, 0.0
65, 0.0
66, 0.0
67, 0.0
68, 0.0
69, 0.0
70, 0.0
71, 0.0
72, 0.0
73, 0.0
74, 0.0
75, 0.0
76, 0.0
77, 0.0
78, 0.0
79, 0.0
80, 0.0
81, 0.0
82, 0.0
83, 0.0
84, 0.0
85, 0.0
86, 0.0
87, 0.0
88, 0.0
89, 0.0
90, 0.0
91, 0.0
92, 0.0
93, 0.0
94, 0.0
95, 0.0
96, 0.0
97, 0.0
98, 0.0
99, 0.0
100, 0.0
101, 0.0
102, 0.0
103, 0.0
104, 0.0
105, 0.0
106, 0.0
107, 0.0
108, 0.0
109, 0.0
110, 0.0
111, 0.0
112, 0.0
113, 0.0
114, 0.0
115, 0.0
116, 0.0
117, 0.0
118, 0.0
119, 0.0
120, 0.0
121, 0.0
122, 0.0
123, 0.0
124, 0.0
125, 0.0
126, 0.0
127, 0.0
128, 0.0
129, 0.0
130, 0.0
131, 0.0
132, 0.0
133, 0.0
134, 0.0
135, 0.0
136, 0.0
137, 0.0
138, 0.0
139, 0.0
140, 0.0
141, 0.0
142, 0.0
143, 0.0
144, 0.0
145, 0.0
146, 0.0
147, 0.0
148, 0.0
149, 0.0
150, 0.0
151, 0.0
152, 0.0
153, 0.0
154, 0.0
155, 0.0
156, 0.0
157, 0.0
158, 0.0
159, 0.0
160, 0.0
161, 0.0
162, 0.0
163, 0.0
164, 0.0
165, 0.0
166, 0.0
167, 0.0
168, 0.0
169, 0.0
170, 0.0
171, 0.0
172, 0.0
173, 0.0
174, 0.0
175, 0.0
176, 0.0
177, 0.0
178, 0.0
179, 0.0
180, 0.0
181, 0.0
182, 0.0
183, 0.0
184, 0.0
185, 0.0
186, 0.0
187, 0.0
188, 0.0
189, 0.0
190, 0.0
191, 0.0
192, 0.0
193, 0.0
194, 0.0
195.0, 0.00016239383425640825
196.0, 0.004855012554476571
197.0, 0.01061090968440907
198.0, 0.004648456539904974
199.0, 0.0006002811855651111
200.0, 0.00489170289627689
201.0, 0.004592045277168533
202.0, 0.0006020675770642539
203.0, 0.000403037893114549
204.0, 0.0029328076405448432
205.0, 0.0025634096828976885
206.0, 0.01678758238633338
207.0, 0.03653959936014938
208.0, 0.03751936571171312
209.0, 0.039110556081429576
210.0, 0.047642243331357616
211.0, 0.06730704995011859
212.0, 0.09219381828768371
213.0, 0.09911449672084131
214.0, 0.12108109739873417
215.0, 0.1500867069491967
216.0, 0.1707384849656708
217.0, 0.1768607737919173
218.0, 0.207027552566185
219.0, 0.2461361759159114
220.0, 0.27827925282000326
221.0, 0.3002135005135938
222.0, 0.3399866374796923
223.0, 0.3815025390707431
224.0, 0.4162883013011172
225.0, 0.45727832197585716
226.0, 0.5323456848192506
227.0, 0.5945709162824141
228.0, 0.6513402466425566
229.0, 0.7139770435473471
230.0, 0.7881490614674322
231.0, 0.8714709222735142
232.0, 0.9432005601721081
233.0, 0.9815534014640849
234.0, 0.9909297847996753
235.0, 0.998458572631312
236.0, 0.9515831393340779
237.0, 0.876801552829431
238.0, 0.79401790430171
239.0, 0.7017080853789124
240.0, 0.5983262118322333
241.0, 0.521856879306211
242.0, 0.45736233256318376
243.0, 0.3900901150250625
244.0, 0.32123505341863456
245.0, 0.27588942925989
246.0, 0.23740519996846216
247.0, 0.20057987095136331
248.0, 0.16950136275520702
249.0, 0.15978816528606724
250.0, 0.13978227187361494
251.0, 0.12387127353508295
252.0, 0.11381124160049702
253.0, 0.09546856979534994
254.0, 0.08950541941782729
255.0, 0.07427221542876153
256.0, 0.061667198568601506
257.0, 0.06234273578628543
258.0, 0.054609938072897574
259.0, 0.05026551566605701
260.0, 0.04268129587103967
261.0, 0.03420771146546279
262.0, 0.033857724875613976
263.0, 0.02524479928642881
264.0, 0.011168269461845482
265.0, 0.007648654412197505
266.0, 0.019822615936424644
267.0, 0.025559325328762476
268.0, 0.007039382604807796
269.0, 0.0022865362639367774
270.0, 0.007585350392441345
271.0, 0.008432382632956707
272.0, 0.0038901192066693405
273.0, 0.013419411356220191
274.0, 0.017997418357215918
275.0, 0.007431785642417498
276.0, 0.006136132544425529
277.0, 0.010091539584528972
278.0, 0.0036311136011154886
279.0, 0.008204430139623548
280.0, 0.015391143345694244
281.0, 0.007864658466138813
282.0, 0.014992056508625212
283.0, 0.01262744103347349
284.0, 0.010043635650430708
285.0, 0.0045599618787350435
286.0, 0.0038594902968483316
287.0, 0.009981544684388739
288.0, 0.012731308083041595
289.0, 0.009098339724712294
290.0, 0.011433540654972374
291.0, 0.004075221031150696
292.0, 0.009971086604088733
293.0, 0.02006852666701226
294.0, 0.017442700933892875
295.0, 0.020200120064375462
296.0, 0.016181279877302127
297.0, 0.012598322036860513
298.0, 0.017355125567473203
299.0, 0.029048239195829828
300.0, 0.03144550748555015
301.0, 0.033586058701800266
302.0, 0.02913146051245413
303.0, 0.019707630586406136
304.0, 0.02218836706091877
305.0, 0.03482553775630328
306.0, 0.04003761030588157
307.0, 0.03698246600650786
308.0, 0.03184679222529126
309.0, 0.02425504604883102
310.0, 0.030193678761091164
311.0, 0.029768634537307832
312.0, 0.028226300708024416
313.0, 0.04001279199847373
314.0, 0.031364117876384254
315.0, 0.026484368514426437
316.0, 0.027042705518077935
317.0, 0.02860473489910343
318.0, 0.028505088637027866
319.0, 0.026098077772519556
320.0, 0.02189055659501816
321.0, 0.017369762650421457
322.0, 0.015608535307935073
323.0, 0.02120664782245414
324.0, 0.017852346226751154
325.0, 0.023198426483468714
326.0, 0.030523396608132972
327.0, 0.025437102964706793
328.0, 0.017921031851412285
329.0, 0.024233181136197206
330.0, 0.025914969236605842
331.0, 0.02139063913615788
332.0, 0.022205379566899993
333.0, 0.023678570108728342
334.0, 0.029210313104948902
335.0, 0.024872327966589815
336.0, 0.0131570331192054
337.0, 0.015138958108174323
338.0, 0.022422287379863327
339.0, 0.018909388816358112
340.0, 0.009774494446920768
341.0, 0.007064306909627124
342.0, 0.013361965905715279
343.0, 0.010152915561856431
344.0, 0.007511039765190161
345.0, 0.008602745939407743
346.0, 0.010557960140311965
347.0, 0.010250724453440378
348.0, 0.007593129940821475
349.0, 0.01108455971376281
350.0, 0.01256429968617506
351.0, 0.0017066399552904904
352.0, 0.005211849372170595
353.0, 0.005615240015789745
354.0, 0.010133788016064509
355.0, 0.007098012747552226
356.0, 0.009916393428342114
357.0, 0.0008763220388120571
358.0, 0.000904347006680517
359.0, 0.0015622364113471506
360.0, 0.005741782301157473
361.0, 0.00734097396265128
362.0, 0.0024901777387170212
363.0, 0.009018821627494117
364.0, 0.011746560084030784
365.0, 0.01219054185307936
366.0, 0.013299640572703225
367.0, 0.005336395218623182
368.0, 0.011507146306222335
369.0, 0.01463759652141951
370.0, 0.004554615204551674
371.0, 0.0038445260826413126
372.0, 0.0025197575296304654
373.0, 0.012704836555833779
374.0, 0.021757736486684845
375.0, 0.017072272887339857
376.0, 0.012717536985506725
377.0, 0.020657211853016045
378.0, 0.02710250172058524
379.0, 0.026921654041888562
380.0, 0.0248101996640013
381.0, 0.02745149951905571
382.0, 0.02602523474384433
383.0, 0.027560374007278485
384.0, 0.03059089410333112
385.0, 0.030515616693838225
386.0, 0.028607954505580836
387.0, 0.023570059095004425
388.0, 0.03086884126985997
389.0, 0.04108283691715917
390.0, 0.03789764688903027
391.0, 0.03318928365664112
392.0, 0.03811163651850392
393.0, 0.037465244942870034
394.0, 0.03708991381671978
395.0, 0.04526136420150649
396.0, 0.032617383924847615
397.0, 0.024512069402889587
398.0, 0.02075598836994028
399.0, 0.017292854440013626
400.0, 0.013369610944245092
401.0, 0.02355767475609782
402.0, 0.028245108863851065
403.0, 0.025728577713211426
404.0, 0.016002414976200745
405.0, 0.006518076077398128
406.0, 0.023888015192674764
407.0, 0.023327230660159768
408.0, 0.019972607534264167
409.0, 0.022519843150551368
410.0, 0.023318047036904065
411.0, 0.022088454135687073
412.0, 0.021342315261151067
413.0, 0.020301010434667217
414.0, 0.022341873609310423
415.0, 0.02749264078584225
416.0, 0.022845067277596803
417.0, 0.019835599486147784
418.0, 0.008992382518639791
419.0, 0.005493429420622289
420.0, 0.020713454250145744
421.0, 0.017464132330540783
422.0, 0.014949020615672116
423.0, 0.015524861133998445
424.0, 0.01666674963470676
425.0, 0.016952194073119837
426.0, 0.01990312881847122
427.0, 0.01511257805696248
428.0, 0.011852167367011286
429.0, 0.009262512998762228
430.0, 0.0027245379644183455
431.0, 0.0022066574882559733
432.0, 0.0059295617735088966
433.0, 0.013761113625580813
434.0, 0.010124023364675654
435.0, 0.0005392307016406785
436.0, 0.006262751285614621
437.0, 0.013722422175543524
438.0, 0.010917019186044104
439.0, 0.002391765961123956
440.0, 0.003043969503744613
441.0, 0.013018522140542584
442.0, 0.015967226955803954
443.0, 0.007423151700259555
444.0, 0.0062879183635425615
445.0, 0.013033684928543118
446.0, 0.005394254106722143
447.0, 0.017725720869952277
448.0, 0.009440125105686403
449.0, 0.005314390597832144
450.0, 0.014593937912941404
451.0, 0.010357477516024503
452.0, 0.0054194812560710145
453.0, 0.010230640360504757
454.0, 0.010677750183840361
455.0, 0.0028516177522471407
456.0, 0.00047740167608892857
457.0, 0.0015301136258317352
458.0, 0.0029403043753934923
459.0, 0.005761720431292975
460.0, 0.00798720409843716
461.0, 0.0073728581489909545
462.0, 0.011835784657491782
463.0, 0.006484444757274781
464.0, 0.002034508114237356
465.0, 0.0016819947014043162
466.0, 0.007340047768859479
467.0, 0.00490984108811871
468.0, 0.008505028400005814
469.0, 0.011182493479004392
470.0, 0.010539735164842278
471.0, 0.015634782107279175
472.0, 0.015784935262072333
473.0, 0.015263173682746616
474.0, 0.02472101294502759
475.0, 0.02589542541568017
476.0, 0.01638383655366287
477.0, 0.01872372289364373
478.0, 0.02495522335407207
479.0, 0.02312768508789965
480.0, 0.018541977635734983
481.0, 0.015291640746390625
482.0, 0.015655435754853283
483.0, 0.029344719389840193
484.0, 0.01635165409136612
485.0, 0.009413689861313898
486.0, 0.007196422664900689
487.0, 0.0004688959843440264
488.0, 0.017843900188826936
489.0, 0.04856438183797764
490.0, 0.03572637564980797
491.0, 0.017993538268683072
492.0, 0.024066936617416525
493.0, 0.009668675756084127
494.0, 0.013670687420509151
495.0, 0.00580268989808553
496.0, 0.002601189953897248
497.0, 0.01146235349511806
498.0, 0.012630155302619768
499.0, 0.001901617934585599
500.0, 0.01298572944502035
501.0, 0.02236806926873523
502.0, 0.01865325413272856
503.0, 0.008341921422603647
504.0, 0.0012252886620664478
505.0, 0.006144747478027576
506.0, 0.012921013136736836
507.0, 0.01020513933292294
508.0, 0.0041680329400450335
509.0, 0.010496888701148174
510.0, 0.008969009784223887
511.0, 0.003400702045060679
512.0, 0.004850029526921142
513.0, 0.01392840718879181
514.0, 0.021852284105697926
515.0, 0.02191819267988319
516.0, 0.022545010093250207
517.0, 0.010866626696932218
518.0, 0.002922237558551404
519.0, 0.012795828936303938
520.0, 0.02181645296278135
521.0, 0.015915634650964166
522.0, 0.02381702871476047
523.0, 0.024759898841638636
524.0, 0.012647992713551555
525.0, 0.013110358270564752
526.0, 0.00979834885556921
527.0, 0.021117936561058603
528.0, 0.02330532284536561
529.0, 0.01658916544430584
530.0, 0.016463519150490137
531.0, 0.02153778091488552
532.0, 0.025215554942834215
533.0, 0.016407478421795622
534.0, 0.015427798330775908
535.0, 0.02652071490140789
536.0, 0.0248239044116753
537.0, 0.015310903764105488
538.0, 0.02336285651885027
539.0, 0.02743341759763034
540.0, 0.02031842226070812
541.0, 0.015904109489462494
542.0, 0.0222156447907756
543.0, 0.02775920693612415
544.0, 0.030537199450084467
545.0, 0.025826491075178818
546.0, 0.01931262572568513
547.0, 0.02325769356817354
548.0, 0.018801666373104133
549.0, 0.01981734457710139
550.0, 0.018203404670610317
551.0, 0.014445186173649557
552.0, 0.014274616217346396
553.0, 0.012715331204622655
554.0, 0.0014889219123629352
555.0, 0.005112479943467044
556.0, 0.017867144345361883
557.0, 0.02529350982928422
558.0, 0.021075456773394206
559.0, 0.0017842849416907832
560.0, 0.003296067267348401
561.0, 0.005048348828349052
562.0, 0.0015430225075019474
563.0, 0.0028938319005019897
564.0, 0.012056886693178703
565.0, 0.005906320716198484
566.0, 0.0006273210532608194
567.0, 0.00123244698734571
568.0, 0.002537128995616378
569.0, 0.00028602903691023597
570.0, 0.00341847184531677
571.0, 0.007381477003358533
572.0, 0.007208329316176903
573.0, 0.013836123107275953
574.0, 0.02223122949360304
575.0, 0.010144780940854659
576.0, 0.010116843404474872
577.0, 0.0027433191207863633
578.0, 0.002014121588816461
579.0, 0.003102073697295168
580.0, 0.0022023053080620727
581.0, 0.00415471721512737
582.0, 0.005120866327825515
583.0, 0.0015689843055200442
584.0, 0.0014131530115775424
585.0, 0.003331291178583051
586.0, 0.0038770278837176554
587.0, 0.012091268171358192
588.0, 0.017291834613951274
589.0, 0.014681442055645063
590.0, 0.011039789071839468
591.0, 0.011678005614763173
592.0, 0.009789303127703146
593.0, 0.006942330159443374
594.0, 0.008585037497460386
595.0, 0.020065601322525786
596.0, 0.019257845044440367
597.0, 0.012730126272599767
598.0, 0.0007398942008688661
599.0, 0.012785889647315581
600.0, 0.022078315517376306
601.0, 0.026051820392212224
602.0, 0.022835534447039278
603.0, 0.015461896799209052
604.0, 0.025080435053782088
605.0, 0.010246025118849008
606.0, 0.01435190080309246
607.0, 0.02232805225685319
608.0, 0.019071703556938335
609.0, 0.016185096694839845
610.0, 0.015139012418207868
611.0, 0.018056849767623645
612.0, 0.010332921494827254
613.0, 0.015199053381339676
614.0, 0.027222373766545203
615.0, 0.010624248064488404
616.0, 0.0012463716078407086
617.0, 0.020098264431386546
618.0, 0.02210491509092116
619.0, 0.015765380324944192
620.0, 0.021776993098242572
621.0, 0.025283568076655664
622.0, 0.014428931416242767
623.0, 0.016786680559330056
624.0, 0.010364526153582543
625.0, 0.008547015229199477
626.0, 0.017814250382277207
627.0, 0.00889812812493047
628.0, 0.011703244882602305
629.0, 0.013264397596346296
630.0, 0.01430979444938752
631.0, 0.016676389297095827
632.0, 0.014861481981458643
633.0, 0.004884786255817227
634.0, 0.010375274253428168
635.0, 0.014092935297239017
636.0, 0.011718530969955699
637.0, 0.004136347540460569
638.0, 0.0009506598095898584
639.0, 0.01261161116079949
640.0, 0.008084689282882357
641.0, 0.003076082427394734
642.0, 0.003021075523053401
643.0, 0.0038438293755144997
644.0, 0.0050951480961389595
645.0, 0.015667379223463573
646.0, 0.007400451616296235
647.0, 0.007886880557659931
648.0, 0.009096352254978363
649.0, 0.006763040814650914
650.0, 0.008342326906208255
651.0, 0.016344380350526436
652.0, 0.002485919168137477
653.0, 0.009451389199783743
654.0, 0.014044201126796982
655.0, 0.00765114377954148
656.0, 0.0019307642156996695
657.0, 0.004158000106847065
658.0, 0.00017884332971924194
659.0, 0.007437591858483007
660.0, 0.015124417668140374
661.0, 0.016649950639447426
662.0, 0.01768572830496539
663.0, 0.022569509708051667
664.0, 0.018967220787571983
665.0, 0.02677929251304685
666.0, 0.031061277879072535
667.0, 0.024200213956791426
668.0, 0.0124618250989522
669.0, 0.009586586854966965
670.0, 0.013758587328431767
671.0, 0.003999655823298492
672.0, 0.003602359775332706
673.0, 0.013023932151100651
674.0, 0.021454522840637924
675.0, 0.021884194441555198
676.0, 0.01652827814041419
677.0, 0.01835406204138805
678.0, 0.011256939708104829
679.0, 0.0055593542422021115
680.0, 0.007815713810399057
681.0, 0.009588419135602709
682.0, 0.017742072763099317
683.0, 0.017563512080649022
684.0, 0.01475698337170258
685.0, 0.00919219039376885
686.0, 0.009622614802530275
687.0, 0.02161866850293226
688.0, 0.01906093381462034
689.0, 0.02194397606846471
690.0, 0.028300773660821732
691.0, 0.02095169731975682
692.0, 0.012775153161241698
693.0, 0.022271116848168473
694.0, 0.028494926895585693
695.0, 0.017421024397007358
696.0, 0.02124573834401983
697.0, 0.023965602670824416
698.0, 0.020558817399536522
699.0, 0.019611918568831776
700.0, 0.022834805920368004
701.0, 0.020790401855040563
702.0, 0.015273909871170119
703.0, 0.020576230179843242
704.0, 0.020852513436480678
705.0, 0.017433189004396187
706.0, 0.03234930587115642
707.0, 0.02345399893756084
708.0, 0.03082134871126337
709.0, 0.0263473437725977
710.0, 0.025276251065434192
711.0, 0.03294164548153757
712.0, 0.028501236593335966
713.0, 0.011853731852965347
714.0, 0.026280281809988773
715.0, 0.012732849606970954
716.0, 0.026717368813724017
717.0, 0.043930914573010224
718.0, 0.030679586553173824
719.0, 0.03410346677347563
720.0, 0.02861059792915453
721.0, 0.02831524997122981
722.0, 0.029934916021565824
723.0, 0.031954093479638394
724.0, 0.033782092936960675
725.0, 0.03301349706768073
726.0, 0.02720365677648336
727.0, 0.01228343883932612
728.0, 0.017159494906044688
729.0, 0.018457262543941953
730.0, 0.017665892542972104
731.0, 0.026458124632955188
732.0, 0.021259301211720566
733.0, 0.019815139134462645
734.0, 0.018911894146063358
735.0, 0.0188053495659693
736.0, 0.026758954440914893
737.0, 0.026254596460885186
738.0, 0.004089903634748567
739.0, 0.019731671644377988
740.0, 0.014849209076583509
741.0, 0.002910929322532379
742.0, 0.008452502903267264
743.0, 0.019745545350462742
744.0, 0.019919137702043142
745.0, 0.019076738636286405
746.0, 0.005858099783395647
747.0, 0.009308059005308235
748.0, 0.01634516923613748
749.0, 0.012519201917048622
750.0, 0.00396209099114353
751.0, 0.0037388824139855874
752.0, 0.0028634335113619327
753.0, 0.0013530807579921068
754.0, 0.000947941950848913
755.0, 0.0013632913835941723
756.0, 0.0003684632314753415
757.0, 0.00046812084159358674
758.0, 0.001076470234840194
759.0, 0.016840174586990407
760.0, 0.007576468469346448
761.0, 0.009447926254358124
762.0, 0.011551062942379408
763.0, 0.0062440526721538716
764.0, 0.006101200873442709
765.0, 0.009909548789975001
766.0, 0.014375731721794564
767.0, 0.013804096372573425
768.0, 0.012531150590661636
769.0, 0.0051806628737091935
770.0, 0.0005327835215219253
771.0, 0.007616540109006588
772.0, 0.0044389354628339645
773.0, 0.0005854615310437325
774.0, 0.009430262074265975
775.0, 0.01604557440249037
776.0, 0.011489171216832246
777.0, 0.005642968571040458
778.0, 0.012198779633031861
779.0, 0.015808556991203034
780.0, 0.024253048961639698
781.0, 0.015889995244913697
782.0, 0.0025886464613687483
783.0, 0.007243659597234739
784.0, 0.002363425644198512
785.0, 0.01694099875622227
786.0, 0.012814846681663881
787.0, 0.00497317689427485
788.0, 0.0008850170829612751
789.0, 0.0009282534688676684
790.0, 0.010010169181017797
791.0, 0.020454290233858727
792.0, 0.011841288082326849
793.0, 0.01660186433669865
794.0, 0.009651388583473778
795.0, 0.018936411737081493
796.0, 0.025387113062068457
797.0, 0.016088160169714816
798.0, 0.008339265666636064
799.0, 0.008117493842408563
800.0, 0.020463643440362833
801.0, 0.009398535901388626
802.0, 0.011069094309256688
803.0, 0.014246019576340446
804.0, 0.010199042484773444
805.0, 0.01478439546071311
806.0, 0.01839434138343911
807.0, 0.004445568832368748
808.0, 0.030430988396721474
809.0, 0.02291515965596952
810.0, 0.0012958318936712693
811.0, 0.0064497855592013115
812.0, 0.021510833298852082
813.0, 0.01870611206825195
814.0, 0.01641092218056915
815.0, 0.018264885314094096
816.0, 0.023959897545293075
817.0, 0.020909739549029874
818.0, 0.012761866111260628
819.0, 0.013345671665770649
820.0, 0.010983346903461541
821.0, 0.017418563449913667
822.0, 0.021787854755389455
823.0, 0.02371862083071303
824.0, 0.01844241900730624
825.0, 0.014430822567145047
826.0, 0.02081775921330444
827.0, 0.024766807165142388
828.0, 0.023012607346834517
829.0, 0.02219065789276569
830.0, 0.016844454088945804
831.0, 0.00919485146918627
832.0, 0.008786066050850277
833.0, 0.013003091303917547
834.0, 0.00788370210126291
835.0, 0.019578919090842903
836.0, 0.02559328093892454
837.0, 0.021737796691372695
838.0, 0.019390192879007923
839.0, 0.018979380084363312
840.0, 0.015383108656736257
841.0, 0.013911356039932614
842.0, 0.03164613750138389
843.0, 0.014482937383449464
844.0, 0.005624397457988217
845.0, 0.014786960131335972
846.0, 0.01796453077181027
847.0, 0.009071129779437212
848.0, 0.008613300872625643
849.0, 0.00509219725438433
850.0, 0.006405989389374824
851.0, 0.018330603205678295
852.0, 0.008414554535773673
853.0, 0.002997213928953659
854.0, 0.0005712224362593141
855.0, 0.006367160722250548
856.0, 0.025733045543628544
857.0, 0.019896113993139217
858.0, 0.017801744057921027
859.0, 0.02808123668338274
860.0, 0.026858143567639804
861.0, 0.011433712759895033
862.0, 0.004479565401543007
863.0, 0.014810355833520573
864.0, 0.0245961182830901
865.0, 0.011809534304883799
866.0, 0.012216847591810534
867.0, 0.023286177355175193
868.0, 0.01787464306180619
869.0, 0.001978407192138713
870.0, 0.005699986431727902
871.0, 0.008101157177583876
872.0, 0.004655965078585224
873.0, 0.02304121650289245
874.0, 0.028722636738932984
875.0, 0.02358592678336702
876.0, 0.011891308255180552
877.0, 0.0033247020603219875
878.0, 0.02407477873509464
879.0, 0.016547090302234193
880.0, 0.006184042765361126
881.0, 0.00461054265351313
882.0, 0.0007223324712279503
883.0, 0.00761512521848332
884.0, 0.015427969616368529
885.0, 0.0005296221477368546
886.0, 0.003190608335076161
887.0, 0.0036018731654929356
888.0, 0.009465389666549197
889.0, 0.02474942668873021
890.0, 0.010617119818478708
891.0, 0.002050987447305463
892.0, 0.011428389876789269
893.0, 0.007321322401650818
894.0, 0.02275312086698773
895.0, 0.02034031787025386
896.0, 0.01683167158569011
897.0, 0.015440395175243234
898.0, 0.015544213127634529
899.0, 0.01986606056467723
900.0, 0.023553648451130584
901.0, 0.017920000152733123
902.0, 0.027644393888305623
903.0, 0.013727121109308911
904.0, 0.011306396166304307
905.0, 0.006898010702584887
906.0, 0.0034391059454470514
907.0, 0.015715643601903664
908.0, 0.03272574053344254
909.0, 0.020118272568761232
910.0, 0.008258585853997968
911.0, 0.002988720627925304
912.0, 0.01288363735956985
913.0, 0.008148760144279071
914.0, 0.007443173635000903
915.0, 0.003700369484645006
916.0, 0.01328597246200697
917.0, 0.01405570190283119
918.0, 0.015095508655681392
919.0, 0.00868923922055676
920.0, 0.028287082923962738
921.0, 0.0318930648255237
922.0, 0.021676639292330987
923.0, 0.017985286931361418
924.0, 0.011920918044699707
925.0, 0.016471266946057023
926.0, 0.023801772473310046
927.0, 0.032027516062599064
928.0, 0.027962717093105417
929.0, 0.02193094231092726
930.0, 0.019701732993330227
931.0, 0.011257554179461669
932.0, 0.0009571581800626193
933.0, 0.011416275673896949
934.0, 0.02600695550341805
935.0, 0.018504769898215544
936.0, 0.02968525852454472
937.0, 0.024709380380702133
938.0, 0.014303379273221187
939.0, 0.017733157240825463
940.0, 0.016650607714664974
941.0, 0.034622981655329635
942.0, 0.02886659909991868
943.0, 0.009330952617875145
944.0, 0.018195152648271814
945.0, 0.042878428233919554
946.0, 0.038581425224852445
947.0, 0.022341511638465057
948.0, 0.032430273622340446
949.0, 0.019261521656145388
950.0, 0.00720468046521576
951.0, 0.022503342346959047
952.0, 0.014602709299778277
953.0, 0.008880122742208828
954.0, 0.008544163897197109
955.0, 0.0025714684585814098
956.0, 0.0017386118595837242
957.0, 0.008120837348980765
958.0, 0.010484608144768794
959.0, 0.008232184136574762
960.0, 0.003495707204474029
961.0, 0.004691771896190336
962.0, 0.008746207303658663
963.0, 0.01953951062232551
964.0, 0.013224144753393818
965.0, 0.004827246748028125
966.0, 0.016789167559277264
967.0, 0.010808358425528707
968.0, 0.027837711737406744
969.0, 0.013513472206741038
970.0, 0.010757040941381265
971.0, 0.019832853320562324
972.0, 0.021293428221933818
973.0, 0.028687472099233394
974.0, 0.025080936237452105
975.0, 0.024786162319090452
976.0, 0.021490757498627774
977.0, 0.01469513712872025
978.0, 0.005161497794272107
979.0, 0.010306443157137631
980.0, 0.026559802074817927
981.0, 0.029781088811639517
982.0, 0.014998851804614402
983.0, 0.005018218350117527
984.0, 0.007304970567721717
985.0, 0.0012725352976206417
986.0, 0.010880483809515042
987.0, 0.015258131027022125
988.0, 0.010676481573948507
989.0, 0.011024818591566045
990.0, 0.018688580505351826
991.0, 0.02500727412222191
992.0, 0.001577100800694981
993.0, 0.0038634753763218807
994.0, 0.03008643684854547
995.0, 0.0358926516549199
996.0, 0.016698598610046075
997.0, 0.00733220644234107
998.0, 0.02122962052206824
999.0, 0.03414091681937236
1000.0, 0.022320422514293538
1001.0, 0.020644749440069877
1002.0, 0.009168735075080911
1003.0, 0.006348249117326632
1004.0, 0.0160737298794508
1005.0, 0.014231622644196506
1006.0, 0.01157433065009004
1007.0, 0.020085549273248997
1008.0, 0.019407258765755653
1009.0, 0.01843914682909745
1010.0, 0.0021880099482169436
1011.0, 0.016705193665203136
1012.0, 0.04387013466010695
1013.0, 0.041756166109052494
1014.0, 0.023116227278266652
1015.0, 0.01423713359488028
1016.0, 0.0193012198056947
1017.0, 0.0246612314070634
1018.0, 0.026895015571443054
1019.0, 0.04220292917408303
1020.0, 0.018298964048840308
1021.0, 0.014066970361876366
1022.0, 0.02048820602220952
1023.0, 0.02175572966095275
1024.0, 0.02056509584955446
1025.0, 0.017436066462037506
1026.0, 0.018949464525830316
1027.0, 0.04071503550009592
1028.0, 0.0421053927923278
1029.0, 0.05153181017101351
1030.0, 0.04205320873425209
1031.0, 0.02663747163927063
1032.0, 0.011281689553274169
1033.0, 0.011096938950873478
1034.0, 0.017947612516620123
1035.0, 0.012163850289784998
1036.0, 0.028655432119510552
1037.0, 0.024672927588477608
1038.0, 0.035579930965350705
1039.0, 0.018898849302421646
1040.0, 0.014157791326145147
1041.0, 0.0277030292556908
1042.0, 0.037652482076897364
1043.0, 0.04337388883867535
1044.0, 0.0468492530098382
1045.0, 0.03283631530729401
1046.0, 0.04107443170161028
1047.0, 0.029698767265320183
1048.0, 0.04671932845728017
1049.0, 0.046966230338795247
1050.0, 0.04154582720962264
1051.0, 0.04534976112665974
1052.0, 0.034126893090315344
1053.0, 0.013965250783767999
1054.0, 0.017793353237559106
1055.0, 0.006404322103011248
1056.0, 0.005404395229594026
1057.0, 0.024412201122781318
1058.0, 0.0032835703466641106
1059.0, 0.007751840675881647
1060.0, 0.006363687366027125
1061.0, 0.012682880421848314
1062.0, 0.011361416235805964
1063.0, 0.015858675749277105
1064.0, 0.016456241123035738
1065.0, 0.006804253734394525
1066.0, 0.012539888164969017
1067.0, 0.02395375920342333
1068.0, 0.01060017911226368
1069.0, 0.02472809076950261
1070.0, 0.033555455270621405
1071.0, 0.019791001023642132
1072.0, 0.011316371105463555
1073.0, 0.011692138836855765
1074.0, 0.006675569986896389
1075.0, 0.02557268629818538
1076.0, 0.015404483997035541
1077.0, 0.016190041392995905
1078.0, 0.0044996135131404515
1079.0, 0.0016781405309481338
1080.0, 0.017465604375681912
1081.0, 0.030124823802975886
1082.0, 0.028410326155180986
1083.0, 0.027920070908803787
1084.0, 0.017964075874675987
1085.0, 0.028939085503586433
1086.0, 0.03747388419041991
1087.0, 0.04273303800197858
1088.0, 0.04637148820615915
1089.0, 0.05196278507743203
1090.0, 0.02115940939316268
1091.0, 0.012765742277192097
1092.0, 0.035446317467167476
1093.0, 0.03174292422394159
1094.0, 0.03889045473595596
1095.0, 0.027441601661802227
1096.0, 0.02782767731249967
1097.0, 0.03768298013658251
1098.0, 0.01702220268151213
1099.0, 0.027979743450909846
1100.0, 0.05054913003526079
1101.0, 0.03921012724376311
1102.0, 0.02201580583489288
1103.0, 0.026079248247187162
1104.0, 0.00888033419229712
1105.0, 0.023795778300959892
1106.0, 0.0322925831899958
1107.0, 0.010199944733663226
1108.0, 0.035020827529640315
1109.0, 0.012582625610241186
1110.0, 0.021059481846909034
1111.0, 0.03417826821213175
1112.0, 0.02069400221033504
1113.0, 0.02258210303060649
1114.0, 0.018118838691256817
1115.0, 0.008374831096264438
1116.0, 0.023529435555648924
1117.0, 0.023228265857060258
1118.0, 0.028888580802676353
1119.0, 0.036235136055821675
1120.0, 0.021818619869598748
1121.0, 0.01901849805752883
1122.0, 0.02720323369148367
1123.0, 0.022579365660302293
1124.0, 0.020912009755716287
1125.0, 0.027754787827700092
1126.0, 0.03248219252854592
1127.0, 0.04839930440409971
1128.0, 0.03553447684503541
1129.0, 0.03771918844380896
1130.0, 0.024559042172077675
1131.0, 0.021739473883166056
1132.0, 0.02266596605121624
1133.0, 0.016255753468016478
1134.0, 0.01976092672767423
1135.0, 0.025333296637038906
1136.0, 0.016371161387244915
1137.0, 0.024929278310568233
1138.0, 0.021671593427264886
1139.0, 0.035065964661512634
1140.0, 0.021870624910579842
1141.0, 0.015419105233126904
1142.0, 0.015908207963019855
1143.0, 0.014644963734584139
1144.0, 0.019274888030774193
1145.0, 0.03175635396650036
1146.0, 0.035849758173983046
1147.0, 0.022266271372165743
1148.0, 0.01823511111719387
1149.0, 0.04790815438165418
1150.0, 0.04413235859276088
1151.0, 0.037927289938952335
1152.0, 0.023339772724137793
1153.0, 0.029121652176977854
1154.0, 0.03702181824119315
1155.0, 0.024310319885602522
1156.0, 0.010490163757590064
1157.0, 0.005465175605428115
1158.0, 0.0047199702401972314
1159.0, 0.02901819881608589
1160.0, 0.021176217582347313
1161.0, 0.005790949983878979
1162.0, 0.012512799351064125
1163.0, 0.031131335081368245
1164.0, 0.028191483015459085
1165.0, 0.014799076966636073
1166.0, 0.00939732140741737
1167.0, 0.011106183790313683
1168.0, 0.010287678612207847
1169.0, 0.010405408427371653
1170.0, 0.014951527244791818
1171.0, 0.03247955673386815
1172.0, 0.02252089583903022
1173.0, 0.024600078813491414
1174.0, 0.026890110059533748
1175.0, 0.024750344172522247
1176.0, 0.02296685766774167
1177.0, 0.016719258428443625
1178.0, 0.012819721474505406
1179.0, 0.011682003901104408
1180.0, 0.015224962288830376
1181.0, 0.04075410805779561
1182.0, 0.02776993081753859
1183.0, 0.017028990364442415
1184.0, 0.026965013243552258
1185.0, 0.0059063636404940376
1186.0, 0.014074416938226284
1187.0, 0.015301969157998481
1188.0, 0.004161571406940365
1189.0, 0.008312937142068263
1190.0, 0.010284838441889408
1191.0, 0.00792972605663457
1192.0, 0.02579254535329563
1193.0, 0.017289001583908118
1194.0, 0.01619689810580439
1195.0, 0.003642490818942478
1196.0, 0.0074527715661752685
1197.0, 0.025579314969731703
1198.0, 0.036438391580280345
1199.0, 0.03492025164092797
1200.0, 0.024673634153483375
1201.0, 0.014028832816137987
1202.0, 0.004595244282220421
1203.0, 0.014929012494493424
1204.0, 0.031375526434026996
1205.0, 0.013931187534525664
1206.0, 0.02920474718330535
1207.0, 0.03298163625833766
1208.0, 0.046838865642304446
1209.0, 0.02070424571442779
1210.0, 0.04566977960157943
1211.0, 0.042795806213792045
1212.0, 0.04239991118807141
1213.0, 0.033079593971190806
1214.0, 0.027381552476567154
1215.0, 0.0352157267393935
1216.0, 0.029964732306056167
1217.0, 0.018182706620558896
1218.0, 0.02203480312468772
1219.0, 0.03503697662208235
1220.0, 0.029049326618132313
1221.0, 0.02643848528799578
1222.0, 0.016033148016603663
1223.0, 0.032456529344907094
1224.0, 0.03136738641617131
1225.0, 0.03942662359990023
1226.0, 0.040865299598414645
1227.0, 0.022564584992223562
1228.0, 0.018915271513504913
1229.0, 0.016156284855292646
1230.0, 0.005717617937877702
1231.0, 0.03862680768369533
1232.0, 0.030694431537533665
1233.0, 0.01744372964246396
1234.0, 0.004353252428568191
1235.0, 0.011189841468471578
1236.0, 0.00032826061067916753
1237.0, 0.02636739125184504
1238.0, 0.030998560101405077
1239.0, 0.021035149021079946
1240.0, 0.0045061896787880525
1241.0, 0.0027240639943061085
1242.0, 0.031057431946448822
1243.0, 0.04658039439419956
1244.0, 0.023997394377437864
1245.0, 0.040966793751787044
1246.0, 0.024899624539709914
1247.0, 0.016328446281539975
1248.0, 0.0177030790003417
1249.0, 0.015209578974068647
1250.0, 0.006529213247357023
1251.0, 0.022682218995672424
1252.0, 0.022162832505027794
1253.0, 0.02176602313070568
1254.0, 0.018768337662135023
1255.0, 0.011682137014681722
1256.0, 0.021342853807265687
1257.0, 0.028688140797219985
1258.0, 0.019580787224010073
1259.0, 0.02342949932816756
1260.0, 0.034365318401840025
1261.0, 0.03849342677513105
1262.0, 0.06969175642835258
1263.0, 0.0473706568330864
1264.0, 0.03951424900056298
1265.0, 0.023062804908104428
1266.0, 0.020596005904928997
1267.0, 0.013050592675656782
1268.0, 0.0034578306886893923
1269.0, 0.006705558223572939
1270.0, 0.027866592888636122
1271.0, 0.04034564983329546
1272.0, 0.015293805138593543
1273.0, 0.031413307085980356
1274.0, 0.021908402785783453
1275.0, 0.03389109393749143
1276.0, 0.0053990194840272485
1277.0, 0.011941379402131486
1278.0, 0.018508368792862877
1279.0, 0.010061130466174545
1280.0, 0.002289438684513652
1281.0, 0.029658373312933747
1282.0, 0.034166822787253325
1283.0, 0.025399801002840238
1284.0, 0.02027594391338745
1285.0, 0.014818530803069855
1286.0, 0.021285006085870785
1287.0, 0.004399788056485672
1288.0, 0.01981932091822819
1289.0, 0.02645370872502328
1290.0, 0.03278795761808711
1291.0, 0.02689432577555618
1292.0, 0.02136974021251214
1293.0, 0.026284796901082222
1294.0, 0.023767725919221626
1295.0, 0.025995094595639198
1296.0, 0.021170715361508056
1297.0, 0.003539564723071208
1298.0, 0.01853618320063173
1299.0, 0.024139364864811767
1300.0, 0.0001999253683383467
1301.0, 0.0030969102639371044
1302, 0.0
1303, 0.0
1304, 0.0
1305, 0.0
1306, 0.0
1307, 0.0
1308, 0.0
1309, 0.0
1310, 0.0
1311, 0.0
1312, 0.0
1313, 0.0
1314, 0.0
1315, 0.0
1316, 0.0
1317, 0.0
1318, 0.0
1319, 0.0
1320, 0.0
1321, 0.0
1322, 0.0
1323, 0.0
1324, 0.0
1325, 0.0
1326, 0.0
1327, 0.0
1328, 0.0
1329, 0.0
1330, 0.0
1331, 0.0
1332, 0.0
1333, 0.0
1334, 0.0
1335, 0.0
1336, 0.0
1337, 0.0
1338, 0.0
1339, 0.0
1340, 0.0
1341, 0.0
1342, 0.0
1343, 0.0
1344, 0.0
1345, 0.0
1346, 0.0
1347, 0.0
1348, 0.0
1349, 0.0
1350, 0.0
1351, 0.0
1352, 0.0
1353, 0.0
1354, 0.0
1355, 0.0
1356, 0.0
1357, 0.0
1358, 0.0
1359, 0.0
1360, 0.0
1361, 0.0
1362, 0.0
1363, 0.0
1364, 0.0
1365, 0.0
1366, 0.0
1367, 0.0
1368, 0.0
1369, 0.0
1370, 0.0
1371, 0.0
1372, 0.0
1373, 0.0
1374, 0.0
1375, 0.0
1376, 0.0
1377, 0.0
1378, 0.0
1379, 0.0
1380, 0.0
1381, 0.0
1382, 0.0
1383, 0.0
1384, 0.0
1385, 0.0
1386, 0.0
1387, 0.0
1388, 0.0
1389, 0.0
1390, 0.0
1391, 0.0
1392, 0.0
1393, 0.0
1394, 0.0
1395, 0.0
1396, 0.0
1397, 0.0
1398, 0.0
1399, 0.0
1400, 0.0
1401, 0.0
1402, 0.0
1403, 0.0
1404, 0.0
1405, 0.0
1406, 0.0
1407, 0.0
1408, 0.0
1409, 0.0
1410, 0.0
1411, 0.0
1412, 0.0
1413, 0.0
1414, 0.0
1415, 0.0
1416, 0.0
1417, 0.0
1418, 0.0
1419, 0.0
1420, 0.0
1421, 0.0
1422, 0.0
1423, 0.0
1424, 0.0
1425, 0.0
1426, 0.0
1427, 0.0
1428, 0.0
1429, 0.0
1430, 0.0
1431, 0.0
1432, 0.0
1433, 0.0
1434, 0.0
1435, 0.0
1436, 0.0
1437, 0.0
1438, 0.0
1439, 0.0
1440, 0.0
1441, 0.0
1442, 0.0
1443, 0.0
1444, 0.0
1445, 0.0
1446, 0.0
1447, 0.0
1448, 0.0
1449, 0.0
1450, 0.0
1451, 0.0
1452, 0.0
1453, 0.0
1454, 0.0
1455, 0.0
1456, 0.0
1457, 0.0
1458, 0.0
1459, 0.0
1460, 0.0
1461, 0.0
1462, 0.0
1463, 0.0
1464, 0.0
1465, 0.0
1466, 0.0
1467, 0.0
1468, 0.0
1469, 0.0
1470, 0.0
1471, 0.0
1472, 0.0
1473, 0.0
1474, 0.0
1475, 0.0
1476, 0.0
1477, 0.0
1478, 0.0
1479, 0.0
1480, 0.0
1481, 0.0
1482, 0.0
1483, 0.0
1484, 0.0
1485, 0.0
1486, 0.0
1487, 0.0
1488, 0.0
1489, 0.0
1490, 0.0
1491, 0.0
1492, 0.0
1493, 0.0
1494, 0.0
1495, 0.0
1496, 0.0
1497, 0.0
1498, 0.0
1499, 0.0
1500, 0.0
1501, 0.0
1502, 0.0
1503, 0.0
1504, 0.0
1505, 0.0
1506, 0.0
1507, 0.0
1508, 0.0
1509, 0.0
1510, 0.0
1511, 0.0
1512, 0.0
1513, 0.0
1514, 0.0
1515, 0.0
1516, 0.0
1517, 0.0
1518, 0.0
1519, 0.0
1520, 0.0
1521, 0.0
1522, 0.0
1523, 0.0
1524, 0.0
1525, 0.0
1526, 0.0
1527, 0.0
1528, 0.0
1529, 0.0
1530, 0.0
1531, 0.0
1532, 0.0
1533, 0.0
1534, 0.0
1535, 0.0
1536, 0.0
1537, 0.0
1538, 0.0
1539, 0.0
1540, 0.0
1541, 0.0
1542, 0.0
1543, 0.0
1544, 0.0
1545, 0.0
1546, 0.0
1547, 0.0
1548, 0.0
1549, 0.0
1550, 0.0
1551, 0.0
1552, 0.0
1553, 0.0
1554, 0.0
1555, 0.0
1556, 0.0
1557, 0.0
1558, 0.0
1559, 0.0
1560, 0.0
1561, 0.0
1562, 0.0
1563, 0.0
1564, 0.0
1565, 0.0
1566, 0.0
1567, 0.0
1568, 0.0
1569, 0.0
1570, 0.0
1571, 0.0
1572, 0.0
1573, 0.0
1574, 0.0
1575, 0.0
1576, 0.0
1577, 0.0
1578, 0.0
1579, 0.0
1580, 0.0
1581, 0.0
1582, 0.0
1583, 0.0
1584, 0.0
1585, 0.0
1586, 0.0
1587, 0.0
1588, 0.0
1589, 0.0
1590, 0.0
1591, 0.0
1592, 0.0
1593, 0.0
1594, 0.0
1595, 0.0
1596, 0.0
1597, 0.0
1598, 0.0
1599, 0.0
