30, 0.0
31, 0.0
32, 0.0
33, 0.0
34, 0.0
35, 0.0
36, 0.0
37, 0.0
38, 0.0
39, 0.0
40, 0.0
41, 0.0
42, 0.0
43, 0.0
44, 0.0
45, 0.0
46, 0.0
47, 0.0
48, 0.0
49, 0.0
50, 0.0
51, 0.0
52, 0.0
53, 0.0
54, 0.0
55, 0.0
56, 0.0
57, 0.0
58, 0.0
59, 0.0
60, 0.0
61, 0.0
62, 0.0
63, 0.0
64, 0.0
65, 0.0
66, 0.0
67, 0.0
68, 0.0
69, 0.0
70, 0.0
71, 0.0
72, 0.0
73, 0.0
74, 0.0
75, 0.0
76, 0.0
77, 0.0
78, 0.0
79, 0.0
80, 0.0
81, 0.0
82, 0.0
83, 0.0
84, 0.0
85, 0.0
86, 0.0
87, 0.0
88, 0.0
89, 0.0
90, 0.0
91, 0.0
92, 0.0
93, 0.0
94, 0.0
95, 0.0
96, 0.0
97, 0.0
98, 0.0
99, 0.0
100, 0.0
101, 0.0
102, 0.0
103, 0.0
104, 0.0
105, 0.0
106, 0.0
107, 0.0
108.0, 3.7693080064268945e-06
109.0, 0.0002759309308515751
110.0, 0.0023755940748841145
111.0, 0.005312303313641002
112.0, 0.007254032682567853
113.0, 0.008932488077171221
114.0, 0.011980350965051931
115.0, 0.015476562644610125
116.0, 0.018151810757614163
117.0, 0.0211875077510944
118.0, 0.02070655667353615
119.0, 0.017314710587359085
120.0, 0.01503785226231793
121.0, 0.012537827385538599
122.0, 0.009551414864862579
123.0, 0.00649146444683412
124.0, 0.0038944455921998793
125.0, 0.003683522017432336
126.0, 0.00379895487451155
127.0, 0.002801922348747627
128.0, 0.0007882323563484345
129.0, 0.001153972181137169
130.0, 0.0004960249911654699
131.0, 0.0005175215095286488
132.0, 0.0016932373555547998
133.0, 0.002088299678125541
134.0, 0.0010461244182244911
135.0, 0.0003096848006678172
136.0, 9.18625819850705e-05
137.0, 0.001115985190307166
138.0, 0.0026417442397487657
139.0, 0.004255185501171029
140.0, 0.00467071767725968
141.0, 0.0038311895447173576
142.0, 0.005327796147290145
143.0, 0.005328424828355044
144.0, 0.006087333483038908
145.0, 0.008345461195369277
146.0, 0.008481385454429842
147.0, 0.00869249823967409
148.0, 0.009978034242718065
149.0, 0.01138423060752669
150.0, 0.010641563897827144
151.0, 0.014346968449918727
152.0, 0.015458258473284355
153.0, 0.013656112135717696
154.0, 0.013289253564184585
155.0, 0.01531608313337279
156.0, 0.01555606432535874
157.0, 0.016119572275374378
158.0, 0.01920716314670849
159.0, 0.02195312206284854
160.0, 0.02128920868180071
161.0, 0.019396251457573656
162.0, 0.017982241125613814
163.0, 0.017260129599288403
164.0, 0.01965494442091985
165.0, 0.0206574999636428
166.0, 0.02000377869206294
167.0, 0.01973665950247569
168.0, 0.01980621246131551
169.0, 0.019105601014255725
170.0, 0.017769797066717805
171.0, 0.01714339991219923
172.0, 0.01855815768857004
173.0, 0.01890507358388214
174.0, 0.018657829316762745
175.0, 0.018582258823849663
176.0, 0.018780703791274687
177.0, 0.020916258610655967
178.0, 0.021206197888378645
179.0, 0.020390763524343148
180.0, 0.020012500576827286
181.0, 0.01822251679752724
182.0, 0.01935957077738832
183.0, 0.0213202596755738
184.0, 0.02177170816747082
185.0, 0.020333175986846638
186.0, 0.02071206394142974
187.0, 0.021983700832067576
188.0, 0.023360338283113853
189.0, 0.024344444636044973
190.0, 0.025741262480505456
191.0, 0.02918987063747047
192.0, 0.032492613433427
193.0, 0.03394614563574227
194.0, 0.03727158602277196
195.0, 0.036848431276445895
196.0, 0.03748912540382755
197.0, 0.04105296378567748
198.0, 0.043731998933165504
199.0, 0.044600000888773444
200.0, 0.04577980896626592
201.0, 0.048494088686205916
202.0, 0.05318975370043474
203.0, 0.059593696703372216
204.0, 0.06357736881375156
205.0, 0.0656711647944187
206.0, 0.06809663031248483
207.0, 0.07360015495143493
208.0, 0.07161285776506
209.0, 0.06584196826198475
210.0, 0.057604234908350274
211.0, 0.04637351626954653
212.0, 0.03907999485780365
213.0, 0.03300784961770567
214.0, 0.028630480605164536
215.0, 0.025859660717946428
216.0, 0.021865274840796763
217.0, 0.0195744120978129
218.0, 0.018351508037719663
219.0, 0.01778891860877041
220.0, 0.017739271809513135
221.0, 0.01654474038153791
222.0, 0.014888142923782622
223.0, 0.012604868450138845
224.0, 0.010486099590920225
225.0, 0.010924740570778312
226.0, 0.008767831881120595
227.0, 0.00932672617715636
228.0, 0.010461243571049519
229.0, 0.0062963504831828
230.0, 0.006763852618523427
231.0, 0.007555883413047338
232.0, 0.007421706066129252
233.0, 0.007051661241122352
234.0, 0.00746160775524354
235.0, 0.010025968878462342
236.0, 0.010116307081154007
237.0, 0.008720347473724662
238.0, 0.009336577754845988
239.0, 0.009280322904843895
240.0, 0.008634330090634315
241.0, 0.007312064658750927
242.0, 0.006167499871655238
243.0, 0.009007734952676465
244.0, 0.009309049665193731
245.0, 0.00940213954389003
246.0, 0.01113109517694673
247.0, 0.015081196175956482
248.0, 0.018344647532826074
249.0, 0.01849601377857221
250.0, 0.016325007464988422
251.0, 0.015086664020420554
252.0, 0.017379750530583216
253.0, 0.01918993565570172
254.0, 0.018732039690773805
255.0, 0.019602297136192003
256.0, 0.02347403865822587
257.0, 0.02525017552664026
258.0, 0.028088936275904034
259.0, 0.030644658778967868
260.0, 0.03244651074882689
261.0, 0.03391647385874464
262.0, 0.03292143458600857
263.0, 0.030617004733322035
264.0, 0.029345721314200032
265.0, 0.028352945012465245
266.0, 0.022745206356316588
267.0, 0.020405435369982846
268.0, 0.018673961827306296
269.0, 0.017139510519311285
270.0, 0.016991948043526692
271.0, 0.013530940160952593
272.0, 0.00967957555922971
273.0, 0.007181055354368177
274.0, 0.00660329393366239
275.0, 0.007137682180078155
276.0, 0.006798514917504863
277.0, 0.00739815457812494
278.0, 0.00864778580650339
279.0, 0.008925471885450266
280.0, 0.007650663152362697
281.0, 0.008391842346904443
282.0, 0.010056668843637692
283.0, 0.01073286035745814
284.0, 0.009628928292551128
285.0, 0.009149702016493193
286.0, 0.009033221878873125
287.0, 0.008949310628701869
288.0, 0.009406356900982446
289.0, 0.011168177398189153
290.0, 0.012455655074222189
291.0, 0.013044256982888488
292.0, 0.013377554691374085
293.0, 0.012884299595287196
294.0, 0.010430626309085459
295.0, 0.013125963064606354
296.0, 0.015545956264002077
297.0, 0.015635932916802885
298.0, 0.015243913825403334
299.0, 0.017571980166459427
300.0, 0.01668285939716031
301.0, 0.015234601283736427
302.0, 0.015185365951311066
303.0, 0.015875993470407437
304.0, 0.015868212741969843
305.0, 0.014685004467765307
306.0, 0.013465322623475036
307.0, 0.013040853653469024
308.0, 0.013192150797087045
309.0, 0.011142068373696077
310.0, 0.011420061468553545
311.0, 0.01111759469097637
312.0, 0.008027869088481708
313.0, 0.006105079463582388
314.0, 0.005810138541970807
315.0, 0.006246924381785087
316.0, 0.006834473178386998
317.0, 0.006251444899946352
318.0, 0.0025801181167385556
319.0, 0.0020070457424918474
320.0, 0.0008257008917866761
321.0, 0.0012241176211824846
322.0, 0.0012827166356878953
323.0, 0.0005404442608122298
324.0, 0.0009418371688553319
325.0, 0.0034634838409024226
326.0, 0.004003482608877853
327.0, 0.0018265038399281406
328.0, 0.00018425750671473043
329.0, 0.00028104935330203814
330.0, 0.002545628443368713
331.0, 0.003929979519106377
332.0, 0.0013957598206842795
333.0, 0.0022549527944562588
334.0, 0.0015656854306425978
335.0, 0.0006749652365356028
336.0, 0.00017517711351094993
337.0, 0.0030152043258480374
338.0, 0.004149655820594314
339.0, 0.00293930827570917
340.0, 0.004120492136302284
341.0, 0.007646960348415778
342.0, 0.004540280941172263
343.0, 0.004877347475635142
344.0, 0.005019545515258058
345.0, 0.004734154354802043
346.0, 0.005671646076005909
347.0, 0.006620890921799995
348.0, 0.007148118612282315
349.0, 0.007106337037249343
350.0, 0.006829699326162088
351.0, 0.0069076399983433985
352.0, 0.007775722647626082
353.0, 0.008750617655171745
354.0, 0.008120749118192175
355.0, 0.007124534896004346
356.0, 0.008092874118235352
357.0, 0.010477745341542596
358.0, 0.009404873130507788
359.0, 0.008472235838684524
360.0, 0.008341746488326219
361.0, 0.007441591586275823
362.0, 0.007024521324082296
363.0, 0.00857885297291829
364.0, 0.007243761298932709
365.0, 0.005017085992248354
366.0, 0.0058200958297501115
367.0, 0.008281602319884562
368.0, 0.008769777071498298
369.0, 0.01322645193776593
370.0, 0.015686716656017143
371.0, 0.011116461493599203
372.0, 0.010604350821303008
373.0, 0.009992019758581534
374.0, 0.009250333909469577
375.0, 0.00832914946300467
376.0, 0.007326183685101239
377.0, 0.009709000488672358
378.0, 0.0069750294989644815
379.0, 0.005256108426542897
380.0, 0.0056867084055400394
381.0, 0.005953957078041999
382.0, 0.006723914236989234
383.0, 0.0056366061308648525
384.0, 0.005175482281401317
385.0, 0.006106907322160826
386.0, 0.006797495424971526
387.0, 0.006666924643470639
388.0, 0.006564231043309035
389.0, 0.007030597327864095
390.0, 0.006654562009442612
391.0, 0.004655882124786041
392.0, 0.003352063267114456
393.0, 0.0018876566408065842
394.0, 0.00351909435992874
395.0, 0.004084002540856933
396.0, 0.0020307031152131914
397.0, 0.0026286916589717234
398.0, 0.000918690223116258
399.0, 0.0006507426204715035
400.0, 0.00048817918333637136
401.0, 0.0017642869299098031
402.0, 0.0005460846234606749
403.0, 0.00040330728357333825
404.0, 0.0007203485295809242
405.0, 0.0015972089967695746
406.0, 0.0019281869300773267
407.0, 0.00299454442362086
408.0, 0.0009047951772368101
409.0, 0.0008104665459892533
410.0, 0.002230857338593837
411.0, 0.0030298210384674955
412.0, 0.002503188985225338
413.0, 0.0023876847761206154
414.0, 0.002674886894905011
415.0, 0.003590340812509472
416.0, 0.004497970983153078
417.0, 0.004378373745757142
418.0, 0.0029881385824031383
419.0, 0.002237883549757024
420.0, 0.0035662069877982743
421.0, 0.005419680528288585
422.0, 0.005575417371188326
423.0, 0.0065732584464228425
424.0, 0.00677203211891945
425.0, 0.004962350809884202
426.0, 0.0035136841599270234
427.0, 0.003875734788150594
428.0, 0.0033878698970198837
429.0, 0.004134321742027102
430.0, 0.005974413371904068
431.0, 0.0069753705403609876
432.0, 0.006385344070699098
433.0, 0.005235905734767919
434.0, 0.004941557004401245
435.0, 0.005633638518845842
436.0, 0.00548222320563367
437.0, 0.0057496917614007995
438.0, 0.007825142574306998
439.0, 0.006530188219716944
440.0, 0.005044811993470028
441.0, 0.0044784222754300175
442.0, 0.007450934549462512
443.0, 0.01213127276057878
444.0, 0.009217725801356784
445.0, 0.009278967777371418
446.0, 0.009675412243986098
447.0, 0.00894144289619494
448.0, 0.008171920037818262
449.0, 0.008848461040341439
450.0, 0.009708677085579792
451.0, 0.008789227677477541
452.0, 0.008852099682655346
453.0, 0.009851183468527052
454.0, 0.009608156468540567
455.0, 0.008311472957656689
456.0, 0.009205465416404112
457.0, 0.010326360467564535
458.0, 0.010820706336614068
459.0, 0.010808942553305364
460.0, 0.011752761194480828
461.0, 0.012228633707482861
462.0, 0.012367366743183287
463.0, 0.011770876507735135
464.0, 0.010572162413962556
465.0, 0.010050432166394136
466.0, 0.010980030490008976
467.0, 0.010736820821958641
468.0, 0.011507633236216275
469.0, 0.012099264458779235
470.0, 0.010434634710094997
471.0, 0.010505778692445157
472.0, 0.011550598689274171
473.0, 0.012167926318464303
474.0, 0.012530537613737803
475.0, 0.012814311760300488
476.0, 0.012233897394145215
477.0, 0.012234628157682902
478.0, 0.010627261063413327
479.0, 0.00804587352540233
480.0, 0.006685349859871004
481.0, 0.007601552413849819
482.0, 0.008995161598610775
483.0, 0.008868027445368696
484.0, 0.0077363344663535435
485.0, 0.006630442634983365
486.0, 0.005960914707745878
487.0, 0.0053893824521684475
488.0, 0.0067532125964063
489.0, 0.008681044130001855
490.0, 0.008798438816262811
491.0, 0.007918945520075646
492.0, 0.008277758211387303
493.0, 0.007780145424599134
494.0, 0.007754274254731864
495.0, 0.008657150905687357
496.0, 0.009704067060545859
497.0, 0.0095063339562877
498.0, 0.007981386618810081
499.0, 0.008507362689865513
500.0, 0.009353029686451115
501.0, 0.008118333258368578
502.0, 0.007003776530256701
503.0, 0.007941141493889643
504.0, 0.00834077013534369
505.0, 0.007353881602421085
506.0, 0.006271573196531144
507.0, 0.006090268918263235
508.0, 0.007272878623097642
509.0, 0.009067656462086161
510.0, 0.008401610050586273
511.0, 0.008705611345469695
512.0, 0.007785334993891148
513.0, 0.00616504798582861
514.0, 0.0060067115680423975
515.0, 0.007912023637243684
516.0, 0.009932647205875682
517.0, 0.006621451791073737
518.0, 0.003744640796949518
519.0, 0.0031078763798245207
520.0, 0.002667346623309877
521.0, 0.0023620437312401005
522.0, 0.002378462054371558
523.0, 0.001979421964473358
524.0, 0.002034093161847377
525.0, 0.002131841866491575
526.0, 0.0012652520597167699
527.0, 0.003395414680862039
528.0, 0.0012288327952991633
529.0, 0.001210408941691056
530.0, 0.0018070637549774619
531.0, 0.001098002244789401
532.0, 0.0017571482902073827
533.0, 0.0014176858403398612
534.0, 0.0013730627601075888
535.0, 0.0025797007224402932
536.0, 0.0030056733732221398
537.0, 0.0012851069648720302
538.0, 0.0002024656550281974
539.0, 0.00018725641728542758
540.0, 1.7790418911232177e-05
541.0, 0.0010747166851476858
542.0, 0.001240356202867258
543.0, 0.0009485168326093887
544.0, 0.0013284725721125997
545.0, 0.0011938413647628308
546.0, 0.0008895208567551994
547.0, 0.0018904804346993776
548.0, 0.0026224477164073132
549.0, 0.0007283059612952295
550.0, 0.0008774884446908441
551.0, 0.0007314113633291312
552.0, 0.0006826793578101725
553.0, 0.001283680212568841
554.0, 0.0023400343732326466
555.0, 0.0029328960022444953
556.0, 0.0005537662592428096
557.0, 0.0021150369193743343
558.0, 0.0040567998319511155
559.0, 0.004182533313869847
560.0, 0.002858936325526022
561.0, 0.00161602566751968
562.0, 0.004092702998987376
563.0, 0.0030053233011055943
564.0, 0.0029054783304745275
565.0, 0.002916904138886912
566.0, 0.0018714694202002864
567.0, 0.003149241227379046
568.0, 0.004703876145973726
569.0, 0.004522226740806319
570.0, 0.004661084352173894
571.0, 0.0034907661156818926
572.0, 0.0009138300450915868
573.0, 0.00124323952534496
574.0, 0.002561644501731755
575.0, 0.003031647248478683
576.0, 0.001783792132576356
577.0, 0.0015491672081438168
578.0, 0.002599246515047364
579.0, 0.0005967600267202275
580.0, 0.0004278063571248905
581.0, 0.0032357471049454657
582.0, 0.004791812484291589
583.0, 0.0030588781527367357
584.0, 0.001208080072178375
585.0, 0.004412618596261072
586.0, 0.006840555172413422
587.0, 0.00524362596570758
588.0, 0.003725040623505852
589.0, 0.0038360196891470766
590.0, 0.0043222021231127325
591.0, 0.004149060867570236
592.0, 0.00759197498007434
593.0, 0.0061390728091427395
594.0, 0.0053159893713603055
595.0, 0.006407558640943847
596.0, 0.007040748767037897
597.0, 0.005705102830986777
598.0, 0.006674224435766307
599.0, 0.004487870659386939
600.0, 0.003832904132506682
601.0, 0.004498623288133689
602.0, 0.004828565621791301
603.0, 0.004704339310812525
604.0, 0.0038574316898565227
605.0, 0.004383749342703422
606.0, 0.004210045699106383
607.0, 0.002876436350436578
608.0, 0.0021682549761178724
609.0, 0.0031680345569126815
610.0, 0.0029092466503389904
611.0, 0.005164929743453983
612.0, 0.003946685471753019
613.0, 0.003589380431175323
614.0, 0.004182763264516464
615.0, 0.0036072255775259523
616.0, 0.003848617104866454
617.0, 0.0042749224497054625
618.0, 0.0040716481896514705
619.0, 0.003533174191320179
620.0, 0.003623786552345972
621.0, 0.003918184134431021
622.0, 0.002941321382998544
623.0, 0.004211857338383168
624.0, 0.00437075499681422
625.0, 0.005367772263925623
626.0, 0.006409809727311409
627.0, 0.006758955393805434
628.0, 0.007127825968151197
629.0, 0.007735681311408821
630.0, 0.009143573403599944
631.0, 0.006145172831847235
632.0, 0.004217144405123653
633.0, 0.005722328953021731
634.0, 0.007939139478210223
635.0, 0.007898392707136976
636.0, 0.00523011537543283
637.0, 0.004486875736910772
638.0, 0.006396565637252845
639.0, 0.006596517443007627
640.0, 0.005371587096954551
641.0, 0.006564584346984871
642.0, 0.005598902517366064
643.0, 0.0072228854083131
644.0, 0.00549006075028881
645.0, 0.004699485708913105
646.0, 0.0055877125321037845
647.0, 0.005069366028469386
648.0, 0.0055852302260741855
649.0, 0.0057838855252256675
650.0, 0.00658963279060198
651.0, 0.00486231735729177
652.0, 0.0038729173525425984
653.0, 0.004648000387568847
654.0, 0.0031039365733334084
655.0, 0.0016533358750120905
656.0, 0.0020222612174974224
657.0, 0.0033008767310477105
658.0, 0.0034729473028659377
659.0, 0.0032432143873523263
660.0, 0.003303229977072346
661.0, 0.0016145146020768463
662.0, 0.0008414516260107403
663.0, 0.0012387492152433862
664.0, 0.00039034062972611764
665.0, 0.0010939942098357287
666.0, 0.0019862105782593323
667.0, 0.001260169191860384
668.0, 0.004215310696002451
669.0, 0.0030130321245150334
670.0, 0.0010595220315387176
671.0, 0.000612074561691534
672.0, 0.0010599638844369912
673.0, 0.0007877878917944864
674.0, 0.00042343344537945106
675.0, 0.0019692793486368082
676.0, 0.0027500969544834077
677.0, 0.002605810415439702
678.0, 0.0021403216695702614
679.0, 0.002471188191604757
680.0, 0.00400551578732316
681.0, 0.0028741583138642566
682.0, 0.0015759016692343383
683.0, 0.0007738974851868788
684.0, 0.003742800743566526
685.0, 0.0055915374866352075
686.0, 0.004725739380907372
687.0, 0.006360159618073562
688.0, 0.00778508094296112
689.0, 0.007049898059987355
690.0, 0.006194883145720122
691.0, 0.007836742690899434
692.0, 0.011177772309800986
693.0, 0.013532679161646521
694.0, 0.014551050616848058
695.0, 0.015523714500379607
696.0, 0.016688705811630726
697.0, 0.01966794317231113
698.0, 0.01939925362846202
699.0, 0.02031600875771277
700.0, 0.025908045130041794
701.0, 0.0278808844699277
702.0, 0.03194993206114749
703.0, 0.035165182261368146
704.0, 0.03932358067961188
705.0, 0.04450569242260999
706.0, 0.05103847883184824
707.0, 0.05800520296346836
708.0, 0.061984770537879104
709.0, 0.06149231441504858
710.0, 0.06273243238226353
711.0, 0.058215553525807366
712.0, 0.05167077556236391
713.0, 0.04516575170370335
714.0, 0.03789471442067395
715.0, 0.03266539062312306
716.0, 0.02972623617004303
717.0, 0.022023518526313065
718.0, 0.02049255551617564
719.0, 0.020174685038586264
720.0, 0.01774240332364654
721.0, 0.015003274355934309
722.0, 0.012301175597798511
723.0, 0.014307175318586622
724.0, 0.01391623761847345
725.0, 0.014046548184112198
726.0, 0.014000067760408607
727.0, 0.013719499668688597
728.0, 0.01412961944037086
729.0, 0.014183960925815517
730.0, 0.014010469509255228
731.0, 0.01643982450322733
732.0, 0.016911123074216966
733.0, 0.01486313577459176
734.0, 0.011847978943525041
735.0, 0.009384994515320528
736.0, 0.008506620179997926
737.0, 0.008760270292710834
738.0, 0.0066361424467743825
739.0, 0.00515536303933381
740.0, 0.0050804862352657135
741.0, 0.0038310406508907206
742.0, 0.002310211346857984
743.0, 0.004614777026302403
744.0, 0.0015756197880089945
745.0, 0.0038485376832257637
746.0, 0.0025240849911868563
747.0, 0.001145159957054883
748.0, 0.002441622022919929
749.0, 0.0044945470567323955
750.0, 0.005124176560727402
751.0, 0.0044531687647658726
752.0, 0.003367097186908182
753.0, 0.0028621543744841295
754.0, 0.0014496778738519699
755.0, 0.0008323974583570751
756.0, 0.0015324204175966945
757.0, 0.002020886756801576
758.0, 0.0016878217234543582
759.0, 0.0019337402709952572
760.0, 0.0005422499814152231
761.0, 0.0005282930839055453
762.0, 0.002042446371531214
763.0, 0.0016800249397589506
764.0, 0.0006139992841654991
765.0, 0.0013236333694223192
766.0, 0.0010430201135335558
767.0, 0.0006053151476259883
768.0, 0.001991600941793629
769.0, 0.00012325849642322144
770.0, 0.001504265512480815
771.0, 0.0007947402525160113
772.0, 0.0005133690827188086
773.0, 0.0001266447000402302
774.0, 0.0007139057962096932
775.0, 0.0003309223487063484
776.0, 0.0015009664721878785
777.0, 0.0021595576295177898
778.0, 0.0019883108723152544
779.0, 0.0018326963396795468
780.0, 0.0025524604122628422
781.0, 0.0038193279042061223
782.0, 0.001082820623397134
783.0, 0.002893487844273637
784.0, 0.0029802658387549454
785.0, 0.002431499498096814
786.0, 0.0025733079656899524
787.0, 0.0026323066494769796
788.0, 0.0026571218683471075
789.0, 0.0019605096531744425
790.0, 0.0016781803557243617
791.0, 0.0035360128700711916
792.0, 0.004506162999053624
793.0, 0.006512650742059423
794.0, 0.009943437874792226
795.0, 0.011031420093250716
796.0, 0.008397445416377628
797.0, 0.0063655287249847845
798.0, 0.004455910565694789
799.0, 0.005421318547310967
800.0, 0.005181578558021328
801.0, 0.004072161802965556
802.0, 0.003538378516219664
803.0, 0.002184573033785952
804.0, 0.001477859041094612
805.0, 0.0031565223694175106
806.0, 0.007441388899946526
807.0, 0.008836484472330923
808.0, 0.007038535019760324
809.0, 0.006918048262639469
810.0, 0.00901736419016116
811.0, 0.008624574177566116
812.0, 0.006907072109926638
813.0, 0.005240252352954843
814.0, 0.0032127274490596712
815.0, 0.005019381559811168
816.0, 0.007325290528784306
817.0, 0.00810446435912636
818.0, 0.008193210037830164
819.0, 0.008234343739070428
820.0, 0.008440652480444255
821.0, 0.009290223200896413
822.0, 0.008278111399013183
823.0, 0.00855419537068304
824.0, 0.007877066898161164
825.0, 0.006763675833546573
826.0, 0.005491877921257078
827.0, 0.004931193902818793
828.0, 0.0076017909282442755
829.0, 0.005668685516229868
830.0, 0.00661662406636352
831.0, 0.00722022718832628
832.0, 0.008187437272822472
833.0, 0.0066090806786136755
834.0, 0.004988667273215143
835.0, 0.00771857040870299
836.0, 0.008658736182643432
837.0, 0.008269881456471359
838.0, 0.008053516389577695
839.0, 0.008288806955598652
840.0, 0.007807781248694582
841.0, 0.007181632095329308
842.0, 0.006232289325816605
843.0, 0.004776958055006776
844.0, 0.004047563307255376
845.0, 0.004078529588148328
846.0, 0.0038136356987556554
847.0, 0.005183069597396244
848.0, 0.005176681642895917
849.0, 0.006619677779543671
850.0, 0.007351692046312422
851.0, 0.006238524115530741
852.0, 0.005572435457592718
853.0, 0.004707346286332105
854.0, 0.005368154030362847
855.0, 0.004621378697595339
856.0, 0.005300234426674326
857.0, 0.005638493111358222
858.0, 0.005199226256377968
859.0, 0.005706830226363556
860.0, 0.006459632863600141
861.0, 0.0054371652442082264
862.0, 0.004282721653443781
863.0, 0.006646791310677084
864.0, 0.006562994098811559
865.0, 0.0044916267757155424
866.0, 0.004491142188194119
867.0, 0.004846623407266047
868.0, 0.004111358430292003
869.0, 0.003905967154708766
870.0, 0.0028803531865621993
871.0, 0.00408913567021778
872.0, 0.004410128449754188
873.0, 0.005818263019430233
874.0, 0.005819602114928493
875.0, 0.005514430422125794
876.0, 0.0046201982774319965
877.0, 0.004124897555456819
878.0, 0.004895834810727848
879.0, 0.0018986941853243375
880.0, 0.002971242748670215
881.0, 0.0037558771739309446
882.0, 0.0018231481994968016
883.0, 0.0019087454215175605
884.0, 0.002524123449271487
885.0, 0.003108804099111864
886.0, 0.0052863812718004005
887.0, 0.005894190284193868
888.0, 0.0025625837894143982
889.0, 0.002505117168758924
890.0, 0.0024502042110696263
891.0, 0.00196007263003822
892.0, 0.003843541925197201
893.0, 0.0038227389620729313
894.0, 0.002963981284876215
895.0, 0.002786200390467941
896.0, 0.0004221184358370461
897.0, 0.0007487034168164628
898.0, 0.001171957502495588
899.0, 0.00046637280607666137
900.0, 0.0005155254574366527
901.0, 0.00042890752135585163
902.0, 9.906763630189279e-05
903.0, 0.000230612332421373
904.0, 0.0007479994250153587
905.0, 0.00024974577325877776
906.0, 0.0011428017895839316
907.0, 0.002455643291247008
908.0, 0.0020668507641340736
909.0, 0.0026594250478068895
910.0, 0.0009805140703104049
911.0, 0.0004342815023870488
912.0, 0.0012556665444028343
913.0, 0.0021781839711042168
914.0, 0.002934141630083191
915.0, 0.0014497204243375634
916.0, 0.002347888012789554
917.0, 0.00046733376260923445
918.0, 0.002558230574215374
919.0, 0.001720410278736741
920.0, 0.0011657536198404715
921.0, 0.0017364853502272232
922.0, 0.0016636768832019963
923.0, 0.001645568204990206
924.0, 0.0026785128547928546
925.0, 0.002266846499974239
926.0, 0.00039597214778787164
927.0, 0.00035033554833805846
928.0, 0.0030961314611076957
929.0, 0.0028063114333061897
930.0, 0.0033917330038812647
931.0, 0.0033201259915180805
932.0, 0.003028560470075076
933.0, 0.005677614518516537
934.0, 0.0037503925582372064
935.0, 0.002681742441045512
936.0, 0.0024721874113670193
937.0, 0.0034939393409943622
938.0, 0.0024208969064560297
939.0, 0.002477528605682434
940.0, 0.0025602970372215024
941.0, 0.0027042344616880925
942.0, 0.0026129916868186326
943.0, 0.0004172423458080036
944.0, 0.0023563717078871256
945.0, 0.00169196148788199
946.0, 0.0009183685999650539
947.0, 0.0011212610777228498
948.0, 0.0022826028643005663
949.0, 0.0019114857382827276
950.0, 0.002372693985347803
951.0, 0.0034687714094316976
952.0, 0.004331836068389936
953.0, 0.005449841412236968
954.0, 0.0064910232706115595
955.0, 0.004891824698106572
956.0, 0.006646103658932928
957.0, 0.005716214270092971
958.0, 0.004071337949333551
959.0, 0.0043594406873856285
960.0, 0.0059657802054667135
961.0, 0.006131488771735769
962.0, 0.005024077041875583
963.0, 0.005336384708498208
964.0, 0.0032104118444726427
965.0, 0.002318696445046202
966.0, 0.003232369725800054
967.0, 0.004388436461179867
968.0, 0.0016825673879499402
969.0, 0.0010183060479074949
970.0, 0.0014991601394633914
971.0, 0.001697207206403462
972.0, 0.0011724830405344824
973.0, 0.0007573541901736895
974.0, 0.0019882897178088773
975.0, 0.000387907292497629
976.0, 0.0008458351180209671
977.0, 0.0003152324151209523
978.0, 0.0006240923429817133
979.0, 0.001939423758295975
980.0, 0.0014542084984162534
981.0, 0.0005538186055005657
982.0, 0.0011173945571919907
983.0, 0.0005845565846251881
984.0, 0.0006191623711126168
985.0, 0.0012573704010817087
986.0, 0.0011694159069516072
987.0, 0.001042783597166122
988.0, 0.0011752913928519534
989.0, 0.0027126313570298905
990.0, 0.0034584247005874104
991.0, 0.0021496399879602553
992.0, 0.0010207189632770767
993.0, 0.0014954185755396872
994.0, 0.0023581383328038627
995.0, 0.003002974926917242
996.0, 0.0026254024255875905
997.0, 0.0015591730728644674
998.0, 0.0021139416031504803
999.0, 0.003079076969555499
1000.0, 0.001962238072373098
1001.0, 0.0017197673112721223
1002.0, 0.0012402210887425679
1003.0, 0.0018743882367858713
1004.0, 0.0017168269464964833
1005.0, 0.0006177895767295615
1006.0, 0.0015707760828387177
1007.0, 0.0010984131082544223
1008.0, 0.0006866911159577081
1009.0, 0.0016277619143920574
1010.0, 0.0036766223803919294
1011.0, 0.002183172898158902
1012.0, 0.0038733186319063234
1013.0, 0.003770587743714358
1014.0, 0.00233918652824224
1015.0, 0.002447959165885769
1016.0, 0.00244933292078873
1017.0, 0.0026129692133799397
1018.0, 0.0031852637049564307
1019.0, 0.002992073505663225
1020.0, 0.0012436244917533464
1021.0, 0.003105464803763539
1022.0, 0.0023947329316068304
1023.0, 0.0015758728789297739
1024.0, 0.000996796316763867
1025.0, 0.0021657693493681634
1026.0, 0.00269155093072704
1027.0, 0.002291600278988231
1028.0, 0.003135333433140334
1029.0, 0.0019342928620097453
1030.0, 0.004022954023302611
1031.0, 0.0041220971233707215
1032.0, 0.004956061285696521
1033.0, 0.00568042682271086
1034.0, 0.005418626604850963
1035.0, 0.004542228427822359
1036.0, 0.00578499594898459
1037.0, 0.006660813348699397
1038.0, 0.006117271119220946
1039.0, 0.0051590651628847795
1040.0, 0.004064818215533839
1041.0, 0.004499120573239975
1042.0, 0.0033886199853248662
1043.0, 0.002632789243558824
1044.0, 0.001259990475070049
1045.0, 0.0020028234169757768
1046.0, 0.0008432526009414865
1047.0, 6.911361988591181e-05
1048.0, 0.00028371110706612503
1049.0, 0.0012764440891824195
1050.0, 0.0005341388941609653
1051.0, 0.0010353819088778711
1052.0, 0.0025485879364953723
1053.0, 0.00024505253471914553
1054.0, 0.003782301019823716
1055.0, 0.005157935337470619
1056.0, 0.0021059224945055555
1057.0, 0.0016099271633880743
1058.0, 0.0029160215249034284
1059.0, 0.003253848954386079
1060.0, 0.003555207108927338
1061.0, 0.005021825858514761
1062.0, 0.004821829281919563
1063.0, 0.003862700443338041
1064.0, 0.005788666124029825
1065.0, 0.007437115686541675
1066.0, 0.005810372818370481
1067.0, 0.007290433352135319
1068.0, 0.007247260874703669
1069.0, 0.008304503150840884
1070.0, 0.008858486527580913
1071.0, 0.00917211677942275
1072.0, 0.009415720352386341
1073.0, 0.010893195219281077
1074.0, 0.011001160339921897
1075.0, 0.012504358401985435
1076.0, 0.014665000551526456
1077.0, 0.014861191805869315
1078.0, 0.015586200999057878
1079.0, 0.01694992985976903
1080.0, 0.01784864272552469
1081.0, 0.02019641197872697
1082.0, 0.02266825539528998
1083.0, 0.023486602085998114
1084.0, 0.0270498923883615
1085.0, 0.03148983700701095
1086.0, 0.03712503103882863
1087.0, 0.043332557082555075
1088.0, 0.052131727650707074
1089.0, 0.06211567895951767
1090.0, 0.07400957465089322
1091.0, 0.09068586540881084
1092.0, 0.11306763510908951
1093.0, 0.14513952164160454
1094.0, 0.1798285263833846
1095.0, 0.2117791480164776
1096.0, 0.24026668067997065
1097.0, 0.27240686778687223
1098.0, 0.31401062099112664
1099.0, 0.36453675906257416
1100.0, 0.4333987488286248
1101.0, 0.519565222425253
1102.0, 0.6309221542425827
1103.0, 0.7821138874148013
1104.0, 0.9406969824300127
1105.0, 0.9999168641429421
1106.0, 0.8793545751197672
1107.0, 0.6354737652073196
1108.0, 0.4063288168553925
1109.0, 0.2516602886568882
1110.0, 0.15659351634845292
1111.0, 0.1027057858711265
1112.0, 0.070020087776602
1113.0, 0.04836065127393879
1114.0, 0.0340730451443253
1115.0, 0.02493050222639957
1116.0, 0.01867828489311816
1117.0, 0.014433949241034676
1118.0, 0.011602366084944254
1119.0, 0.008366395207563427
1120.0, 0.0051906368017350666
1121.0, 0.005075831885935262
1122.0, 0.0029391559653052144
1123.0, 0.0032722813379223808
1124.0, 0.001913710078695182
1125.0, 0.00022894450769339258
1126.0, 0.0007803451786388482
1127.0, 0.0013101819349810395
1128.0, 0.0009484468263817735
1129.0, 0.0017292213135244431
1130.0, 0.0009527615388578441
1131.0, 0.0004274927096976252
1132.0, 7.962822902828682e-05
1133.0, 0.00019236193676536894
1134.0, 0.0018217885165167226
1135.0, 0.0025007641647276473
1136.0, 0.0008811264995564733
1137.0, 0.0012910471329114091
1138.0, 0.0009713353970514306
1139.0, 0.0005287336418732416
1140.0, 3.7560000452323386e-05
1141.0, 0.0007036032456958673
1142.0, 0.00031918940611453203
1143.0, 0.000908550128516241
1144.0, 0.0006997196034186054
1145.0, 0.0015683137532703738
1146.0, 0.0008840322727551364
1147.0, 0.002969373563503163
1148.0, 0.0036010393846534205
1149.0, 0.001589773951180721
1150.0, 0.0014514939330513713
1151.0, 0.0013118433844887896
1152.0, 0.0008696441299700451
1153.0, 0.0008523085419214535
1154.0, 0.0015302192178052044
1155.0, 0.003054217073858472
1156.0, 0.0027625053595561467
1157.0, 0.0033813095731056934
1158.0, 0.0022020716031883087
1159.0, 0.0028157130398077813
1160.0, 0.0018270881114882157
1161.0, 0.0012186337676422826
1162.0, 0.00263496271382809
1163.0, 0.004576282413235581
1164.0, 0.005228867668720164
1165.0, 0.00445829095130096
1166.0, 0.0038884052077214548
1167.0, 0.0047637732617613025
1168.0, 0.00516797738260094
1169.0, 0.005517645087803475
1170.0, 0.007318600617520677
1171.0, 0.005657401784139584
1172.0, 0.0065004948468404735
1173.0, 0.00762662661240911
1174.0, 0.008517949491883042
1175.0, 0.00733245556455332
1176.0, 0.0070880027470228745
1177.0, 0.0054549599688059084
1178.0, 0.0065792235811984595
1179.0, 0.006823752152406801
1180.0, 0.008581073265032537
1181.0, 0.009051353750242113
1182.0, 0.007870320106831244
1183.0, 0.006403978471474323
1184.0, 0.005489925000365818
1185.0, 0.006230806498423256
1186.0, 0.006728229543556918
1187.0, 0.0062290459300250395
1188.0, 0.005868505312032049
1189.0, 0.008201978202826027
1190.0, 0.007796041012503888
1191.0, 0.008534947505665313
1192.0, 0.00752047002646901
1193.0, 0.00650522754760034
1194.0, 0.008922099583479757
1195.0, 0.008150904345552011
1196.0, 0.00785533765692716
1197.0, 0.008600315334309803
1198.0, 0.005872084201579317
1199.0, 0.006119039302074858
1200.0, 0.005120444139750159
1201.0, 0.005140142406275661
1202.0, 0.0067460167135027305
1203.0, 0.005250624539121627
1204.0, 0.004056716012360908
1205.0, 0.004513484420596683
1206.0, 0.005280475206353243
1207.0, 0.004051374987736159
1208.0, 0.002120217664702695
1209.0, 0.0028660583438602305
1210.0, 0.0060417985637435685
1211.0, 0.0023957597703923817
1212.0, 0.005553318446022426
1213.0, 0.0034455876893969063
1214.0, 0.002408653944796484
1215.0, 0.002518964485307727
1216.0, 0.0033031030032242515
1217.0, 0.003908347341544625
1218.0, 0.003588083614900777
1219.0, 0.001289035319005388
1220.0, 0.00032242247172122913
1221.0, 0.0006478669241058453
1222.0, 0.0005460362572901761
1223.0, 0.00029153388251089814
1224.0, 0.000505396887040695
1225.0, 0.0013829087021465867
1226.0, 0.00043425165950773686
1227.0, 0.0003524220856355318
1228.0, 0.0005102024967126005
1229.0, 0.0019759328117995444
1230.0, 0.003953935174377346
1231.0, 0.001965868250955648
1232.0, 0.0032826460169736917
1233.0, 0.0036091928978761235
1234.0, 0.0052876744547983605
1235.0, 0.004791350826428152
1236.0, 0.004985887960514438
1237.0, 0.0030388131688649403
1238.0, 0.0022735338459214864
1239.0, 0.0024060322019740627
1240.0, 0.0006960691526467056
1241.0, 0.00048046471542814533
1242.0, 0.002088890564247137
1243.0, 0.003188760539708433
1244.0, 0.003014527501764711
1245.0, 0.0029961915470365337
1246.0, 0.0048928671033081775
1247.0, 0.00659068715699248
1248.0, 0.005149079854281951
1249.0, 0.003026643580703579
1250.0, 0.00291572023991365
1251.0, 0.0031126199664681447
1252.0, 0.003417976983653586
1253.0, 0.0035018305952301235
1254.0, 0.0007257794063014546
1255.0, 0.0012087964029946646
1256.0, 0.0019603739273514565
1257.0, 0.0023583695784579295
1258.0, 0.001065125832363238
1259.0, 0.0013974514022823703
1260.0, 0.002710462774837385
1261.0, 0.003576942819904026
1262.0, 0.004508675057114897
1263.0, 0.002733161917778958
1264.0, 0.002023139580778412
1265.0, 0.004120853175206263
1266.0, 0.0025265501952745828
1267.0, 0.0019554499356541927
1268.0, 0.00236987918337714
1269.0, 0.001424016243065374
1270.0, 0.0014286485901429113
1271.0, 0.0017605246145823933
1272.0, 0.0009236835088567998
1273.0, 0.00235349519384141
1274.0, 0.0024887033165050328
1275.0, 0.00031847767272352896
1276.0, 0.0008359328147632155
1277.0, 0.001653089665152149
1278.0, 0.004775002568810466
1279.0, 0.00249718147757192
1280.0, 0.0009170140412755753
1281.0, 0.00017062368496435212
1282.0, 0.0028206897640039577
1283.0, 0.003406303769315335
1284.0, 0.0021484520382347733
1285.0, 0.0011348505361946331
1286, 0.0
1287, 0.0
1288, 0.0
1289, 0.0
1290, 0.0
1291, 0.0
1292, 0.0
1293, 0.0
1294, 0.0
1295, 0.0
1296, 0.0
1297, 0.0
1298, 0.0
1299, 0.0
1300, 0.0
1301, 0.0
1302, 0.0
1303, 0.0
1304, 0.0
1305, 0.0
1306, 0.0
1307, 0.0
1308, 0.0
1309, 0.0
1310, 0.0
1311, 0.0
1312, 0.0
1313, 0.0
1314, 0.0
1315, 0.0
1316, 0.0
1317, 0.0
1318, 0.0
1319, 0.0
1320, 0.0
1321, 0.0
1322, 0.0
1323, 0.0
1324, 0.0
1325, 0.0
1326, 0.0
1327, 0.0
1328, 0.0
1329, 0.0
1330, 0.0
1331, 0.0
1332, 0.0
1333, 0.0
1334, 0.0
1335, 0.0
1336, 0.0
1337, 0.0
1338, 0.0
1339, 0.0
1340, 0.0
1341, 0.0
1342, 0.0
1343, 0.0
1344, 0.0
1345, 0.0
1346, 0.0
1347, 0.0
1348, 0.0
1349, 0.0
1350, 0.0
1351, 0.0
1352, 0.0
1353, 0.0
1354, 0.0
1355, 0.0
1356, 0.0
1357, 0.0
1358, 0.0
1359, 0.0
1360, 0.0
1361, 0.0
1362, 0.0
1363, 0.0
1364, 0.0
1365, 0.0
1366, 0.0
1367, 0.0
1368, 0.0
1369, 0.0
1370, 0.0
1371, 0.0
1372, 0.0
1373, 0.0
1374, 0.0
1375, 0.0
1376, 0.0
1377, 0.0
1378, 0.0
1379, 0.0
1380, 0.0
1381, 0.0
1382, 0.0
1383, 0.0
1384, 0.0
1385, 0.0
1386, 0.0
1387, 0.0
1388, 0.0
1389, 0.0
1390, 0.0
1391, 0.0
1392, 0.0
1393, 0.0
1394, 0.0
1395, 0.0
1396, 0.0
1397, 0.0
1398, 0.0
1399, 0.0
1400, 0.0
1401, 0.0
1402, 0.0
1403, 0.0
1404, 0.0
1405, 0.0
1406, 0.0
1407, 0.0
1408, 0.0
1409, 0.0
1410, 0.0
1411, 0.0
1412, 0.0
1413, 0.0
1414, 0.0
1415, 0.0
1416, 0.0
1417, 0.0
1418, 0.0
1419, 0.0
1420, 0.0
1421, 0.0
1422, 0.0
1423, 0.0
1424, 0.0
1425, 0.0
1426, 0.0
1427, 0.0
1428, 0.0
1429, 0.0
1430, 0.0
1431, 0.0
1432, 0.0
1433, 0.0
1434, 0.0
1435, 0.0
1436, 0.0
1437, 0.0
1438, 0.0
1439, 0.0
1440, 0.0
1441, 0.0
1442, 0.0
1443, 0.0
1444, 0.0
1445, 0.0
1446, 0.0
1447, 0.0
1448, 0.0
1449, 0.0
1450, 0.0
1451, 0.0
1452, 0.0
1453, 0.0
1454, 0.0
1455, 0.0
1456, 0.0
1457, 0.0
1458, 0.0
1459, 0.0
1460, 0.0
1461, 0.0
1462, 0.0
1463, 0.0
1464, 0.0
1465, 0.0
1466, 0.0
1467, 0.0
1468, 0.0
1469, 0.0
1470, 0.0
1471, 0.0
1472, 0.0
1473, 0.0
1474, 0.0
1475, 0.0
1476, 0.0
1477, 0.0
1478, 0.0
1479, 0.0
1480, 0.0
1481, 0.0
1482, 0.0
1483, 0.0
1484, 0.0
1485, 0.0
1486, 0.0
1487, 0.0
1488, 0.0
1489, 0.0
1490, 0.0
1491, 0.0
1492, 0.0
1493, 0.0
1494, 0.0
1495, 0.0
1496, 0.0
1497, 0.0
1498, 0.0
1499, 0.0
1500, 0.0
1501, 0.0
1502, 0.0
1503, 0.0
1504, 0.0
1505, 0.0
1506, 0.0
1507, 0.0
1508, 0.0
1509, 0.0
1510, 0.0
1511, 0.0
1512, 0.0
1513, 0.0
1514, 0.0
1515, 0.0
1516, 0.0
1517, 0.0
1518, 0.0
1519, 0.0
1520, 0.0
1521, 0.0
1522, 0.0
1523, 0.0
1524, 0.0
1525, 0.0
1526, 0.0
1527, 0.0
1528, 0.0
1529, 0.0
1530, 0.0
1531, 0.0
1532, 0.0
1533, 0.0
1534, 0.0
1535, 0.0
1536, 0.0
1537, 0.0
1538, 0.0
1539, 0.0
1540, 0.0
1541, 0.0
1542, 0.0
1543, 0.0
1544, 0.0
1545, 0.0
1546, 0.0
1547, 0.0
1548, 0.0
1549, 0.0
1550, 0.0
1551, 0.0
1552, 0.0
1553, 0.0
1554, 0.0
1555, 0.0
1556, 0.0
1557, 0.0
1558, 0.0
1559, 0.0
1560, 0.0
1561, 0.0
1562, 0.0
1563, 0.0
1564, 0.0
1565, 0.0
1566, 0.0
1567, 0.0
1568, 0.0
1569, 0.0
1570, 0.0
1571, 0.0
1572, 0.0
1573, 0.0
1574, 0.0
1575, 0.0
1576, 0.0
1577, 0.0
1578, 0.0
1579, 0.0
1580, 0.0
1581, 0.0
1582, 0.0
1583, 0.0
1584, 0.0
1585, 0.0
1586, 0.0
1587, 0.0
1588, 0.0
1589, 0.0
1590, 0.0
1591, 0.0
1592, 0.0
1593, 0.0
1594, 0.0
1595, 0.0
1596, 0.0
1597, 0.0
1598, 0.0
1599, 0.0
