30, 0.0
31, 0.0
32, 0.0
33, 0.0
34, 0.0
35, 0.0
36, 0.0
37, 0.0
38, 0.0
39, 0.0
40, 0.0
41, 0.0
42, 0.0
43, 0.0
44, 0.0
45, 0.0
46, 0.0
47, 0.0
48, 0.0
49, 0.0
50, 0.0
51, 0.0
52, 0.0
53, 0.0
54, 0.0
55, 0.0
56, 0.0
57, 0.0
58, 0.0
59, 0.0
60, 0.0
61, 0.0
62, 0.0
63, 0.0
64, 0.0
65, 0.0
66, 0.0
67, 0.0
68, 0.0
69, 0.0
70, 0.0
71, 0.0
72, 0.0
73, 0.0
74, 0.0
75, 0.0
76, 0.0
77, 0.0
78, 0.0
79, 0.0
80, 0.0
81, 0.0
82, 0.0
83, 0.0
84, 0.0
85, 0.0
86, 0.0
87, 0.0
88, 0.0
89, 0.0
90, 0.0
91, 0.0
92, 0.0
93, 0.0
94, 0.0
95, 0.0
96, 0.0
97, 0.0
98, 0.0
99, 0.0
100, 0.0
101, 0.0
102, 0.0
103, 0.0
104, 0.0
105, 0.0
106, 0.0
107, 0.0
108, 0.0
109, 0.0
110, 0.0
111, 0.0
112, 0.0
113, 0.0
114, 0.0
115, 0.0
116, 0.0
117, 0.0
118, 0.0
119, 0.0
120, 0.0
121, 0.0
122, 0.0
123, 0.0
124, 0.0
125, 0.0
126, 0.0
127, 0.0
128, 0.0
129, 0.0
130, 0.0
131, 0.0
132, 0.0
133, 0.0
134, 0.0
135, 0.0
136, 0.0
137, 0.0
138, 0.0
139, 0.0
140, 0.0
141, 0.0
142, 0.0
143, 0.0
144.0, 0.00011593848655576633
145.0, 0.005929161918366551
146.0, 0.021724762541721208
147.0, 0.047876161740157165
148.0, 0.07306548645680223
149.0, 0.09247140875397128
150.0, 0.11791735206097918
151.0, 0.14297458222273998
152.0, 0.15665976248074653
153.0, 0.15932673956535087
154.0, 0.15684067361535087
155.0, 0.1517184300704458
156.0, 0.14028265237291238
157.0, 0.1345955431122762
158.0, 0.13061800007521884
159.0, 0.10735565284079347
160.0, 0.08382634299169023
161.0, 0.06425815920790014
162.0, 0.049498941331590295
163.0, 0.03969374754030923
164.0, 0.023791805147488406
165.0, 0.009554500961837898
166.0, 0.0021464830138409404
167.0, 0.0010492248164282294
168.0, 0.004761126325901657
169.0, 0.009760854148609254
170.0, 0.013241872579869834
171.0, 0.016025637029428108
172.0, 0.007301367105670984
173.0, 0.0008457684049786861
174.0, 0.0020421667914452663
175.0, 0.006654337396105365
176.0, 0.019009026965471642
177.0, 0.031657985965790225
178.0, 0.043649276413190836
179.0, 0.05775755844393077
180.0, 0.07839533990849565
181.0, 0.09870208182128115
182.0, 0.12335387190583613
183.0, 0.15426942502984903
184.0, 0.18860628688212733
185.0, 0.21984178693881493
186.0, 0.2603174509046449
187.0, 0.297836545416591
188.0, 0.3270908892380813
189.0, 0.39100061756795834
190.0, 0.43866808330291124
191.0, 0.47545473944893535
192.0, 0.5086970931811634
193.0, 0.5302093712171656
194.0, 0.553073068774111
195.0, 0.5656168692279778
196.0, 0.5614358468703371
197.0, 0.5455517670303699
198.0, 0.5344327948633396
199.0, 0.5187977042554187
200.0, 0.4933866898750248
201.0, 0.4595710975325942
202.0, 0.42653968088484895
203.0, 0.40489652551326993
204.0, 0.3848006467127667
205.0, 0.363217300367545
206.0, 0.3466586266796838
207.0, 0.3210828365331193
208.0, 0.30397898226207776
209.0, 0.29276795263975547
210.0, 0.27590014330213747
211.0, 0.26225550175622353
212.0, 0.2520974159055979
213.0, 0.2387981131435466
214.0, 0.22594346358168033
215.0, 0.22288129390103217
216.0, 0.22202954440468706
217.0, 0.21643778507521438
218.0, 0.2122693028074833
219.0, 0.20837993263149637
220.0, 0.20698059380052494
221.0, 0.2073039829768634
222.0, 0.21155009079400167
223.0, 0.2151954359749457
224.0, 0.21430328076188873
225.0, 0.2122205163392823
226.0, 0.21123009569656007
227.0, 0.20789238791635856
228.0, 0.1950612479914694
229.0, 0.1924461986743348
230.0, 0.18546080496442785
231.0, 0.17475149678845187
232.0, 0.16530737951523763
233.0, 0.15013156189013707
234.0, 0.14371242648596244
235.0, 0.13336797561936276
236.0, 0.11665830438636529
237.0, 0.11008463574336044
238.0, 0.09244278000066324
239.0, 0.08139046068096575
240.0, 0.07393535092674261
241.0, 0.061164055789010394
242.0, 0.062267332117007884
243.0, 0.06738858179390261
244.0, 0.06684979037077456
245.0, 0.06112905136143863
246.0, 0.06214936850695814
247.0, 0.05695178445508446
248.0, 0.05493396065378215
249.0, 0.056210288089867666
250.0, 0.05423164209301396
251.0, 0.053750875975349326
252.0, 0.05604494773627482
253.0, 0.06230696166026485
254.0, 0.0669189246918591
255.0, 0.06850270269245488
256.0, 0.06495499354370092
257.0, 0.06458917749300751
258.0, 0.06834762964956106
259.0, 0.07284488417244614
260.0, 0.07332005825818919
261.0, 0.07363283823938167
262.0, 0.08017478279995856
263.0, 0.08919923051831677
264.0, 0.08577701468694045
265.0, 0.08903027046321214
266.0, 0.08690618162674012
267.0, 0.0825122749274958
268.0, 0.0839110637919793
269.0, 0.08196130411879465
270.0, 0.07905450022717711
271.0, 0.07478292419641093
272.0, 0.06949014267052993
273.0, 0.06577142467042404
274.0, 0.06784925760160433
275.0, 0.06878622478100488
276.0, 0.0691693246729211
277.0, 0.06981224055846952
278.0, 0.06389748638329092
279.0, 0.07163059721134196
280.0, 0.07557712835920641
281.0, 0.06967374488339022
282.0, 0.06469924061242215
283.0, 0.06841537161799227
284.0, 0.07600764839419534
285.0, 0.07951300952933864
286.0, 0.07608103190861158
287.0, 0.07205388235178377
288.0, 0.07929327752050239
289.0, 0.08299381673702422
290.0, 0.08429068618772151
291.0, 0.09227916872804469
292.0, 0.08814922271459971
293.0, 0.09300275826981366
294.0, 0.1021214110131989
295.0, 0.10586440948578099
296.0, 0.10352379822843152
297.0, 0.11183234025668293
298.0, 0.12021058592575633
299.0, 0.12555073934454447
300.0, 0.13046091803207233
301.0, 0.13593295888016715
302.0, 0.14981807262297242
303.0, 0.1579033265491608
304.0, 0.16067869485505673
305.0, 0.1691716450874278
306.0, 0.17084265185908698
307.0, 0.17316290270399398
308.0, 0.17703168022174656
309.0, 0.1783649810580952
310.0, 0.17263549133237427
311.0, 0.1604210920892923
312.0, 0.1518303016231424
313.0, 0.14579723688638213
314.0, 0.13754451969578646
315.0, 0.12706294188825204
316.0, 0.11894986461088954
317.0, 0.11004606054734767
318.0, 0.10181885702548546
319.0, 0.09722295532109818
320.0, 0.08456154656178519
321.0, 0.07346461353359603
322.0, 0.0643825324870501
323.0, 0.055536235701990795
324.0, 0.0459625542848521
325.0, 0.04593559680638218
326.0, 0.039599881207238626
327.0, 0.03289354626623831
328.0, 0.03338520708339088
329.0, 0.0242711005659498
330.0, 0.020677382911707752
331.0, 0.01723113417675884
332.0, 0.014641338432604357
333.0, 0.01642854198316073
334.0, 0.008171422532045187
335.0, 0.0017104421180596694
336.0, 0.001284934803864022
337.0, 0.005762750578481055
338.0, 0.004610332295559099
339.0, 0.0015960602557063787
340.0, 0.003388179296999939
341.0, 0.0034944429814729627
342.0, 0.003480120702955607
343.0, 0.004185400037459927
344.0, 0.005555148738436663
345.0, 0.009817111573614241
346.0, 0.011008199949095724
347.0, 0.002322711419500801
348.0, 0.0018283044630288054
349.0, 0.0005539609355046079
350.0, 0.005030888714076243
351.0, 0.0060022011093541165
352.0, 0.0015043375242032224
353.0, 0.0005059147151936487
354.0, 0.007678384320407476
355.0, 0.0103179024203001
356.0, 0.004246828249325855
357.0, 0.0008587814498421542
358.0, 0.0020011124114079895
359.0, 0.003950886687740055
360.0, 0.0016107029170522908
361.0, 0.001156989451335324
362.0, 0.00691530730948848
363.0, 0.0029054753109282834
364.0, 0.003054628406944239
365.0, 0.004776897260555491
366.0, 0.0016016486458134303
367.0, 0.0035596152605247454
368.0, 0.0017359607612233228
369.0, 0.001300872373239646
370.0, 0.004620971626135792
371.0, 0.011205689550202909
372.0, 0.02363171528147897
373.0, 0.016496532632090756
374.0, 0.01527556470541903
375.0, 0.023234436332685494
376.0, 0.024419443727001958
377.0, 0.020676078246010355
378.0, 0.021581425766599424
379.0, 0.023394043934670723
380.0, 0.02288021164555063
381.0, 0.02307395245645608
382.0, 0.025806497092299895
383.0, 0.03574735591655151
384.0, 0.04434642887800929
385.0, 0.047382869162186855
386.0, 0.05183998885583438
387.0, 0.06700824927528262
388.0, 0.07140784988688621
389.0, 0.07002745451619097
390.0, 0.07202369009682175
391.0, 0.07691359623393876
392.0, 0.07671042078209266
393.0, 0.07675367391237022
394.0, 0.07885876144950811
395.0, 0.08192598656899856
396.0, 0.08511408781516461
397.0, 0.09442151262577889
398.0, 0.09960364564244985
399.0, 0.09879262201851977
400.0, 0.09712400729767955
401.0, 0.10178461479776549
402.0, 0.11110063016936471
403.0, 0.1222541104102473
404.0, 0.13009083670091018
405.0, 0.1341030521397949
406.0, 0.13986896792229955
407.0, 0.15175631319682867
408.0, 0.16187509980952383
409.0, 0.17113754009417972
410.0, 0.1807260276473219
411.0, 0.1838481739285073
412.0, 0.187985153705898
413.0, 0.19115770131907586
414.0, 0.19641291730751262
415.0, 0.20220496492665582
416.0, 0.1985428364627508
417.0, 0.21049995540489133
418.0, 0.21128380785891793
419.0, 0.20150153302304502
420.0, 0.19546129532274698
421.0, 0.2018529710026582
422.0, 0.19275760219025226
423.0, 0.18409837178834512
424.0, 0.17961992840802699
425.0, 0.17322346870285882
426.0, 0.16074600323810717
427.0, 0.15727975678227382
428.0, 0.14816003724195415
429.0, 0.13487709991125035
430.0, 0.12608765915850823
431.0, 0.11937045438606965
432.0, 0.10901394219701895
433.0, 0.09960446615145864
434.0, 0.09051728217112484
435.0, 0.08368366959229477
436.0, 0.07824368067155765
437.0, 0.0665885160302081
438.0, 0.056937396904768164
439.0, 0.047440496861003
440.0, 0.0348403860956039
441.0, 0.025845936999596725
442.0, 0.02503465489141731
443.0, 0.020417745424433576
444.0, 0.013004939570126531
445.0, 0.006759256716534198
446.0, 0.0009409079169589139
447.0, 0.002950508638726703
448.0, 0.003986060976390011
449.0, 0.0012843290899034905
450.0, 0.006346047283249225
451.0, 0.009048568121257438
452.0, 0.002244978912713604
453.0, 0.001522839527533012
454.0, 0.0014081057271972896
455.0, 0.002919896720051104
456.0, 0.008057128107109911
457.0, 0.006680740996835156
458.0, 0.0013432669840327358
459.0, 1.3869233545874492e-05
460.0, 0.012137717671868324
461.0, 0.0373930308178333
462.0, 0.030206724734018593
463.0, 0.028799973857804157
464.0, 0.03589634457087933
465.0, 0.043117212308004006
466.0, 0.045598046607849406
467.0, 0.04114472081190357
468.0, 0.04603603058184614
469.0, 0.05566424387071731
470.0, 0.06165595302343391
471.0, 0.06179131236385125
472.0, 0.06901844850698638
473.0, 0.08038755892455395
474.0, 0.08862088217289099
475.0, 0.09194052293478104
476.0, 0.09366483455320553
477.0, 0.09936500681428967
478.0, 0.10712974864037862
479.0, 0.11420836081600132
480.0, 0.11713607837890101
481.0, 0.11945702389358438
482.0, 0.13106370760556846
483.0, 0.13770414337578513
484.0, 0.14554922813228197
485.0, 0.14890927369572296
486.0, 0.14858940256935463
487.0, 0.1590981436034918
488.0, 0.15987366767141364
489.0, 0.16081187351003062
490.0, 0.15842097618641696
491.0, 0.15417935076695216
492.0, 0.15460649846550809
493.0, 0.14895450345865727
494.0, 0.1447154319674204
495.0, 0.14397558186369022
496.0, 0.13788585230339118
497.0, 0.13362858703096284
498.0, 0.12942952317803005
499.0, 0.12862016687486255
500.0, 0.1361891086754619
501.0, 0.13920701228810173
502.0, 0.13062240800538052
503.0, 0.13313511983171983
504.0, 0.1327123506862335
505.0, 0.1415377644772815
506.0, 0.1538246162335556
507.0, 0.1616947162669942
508.0, 0.1652141458485848
509.0, 0.16667858304855226
510.0, 0.18318511024829787
511.0, 0.19593612050428452
512.0, 0.20499660472552336
513.0, 0.2222696679715678
514.0, 0.22172130697588763
515.0, 0.22982783657769765
516.0, 0.23959385009027137
517.0, 0.2485013388246119
518.0, 0.25898904528243055
519.0, 0.27028100793895393
520.0, 0.2734110134239304
521.0, 0.2705334927712371
522.0, 0.27468863783924513
523.0, 0.28205562067287815
524.0, 0.27264057596043206
525.0, 0.2674910279457784
526.0, 0.26579497465617
527.0, 0.2589483202639997
528.0, 0.24647896202262778
529.0, 0.2348406115135447
530.0, 0.2263625568989166
531.0, 0.2086315313687055
532.0, 0.18264592908144459
533.0, 0.16780912446325735
534.0, 0.16356648211818164
535.0, 0.1329933073860734
536.0, 0.11193584190014316
537.0, 0.09995727665613251
538.0, 0.08735856014811018
539.0, 0.07177667360523893
540.0, 0.05842202665656823
541.0, 0.04976050298500326
542.0, 0.04345398300982398
543.0, 0.03682040868248848
544.0, 0.03336945969823374
545.0, 0.03209046104988754
546.0, 0.021294043921006967
547.0, 0.017191325723596166
548.0, 0.011263633267862562
549.0, 0.011536086768452138
550.0, 0.013238997194522083
551.0, 0.0017416852215647286
552.0, 0.003983745759237447
553.0, 0.0011532602577035936
554.0, 0.0009509169785961737
555.0, 0.0010342432762580666
556.0, 0.0021621422830939026
557.0, 0.005080764618066442
558.0, 0.009794526132306707
559.0, 0.005001436468059268
560.0, 0.002050944476920404
561.0, 0.0025204561367394534
562.0, 0.0036099092944710705
563.0, 0.002849116801643597
564.0, 0.010442253959425649
565.0, 0.017087768161182793
566.0, 0.01855363380792253
567.0, 0.016485154931287417
568.0, 0.01227909709576364
569.0, 0.015224419444615054
570.0, 0.02134384847623936
571.0, 0.018971263271982418
572.0, 0.01301071666064705
573.0, 0.018410450066954256
574.0, 0.021820888895462614
575.0, 0.021896301120110918
576.0, 0.022704296444097733
577.0, 0.020887068993227734
578.0, 0.016968135949392966
579.0, 0.021433478069027203
580.0, 0.022315941200630438
581.0, 0.02486631004698931
582.0, 0.023776980185937012
583.0, 0.02080471970992101
584.0, 0.021620238490240622
585.0, 0.017577141749694818
586.0, 0.023435084500642647
587.0, 0.0263787604342904
588.0, 0.02520184764145166
589.0, 0.02474007408697621
590.0, 0.025555850616941142
591.0, 0.02862686502261294
592.0, 0.03079655612351648
593.0, 0.026814799878296974
594.0, 0.02019684518385279
595.0, 0.01847636877691992
596.0, 0.022496116126414573
597.0, 0.02258794324523476
598.0, 0.02838774526413074
599.0, 0.02818958731710302
600.0, 0.021701791631442438
601.0, 0.020784364989051396
602.0, 0.02166693293356806
603.0, 0.03022833954425393
604.0, 0.032939776090538254
605.0, 0.02721693431531629
606.0, 0.023202438291795916
607.0, 0.029324803375878696
608.0, 0.030123063746478967
609.0, 0.029879651977790488
610.0, 0.027975906651352866
611.0, 0.02547524110650382
612.0, 0.0240398618613988
613.0, 0.02402510728859906
614.0, 0.019428535048800637
615.0, 0.025561541676989926
616.0, 0.023339631428856172
617.0, 0.014734499339715733
618.0, 0.012036508688394237
619.0, 0.004220200805403775
620.0, 0.0183159970460318
621.0, 0.016588104409327318
622.0, 0.012886122948390005
623.0, 0.017352885279621023
624.0, 0.020708194442598877
625.0, 0.01953920873349503
626.0, 0.01344070044415087
627.0, 0.016650813706162452
628.0, 0.018577102995845026
629.0, 0.011419917825442051
630.0, 0.0068062683199046625
631.0, 0.012002135646262319
632.0, 0.004940175376455797
633.0, 0.001903408705272631
634.0, 0.0040823509127103285
635.0, 0.003188478804479296
636.0, 0.00219862417684773
637.0, 0.007900641365111141
638.0, 0.005421262315876069
639.0, 0.0011033723767410763
640.0, 0.002564280978083604
641.0, 0.0006550708881183591
642.0, 0.0016814150462311408
643.0, 0.0008031269781073053
644.0, 0.0010038675266001256
645.0, 0.004243992471471123
646.0, 0.0024100710580618624
647.0, 0.007822125940891166
648.0, 0.0005991467334840704
649.0, 0.007346259628384571
650.0, 0.0040169201904005115
651.0, 0.008615541414167958
652.0, 0.016771208048530672
653.0, 0.016388267219903135
654.0, 0.019935400987568987
655.0, 0.011951436661059968
656.0, 0.00953730031562267
657.0, 0.0068515446696958025
658.0, 0.004174278443113853
659.0, 0.0048405556543711
660.0, 0.0005847210667328486
661.0, 0.0022548759208992587
662.0, 0.00023057766908477992
663.0, 0.003007997605835683
664.0, 0.0026421057759086087
665.0, 0.0037858048832990253
666.0, 0.004693718781502561
667.0, 0.008610890198985676
668.0, 0.009601428901750052
669.0, 0.013353915578641073
670.0, 0.01240355061780535
671.0, 0.014352350667787414
672.0, 0.014474115075739426
673.0, 0.016871240411155022
674.0, 0.014203922996356892
675.0, 0.012868219353006461
676.0, 0.011281629810998318
677.0, 0.006196584057373338
678.0, 0.006256219015921389
679.0, 0.005472707108583343
680.0, 0.004119399234371496
681.0, 0.006734139094586374
682.0, 0.012808980925420026
683.0, 0.019279377339556588
684.0, 0.02560075101124512
685.0, 0.026630654189236522
686.0, 0.03288645005889235
687.0, 0.030419677736034226
688.0, 0.029088235769335342
689.0, 0.03666283177198075
690.0, 0.03549530340575112
691.0, 0.03219523209115272
692.0, 0.03005648143875062
693.0, 0.03998948935474948
694.0, 0.04805037629834361
695.0, 0.044463098188044885
696.0, 0.043837911520532166
697.0, 0.052805578716584
698.0, 0.04527289477183778
699.0, 0.048196835328863846
700.0, 0.05535272343234011
701.0, 0.05441723603854571
702.0, 0.05316557671962495
703.0, 0.06425623307593394
704.0, 0.06898085436234531
705.0, 0.06826750195759033
706.0, 0.07315995751389341
707.0, 0.08406418843341225
708.0, 0.09437327441609536
709.0, 0.1047841215861815
710.0, 0.11086712959953446
711.0, 0.11049600264885714
712.0, 0.11560546972074086
713.0, 0.13060586025755683
714.0, 0.1472792792337336
715.0, 0.15176114265409907
716.0, 0.1667197920085658
717.0, 0.18364155493493967
718.0, 0.19958759037853827
719.0, 0.21067874831453204
720.0, 0.22236151971932214
721.0, 0.24671317003382293
722.0, 0.26727417786756497
723.0, 0.2807524357964514
724.0, 0.285600290300323
725.0, 0.30736193868447476
726.0, 0.33417748275966097
727.0, 0.3311922689332027
728.0, 0.3364821545610106
729.0, 0.35371368585568197
730.0, 0.35042612974816184
731.0, 0.35279364085705817
732.0, 0.3611359609046927
733.0, 0.35192778830703597
734.0, 0.33236504428716196
735.0, 0.3245518898676051
736.0, 0.3186518312808027
737.0, 0.30118206756724203
738.0, 0.2882466740138011
739.0, 0.2826126345884994
740.0, 0.2625265562932883
741.0, 0.24900903417310738
742.0, 0.23728690655454293
743.0, 0.2291890115602614
744.0, 0.21702645349054603
745.0, 0.20484777679121607
746.0, 0.2009537546160893
747.0, 0.1902745224335256
748.0, 0.18541017269255167
749.0, 0.1753950940461484
750.0, 0.1596726500401661
751.0, 0.1393576437536395
752.0, 0.12090181233087009
753.0, 0.11203583400590401
754.0, 0.0956575612889423
755.0, 0.09003132042068951
756.0, 0.08681185704519628
757.0, 0.07831951679739411
758.0, 0.071672266738921
759.0, 0.06512174596187106
760.0, 0.06235397569920131
761.0, 0.055683376402085774
762.0, 0.04690004562330702
763.0, 0.045889770865856445
764.0, 0.04193532383854304
765.0, 0.03131960571433635
766.0, 0.03469747665469127
767.0, 0.03574395713702287
768.0, 0.02536344441415324
769.0, 0.026126944289522062
770.0, 0.0244998564963225
771.0, 0.016473239160168983
772.0, 0.010959720310956053
773.0, 0.001103431756725142
774.0, 0.000485129684318215
775.0, 0.00258792277691656
776.0, 0.006703236658675596
777.0, 0.01000651811058422
778.0, 0.014685865546994302
779.0, 0.01858868160086432
780.0, 0.010129349726798468
781.0, 0.008890011792169649
782.0, 0.013077933906393604
783.0, 0.011760487083797759
784.0, 0.008295247322833156
785.0, 0.009932738278702682
786.0, 0.01363310205249883
787.0, 0.013247643189226258
788.0, 0.009247790359333341
789.0, 0.008228306317396699
790.0, 0.008502138327775995
791.0, 0.005505842191523022
792.0, 0.00046444253586342554
793.0, 0.00135326411105553
794.0, 0.008514560106571667
795.0, 0.004331699752388616
796.0, 0.006871190017100958
797.0, 0.010690946502915076
798.0, 0.010085493896038083
799.0, 0.011023253163818891
800.0, 0.01264464900610261
801.0, 0.014794402441085944
802.0, 0.0177830008330456
803.0, 0.022202401075119435
804.0, 0.029624888764153798
805.0, 0.03700905972434519
806.0, 0.03797683756357196
807.0, 0.03454557112841268
808.0, 0.03732710631901452
809.0, 0.04953157190226053
810.0, 0.050408681702659434
811.0, 0.04947092125637927
812.0, 0.05736236670187258
813.0, 0.06140428887095666
814.0, 0.0648258060740966
815.0, 0.08082194008296119
816.0, 0.08549251614435899
817.0, 0.09563170056025876
818.0, 0.10589783720042327
819.0, 0.105390664937153
820.0, 0.10932969572062183
821.0, 0.11724566569190546
822.0, 0.12349435145133587
823.0, 0.13686810754926093
824.0, 0.15145189957229338
825.0, 0.16362112282592825
826.0, 0.17413883121736876
827.0, 0.18286546118567074
828.0, 0.1949032450106515
829.0, 0.21028460030155174
830.0, 0.22523731412627188
831.0, 0.24214967382375766
832.0, 0.26493977439964733
833.0, 0.28481373064310234
834.0, 0.29101282921514887
835.0, 0.3036785482087138
836.0, 0.3294542144529757
837.0, 0.3455624304023381
838.0, 0.3683399514342023
839.0, 0.3935603925203049
840.0, 0.40776778235510075
841.0, 0.417197819119848
842.0, 0.4403268124615305
843.0, 0.46224602009577564
844.0, 0.486944894826766
845.0, 0.5069539891202215
846.0, 0.5241077676754359
847.0, 0.5433985066394457
848.0, 0.563916283691297
849.0, 0.588511993590603
850.0, 0.6087082416167434
851.0, 0.6263475926207608
852.0, 0.6500373461404709
853.0, 0.6717428458497561
854.0, 0.6904274105895107
855.0, 0.7134425657870085
856.0, 0.7289785414349025
857.0, 0.749203108465245
858.0, 0.7662824691110057
859.0, 0.7878731859944658
860.0, 0.8107058338224674
861.0, 0.8261643161178674
862.0, 0.8373765872395178
863.0, 0.8578100792187437
864.0, 0.876694866056004
865.0, 0.8973222336660036
866.0, 0.9011001157286623
867.0, 0.913161813360435
868.0, 0.9299984515539814
869.0, 0.9365173495126872
870.0, 0.9534082285621831
871.0, 0.9712338935396732
872.0, 0.9747983219941744
873.0, 0.9799646969337931
874.0, 0.9825832001087909
875.0, 0.9737143312146193
876.0, 0.9738418824485237
877.0, 0.9999839536175348
878.0, 0.9830100338823761
879.0, 0.9810976518104777
880.0, 0.9870711145269003
881.0, 0.9721801365016819
882.0, 0.9435119753153189
883.0, 0.921359411450659
884.0, 0.9104882178903005
885.0, 0.8987736191391893
886.0, 0.8739120339192001
887.0, 0.8390341410630385
888.0, 0.8269999283677189
889.0, 0.8038792190243597
890.0, 0.7816432031947513
891.0, 0.7693788721184784
892.0, 0.7351156026141661
893.0, 0.71583217273894
894.0, 0.7113888829774139
895.0, 0.679907142770036
896.0, 0.6537571565243225
897.0, 0.63386122726354
898.0, 0.6053021592743258
899.0, 0.5750156500304164
900.0, 0.5565441771170826
901.0, 0.5303699025066556
902.0, 0.5098889195792197
903.0, 0.4892811408532156
904.0, 0.47426437387801346
905.0, 0.4535719401085807
906.0, 0.42661620206055767
907.0, 0.4094087890998414
908.0, 0.3881150327327416
909.0, 0.37129814465560135
910.0, 0.33934412994977103
911.0, 0.318835519916968
912.0, 0.30492950519437395
913.0, 0.2863122704252861
914.0, 0.265593644928859
915.0, 0.24559954015969762
916.0, 0.22817703735512354
917.0, 0.20153097945854634
918.0, 0.18802785143020884
919.0, 0.17135083998499545
920.0, 0.1576655563470382
921.0, 0.15547190762639906
922.0, 0.1564241759665943
923.0, 0.14655468267258148
924.0, 0.13333461421570109
925.0, 0.1289714123662049
926.0, 0.1210339609088599
927.0, 0.10895052439987835
928.0, 0.10647151609924241
929.0, 0.10095279712784934
930.0, 0.08021619951226555
931.0, 0.0795719273671212
932.0, 0.06298836888928164
933.0, 0.058030585019848764
934.0, 0.055951126339907106
935.0, 0.049405795642495746
936.0, 0.04173081468380461
937.0, 0.03534585971393362
938.0, 0.031671737266593655
939.0, 0.03701714266038468
940.0, 0.02290807323818272
941.0, 0.023469281773377995
942.0, 0.009573979850594732
943.0, 0.003171837575698571
944.0, 0.00039613643110922867
945.0, 0.005866148573184597
946.0, 0.0008555244355746884
947.0, 0.00451750845300227
948.0, 0.01168385572691548
949.0, 0.010461677456843484
950.0, 0.007120463971200005
951.0, 0.009908169209043189
952.0, 0.014753353625616623
953.0, 0.013961707344098835
954.0, 0.009245223464193845
955.0, 0.008536459652562603
956.0, 0.009775714033276211
957.0, 0.016196068729131305
958.0, 0.00924605217146073
959.0, 0.0032490664575063385
960.0, 0.008167431720721173
961.0, 0.01354866908992886
962.0, 0.0061816280244608515
963.0, 0.001883233195594676
964.0, 0.004377561698639511
965.0, 0.0028179389223613985
966.0, 0.0021618763367217174
967.0, 0.009056500465541753
968.0, 0.013535869121776312
969.0, 0.008468261804612093
970.0, 0.00555363127594651
971.0, 0.005485764933870319
972.0, 0.007283027221189111
973.0, 0.008401713763895072
974.0, 0.010344209754637707
975.0, 0.0166677219988404
976.0, 0.023923623233194233
977.0, 0.02609259239206424
978.0, 0.028902473650596422
979.0, 0.03562716497638494
980.0, 0.019818196348352784
981.0, 0.02008055745149773
982.0, 0.022172141744232477
983.0, 0.022358675419036057
984.0, 0.01653298232718557
985.0, 0.014026014217624073
986.0, 0.019283228538747754
987.0, 0.022277031339652534
988.0, 0.017994245881681848
989.0, 0.01836101053916839
990.0, 0.013855686641529204
991.0, 0.017129208682597735
992.0, 0.019304877116478585
993.0, 0.021802754536190336
994.0, 0.020594737227207876
995.0, 0.015581836307392185
996.0, 0.019853138998632638
997.0, 0.02191228850927682
998.0, 0.023336592846930914
999.0, 0.026563507366471038
1000.0, 0.0320516320153052
1001.0, 0.038457797621282146
1002.0, 0.03762559632507597
1003.0, 0.03456400345911531
1004.0, 0.03843312248665756
1005.0, 0.030160002365197183
1006.0, 0.022295921014700994
1007.0, 0.048910907395987926
1008.0, 0.0392908819894549
1009.0, 0.029752550350029775
1010.0, 0.028683281046095
1011.0, 0.027288795942654723
1012.0, 0.021320744247443933
1013.0, 0.011783874545333774
1014.0, 0.023472109235231967
1015.0, 0.01948006133168168
1016.0, 0.015337589720969262
1017.0, 0.015722926439317855
1018.0, 0.017001619207234545
1019.0, 0.022423341776742572
1020.0, 0.022472535476339803
1021.0, 0.014776747867795318
1022.0, 0.014002266579277741
1023.0, 0.006157644921891362
1024.0, 0.022732735330744422
1025.0, 0.02990218979234182
1026.0, 0.030978228500554476
1027.0, 0.02496314806078181
1028.0, 0.026770080950231027
1029.0, 0.0325476001973183
1030.0, 0.02900674672243025
1031.0, 0.028455314693386396
1032.0, 0.026530985873938418
1033.0, 0.02081876696420275
1034.0, 0.016993419446015734
1035.0, 0.019510500773180926
1036.0, 0.02373034823484451
1037.0, 0.02776121175858452
1038.0, 0.03218334492418985
1039.0, 0.03322404285420862
1040.0, 0.026200115567462157
1041.0, 0.020136950024545727
1042.0, 0.015376431992322718
1043.0, 0.012825044404669972
1044.0, 0.014474722549592992
1045.0, 0.018707459297953595
1046.0, 0.012734973096561603
1047.0, 0.003372072148361262
1048.0, 0.00423745129337936
1049.0, 0.009447082771083554
1050.0, 0.01905108882946018
1051.0, 0.01506869013115152
1052.0, 0.01572964509979334
1053.0, 0.016719888950493478
1054.0, 0.015736156002742245
1055.0, 0.010212756414616614
1056.0, 0.012879194122149036
1057.0, 0.022270688299823763
1058.0, 0.016298605278154576
1059.0, 0.010158844497863678
1060.0, 0.012319440724389893
1061.0, 0.001593926444421603
1062.0, 0.004136255587667545
1063.0, 0.004539717797506536
1064.0, 0.004642144912343817
1065.0, 0.002474684864162078
1066.0, 0.002942072619078001
1067.0, 0.0024388900227914983
1068.0, 0.005520107970377268
1069.0, 0.0032824971046348504
1070.0, 0.004005049040784997
1071.0, 0.00028341566251959644
1072.0, 0.005519610523981269
1073.0, 0.010391700240526621
1074.0, 0.006728102732441581
1075.0, 0.0011280007968361115
1076.0, 0.0012828386400713804
1077.0, 0.003955155864089413
1078.0, 0.0007281453508494824
1079.0, 0.0002279306492942478
1080.0, 0.000981405930230498
1081.0, 0.004685386123102141
1082.0, 0.002358493588500733
1083.0, 0.003644868182426388
1084.0, 0.00917026627703539
1085.0, 0.01081603967697336
1086.0, 0.01194535870015547
1087.0, 0.01690653654300154
1088.0, 0.01110153508627333
1089.0, 0.012216520952305396
1090.0, 0.018475212924991005
1091.0, 0.01151886825709885
1092.0, 0.010708563449616985
1093.0, 0.01281173555725643
1094.0, 0.020595221332126653
1095.0, 0.025155097142356128
1096.0, 0.017435422132242657
1097.0, 0.02489758295194034
1098.0, 0.028612214013609655
1099.0, 0.017625979234973416
1100.0, 0.021970572454651192
1101.0, 0.030534124600749075
1102.0, 0.02500508587487518
1103.0, 0.020405781158906403
1104.0, 0.02401293077107236
1105.0, 0.029967818488923926
1106.0, 0.03417782773553434
1107.0, 0.03020004334145869
1108.0, 0.025239459132212354
1109.0, 0.028188617531476227
1110.0, 0.02078599405127651
1111.0, 0.01070681378759841
1112.0, 0.01612449673369493
1113.0, 0.013864326615054386
1114.0, 0.010301818705015713
1115.0, 0.016293366957049516
1116.0, 0.01563743614709687
1117.0, 0.01433728975011661
1118.0, 0.03242577220162593
1119.0, 0.01527049855760108
1120.0, 0.010729260311129068
1121.0, 0.00604093773931854
1122.0, 0.014992563359982534
1123.0, 0.016737695454510454
1124.0, 0.008583617304487675
1125.0, 0.0030449461632339613
1126.0, 0.004828700072906845
1127.0, 0.01203748894695671
1128.0, 0.016606704685861163
1129.0, 0.026176812517893368
1130.0, 0.02734523131744188
1131.0, 0.024470479558138743
1132.0, 0.0190831840026294
1133.0, 0.026665322898135852
1134.0, 0.030611958163879117
1135.0, 0.01847266763909469
1136.0, 0.010311546211652103
1137.0, 0.021571901440130194
1138.0, 0.02257262244278012
1139.0, 0.014680095151717469
1140.0, 0.01328153748426813
1141.0, 0.009858808726130564
1142.0, 0.0169595315870518
1143.0, 0.005655196247342139
1144.0, 0.0017952904298927693
1145.0, 0.0060022705076097005
1146.0, 0.003496814669252615
1147.0, 0.004698754831464713
1148.0, 0.00849070034574332
1149.0, 0.0020800403549012074
1150.0, 0.008623107043530188
1151.0, 0.0068556826397542835
1152.0, 0.0043412847493847105
1153.0, 0.015362250320765703
1154.0, 0.008197049911438388
1155.0, 0.010323181657926459
1156.0, 0.019455832652507807
1157.0, 0.017315076313315338
1158.0, 0.013845187952072107
1159.0, 0.015907773164853093
1160.0, 0.018575784903802527
1161.0, 0.013909714392839372
1162.0, 0.026535340931911778
1163.0, 0.01886526094321438
1164.0, 0.015360199184881195
1165.0, 0.006263163948324415
1166.0, 0.0026340459657890787
1167.0, 0.004699113669225801
1168.0, 0.0024011629195102397
1169.0, 0.0037186913513751673
1170.0, 0.0022140101264202633
1171.0, 0.004099782886211497
1172.0, 0.010105557698299244
1173.0, 0.0006853603633431905
1174.0, 0.0006394104251650208
1175.0, 0.009120016624702156
1176.0, 0.01797639887135924
1177.0, 0.01719339617616637
1178.0, 0.014513908088849078
1179.0, 0.016159967864193926
1180.0, 0.01327433465925374
1181.0, 0.007576036887516403
1182.0, 0.014561797923797842
1183.0, 0.01935057941702245
1184.0, 0.01743796716194503
1185.0, 0.017439742477679893
1186.0, 0.01807597100426312
1187.0, 0.021833589910348974
1188.0, 0.017100296500255643
1189.0, 0.015204674724651493
1190.0, 0.01361364015610692
1191.0, 0.017858188493737943
1192.0, 0.016782913624073834
1193.0, 0.020161046498778257
1194.0, 0.01917343398152755
1195.0, 0.014280255987879876
1196.0, 0.017598508579699728
1197.0, 0.01950114210276643
1198.0, 0.017190677006924747
1199.0, 0.01336376240409389
1200.0, 0.01385260787105947
1201.0, 0.014356104684378824
1202.0, 0.016610124445349286
1203.0, 0.014157664324435623
1204.0, 0.01002365761122351
1205.0, 0.010847493780511112
1206.0, 0.012707003246077903
1207.0, 0.009875485189146842
1208.0, 0.007454874250504142
1209.0, 0.008533420071473287
1210.0, 0.009799599100049135
1211.0, 0.01170126814415448
1212.0, 0.008718815986371352
1213.0, 0.012916812718066365
1214.0, 0.009672331865765844
1215.0, 0.009215069638566862
1216.0, 0.006160127040208643
1217.0, 0.0030993514631209537
1218.0, 0.004238226155169674
1219.0, 0.005626793718262203
1220.0, 0.006625818668670351
1221.0, 0.001018990711749234
1222.0, 0.005508834760723835
1223.0, 0.0013498039574427378
1224.0, 0.002617332935125978
1225.0, 0.004050178303576132
1226.0, 0.006175992813338524
1227.0, 0.003030678206505261
1228.0, 0.004166218755968123
1229.0, 0.00753677459548288
1230.0, 0.0015060870461682876
1231.0, 0.007565670279948061
1232.0, 0.00665575668198188
1233.0, 0.01183701852440883
1234.0, 0.013840204145510583
1235.0, 0.018030757232600707
1236.0, 0.009287785538073634
1237.0, 0.009356527936538076
1238.0, 0.01169695715839633
1239.0, 0.014816760765021912
1240.0, 0.01497001596371629
1241.0, 0.010417716371077867
1242.0, 0.010000421270913835
1243.0, 0.007040821778372215
1244.0, 0.00671153506885183
1245.0, 0.010051437853223318
1246.0, 0.00601798918178333
1247.0, 0.005104916075285288
1248.0, 0.018680579224704265
1249.0, 0.024539498576082102
1250.0, 0.010333933195330332
1251.0, 0.009616499225212731
1252.0, 0.009748539779195776
1253.0, 0.00380413166935553
1254.0, 0.0011227547404629769
1255.0, 0.001115079859061471
1256.0, 0.010437195825405886
1257.0, 0.008679421955161193
1258.0, 0.010014417200683636
1259.0, 0.006704091666979682
1260.0, 5.343072681896585e-06
1261, 0.0
1262, 0.0
1263, 0.0
1264, 0.0
1265, 0.0
1266, 0.0
1267, 0.0
1268, 0.0
1269, 0.0
1270, 0.0
1271, 0.0
1272, 0.0
1273, 0.0
1274, 0.0
1275, 0.0
1276, 0.0
1277, 0.0
1278, 0.0
1279, 0.0
1280, 0.0
1281, 0.0
1282, 0.0
1283, 0.0
1284, 0.0
1285, 0.0
1286, 0.0
1287, 0.0
1288, 0.0
1289, 0.0
1290, 0.0
1291, 0.0
1292, 0.0
1293, 0.0
1294, 0.0
1295, 0.0
1296, 0.0
1297, 0.0
1298, 0.0
1299, 0.0
1300, 0.0
1301, 0.0
1302, 0.0
1303, 0.0
1304, 0.0
1305, 0.0
1306, 0.0
1307, 0.0
1308, 0.0
1309, 0.0
1310, 0.0
1311, 0.0
1312, 0.0
1313, 0.0
1314, 0.0
1315, 0.0
1316, 0.0
1317, 0.0
1318, 0.0
1319, 0.0
1320, 0.0
1321, 0.0
1322, 0.0
1323, 0.0
1324, 0.0
1325, 0.0
1326, 0.0
1327, 0.0
1328, 0.0
1329, 0.0
1330, 0.0
1331, 0.0
1332, 0.0
1333, 0.0
1334, 0.0
1335, 0.0
1336, 0.0
1337, 0.0
1338, 0.0
1339, 0.0
1340, 0.0
1341, 0.0
1342, 0.0
1343, 0.0
1344, 0.0
1345, 0.0
1346, 0.0
1347, 0.0
1348, 0.0
1349, 0.0
1350, 0.0
1351, 0.0
1352, 0.0
1353, 0.0
1354, 0.0
1355, 0.0
1356, 0.0
1357, 0.0
1358, 0.0
1359, 0.0
1360, 0.0
1361, 0.0
1362, 0.0
1363, 0.0
1364, 0.0
1365, 0.0
1366, 0.0
1367, 0.0
1368, 0.0
1369, 0.0
1370, 0.0
1371, 0.0
1372, 0.0
1373, 0.0
1374, 0.0
1375, 0.0
1376, 0.0
1377, 0.0
1378, 0.0
1379, 0.0
1380, 0.0
1381, 0.0
1382, 0.0
1383, 0.0
1384, 0.0
1385, 0.0
1386, 0.0
1387, 0.0
1388, 0.0
1389, 0.0
1390, 0.0
1391, 0.0
1392, 0.0
1393, 0.0
1394, 0.0
1395, 0.0
1396, 0.0
1397, 0.0
1398, 0.0
1399, 0.0
1400, 0.0
1401, 0.0
1402, 0.0
1403, 0.0
1404, 0.0
1405, 0.0
1406, 0.0
1407, 0.0
1408, 0.0
1409, 0.0
1410, 0.0
1411, 0.0
1412, 0.0
1413, 0.0
1414, 0.0
1415, 0.0
1416, 0.0
1417, 0.0
1418, 0.0
1419, 0.0
1420, 0.0
1421, 0.0
1422, 0.0
1423, 0.0
1424, 0.0
1425, 0.0
1426, 0.0
1427, 0.0
1428, 0.0
1429, 0.0
1430, 0.0
1431, 0.0
1432, 0.0
1433, 0.0
1434, 0.0
1435, 0.0
1436, 0.0
1437, 0.0
1438, 0.0
1439, 0.0
1440, 0.0
1441, 0.0
1442, 0.0
1443, 0.0
1444, 0.0
1445, 0.0
1446, 0.0
1447, 0.0
1448, 0.0
1449, 0.0
1450, 0.0
1451, 0.0
1452, 0.0
1453, 0.0
1454, 0.0
1455, 0.0
1456, 0.0
1457, 0.0
1458, 0.0
1459, 0.0
1460, 0.0
1461, 0.0
1462, 0.0
1463, 0.0
1464, 0.0
1465, 0.0
1466, 0.0
1467, 0.0
1468, 0.0
1469, 0.0
1470, 0.0
1471, 0.0
1472, 0.0
1473, 0.0
1474, 0.0
1475, 0.0
1476, 0.0
1477, 0.0
1478, 0.0
1479, 0.0
1480, 0.0
1481, 0.0
1482, 0.0
1483, 0.0
1484, 0.0
1485, 0.0
1486, 0.0
1487, 0.0
1488, 0.0
1489, 0.0
1490, 0.0
1491, 0.0
1492, 0.0
1493, 0.0
1494, 0.0
1495, 0.0
1496, 0.0
1497, 0.0
1498, 0.0
1499, 0.0
1500, 0.0
1501, 0.0
1502, 0.0
1503, 0.0
1504, 0.0
1505, 0.0
1506, 0.0
1507, 0.0
1508, 0.0
1509, 0.0
1510, 0.0
1511, 0.0
1512, 0.0
1513, 0.0
1514, 0.0
1515, 0.0
1516, 0.0
1517, 0.0
1518, 0.0
1519, 0.0
1520, 0.0
1521, 0.0
1522, 0.0
1523, 0.0
1524, 0.0
1525, 0.0
1526, 0.0
1527, 0.0
1528, 0.0
1529, 0.0
1530, 0.0
1531, 0.0
1532, 0.0
1533, 0.0
1534, 0.0
1535, 0.0
1536, 0.0
1537, 0.0
1538, 0.0
1539, 0.0
1540, 0.0
1541, 0.0
1542, 0.0
1543, 0.0
1544, 0.0
1545, 0.0
1546, 0.0
1547, 0.0
1548, 0.0
1549, 0.0
1550, 0.0
1551, 0.0
1552, 0.0
1553, 0.0
1554, 0.0
1555, 0.0
1556, 0.0
1557, 0.0
1558, 0.0
1559, 0.0
1560, 0.0
1561, 0.0
1562, 0.0
1563, 0.0
1564, 0.0
1565, 0.0
1566, 0.0
1567, 0.0
1568, 0.0
1569, 0.0
1570, 0.0
1571, 0.0
1572, 0.0
1573, 0.0
1574, 0.0
1575, 0.0
1576, 0.0
1577, 0.0
1578, 0.0
1579, 0.0
1580, 0.0
1581, 0.0
1582, 0.0
1583, 0.0
1584, 0.0
1585, 0.0
1586, 0.0
1587, 0.0
1588, 0.0
1589, 0.0
1590, 0.0
1591, 0.0
1592, 0.0
1593, 0.0
1594, 0.0
1595, 0.0
1596, 0.0
1597, 0.0
1598, 0.0
1599, 0.0
