30, 0.0
31, 0.0
32, 0.0
33, 0.0
34, 0.0
35, 0.0
36, 0.0
37, 0.0
38, 0.0
39, 0.0
40, 0.0
41, 0.0
42, 0.0
43, 0.0
44, 0.0
45, 0.0
46, 0.0
47, 0.0
48, 0.0
49, 0.0
50, 0.0
51, 0.0
52, 0.0
53, 0.0
54, 0.0
55, 0.0
56, 0.0
57, 0.0
58, 0.0
59, 0.0
60, 0.0
61, 0.0
62, 0.0
63, 0.0
64, 0.0
65, 0.0
66, 0.0
67, 0.0
68, 0.0
69, 0.0
70, 0.0
71, 0.0
72, 0.0
73, 0.0
74, 0.0
75, 0.0
76, 0.0
77, 0.0
78, 0.0
79, 0.0
80, 0.0
81, 0.0
82, 0.0
83, 0.0
84, 0.0
85, 0.0
86, 0.0
87, 0.0
88, 0.0
89, 0.0
90, 0.0
91, 0.0
92, 0.0
93, 0.0
94, 0.0
95, 0.0
96, 0.0
97, 0.0
98, 0.0
99, 0.0
100, 0.0
101, 0.0
102, 0.0
103, 0.0
104, 0.0
105, 0.0
106, 0.0
107, 0.0
108.0, 0.07231287311407945
109.0, 0.1490989820617092
110.0, 0.15580337807276598
111.0, 0.11301042413425366
112.0, 0.09691370093611473
113.0, 0.07386562883140166
114.0, 0.048775974517496774
115.0, 0.014413237170326106
116.0, 0.0062481763583149205
117.0, 0.0032672721005368565
118.0, 0.013840475537682792
119.0, 0.019149309287907743
120.0, 0.03590425201287957
121.0, 0.07162314496190304
122.0, 0.12077461345148566
123.0, 0.1734860186971648
124.0, 0.2526395456499864
125.0, 0.3057820664383982
126.0, 0.32507810000628545
127.0, 0.3343593343937178
128.0, 0.35706350674911175
129.0, 0.4055902175213668
130.0, 0.4615408942538913
131.0, 0.5119627491905391
132.0, 0.5324351611621068
133.0, 0.5172723259346399
134.0, 0.4620749832232192
135.0, 0.3668250443092881
136.0, 0.26073061581611107
137.0, 0.17752950022390154
138.0, 0.1243351357107707
139.0, 0.09688595802700484
140.0, 0.08265525166685372
141.0, 0.08197937594198128
142.0, 0.07265416004558213
143.0, 0.05029480285525969
144.0, 0.023311267623691515
145.0, 0.003231855782170879
146.0, 0.008156298183206486
147.0, 0.01202706090086793
148.0, 0.009953799794665326
149.0, 0.00885645089650553
150.0, 0.008402367252744061
151.0, 0.004239059333477248
152.0, 0.025712846443425353
153.0, 0.0463105049047069
154.0, 0.07137126327831285
155.0, 0.1038545585720912
156.0, 0.14691578594889493
157.0, 0.20185829596368696
158.0, 0.2622129183549762
159.0, 0.32696525572300833
160.0, 0.40341154796850326
161.0, 0.49121982438830275
162.0, 0.5582692533031818
163.0, 0.5462464796584362
164.0, 0.47483868347157737
165.0, 0.3774802674684553
166.0, 0.2805871618825913
167.0, 0.19626057385214554
168.0, 0.1319916024507878
169.0, 0.08638040202225024
170.0, 0.05312397989777626
171.0, 0.038110819763753925
172.0, 0.031101184712369914
173.0, 0.0277107392056469
174.0, 0.02983673064604099
175.0, 0.046425230170864175
176.0, 0.07333229244212484
177.0, 0.10216271893192867
178.0, 0.1353555910923477
179.0, 0.18642257815606092
180.0, 0.24436624509205956
181.0, 0.3168081142013808
182.0, 0.4053859006377355
183.0, 0.5031749366690685
184.0, 0.6046585529802058
185.0, 0.6907080189676615
186.0, 0.7384417904135492
187.0, 0.7270078339444961
188.0, 0.6591555444400157
189.0, 0.5604174329796987
190.0, 0.46567168565965894
191.0, 0.39680674933916915
192.0, 0.3484387933307074
193.0, 0.3172008952665753
194.0, 0.29665462796069525
195.0, 0.2865237455144424
196.0, 0.29025559153491004
197.0, 0.30401311882720466
198.0, 0.3151121348503201
199.0, 0.33312094998301023
200.0, 0.3649776704402809
201.0, 0.3924016042137471
202.0, 0.4297953612587374
203.0, 0.47486459513417345
204.0, 0.5254616524496192
205.0, 0.5848483034659699
206.0, 0.6610641535389897
207.0, 0.742714553303785
208.0, 0.8273905401993583
209.0, 0.9128560216466276
210.0, 0.9772018054881845
211.0, 0.9995875246710589
212.0, 0.9785494930854908
213.0, 0.9238380360753494
214.0, 0.8463862665199383
215.0, 0.7692105584337652
216.0, 0.7014946471478052
217.0, 0.6429371259509319
218.0, 0.596024516763258
219.0, 0.5709878939943305
220.0, 0.5419580195794171
221.0, 0.5147067051687743
222.0, 0.49637881943984247
223.0, 0.48562859524171015
224.0, 0.48445926900500746
225.0, 0.4837564053430369
226.0, 0.4818049204486367
227.0, 0.47989389054437953
228.0, 0.47077772531703277
229.0, 0.45934615003459944
230.0, 0.43533366339482765
231.0, 0.3946462081552834
232.0, 0.3464178688120544
233.0, 0.3020416182688987
234.0, 0.25742958395907867
235.0, 0.21281959825491015
236.0, 0.17156849638716862
237.0, 0.13475120982339842
238.0, 0.10944548041472577
239.0, 0.08513587813620961
240.0, 0.060814383430503244
241.0, 0.048631480714307444
242.0, 0.03221004029178498
243.0, 0.021568236027692356
244.0, 0.014703193045721711
245.0, 0.005607839338494201
246.0, 0.0008086963137427414
247.0, 0.004381205405194955
248.0, 0.0075715071876021845
249.0, 0.009426792676979755
250.0, 0.007986457914165043
251.0, 0.009896398644832183
252.0, 0.015192659546590964
253.0, 0.014705748850394164
254.0, 0.007342589904349333
255.0, 0.00452485862783276
256.0, 0.0020560696740940013
257.0, 0.0021891929963069154
258.0, 0.008169440360792276
259.0, 0.015407738676966053
260.0, 0.023244549959372498
261.0, 0.03341188886791751
262.0, 0.043874255866923416
263.0, 0.053337974786821875
264.0, 0.06255409844460294
265.0, 0.07710176447407699
266.0, 0.08866011451608274
267.0, 0.09922309200923562
268.0, 0.11192814146177953
269.0, 0.10924909960992385
270.0, 0.0972998646025707
271.0, 0.08174556185078577
272.0, 0.06476852431559248
273.0, 0.04562511228172402
274.0, 0.031273618288324985
275.0, 0.027860984612760195
276.0, 0.025976256443916566
277.0, 0.01819442696898995
278.0, 0.013837367877899832
279.0, 0.020757910292270764
280.0, 0.022736845593283234
281.0, 0.02130656552689288
282.0, 0.027778149511995972
283.0, 0.044112416834222554
284.0, 0.048427938385322084
285.0, 0.054876282738817464
286.0, 0.06757523806807139
287.0, 0.07850596150785312
288.0, 0.09099130386998888
289.0, 0.10875134640348916
290.0, 0.12760182818914792
291.0, 0.14493430824449488
292.0, 0.16410362658542615
293.0, 0.18843603459657784
294.0, 0.21491295693330414
295.0, 0.23937842244206656
296.0, 0.2592195810523381
297.0, 0.2783605197809781
298.0, 0.29042198838837374
299.0, 0.2926052611305242
300.0, 0.2844966356979518
301.0, 0.2684276838495433
302.0, 0.24485495370323154
303.0, 0.21476552884273037
304.0, 0.18276526334391005
305.0, 0.15575199688376665
306.0, 0.13803962477842183
307.0, 0.1164890787705886
308.0, 0.0966692437381099
309.0, 0.08095795730277543
310.0, 0.06910274927136564
311.0, 0.06058793647973241
312.0, 0.052600801143227495
313.0, 0.04622589092579658
314.0, 0.04276034242034168
315.0, 0.04172863716789456
316.0, 0.040392841647458
317.0, 0.04302841788749751
318.0, 0.043754063481121375
319.0, 0.04115743762065904
320.0, 0.039326648798118806
321.0, 0.045188094379139614
322.0, 0.04744944281136315
323.0, 0.05533973352769469
324.0, 0.0641876829821277
325.0, 0.05913200592588699
326.0, 0.06878831736130402
327.0, 0.07575147663153853
328.0, 0.08099044395803259
329.0, 0.08829061603338828
330.0, 0.09506884692023276
331.0, 0.09977847333330336
332.0, 0.10942873577078728
333.0, 0.1196539588914124
334.0, 0.12711868641552218
335.0, 0.13636002694015795
336.0, 0.14365028826519943
337.0, 0.14959911264576714
338.0, 0.14981061251687644
339.0, 0.1431221059755459
340.0, 0.13738802511573794
341.0, 0.13236028171506678
342.0, 0.12135080815638519
343.0, 0.10641533531510615
344.0, 0.09143522700656827
345.0, 0.07529242139707543
346.0, 0.06331071448246636
347.0, 0.05097512607075038
348.0, 0.039690907749300244
349.0, 0.03260251777014421
350.0, 0.025278662015091227
351.0, 0.01997635309132029
352.0, 0.01516548950181926
353.0, 0.010668628311722283
354.0, 0.00747359329548263
355.0, 0.005331707286487315
356.0, 0.003924905831136625
357.0, 0.0032427395338742683
358.0, 0.004004859407320271
359.0, 0.0056821214529778384
360.0, 0.005076673461719617
361.0, 0.002634468206095219
362.0, 0.00253020906689167
363.0, 0.00522132393617548
364.0, 0.00802651526302518
365.0, 0.00821702245151458
366.0, 0.012329819509489616
367.0, 0.01752202620489214
368.0, 0.023450117936527147
369.0, 0.03072636210413542
370.0, 0.03528771529785266
371.0, 0.03624928356765827
372.0, 0.040173249295155984
373.0, 0.045927369303162185
374.0, 0.04810358253660236
375.0, 0.04352876548531057
376.0, 0.038249320208935594
377.0, 0.03245441693430705
378.0, 0.025616403816058245
379.0, 0.018113617274001813
380.0, 0.012887532092357684
381.0, 0.006821234616325423
382.0, 0.0018726181438381078
383.0, 0.0015910254905963
384.0, 0.004316888581394532
385.0, 0.004220919624591166
386.0, 0.0018109999395909892
387.0, 0.006390089121836187
388.0, 0.010904690733198961
389.0, 0.00623124202301138
390.0, 0.003476418073146914
391.0, 0.0023064435752050434
392.0, 0.0036281433448159314
393.0, 0.003911876575300447
394.0, 0.0010209305844085526
395.0, 0.0007090106430395652
396.0, 0.0048725850351143
397.0, 0.006532088968307761
398.0, 0.007103535378030627
399.0, 0.0111962837587212
400.0, 0.012628903683112373
401.0, 0.013319621142958427
402.0, 0.01718975888447296
403.0, 0.019303710121706653
404.0, 0.01876367938512026
405.0, 0.022744658761211498
406.0, 0.02502778029025637
407.0, 0.02616184170787101
408.0, 0.02582568289501085
409.0, 0.025359242107874564
410.0, 0.027649079860820134
411.0, 0.030927538668275394
412.0, 0.03660643954969356
413.0, 0.04363784063913326
414.0, 0.049137227809121435
415.0, 0.05079615947591706
416.0, 0.06915969895354232
417.0, 0.07617800150675356
418.0, 0.08112028036637482
419.0, 0.09211360052659168
420.0, 0.10671262605417783
421.0, 0.11474034275965313
422.0, 0.13183307669526348
423.0, 0.15234033954460327
424.0, 0.1749892027266357
425.0, 0.2033381507961548
426.0, 0.23410619876937244
427.0, 0.27272601165058397
428.0, 0.3222448558732366
429.0, 0.3804916912281348
430.0, 0.4456767498348543
431.0, 0.5193618791535053
432.0, 0.5858831858598355
433.0, 0.619379313674674
434.0, 0.6087444538751031
435.0, 0.5548218025257479
436.0, 0.4713844994074641
437.0, 0.37805581226214946
438.0, 0.29856271059843137
439.0, 0.23978795583379797
440.0, 0.1943101407117078
441.0, 0.15287384599332024
442.0, 0.12305431257102434
443.0, 0.10330405129229113
444.0, 0.09051505753557308
445.0, 0.07732130091398247
446.0, 0.06429732150246942
447.0, 0.061571586105592324
448.0, 0.05257740295562686
449.0, 0.04874073196776225
450.0, 0.046645085877819674
451.0, 0.04264352813622673
452.0, 0.0406002148814564
453.0, 0.035374359589809966
454.0, 0.04212348862795552
455.0, 0.047578337697071295
456.0, 0.04752748021954399
457.0, 0.04845971120701247
458.0, 0.04714451511663293
459.0, 0.05264582022913526
460.0, 0.058947414417698615
461.0, 0.0633152631447849
462.0, 0.06665942363430218
463.0, 0.07030576559751593
464.0, 0.07371387808588632
465.0, 0.07201014009926228
466.0, 0.06516984098420499
467.0, 0.05687835616686764
468.0, 0.051092646452571326
469.0, 0.046386614334527995
470.0, 0.04341589154851168
471.0, 0.03706613017179841
472.0, 0.028125874115981192
473.0, 0.02153969722893531
474.0, 0.01945326664288911
475.0, 0.016584867289091983
476.0, 0.014938060623130554
477.0, 0.014258162570007223
478.0, 0.01424034551198496
479.0, 0.016148430781567778
480.0, 0.017987487329327877
481.0, 0.01963920464216642
482.0, 0.025277349208024776
483.0, 0.03330393002390889
484.0, 0.038323429422990114
485.0, 0.03711217109580709
486.0, 0.0365064536380462
487.0, 0.03717671524474012
488.0, 0.03429599559605216
489.0, 0.02617255696949218
490.0, 0.020024414870101558
491.0, 0.014643811431538525
492.0, 0.011378828462307517
493.0, 0.00929270069127411
494.0, 0.004377636517437444
495.0, 0.0008990628459939593
496.0, 0.0033839363740412304
497.0, 0.0011305513764674827
498.0, 0.0014194535008226288
499.0, 0.0025948985522610954
500.0, 0.003372486837537122
501.0, 0.00804953399185616
502.0, 0.006398362192836566
503.0, 0.00327141265756167
504.0, 0.0016533578664885893
505.0, 0.002346964660023273
506.0, 0.003988153371063837
507.0, 0.003725334974611277
508.0, 0.0004912390369323256
509.0, 0.001708106714215653
510.0, 0.0019714973508864267
511.0, 0.0013717349313860073
512.0, 0.0007494189418035586
513.0, 0.002034323260999382
514.0, 0.0034287157910484127
515.0, 0.0047377020189982725
516.0, 0.004713673404669257
517.0, 0.0036011790704597677
518.0, 0.003341724393764337
519.0, 0.0037917232501386883
520.0, 0.005909111662477139
521.0, 0.004065738069646704
522.0, 0.0022724452738510357
523.0, 0.004906743280050188
524.0, 0.006775178535874454
525.0, 0.008068506162202362
526.0, 0.009580457516458325
527.0, 0.01107208412725052
528.0, 0.012894629149217483
529.0, 0.01544204544777827
530.0, 0.018146968764764414
531.0, 0.021625001795041798
532.0, 0.02558096603738443
533.0, 0.029758466493031696
534.0, 0.033837537643616133
535.0, 0.03778026738296353
536.0, 0.04233750158075215
537.0, 0.040940801960231955
538.0, 0.04373214344653484
539.0, 0.047117026154854996
540.0, 0.0473121026025008
541.0, 0.04815999687017735
542.0, 0.047064150123509646
543.0, 0.04366128220062668
544.0, 0.04025925334709853
545.0, 0.041383177287248156
546.0, 0.04451673351839431
547.0, 0.039757193033580336
548.0, 0.036832935827732005
549.0, 0.04043542384458626
550.0, 0.04023711030527951
551.0, 0.038193178050438224
552.0, 0.041483713737082685
553.0, 0.04528850991981244
554.0, 0.041283183693001664
555.0, 0.04420901182237093
556.0, 0.048595797618348396
557.0, 0.049824746381640334
558.0, 0.049278921468912336
559.0, 0.04971656247484675
560.0, 0.05350541493768909
561.0, 0.053033724908859804
562.0, 0.0513547657030214
563.0, 0.05485625272845418
564.0, 0.06417405131155152
565.0, 0.067686025825279
566.0, 0.07557092162004139
567.0, 0.0833972263375088
568.0, 0.09441946351035745
569.0, 0.10704034985542445
570.0, 0.11769459782156695
571.0, 0.13199902703371622
572.0, 0.14010245167455576
573.0, 0.1540947778698984
574.0, 0.17263925319468276
575.0, 0.19207850645392033
576.0, 0.2124031234694898
577.0, 0.23408721704045907
578.0, 0.24450799299541565
579.0, 0.264088061535072
580.0, 0.2863001942957985
581.0, 0.3043969191046611
582.0, 0.3206376902923761
583.0, 0.33540101451107834
584.0, 0.34145402521182794
585.0, 0.33788437856837683
586.0, 0.3265637221193019
587.0, 0.31329925381471624
588.0, 0.30068740575233294
589.0, 0.2798832530028667
590.0, 0.25093338280701677
591.0, 0.224613467224651
592.0, 0.1997095298355683
593.0, 0.17367919900502213
594.0, 0.14923024757009812
595.0, 0.13135431880650292
596.0, 0.11081407154227195
597.0, 0.1032101798379116
598.0, 0.08456222076693577
599.0, 0.06730655216785983
600.0, 0.06355908451595434
601.0, 0.046094725511336705
602.0, 0.03904245921200578
603.0, 0.031828087675812806
604.0, 0.025921755278722185
605.0, 0.02074611206883529
606.0, 0.013520113510840308
607.0, 0.006663301227501937
608.0, 0.00834384793359823
609.0, 0.00866569288295968
610.0, 0.004590536308187766
611.0, 0.0018801107066231952
612.0, 0.0015196358313534334
613.0, 0.0003204552962187705
614.0, 0.001222886645368408
615.0, 0.0017430645813556508
616.0, 0.0011626396565533948
617.0, 0.00017183752320518161
618.0, 0.000587195824097066
619.0, 0.0009551452160101178
620.0, 0.003852887798228857
621.0, 0.002441264388489978
622.0, 0.006994449436176522
623.0, 0.00882111188396358
624.0, 0.004353248818958182
625.0, 0.0021862262117833433
626.0, 0.01177317808346793
627.0, 0.016798022608548593
628.0, 0.016675683128016348
629.0, 0.015306403418417663
630.0, 0.015126691977541372
631.0, 0.017666625762464735
632.0, 0.022601692729156714
633.0, 0.024361799539789675
634.0, 0.02280588989272413
635.0, 0.024254335527915373
636.0, 0.028355958616082505
637.0, 0.03401059939229685
638.0, 0.04001727981299443
639.0, 0.040728560716464475
640.0, 0.03929367061939148
641.0, 0.041344526282700494
642.0, 0.048996515739085304
643.0, 0.057500100109442794
644.0, 0.06377481632571896
645.0, 0.07093835492474876
646.0, 0.0781248901579269
647.0, 0.08871385945022643
648.0, 0.09794345000352686
649.0, 0.10279397102153069
650.0, 0.10990888006672349
651.0, 0.12563100388987078
652.0, 0.13399783587506725
653.0, 0.14390122187255133
654.0, 0.1534762400190836
655.0, 0.1658288034805999
656.0, 0.17738925686730353
657.0, 0.18742474233409065
658.0, 0.20381921391034766
659.0, 0.21204191105532916
660.0, 0.22140150717386142
661.0, 0.22701098641292033
662.0, 0.231272645549373
663.0, 0.23539766913909782
664.0, 0.23592424638175233
665.0, 0.23052850658316798
666.0, 0.2272929919003184
667.0, 0.220948282297828
668.0, 0.21338703437747905
669.0, 0.2026642872632501
670.0, 0.18778231127548517
671.0, 0.17341842380916495
672.0, 0.15404960919256988
673.0, 0.14403350709553522
674.0, 0.13078182800579322
675.0, 0.11683610754020048
676.0, 0.10732675309359994
677.0, 0.10014598355220845
678.0, 0.08795239539624736
679.0, 0.0780902095228069
680.0, 0.07058090214661053
681.0, 0.06289843760974008
682.0, 0.053997221455692565
683.0, 0.046721565429299755
684.0, 0.04299567759402281
685.0, 0.038161266055735756
686.0, 0.035230989707583316
687.0, 0.03295412722382847
688.0, 0.02908967486905233
689.0, 0.024834804986882036
690.0, 0.021043498828448994
691.0, 0.017585963600252316
692.0, 0.01772943569382069
693.0, 0.017921425569499837
694.0, 0.013284657685613476
695.0, 0.010850612325954643
696.0, 0.010927808047437235
697.0, 0.00906695511000167
698.0, 0.004276875491863424
699.0, 0.0016783387714421809
700.0, 0.00014452997808886723
701.0, 0.0017655565900227064
702.0, 0.0015532121757928672
703.0, 0.0010722488763896388
704.0, 0.0026945039881588052
705.0, 0.00462004569122941
706.0, 0.0032182277804944414
707.0, 0.0004776731625535544
708.0, 0.0010390628388731369
709.0, 0.0038710025366739667
710.0, 0.004363451394268534
711.0, 0.0017811279791760588
712.0, 0.0001917866744668717
713.0, 0.0001870193513780887
714.0, 0.00022072619589058644
715.0, 0.001928255397991875
716.0, 0.0014917093835847448
717.0, 0.006713460685303527
718.0, 0.003407999960107922
719.0, 0.00393665821542894
720.0, 0.0011516463156593872
721.0, 0.0025960612926817337
722.0, 0.00165044112322257
723.0, 0.00015355366532340483
724.0, 0.0011625831703683267
725.0, 0.0027433007908576005
726.0, 0.0007054068073230767
727.0, 0.0033517717065033726
728.0, 0.004931810920001155
729.0, 0.0012312176150275308
730.0, 0.0014246851599532006
731.0, 0.0004505629859444257
732.0, 0.0019387575306911136
733.0, 0.0007943840404101048
734.0, 0.0004869201279768539
735.0, 0.0006084851120659301
736.0, 0.0030372597748963225
737.0, 0.003378371764706616
738.0, 0.007772699994155598
739.0, 0.005203078851164365
740.0, 0.0037671432579117338
741.0, 0.0025285499646395234
742.0, 0.007242568696010632
743.0, 0.006588473271573603
744.0, 0.0045419112945413115
745.0, 0.004744236529574256
746.0, 0.005068381690358362
747.0, 0.004965947957295503
748.0, 0.009194543211300756
749.0, 0.012937905035293967
750.0, 0.010275528036983249
751.0, 0.010620392133571521
752.0, 0.014301009620658164
753.0, 0.017396583892686158
754.0, 0.01782905681901997
755.0, 0.017095188955334996
756.0, 0.021827028210675243
757.0, 0.02278425690677907
758.0, 0.026991067786476114
759.0, 0.02771329303526214
760.0, 0.0295531396550741
761.0, 0.03657277658395101
762.0, 0.03820486673143288
763.0, 0.037119487322625336
764.0, 0.0448973546878973
765.0, 0.04438100834653191
766.0, 0.045462960254278685
767.0, 0.046837946026770806
768.0, 0.045109395998689315
769.0, 0.043250721006962305
770.0, 0.043435433764980366
771.0, 0.036856692462325966
772.0, 0.03731769937190246
773.0, 0.0309558918366356
774.0, 0.025106568200516023
775.0, 0.025354920404737028
776.0, 0.027047839865036054
777.0, 0.025868059319381746
778.0, 0.024360820104783912
779.0, 0.021518956107219805
780.0, 0.02220289465639707
781.0, 0.022286445804225927
782.0, 0.02184321292949645
783.0, 0.022669471951678608
784.0, 0.02615962419647945
785.0, 0.03171430301279417
786.0, 0.03522059604925578
787.0, 0.039053782194809164
788.0, 0.039624030194479715
789.0, 0.04359719036275619
790.0, 0.04900294505180786
791.0, 0.05210428615280245
792.0, 0.053017833680151324
793.0, 0.05136574571670403
794.0, 0.0481335011202982
795.0, 0.04650835269915625
796.0, 0.0420151075956369
797.0, 0.03554890488172389
798.0, 0.029879451293029807
799.0, 0.02507412186346678
800.0, 0.019729626851697178
801.0, 0.01651271578672361
802.0, 0.01588602697211008
803.0, 0.016333311506623968
804.0, 0.014045812576715833
805.0, 0.010806414042494869
806.0, 0.010671405141882265
807.0, 0.013210361434361202
808.0, 0.014805781936607788
809.0, 0.015401157275948556
810.0, 0.012558304242756287
811.0, 0.009681868388955043
812.0, 0.015551988547404739
813.0, 0.013910612168314667
814.0, 0.011522807077752908
815.0, 0.013902494879969387
816.0, 0.013248283452695528
817.0, 0.011915699395109404
818.0, 0.012389264628920472
819.0, 0.016028366512935883
820.0, 0.017478351483995798
821.0, 0.017235582182563134
822.0, 0.019206667917805575
823.0, 0.02080630294110147
824.0, 0.018566025080072088
825.0, 0.018720533963826953
826.0, 0.021573649584807963
827.0, 0.0235141625572389
828.0, 0.022645788495806216
829.0, 0.025350176484446867
830.0, 0.027165853503095222
831.0, 0.025714770051487784
832.0, 0.026069753874374862
833.0, 0.027870712440819935
834.0, 0.030135308144396973
835.0, 0.029995270409592375
836.0, 0.029647861825529594
837.0, 0.03039208029024592
838.0, 0.031975330566872615
839.0, 0.03368672792934426
840.0, 0.03414834278683622
841.0, 0.03325274640382083
842.0, 0.03465877724376285
843.0, 0.036256226650907795
844.0, 0.037721404206430234
845.0, 0.036697714167636244
846.0, 0.035606713679114305
847.0, 0.0376628117450171
848.0, 0.03939081897753815
849.0, 0.03714010219377652
850.0, 0.03580351512587385
851.0, 0.03568907344725552
852.0, 0.037687733316982136
853.0, 0.035172290718537294
854.0, 0.03239940095828808
855.0, 0.034226386337163114
856.0, 0.03516391482402861
857.0, 0.032145194955189096
858.0, 0.031207411727239294
859.0, 0.027867803301491394
860.0, 0.026410720699773717
861.0, 0.02947466588903867
862.0, 0.03048933980943754
863.0, 0.028408830699279738
864.0, 0.027766341801885648
865.0, 0.02715275639915994
866.0, 0.023962654494772227
867.0, 0.02444201363901398
868.0, 0.02381609276275284
869.0, 0.020845742915130194
870.0, 0.020972981597227564
871.0, 0.023155743134442113
872.0, 0.02191205673998094
873.0, 0.021439478769212903
874.0, 0.023314771694436465
875.0, 0.021233423569089617
876.0, 0.018241771340304188
877.0, 0.01840934013359606
878.0, 0.016625702983516337
879.0, 0.017368993982862246
880.0, 0.018190722493193843
881.0, 0.020597618643525096
882.0, 0.019654200183359737
883.0, 0.013619162313226525
884.0, 0.011908975279695729
885.0, 0.01309761660389992
886.0, 0.013379823024691574
887.0, 0.01692127820348611
888.0, 0.012808024334376089
889.0, 0.009578586150342372
890.0, 0.011434676096050436
891.0, 0.01285121775486925
892.0, 0.011180448388103859
893.0, 0.01003535111853496
894.0, 0.00990887267950446
895.0, 0.010832468831552988
896.0, 0.011329436298176392
897.0, 0.00947275273573488
898.0, 0.008619105275312977
899.0, 0.00948509729239446
900.0, 0.0073492424542560796
901.0, 0.004243378738518567
902.0, 0.007601871404645372
903.0, 0.009011467160202147
904.0, 0.004132455468499886
905.0, 0.005201757465776955
906.0, 0.003143495281513739
907.0, 0.0023183468937241947
908.0, 0.0034136150600629855
909.0, 0.0030858217253960257
910.0, 0.0020697864150322075
911.0, 0.001331910589949594
912.0, 0.001051990485695882
913.0, 0.001484806385541172
914.0, 0.0011521148362031173
915.0, 0.0013703973651789227
916.0, 0.0007684873346287663
917.0, 0.0009673576309299475
918.0, 0.0001367330765299731
919.0, 0.00011147360493800475
920.0, 0.0009746767717810495
921.0, 0.0021342244609136524
922.0, 0.0013237578644522572
923.0, 0.0018884976838708305
924.0, 0.0044992348947592315
925.0, 0.0012043373631518595
926.0, 0.0001732735418839632
927.0, 0.001356850592010666
928.0, 0.001578489933514254
929.0, 0.0012354311475651426
930.0, 0.0007092464985670216
931.0, 0.0005795818277407385
932.0, 0.0006042437261740822
933.0, 0.0012694419783727954
934.0, 0.0013471777199975884
935.0, 0.0023573418643523763
936.0, 0.0027170083709232543
937.0, 0.0013798847829544316
938.0, 0.0033403606867686134
939.0, 0.0009875287582015557
940.0, 0.0012275845598701362
941.0, 0.0065886166134287326
942.0, 0.001107287443594136
943.0, 0.00019769437115720436
944.0, 0.0009765112308865188
945.0, 0.0009382501333124254
946.0, 0.000622569888824534
947.0, 0.0003502837061965293
948.0, 0.0005640191925457376
949.0, 0.0017878266220546113
950.0, 0.00046476589624863554
951.0, 0.0015700601565865398
952.0, 0.007889823297047537
953.0, 0.0025784000691318394
954.0, 0.0018290900622549317
955.0, 0.0025028687752026986
956.0, 0.003214013637019798
957.0, 0.00423884653881627
958.0, 0.003957678306966021
959.0, 0.0035493333031651223
960.0, 0.005148508528119888
961.0, 0.00280858130772284
962.0, 0.0018198070160327466
963.0, 0.004447059194014149
964.0, 0.0028560047999735437
965.0, 0.0028075422080278355
966.0, 0.004730237521860335
967.0, 0.00591907664685999
968.0, 0.005033093126008856
969.0, 0.006529176077232278
970.0, 0.011547764785743823
971.0, 0.012940240997677828
972.0, 0.011743873490196297
973.0, 0.009740378289051041
974.0, 0.009119599509677502
975.0, 0.005447283128440865
976.0, 0.003936550088748333
977.0, 0.0028298177319380172
978.0, 0.0011800507423520895
979.0, 0.0012404249981382428
980.0, 0.0014610709462674408
981.0, 0.00017842216061743325
982.0, 0.0002126678287460164
983.0, 6.0491496965843925e-05
984.0, 0.0001731036495987262
985.0, 0.0017361443885801436
986.0, 0.0012236748239186003
987.0, 0.001972697627836453
988.0, 0.0024963157975467654
989.0, 0.0030060703182121216
990.0, 0.003224594301080551
991.0, 0.0021516540851791877
992.0, 0.003821194345048525
993.0, 0.0054261055154383704
994.0, 0.000684499039053409
995.0, 0.005611767182203761
996.0, 0.011485448730785452
997.0, 0.012794937847765964
998.0, 0.012403392270995512
999.0, 0.01632475264236832
1000.0, 0.02050495792616803
1001.0, 0.02006700393244734
1002.0, 0.01907896079091285
1003.0, 0.02280955273258604
1004.0, 0.02834648798961821
1005.0, 0.031758063505458456
1006.0, 0.02974166737601208
1007.0, 0.03247836128015251
1008.0, 0.038040489897768724
1009.0, 0.037320423592993
1010.0, 0.035346106549432356
1011.0, 0.03173604182825609
1012.0, 0.0252832799199317
1013.0, 0.020733353847767925
1014.0, 0.01770997664091938
1015.0, 0.013770002783382487
1016.0, 0.0140407662021987
1017.0, 0.010032518455103525
1018.0, 0.006294145704801839
1019.0, 0.008832511325326586
1020.0, 0.005913743828527664
1021.0, 0.0053999915715156315
1022.0, 0.006583741309554886
1023.0, 0.006440563796362837
1024.0, 0.006957596495622061
1025.0, 0.006882547508302294
1026.0, 0.00559536655534463
1027.0, 0.008628649649683347
1028.0, 0.010617208151411768
1029.0, 0.011077080329925052
1030.0, 0.015991379195832447
1031.0, 0.01540875561638102
1032.0, 0.017157215159290577
1033.0, 0.01762311664268802
1034.0, 0.01941838287278707
1035.0, 0.02346584549975578
1036.0, 0.026527720907975456
1037.0, 0.029792759561157237
1038.0, 0.03420690515888872
1039.0, 0.0398872166887601
1040.0, 0.03804234662692644
1041.0, 0.047484938437826994
1042.0, 0.05458535273200265
1043.0, 0.05983199805271508
1044.0, 0.06585086764516239
1045.0, 0.07765399911215412
1046.0, 0.08842704866095351
1047.0, 0.10047392354313775
1048.0, 0.11505475412265327
1049.0, 0.13058748943066348
1050.0, 0.1508664279521005
1051.0, 0.17036010407410132
1052.0, 0.20122862572588232
1053.0, 0.23158661782026943
1054.0, 0.2638400390805976
1055.0, 0.29944274537657933
1056.0, 0.34423756359348284
1057.0, 0.3924375247649646
1058.0, 0.43970995337460006
1059.0, 0.484183478336547
1060.0, 0.5191420272432834
1061.0, 0.5268278933063829
1062.0, 0.5044635535546673
1063.0, 0.46773611066603055
1064.0, 0.41028866727344704
1065.0, 0.3508865566690442
1066.0, 0.29628076011573634
1067.0, 0.2464718370122833
1068.0, 0.20246752099522747
1069.0, 0.16836157734470222
1070.0, 0.13974092198307922
1071.0, 0.11545894089630249
1072.0, 0.09608303350753584
1073.0, 0.07935589342330665
1074.0, 0.06447985087536169
1075.0, 0.05201480860929732
1076.0, 0.04218500707381428
1077.0, 0.0365454384537109
1078.0, 0.03058688205160271
1079.0, 0.022828370861921393
1080.0, 0.02044908060822406
1081.0, 0.017652754338476417
1082.0, 0.014761946629703414
1083.0, 0.013429469516081729
1084.0, 0.009590918670878367
1085.0, 0.008975714861181998
1086.0, 0.00988258018316892
1087.0, 0.009489840785018983
1088.0, 0.007595470241223361
1089.0, 0.003021822495318163
1090.0, 0.0016021111200007572
1091.0, 0.0021778067242807044
1092.0, 0.004013146485601446
1093.0, 0.005013873875754831
1094.0, 0.0009974495114896834
1095.0, 0.0006267504744602657
1096.0, 0.0027475308452615138
1097.0, 0.0024849790200669646
1098.0, 0.0031288130594204085
1099.0, 0.0036772894627080475
1100.0, 0.001171643279091203
1101.0, 0.0019157191426035524
1102.0, 0.004924883513733953
1103.0, 0.0038279031961750334
1104.0, 0.007812696249335472
1105.0, 0.0053796066011642584
1106.0, 0.008416261732651233
1107.0, 0.014635828136098313
1108.0, 0.017512855726758706
1109.0, 0.02008060703875155
1110.0, 0.018115483489400928
1111.0, 0.02164487952781454
1112.0, 0.028011057800034076
1113.0, 0.031053646557713574
1114.0, 0.032522538871899355
1115.0, 0.03439726785821943
1116.0, 0.03550156222918873
1117.0, 0.033752880165953875
1118.0, 0.02860022241096328
1119.0, 0.025300529188856728
1120.0, 0.01678265567629863
1121.0, 0.014087775950084978
1122.0, 0.012877476034123779
1123.0, 0.010447897603131626
1124.0, 0.00972894256901655
1125.0, 0.005190780045416353
1126.0, 0.003744638418911078
1127.0, 0.004053160615127448
1128.0, 0.0011661890232706317
1129.0, 0.0018466192642575263
1130.0, 0.0027238822937266476
1131.0, 0.0018520804442047456
1132.0, 0.003753573795488448
1133.0, 0.0009382353639786319
1134.0, 0.004375474372696016
1135.0, 0.0005241233603326146
1136.0, 6.331913906713588e-05
1137.0, 0.0004220850779565443
1138.0, 0.0026058070410480143
1139.0, 0.001415565569693795
1140.0, 0.001092553442256484
1141.0, 0.002332838488360677
1142.0, 0.002299881352390734
1143.0, 0.0017702446033579517
1144.0, 0.0007851287721365038
1145.0, 0.0010546078556939247
1146.0, 0.0014048076337724571
1147.0, 0.0027363389167229316
1148.0, 0.0012886534012478714
1149.0, 0.0026227224540850305
1150.0, 0.0009791946098863876
1151.0, 0.0026199133701931263
1152.0, 0.001450453332891185
1153.0, 0.003979776442282423
1154.0, 0.0030162040324929174
1155.0, 0.0003563401965739345
1156.0, 0.003458606257570546
1157.0, 0.0037038897714652417
1158.0, 0.0028316581425757823
1159.0, 0.0009964511171633703
1160.0, 0.0027046940927150454
1161.0, 0.0034736959863758644
1162.0, 0.001481410795357877
1163.0, 0.002616359977264854
1164.0, 0.004331041124181953
1165.0, 0.003938482940542311
1166.0, 0.0020049738259213814
1167.0, 0.003706840140913037
1168.0, 0.004816634269663754
1169.0, 0.0023313112812576547
1170.0, 0.005623588772084885
1171.0, 0.0043703701541523195
1172.0, 0.006691392812589408
1173.0, 0.005220355854603668
1174.0, 0.005584717240074353
1175.0, 0.0058907590242970745
1176.0, 0.007369591661493831
1177.0, 0.008129731989226962
1178.0, 0.005014641770521814
1179.0, 0.003129388101927468
1180.0, 0.005273424234502303
1181.0, 0.00872165944776074
1182.0, 0.00825358923206126
1183.0, 0.004613883779446828
1184.0, 0.004992676409723298
1185.0, 0.006169671090346341
1186.0, 0.003993964910991035
1187.0, 0.005385097468360816
1188.0, 0.00581384947126151
1189.0, 0.007029449979873824
1190.0, 0.005642251532548636
1191.0, 0.0033076241352441495
1192.0, 0.004761070122892405
1193.0, 0.006295607353187273
1194.0, 0.007069053739407901
1195.0, 0.006351497661119255
1196.0, 0.0054066569149392365
1197.0, 0.00685469076844941
1198.0, 0.004931498803887414
1199.0, 0.004289525790546959
1200.0, 0.005008688960073032
1201.0, 0.004936699376439585
1202.0, 0.005267388851763103
1203.0, 0.004774021237278668
1204.0, 0.007372134132742184
1205.0, 0.0062571873330711444
1206.0, 0.008075418599618156
1207.0, 0.005449644393257036
1208.0, 0.00283429854794422
1209.0, 0.008209681452519735
1210.0, 0.00311002828944748
1211.0, 0.0052739328992202055
1212.0, 0.00670258525908986
1213.0, 0.0035915038615022495
1214.0, 0.004459914918885911
1215.0, 0.0039199972836772914
1216.0, 0.0021641283823853287
1217.0, 0.004149369613244499
1218.0, 0.0068245659722009555
1219.0, 0.005100416940370276
1220.0, 0.0017953534509330467
1221.0, 0.001989019152743268
1222.0, 0.00295372959079364
1223.0, 0.002348503626835431
1224.0, 0.001088493690413374
1225.0, 0.00012043722380546462
1226.0, 0.0010507706764182863
1227.0, 0.0010258433777339375
1228.0, 0.0030736119029482383
1229.0, 0.006691969782701022
1230.0, 0.006905276760669142
1231.0, 0.008785307958072112
1232.0, 0.0013642812893655556
1233.0, 0.00111073592099754
1234.0, 0.004073195325282339
1235.0, 0.004338612683286944
1236.0, 0.003507168382881347
1237.0, 0.0038787347088463492
1238.0, 0.002677367103215442
1239.0, 0.002733367750124886
1240.0, 0.004608130705560718
1241.0, 0.0037807215439775504
1242.0, 0.0016157885898848109
1243.0, 0.0013147972217430685
1244.0, 0.003236470581302469
1245.0, 0.003310295467521588
1246.0, 0.0014946467444293594
1247.0, 0.002077200858981568
1248.0, 0.0019082224094524006
1249.0, 0.0012441619770994512
1250.0, 0.0027005570793292148
1251.0, 0.0022597412466860943
1252.0, 0.0010758918370600064
1253.0, 0.0003199332152109609
1254.0, 0.005190749691717007
1255.0, 0.005439464503076859
1256.0, 0.003812829950356931
1257.0, 0.004103447789280956
1258.0, 0.0020864908055471566
1259.0, 0.0007900007864364906
1260.0, 0.003239380503834161
1261.0, 0.0014752200503030072
1262.0, 0.0035586907648096863
1263.0, 0.0011405424937142397
1264.0, 0.00014894021406724494
1265.0, 0.0017497498644429808
1266.0, 0.0002820437290853467
1267.0, 0.0010258814970999885
1268.0, 0.005021311440108103
1269.0, 0.004377731374868718
1270.0, 0.001327800528277554
1271.0, 0.0018385564614834342
1272.0, 0.0033891254711122336
1273.0, 0.003532192907585982
1274.0, 0.003054390753432916
1275.0, 0.004254892359342121
1276.0, 0.005638581445338296
1277.0, 0.00342706863198764
1278.0, 0.00037704174609807666
1279.0, 0.0020329077814221345
1280.0, 0.0033018552012359552
1281.0, 0.005731663331897412
1282.0, 0.0049736051057154415
1283.0, 0.002153121860105223
1284.0, 0.00022532437371137055
1285, 0.0
1286, 0.0
1287, 0.0
1288, 0.0
1289, 0.0
1290, 0.0
1291, 0.0
1292, 0.0
1293, 0.0
1294, 0.0
1295, 0.0
1296, 0.0
1297, 0.0
1298, 0.0
1299, 0.0
1300, 0.0
1301, 0.0
1302, 0.0
1303, 0.0
1304, 0.0
1305, 0.0
1306, 0.0
1307, 0.0
1308, 0.0
1309, 0.0
1310, 0.0
1311, 0.0
1312, 0.0
1313, 0.0
1314, 0.0
1315, 0.0
1316, 0.0
1317, 0.0
1318, 0.0
1319, 0.0
1320, 0.0
1321, 0.0
1322, 0.0
1323, 0.0
1324, 0.0
1325, 0.0
1326, 0.0
1327, 0.0
1328, 0.0
1329, 0.0
1330, 0.0
1331, 0.0
1332, 0.0
1333, 0.0
1334, 0.0
1335, 0.0
1336, 0.0
1337, 0.0
1338, 0.0
1339, 0.0
1340, 0.0
1341, 0.0
1342, 0.0
1343, 0.0
1344, 0.0
1345, 0.0
1346, 0.0
1347, 0.0
1348, 0.0
1349, 0.0
1350, 0.0
1351, 0.0
1352, 0.0
1353, 0.0
1354, 0.0
1355, 0.0
1356, 0.0
1357, 0.0
1358, 0.0
1359, 0.0
1360, 0.0
1361, 0.0
1362, 0.0
1363, 0.0
1364, 0.0
1365, 0.0
1366, 0.0
1367, 0.0
1368, 0.0
1369, 0.0
1370, 0.0
1371, 0.0
1372, 0.0
1373, 0.0
1374, 0.0
1375, 0.0
1376, 0.0
1377, 0.0
1378, 0.0
1379, 0.0
1380, 0.0
1381, 0.0
1382, 0.0
1383, 0.0
1384, 0.0
1385, 0.0
1386, 0.0
1387, 0.0
1388, 0.0
1389, 0.0
1390, 0.0
1391, 0.0
1392, 0.0
1393, 0.0
1394, 0.0
1395, 0.0
1396, 0.0
1397, 0.0
1398, 0.0
1399, 0.0
1400, 0.0
1401, 0.0
1402, 0.0
1403, 0.0
1404, 0.0
1405, 0.0
1406, 0.0
1407, 0.0
1408, 0.0
1409, 0.0
1410, 0.0
1411, 0.0
1412, 0.0
1413, 0.0
1414, 0.0
1415, 0.0
1416, 0.0
1417, 0.0
1418, 0.0
1419, 0.0
1420, 0.0
1421, 0.0
1422, 0.0
1423, 0.0
1424, 0.0
1425, 0.0
1426, 0.0
1427, 0.0
1428, 0.0
1429, 0.0
1430, 0.0
1431, 0.0
1432, 0.0
1433, 0.0
1434, 0.0
1435, 0.0
1436, 0.0
1437, 0.0
1438, 0.0
1439, 0.0
1440, 0.0
1441, 0.0
1442, 0.0
1443, 0.0
1444, 0.0
1445, 0.0
1446, 0.0
1447, 0.0
1448, 0.0
1449, 0.0
1450, 0.0
1451, 0.0
1452, 0.0
1453, 0.0
1454, 0.0
1455, 0.0
1456, 0.0
1457, 0.0
1458, 0.0
1459, 0.0
1460, 0.0
1461, 0.0
1462, 0.0
1463, 0.0
1464, 0.0
1465, 0.0
1466, 0.0
1467, 0.0
1468, 0.0
1469, 0.0
1470, 0.0
1471, 0.0
1472, 0.0
1473, 0.0
1474, 0.0
1475, 0.0
1476, 0.0
1477, 0.0
1478, 0.0
1479, 0.0
1480, 0.0
1481, 0.0
1482, 0.0
1483, 0.0
1484, 0.0
1485, 0.0
1486, 0.0
1487, 0.0
1488, 0.0
1489, 0.0
1490, 0.0
1491, 0.0
1492, 0.0
1493, 0.0
1494, 0.0
1495, 0.0
1496, 0.0
1497, 0.0
1498, 0.0
1499, 0.0
1500, 0.0
1501, 0.0
1502, 0.0
1503, 0.0
1504, 0.0
1505, 0.0
1506, 0.0
1507, 0.0
1508, 0.0
1509, 0.0
1510, 0.0
1511, 0.0
1512, 0.0
1513, 0.0
1514, 0.0
1515, 0.0
1516, 0.0
1517, 0.0
1518, 0.0
1519, 0.0
1520, 0.0
1521, 0.0
1522, 0.0
1523, 0.0
1524, 0.0
1525, 0.0
1526, 0.0
1527, 0.0
1528, 0.0
1529, 0.0
1530, 0.0
1531, 0.0
1532, 0.0
1533, 0.0
1534, 0.0
1535, 0.0
1536, 0.0
1537, 0.0
1538, 0.0
1539, 0.0
1540, 0.0
1541, 0.0
1542, 0.0
1543, 0.0
1544, 0.0
1545, 0.0
1546, 0.0
1547, 0.0
1548, 0.0
1549, 0.0
1550, 0.0
1551, 0.0
1552, 0.0
1553, 0.0
1554, 0.0
1555, 0.0
1556, 0.0
1557, 0.0
1558, 0.0
1559, 0.0
1560, 0.0
1561, 0.0
1562, 0.0
1563, 0.0
1564, 0.0
1565, 0.0
1566, 0.0
1567, 0.0
1568, 0.0
1569, 0.0
1570, 0.0
1571, 0.0
1572, 0.0
1573, 0.0
1574, 0.0
1575, 0.0
1576, 0.0
1577, 0.0
1578, 0.0
1579, 0.0
1580, 0.0
1581, 0.0
1582, 0.0
1583, 0.0
1584, 0.0
1585, 0.0
1586, 0.0
1587, 0.0
1588, 0.0
1589, 0.0
1590, 0.0
1591, 0.0
1592, 0.0
1593, 0.0
1594, 0.0
1595, 0.0
1596, 0.0
1597, 0.0
1598, 0.0
1599, 0.0
