30, 0.0
31, 0.0
32, 0.0
33, 0.0
34, 0.0
35, 0.0
36, 0.0
37, 0.0
38, 0.0
39, 0.0
40, 0.0
41, 0.0
42, 0.0
43, 0.0
44, 0.0
45, 0.0
46, 0.0
47, 0.0
48, 0.0
49, 0.0
50, 0.0
51, 0.0
52, 0.0
53, 0.0
54, 0.0
55, 0.0
56, 0.0
57, 0.0
58, 0.0
59, 0.0
60, 0.0
61, 0.0
62, 0.0
63, 0.0
64, 0.0
65, 0.0
66, 0.0
67, 0.0
68, 0.0
69, 0.0
70, 0.0
71, 0.0
72, 0.0
73, 0.0
74, 0.0
75, 0.0
76, 0.0
77, 0.0
78, 0.0
79, 0.0
80, 0.0
81, 0.0
82, 0.0
83, 0.0
84, 0.0
85, 0.0
86, 0.0
87, 0.0
88, 0.0
89, 0.0
90, 0.0
91, 0.0
92, 0.0
93, 0.0
94, 0.0
95, 0.0
96, 0.0
97, 0.0
98, 0.0
99, 0.0
100, 0.0
101, 0.0
102, 0.0
103, 0.0
104, 0.0
105, 0.0
106, 0.0
107, 0.0
108, 0.0
109, 0.0
110, 0.0
111, 0.0
112, 0.0
113, 0.0
114, 0.0
115, 0.0
116, 0.0
117, 0.0
118, 0.0
119, 0.0
120, 0.0
121, 0.0
122, 0.0
123, 0.0
124, 0.0
125, 0.0
126, 0.0
127, 0.0
128, 0.0
129, 0.0
130, 0.0
131, 0.0
132, 0.0
133, 0.0
134, 0.0
135, 0.0
136, 0.0
137, 0.0
138, 0.0
139, 0.0
140, 0.0
141, 0.0
142, 0.0
143, 0.0
144, 0.0
145, 0.0
146, 0.0
147, 0.0
148, 0.0
149, 0.0
150, 0.0
151, 0.0
152, 0.0
153.0, 0.00033412065740641146
154.0, 0.0011703926432699901
155.0, 0.006313093697172797
156.0, 0.007765459789309627
157.0, 0.014307482785945664
158.0, 0.0233185459386612
159.0, 0.03202562573444708
160.0, 0.0477348554091829
161.0, 0.07092879626226208
162.0, 0.09589557630986283
163.0, 0.11538255040724801
164.0, 0.12269690419955909
165.0, 0.11312504388270897
166.0, 0.09276639111216566
167.0, 0.07197093129929436
168.0, 0.055569316143830594
169.0, 0.0552467625049911
170.0, 0.05663238734228447
171.0, 0.05623915096128531
172.0, 0.0599506679828967
173.0, 0.06465675568265879
174.0, 0.0670603354347944
175.0, 0.061677348888251333
176.0, 0.04687083095872234
177.0, 0.03035925887821918
178.0, 0.023074586110411823
179.0, 0.018085820285122626
180.0, 0.009599383405672318
181.0, 0.0007385366087947692
182.0, 0.0010261214840739344
183.0, 0.0009215037984182891
184.0, 0.0015242702081104567
185.0, 0.004103174465488131
186.0, 0.004683589132082159
187.0, 0.0020099776860720993
188.0, 0.0007428971425647819
189.0, 0.00048286131550743643
190.0, 0.0013276940059433631
191.0, 0.002529007445059227
192.0, 0.003375116332269133
193.0, 0.004655416329847607
194.0, 0.01011934238472268
195.0, 0.01558616206156622
196.0, 0.017091313314410998
197.0, 0.016000989873982626
198.0, 0.018575751819186824
199.0, 0.022988634336853584
200.0, 0.031140674697478846
201.0, 0.04149545246217708
202.0, 0.05084886614679795
203.0, 0.05977251192350821
204.0, 0.06310123507220972
205.0, 0.06727688814680152
206.0, 0.07717110351037572
207.0, 0.08060801519734032
208.0, 0.07620706912336614
209.0, 0.07275402146703916
210.0, 0.07398416464095975
211.0, 0.07512567527523599
212.0, 0.07751766753619561
213.0, 0.08752979127176388
214.0, 0.09916721698546119
215.0, 0.10275287398571285
216.0, 0.10690166502654723
217.0, 0.10426560276479148
218.0, 0.1025007887179172
219.0, 0.10743466758398242
220.0, 0.1080269822025405
221.0, 0.10844450198781803
222.0, 0.10949189955059539
223.0, 0.10729998071342306
224.0, 0.0954324862576055
225.0, 0.08890112574624648
226.0, 0.07969297518325476
227.0, 0.07103674736859952
228.0, 0.06913376789955378
229.0, 0.06226861428007485
230.0, 0.06528022682568933
231.0, 0.06973402561194711
232.0, 0.06781966549691537
233.0, 0.06209958398154493
234.0, 0.060193928859583315
235.0, 0.055360764257743195
236.0, 0.04868672283634567
237.0, 0.04686317225079292
238.0, 0.04427225614643175
239.0, 0.043086525345368235
240.0, 0.04490011123478956
241.0, 0.04847277087401193
242.0, 0.049201522448993194
243.0, 0.05550883947408996
244.0, 0.0627514866862428
245.0, 0.06785350946742882
246.0, 0.07046137644987788
247.0, 0.07390914530730319
248.0, 0.07772632947751677
249.0, 0.0777876677950738
250.0, 0.07126894101518184
251.0, 0.06480040169959658
252.0, 0.06310242862800612
253.0, 0.05716169981844424
254.0, 0.04391228272849457
255.0, 0.031142568980358144
256.0, 0.02797001994271069
257.0, 0.027380867234925985
258.0, 0.024681004701988845
259.0, 0.018355854824436704
260.0, 0.011019134168913189
261.0, 0.007393482668164936
262.0, 0.006746849710655665
263.0, 0.00712692312761494
264.0, 0.006622463209971285
265.0, 0.005281038038211321
266.0, 0.010441214106535498
267.0, 0.018560213320593846
268.0, 0.021054221434975883
269.0, 0.022068473629386742
270.0, 0.02097012084105509
271.0, 0.022891226911752726
272.0, 0.028681788052512838
273.0, 0.029584600646854815
274.0, 0.02550487491650526
275.0, 0.022270408390304784
276.0, 0.022550469502828577
277.0, 0.025574659653307043
278.0, 0.027750340802650122
279.0, 0.03038007377206332
280.0, 0.0332790579595199
281.0, 0.0348745090070909
282.0, 0.03344468153068454
283.0, 0.03121749529423283
284.0, 0.033551520256429074
285.0, 0.035637379735852785
286.0, 0.029876417189407554
287.0, 0.022261322907749063
288.0, 0.017078676011496166
289.0, 0.01339175129007699
290.0, 0.00972629904867783
291.0, 0.006155421420011206
292.0, 0.004147442009611473
293.0, 0.0038309464362655974
294.0, 0.0015368250685001993
295.0, 0.0036951184606829543
296.0, 0.0018916075170331721
297.0, 0.0031884826898039096
298.0, 0.004507455968522851
299.0, 0.0038411442069910813
300.0, 0.0039587225580627345
301.0, 0.0018138891665357049
302.0, 0.001879789780103685
303.0, 0.0005071423582269502
304.0, 0.0024558628534035705
305.0, 0.003219624130629033
306.0, 0.0026826364370468397
307.0, 0.004293322561850305
308.0, 0.007284619731908071
309.0, 0.008195867716955295
310.0, 0.005935852323326204
311.0, 0.010881991968597992
312.0, 0.01409235502504793
313.0, 0.01236864804473802
314.0, 0.020601733993780635
315.0, 0.022863189517624206
316.0, 0.025416676675297747
317.0, 0.02902549057323388
318.0, 0.03118197580766773
319.0, 0.035884384725288127
320.0, 0.03907911762703659
321.0, 0.04337932219441031
322.0, 0.04748862087967085
323.0, 0.04618203620119295
324.0, 0.0531940016128396
325.0, 0.0607013622761571
326.0, 0.06636958783198972
327.0, 0.07121282806136855
328.0, 0.07753631090839218
329.0, 0.08797728231758353
330.0, 0.09384672717084121
331.0, 0.09754143451086346
332.0, 0.10645436127778203
333.0, 0.10949103679816288
334.0, 0.11018670427850409
335.0, 0.10919099905316548
336.0, 0.10544195403563904
337.0, 0.09815090608160311
338.0, 0.09554139729563753
339.0, 0.08193378518239296
340.0, 0.07026683413955873
341.0, 0.07292681722206702
342.0, 0.0638264399726822
343.0, 0.05644658225122704
344.0, 0.05408409322738842
345.0, 0.05104429854685746
346.0, 0.04286466223742087
347.0, 0.04378083780728536
348.0, 0.04309195629158569
349.0, 0.04032614074913394
350.0, 0.04082088280242605
351.0, 0.04706111838099904
352.0, 0.048427110883282526
353.0, 0.04462695462623513
354.0, 0.04212978900535529
355.0, 0.04222808970598837
356.0, 0.036892864874539015
357.0, 0.04244684652837115
358.0, 0.04358772937206062
359.0, 0.0421613370394671
360.0, 0.04570845919652929
361.0, 0.043989053832118284
362.0, 0.04922122216534049
363.0, 0.052774029576321865
364.0, 0.053797195293964706
365.0, 0.05954945279655243
366.0, 0.06765416402627614
367.0, 0.06983235520845874
368.0, 0.06976727654859381
369.0, 0.07132112833267941
370.0, 0.07545390313354655
371.0, 0.07540079758970766
372.0, 0.07757662934947207
373.0, 0.08113798923584786
374.0, 0.08344714400233823
375.0, 0.08539361666123217
376.0, 0.09429722632552001
377.0, 0.09835439400614288
378.0, 0.09394714789527765
379.0, 0.08500409834431749
380.0, 0.07881368832758529
381.0, 0.06888186530860144
382.0, 0.059612650270538366
383.0, 0.05271467156295151
384.0, 0.04519425780210474
385.0, 0.03385580220139364
386.0, 0.029219996572986212
387.0, 0.025826492834425403
388.0, 0.020616582587603616
389.0, 0.015593148261806064
390.0, 0.008076428420527148
391.0, 0.0021383310741424338
392.0, 0.0008880130417858045
393.0, 0.0021686394147354014
394.0, 0.00025055762981341235
395.0, 0.005014213598789079
396.0, 0.005999856530356859
397.0, 0.003276689550410464
398.0, 0.00038098714841305897
399.0, 0.002335918156080903
400.0, 0.0009581693630882198
401.0, 0.003095682762002945
402.0, 0.007533945613288429
403.0, 0.0035960943963047956
404.0, 0.0008325506298786008
405.0, 0.00032470688868938637
406.0, 0.0005647819614384637
407.0, 0.00030337790246272745
408.0, 0.003923202765961871
409.0, 0.0016112251743272085
410.0, 0.0025087582686950044
411.0, 0.002121531297080207
412.0, 0.005722386171322972
413.0, 0.013055338262838789
414.0, 0.01608136759724848
415.0, 0.020829330215068373
416.0, 0.022529343709363877
417.0, 0.02399458967419336
418.0, 0.029623320546976098
419.0, 0.026148189250398933
420.0, 0.02597791420324273
421.0, 0.035080892425005235
422.0, 0.044701289484708945
423.0, 0.041820120453419866
424.0, 0.04268839784330668
425.0, 0.049436365656046435
426.0, 0.05509471333136667
427.0, 0.055652004556673615
428.0, 0.052885812660299784
429.0, 0.0525040096535604
430.0, 0.05181559710472186
431.0, 0.047517662054126615
432.0, 0.03933120783792133
433.0, 0.03045243712878583
434.0, 0.02933005872497758
435.0, 0.02127961149273736
436.0, 0.011483537986909893
437.0, 0.006103718568743433
438.0, 0.004303885644208594
439.0, 0.0008749494806806519
440.0, 0.001711691189558946
441.0, 0.0011459852102094171
442.0, 0.004910354207980103
443.0, 0.008400486067394942
444.0, 0.0011151009400620286
445.0, 0.0028854688358330915
446.0, 0.002159708239502035
447.0, 0.004021592016088664
448.0, 0.002582575860404971
449.0, 0.006000625265244491
450.0, 0.003625518958569306
451.0, 0.003948756758630552
452.0, 0.011235474191137913
453.0, 0.016927914677127832
454.0, 0.011401575735966953
455.0, 0.01050197609839789
456.0, 0.013697702811023692
457.0, 0.014346800203426864
458.0, 0.011732252127816298
459.0, 0.011884024330464503
460.0, 0.006688690454299144
461.0, 0.009734083499183884
462.0, 0.021551890307725367
463.0, 0.029403023372623655
464.0, 0.03468172054537025
465.0, 0.039968991858073136
466.0, 0.05471865832409434
467.0, 0.07453197842038431
468.0, 0.08830261294755011
469.0, 0.11677886476181044
470.0, 0.14975653908070663
471.0, 0.17302788346994516
472.0, 0.18991524183559758
473.0, 0.21082072111023992
474.0, 0.22140545849570686
475.0, 0.22472285798267289
476.0, 0.2248900573685451
477.0, 0.22695449599648584
478.0, 0.2354171636878626
479.0, 0.24931715467971866
480.0, 0.27022856112038557
481.0, 0.30071261719641856
482.0, 0.33895321205412204
483.0, 0.3836352041098298
484.0, 0.43839462961535175
485.0, 0.49790243855726773
486.0, 0.569914569433005
487.0, 0.6401976064147081
488.0, 0.6949682563356733
489.0, 0.7381399894631697
490.0, 0.7369110098650513
491.0, 0.69865243802898
492.0, 0.6309837894048779
493.0, 0.544478938906064
494.0, 0.4532374730484954
495.0, 0.36138748834303125
496.0, 0.2921110880495295
497.0, 0.23741434197852104
498.0, 0.19191028488119038
499.0, 0.16246126181344353
500.0, 0.13268074385045964
501.0, 0.10798201047272647
502.0, 0.08967530701942901
503.0, 0.07763124870897187
504.0, 0.07341933052892095
505.0, 0.06737797067095706
506.0, 0.05642919642731357
507.0, 0.05316106471165853
508.0, 0.058266276024944066
509.0, 0.06142993500710346
510.0, 0.06129383593784109
511.0, 0.06698942919372286
512.0, 0.07311639307114925
513.0, 0.08496498768445065
514.0, 0.10486641831553119
515.0, 0.12058988242419517
516.0, 0.14221678138533617
517.0, 0.1722456276128645
518.0, 0.19874918268534145
519.0, 0.22259098755620532
520.0, 0.26435542849159016
521.0, 0.316098615484904
522.0, 0.37343420523103676
523.0, 0.43387327549274746
524.0, 0.5014951738761678
525.0, 0.5820532433009027
526.0, 0.6666308210085307
527.0, 0.762960024461419
528.0, 0.8539253702516143
529.0, 0.932865287365712
530.0, 0.9914694410116337
531.0, 0.9960444518591561
532.0, 0.9577110908305526
533.0, 0.872281460980502
534.0, 0.7600902525017004
535.0, 0.6451539965392697
536.0, 0.537990509542032
537.0, 0.43169648632135926
538.0, 0.34924180176971853
539.0, 0.27918531708822564
540.0, 0.21796327844326724
541.0, 0.1783082951014184
542.0, 0.1460592396924425
543.0, 0.12058043982644812
544.0, 0.09945319001715458
545.0, 0.08268275798688202
546.0, 0.07020869771490015
547.0, 0.058233883686338
548.0, 0.055238950533233556
549.0, 0.05395746933686862
550.0, 0.04947927140368751
551.0, 0.04621514626288322
552.0, 0.05411063923543069
553.0, 0.05977840517330776
554.0, 0.06619818384382259
555.0, 0.07160939203312769
556.0, 0.0762282928007024
557.0, 0.08201166375143541
558.0, 0.08541148703323032
559.0, 0.08319956565399278
560.0, 0.08515875319821703
561.0, 0.0820552868396643
562.0, 0.06716358566049312
563.0, 0.05758986709702734
564.0, 0.03991114854413984
565.0, 0.034470407723001695
566.0, 0.032617741295669495
567.0, 0.022860877089607032
568.0, 0.008136405949829485
569.0, 0.0069979356696300244
570.0, 0.0016771306112153847
571.0, 0.004968257337601766
572.0, 0.0051190920426878546
573.0, 0.009711966028285918
574.0, 0.0092891166852856
575.0, 0.006093904815181543
576.0, 0.0062505247735499675
577.0, 0.0064351117662896805
578.0, 0.003178037242965711
579.0, 0.0012467179455313486
580.0, 0.00330951657818275
581.0, 0.003508894565593672
582.0, 0.0003785443571541697
583.0, 0.004470775288976252
584.0, 0.010242280086703553
585.0, 0.01481141989680717
586.0, 0.025626267421952273
587.0, 0.030529131866762472
588.0, 0.04029583993231095
589.0, 0.059609127441629634
590.0, 0.07767205119258118
591.0, 0.09464423331469528
592.0, 0.11841771208344713
593.0, 0.14137706515042991
594.0, 0.16132026273219366
595.0, 0.18003358278013157
596.0, 0.19452922232565073
597.0, 0.20065704809009607
598.0, 0.19048649915510635
599.0, 0.17601457765293127
600.0, 0.15946901437650246
601.0, 0.13423018062710776
602.0, 0.11454505501206619
603.0, 0.0939597602554955
604.0, 0.07935189801210085
605.0, 0.07090133402897295
606.0, 0.06521093624146508
607.0, 0.06093860840180748
608.0, 0.05523913444001891
609.0, 0.04729334318957466
610.0, 0.044817488124625784
611.0, 0.04630695862492338
612.0, 0.04609774387315585
613.0, 0.045183518977183514
614.0, 0.041167235630736
615.0, 0.04899992915065408
616.0, 0.0528559539177567
617.0, 0.04762824794328929
618.0, 0.04868532987176642
619.0, 0.05252200045213852
620.0, 0.05773832906556108
621.0, 0.060521897660495434
622.0, 0.06658004334428119
623.0, 0.07756226965605485
624.0, 0.08481341001501501
625.0, 0.08046409749941955
626.0, 0.07629606737857725
627.0, 0.0718103815043071
628.0, 0.0665667224093434
629.0, 0.058449557521237254
630.0, 0.041489588939134306
631.0, 0.027646765316244853
632.0, 0.025619312768681957
633.0, 0.02093062887324329
634.0, 0.01032524152811113
635.0, 0.003598672819780448
636.0, 0.0014676691805239456
637.0, 0.0019822551313644207
638.0, 0.00507384292523997
639.0, 0.004401888744515969
640.0, 0.004355297007537633
641.0, 0.009011003624240009
642.0, 0.004534928311306271
643.0, 0.007600503178620055
644.0, 0.010339776868814148
645.0, 0.012896037744374877
646.0, 0.01620234982670703
647.0, 0.012438471723124112
648.0, 0.006697961078703836
649.0, 0.005783674541910128
650.0, 0.006330695742783522
651.0, 0.006499015055624973
652.0, 0.006286711601935296
653.0, 0.004678422948701588
654.0, 0.0029521121460400843
655.0, 0.0034183309074548767
656.0, 0.002118010701446933
657.0, 0.004134818292158919
658.0, 0.0026024261629991863
659.0, 0.007554490263546952
660.0, 0.0022714851887940153
661.0, 0.0015001814760300404
662.0, 0.00040871441350434623
663.0, 0.0014527473308349524
664.0, 0.00024620599433711914
665.0, 0.005115683836918881
666.0, 0.005652321855317958
667.0, 0.004581230159804774
668.0, 0.005921322301906374
669.0, 0.00731346186121726
670.0, 0.005699312626128344
671.0, 0.01143453761421175
672.0, 0.01626455912302243
673.0, 0.01954689978353182
674.0, 0.023770248134799336
675.0, 0.0314594922220491
676.0, 0.04254396034461262
677.0, 0.04888340428228311
678.0, 0.055282275454229424
679.0, 0.06987910509929372
680.0, 0.08411541269071383
681.0, 0.09777085296976822
682.0, 0.12054109115250095
683.0, 0.1386674143052651
684.0, 0.1656670659014993
685.0, 0.18895975013259314
686.0, 0.21284395493472041
687.0, 0.24716948458626745
688.0, 0.28982486047204226
689.0, 0.32149427425629945
690.0, 0.3700104346381053
691.0, 0.40878337888853644
692.0, 0.4326699799326046
693.0, 0.44236445257203044
694.0, 0.43202121647385106
695.0, 0.40055669569474156
696.0, 0.3540957714852692
697.0, 0.29981394434151
698.0, 0.24606106119949936
699.0, 0.19991351982028602
700.0, 0.162614276569835
701.0, 0.12687212293602734
702.0, 0.10065132096112613
703.0, 0.08801814563415394
704.0, 0.07640936838190052
705.0, 0.0629386999186949
706.0, 0.054209068171681876
707.0, 0.04156746697592678
708.0, 0.03923559307866303
709.0, 0.03900452374565064
710.0, 0.040968162400908364
711.0, 0.04347903457571718
712.0, 0.04130634320514728
713.0, 0.035970316604489
714.0, 0.03974072407838997
715.0, 0.036332313107707966
716.0, 0.03848934176439203
717.0, 0.04296260043532056
718.0, 0.038990852893083516
719.0, 0.032458952280296306
720.0, 0.029093535382132458
721.0, 0.025446838056661925
722.0, 0.02616467079255027
723.0, 0.026506662110053623
724.0, 0.023095389440477492
725.0, 0.025086649492008034
726.0, 0.02544600387018693
727.0, 0.026144630692343875
728.0, 0.026096527658147697
729.0, 0.024714098708389906
730.0, 0.022948351003940964
731.0, 0.022251914243970817
732.0, 0.02271548546014052
733.0, 0.027718505664502534
734.0, 0.02373157329898145
735.0, 0.014192397175691903
736.0, 0.01033107092785188
737.0, 0.015597842113437952
738.0, 0.018346138916455194
739.0, 0.01127861773373778
740.0, 0.011509855354393935
741.0, 0.014409137251033214
742.0, 0.014458567149267926
743.0, 0.013609665613243869
744.0, 0.014415663579381273
745.0, 0.011089634512225015
746.0, 0.014222672783535877
747.0, 0.015808276875928565
748.0, 0.013453030540102984
749.0, 0.012485140943589918
750.0, 0.01541668180683525
751.0, 0.012667810212522272
752.0, 0.009297578087766578
753.0, 0.010454000822013747
754.0, 0.008225083614370531
755.0, 0.004874917107945281
756.0, 0.009704517449298912
757.0, 0.008984701065395376
758.0, 0.011748552316390234
759.0, 0.004059972495966709
760.0, 0.0010345687294964036
761.0, 0.007229374524736421
762.0, 0.011199054484603597
763.0, 0.007293102771202383
764.0, 0.004487835867389921
765.0, 0.008618298642191923
766.0, 0.0056936838378807
767.0, 0.0020877899246091033
768.0, 0.004633860110397284
769.0, 0.006351101677574037
770.0, 0.008243892253051853
771.0, 0.004305795464310581
772.0, 0.004601471746802809
773.0, 0.0045167558124220835
774.0, 0.005541335277777228
775.0, 0.011136565302960227
776.0, 0.0052793483352664965
777.0, 0.0008081864229313121
778.0, 0.0035320520079721142
779.0, 0.0023321396318792733
780.0, 0.002776403367857463
781.0, 0.0037815180309710462
782.0, 0.005207643802133714
783.0, 0.0016952335899559732
784.0, 0.0009601986591356067
785.0, 0.0026123406570111767
786.0, 0.001737912190275649
787.0, 0.0007293381767522294
788.0, 0.00172203318567953
789.0, 0.0008180645292518128
790.0, 0.0011598443102828972
791.0, 0.0031166678749344856
792.0, 0.0020297972476691468
793.0, 0.0032579043555014207
794.0, 0.0015086097473874197
795.0, 0.0022918359480809973
796.0, 0.0005806028126106678
797.0, 0.00042835763897834276
798.0, 0.000569125839936226
799.0, 0.001645777522099083
800.0, 0.0033517268986889065
801.0, 0.005093520055509227
802.0, 0.004772306673589253
803.0, 0.0087605209512372
804.0, 0.004967975182066359
805.0, 0.0029658042792518407
806.0, 0.00378194668357202
807.0, 0.004974696709345742
808.0, 0.005920393291456638
809.0, 0.005684337571578197
810.0, 0.006589513023177146
811.0, 0.004965364850625434
812.0, 0.006361063395452867
813.0, 0.007966735412366685
814.0, 0.005953539251392394
815.0, 0.0027401869728229896
816.0, 0.005030547066785219
817.0, 0.0045965530005481516
818.0, 0.005274118598564632
819.0, 0.009073907304704587
820.0, 0.010865859728784732
821.0, 0.009788463694502682
822.0, 0.011185639589305624
823.0, 0.012385410987187807
824.0, 0.016625873544151504
825.0, 0.01951588825105241
826.0, 0.0220447465621752
827.0, 0.025288810857232176
828.0, 0.026451897889927325
829.0, 0.022608472635916192
830.0, 0.02583712627186853
831.0, 0.03186885017713627
832.0, 0.028486306604218803
833.0, 0.02948635563132583
834.0, 0.031079973870861352
835.0, 0.025849154693189928
836.0, 0.028033044675250095
837.0, 0.029408415103946022
838.0, 0.030642763876597773
839.0, 0.02640812801250507
840.0, 0.019401363786385056
841.0, 0.01541417488826628
842.0, 0.016805189007999658
843.0, 0.019391185020848935
844.0, 0.01725134586220522
845.0, 0.01230426097635659
846.0, 0.009344086230242174
847.0, 0.013953223554372639
848.0, 0.016952620017309315
849.0, 0.012970528056426893
850.0, 0.016157708151471283
851.0, 0.013035605158050282
852.0, 0.010191865047039554
853.0, 0.013879801749993884
854.0, 0.013195850276634922
855.0, 0.009305369957671242
856.0, 0.012099607502107474
857.0, 0.01458550761867601
858.0, 0.0046199629777488455
859.0, 0.005776591796044051
860.0, 0.007495522160685308
861.0, 0.009074758317170572
862.0, 0.008446478660720626
863.0, 0.0037703090044505466
864.0, 0.003917250856960368
865.0, 0.009358019508055235
866.0, 0.0032306734753086825
867.0, 0.0034030019799686315
868.0, 0.008434437533257557
869.0, 0.00818316246600158
870.0, 0.004814291211525776
871.0, 0.008486955060315273
872.0, 0.005936311374400519
873.0, 0.0019761296709483113
874.0, 0.0035519767792103647
875.0, 0.0010084065567571834
876.0, 0.004111965654776594
877.0, 0.0064042288779600914
878.0, 0.007670862191273945
879.0, 0.007381522312249718
880.0, 0.006643963616039112
881.0, 0.007582489010250819
882.0, 0.007360221371348857
883.0, 0.005950863493255044
884.0, 0.005313234624915185
885.0, 0.0064023853343256115
886.0, 0.0077101635926138876
887.0, 0.004887653230649202
888.0, 0.007356468912233649
889.0, 0.004791952036066409
890.0, 0.002715132233623879
891.0, 0.003981486242701321
892.0, 0.0036432583635080777
893.0, 0.0020838241611332835
894.0, 0.002000828758333042
895.0, 0.003559314131425759
896.0, 0.009980341988059771
897.0, 0.01149861808854102
898.0, 0.005401106355088815
899.0, 0.0024655272650047607
900.0, 0.007260019843399346
901.0, 0.0010926003990800565
902.0, 0.0005314436630277975
903.0, 0.005422697008658352
904.0, 0.003860240454533253
905.0, 0.0036442659718737467
906.0, 0.0036815995426728847
907.0, 0.0048412182413032166
908.0, 0.009503317472742459
909.0, 0.0014312308192352048
910.0, 0.0031518441762194184
911.0, 0.005869779988768614
912.0, 0.006687251999959801
913.0, 0.0026613738523769853
914.0, 0.0040423504925352115
915.0, 0.0019484880542804547
916.0, 0.0012323239435408646
917.0, 0.0012623257621244169
918.0, 0.0005409587950064996
919.0, 0.0004875306329577006
920.0, 0.00048097113771134267
921.0, 0.004471126919353104
922.0, 0.008655309917281402
923.0, 0.002212007392418906
924.0, 0.0010076490984248006
925.0, 0.0070763680036821045
926.0, 0.003561921724204446
927.0, 0.0018725405527741782
928.0, 0.0045483306353534935
929.0, 0.006344591460500704
930.0, 0.000865885296883307
931.0, 0.0005370762424460112
932.0, 0.0015109124092316988
933.0, 0.0016562268163724332
934.0, 0.003704424818343787
935.0, 0.0012461574060385393
936.0, 0.00703179079077533
937.0, 0.0026380538167266243
938.0, 0.0011367626056379384
939.0, 0.007521765857991723
940.0, 0.006891839652876785
941.0, 0.0024599417464860303
942.0, 0.006244706636579401
943.0, 0.00964707142200236
944.0, 0.009741791400583845
945.0, 0.015610423052452402
946.0, 0.024664512712552503
947.0, 0.022132592705966844
948.0, 0.026267030181773992
949.0, 0.02787607468223796
950.0, 0.029668311961903775
951.0, 0.03116697262432884
952.0, 0.0332026837699585
953.0, 0.04105949983070123
954.0, 0.048434777535399993
955.0, 0.05025966052485784
956.0, 0.054925949819966124
957.0, 0.06386519750204714
958.0, 0.07349973637609995
959.0, 0.08085623398025087
960.0, 0.08883585374362066
961.0, 0.10211139431910327
962.0, 0.11468531817364919
963.0, 0.13387457408051207
964.0, 0.15892014849105668
965.0, 0.1727420874072233
966.0, 0.1937448599988541
967.0, 0.22021608231996573
968.0, 0.24351228155502572
969.0, 0.27086481644821464
970.0, 0.297301453846868
971.0, 0.33515142726419433
972.0, 0.36641592749642515
973.0, 0.3918571801447484
974.0, 0.4116042623300995
975.0, 0.4227722162969758
976.0, 0.4282304092108958
977.0, 0.4269351037823403
978.0, 0.40290432362125583
979.0, 0.38225787239573306
980.0, 0.3489493615848756
981.0, 0.31855734861239143
982.0, 0.286370281824691
983.0, 0.25503974782670913
984.0, 0.22939482642708017
985.0, 0.2057265644613028
986.0, 0.18698692594402092
987.0, 0.16865657747326074
988.0, 0.1445267695482559
989.0, 0.1334467481251556
990.0, 0.12379350896078412
991.0, 0.11064014945780384
992.0, 0.09983404985788412
993.0, 0.09371152987685516
994.0, 0.08740910929939041
995.0, 0.07700876319037488
996.0, 0.06892433588114505
997.0, 0.0686124476650065
998.0, 0.06684840213627972
999.0, 0.061652168771154404
1000.0, 0.05965945802626357
1001.0, 0.060164558050408073
1002.0, 0.05524899924687494
1003.0, 0.05822577098693564
1004.0, 0.05805244967881906
1005.0, 0.06364496736335581
1006.0, 0.06599378589809161
1007.0, 0.06883313420489823
1008.0, 0.07531694354366078
1009.0, 0.08250292958605543
1010.0, 0.09168762301735753
1011.0, 0.10721151838143879
1012.0, 0.1204228330261641
1013.0, 0.13815468788183474
1014.0, 0.15400451101675444
1015.0, 0.1732402316971179
1016.0, 0.19077323906294347
1017.0, 0.21139958728027172
1018.0, 0.2405755050592227
1019.0, 0.26231819070117607
1020.0, 0.27031435428204137
1021.0, 0.28369899716432484
1022.0, 0.28767339874416803
1023.0, 0.2762968072682214
1024.0, 0.2566642327377162
1025.0, 0.23284999081617644
1026.0, 0.21749175067303045
1027.0, 0.21033710532311747
1028.0, 0.1713979268448872
1029.0, 0.14007992652161755
1030.0, 0.1213705547957625
1031.0, 0.11327135365716219
1032.0, 0.10520902178642819
1033.0, 0.09494699277754678
1034.0, 0.08677068806623385
1035.0, 0.0833293898721057
1036.0, 0.08347779085279597
1037.0, 0.08132709183587364
1038.0, 0.07605957917198033
1039.0, 0.07739583440939864
1040.0, 0.08397321417287013
1041.0, 0.08139005563586259
1042.0, 0.08018135494794683
1043.0, 0.0834786669103549
1044.0, 0.083361718742882
1045.0, 0.07998644036017541
1046.0, 0.072359813458401
1047.0, 0.0742039915884821
1048.0, 0.06685240631122956
1049.0, 0.06404303430430489
1050.0, 0.0622548494291642
1051.0, 0.05516175958344037
1052.0, 0.05001981586104373
1053.0, 0.04811561254493084
1054.0, 0.03971948047712206
1055.0, 0.037501249359877524
1056.0, 0.037883546899023395
1057.0, 0.0313164743596215
1058.0, 0.02792920328434202
1059.0, 0.02108711235148932
1060.0, 0.01872583016061813
1061.0, 0.02067770441213691
1062.0, 0.018793729393953806
1063.0, 0.017337575474344665
1064.0, 0.012872643309667135
1065.0, 0.0158591593096863
1066.0, 0.01448235753166516
1067.0, 0.014775219337057012
1068.0, 0.009547288865699343
1069.0, 0.00243692998786124
1070.0, 0.0004914154665676976
1071.0, 0.0008658175704402031
1072.0, 0.0016556673026027697
1073.0, 0.0002004627115970195
1074.0, 0.0021143879337051706
1075.0, 0.001818814375092909
1076.0, 0.0022846219755654497
1077.0, 0.0016460192468028137
1078.0, 0.005114257088925869
1079.0, 0.005020606818320966
1080.0, 0.0007841058682447684
1081.0, 0.002633181362938294
1082.0, 0.002940402475817611
1083.0, 0.0033321707630614827
1084.0, 0.00173513733961396
1085.0, 0.004886450227631977
1086.0, 0.004417947209574117
1087.0, 0.001228949118332926
1088.0, 0.0013736154525442541
1089.0, 0.0035455022421701835
1090.0, 0.0034773606854725143
1091.0, 0.004546884410151438
1092.0, 0.0008803309479076793
1093.0, 0.001683025672918045
1094.0, 0.001549822963021401
1095.0, 0.0050812088349963536
1096.0, 0.01061966319613088
1097.0, 0.007584638091854591
1098.0, 0.008204530633617042
1099.0, 0.016492533339989107
1100.0, 0.01703248206452225
1101.0, 0.013963109083107066
1102.0, 0.01912901705256806
1103.0, 0.02480981549315474
1104.0, 0.025188625057337356
1105.0, 0.020813098188416885
1106.0, 0.023779925137317946
1107.0, 0.02711829608306386
1108.0, 0.02626172392181156
1109.0, 0.026049425072571866
1110.0, 0.026582669896568985
1111.0, 0.028057467010718005
1112.0, 0.024328485168693934
1113.0, 0.024615759894907
1114.0, 0.025282267573294458
1115.0, 0.022999820289841443
1116.0, 0.02207492364472089
1117.0, 0.022064755565778686
1118.0, 0.020684039961775105
1119.0, 0.018381580856400563
1120.0, 0.017158778252790198
1121.0, 0.021567327889404905
1122.0, 0.01597271566184663
1123.0, 0.016002866641578507
1124.0, 0.02362345883462526
1125.0, 0.02237250419298617
1126.0, 0.02369203531584631
1127.0, 0.021359757576840513
1128.0, 0.015884778451250983
1129.0, 0.01967881854440783
1130.0, 0.022133045568151537
1131.0, 0.02420290498451415
1132.0, 0.025212099803435663
1133.0, 0.030275073254991985
1134.0, 0.02562095329578382
1135.0, 0.026783008912107185
1136.0, 0.021457947302797264
1137.0, 0.018526760225075746
1138.0, 0.02174605535552404
1139.0, 0.01928446161188957
1140.0, 0.016070138596593123
1141.0, 0.016206541540790275
1142.0, 0.012104011884814248
1143.0, 0.007819368080337218
1144.0, 0.014557772240021744
1145.0, 0.012440865474726477
1146.0, 0.014497782077875693
1147.0, 0.018873730429840505
1148.0, 0.013994235368550535
1149.0, 0.00827156441232392
1150.0, 0.012708306127765467
1151.0, 0.010333588357430815
1152.0, 0.007957730589545194
1153.0, 0.00521211004628874
1154.0, 0.005556998793866883
1155.0, 0.006174750697162198
1156.0, 0.0012896859178307908
1157.0, 0.006848962198826988
1158.0, 0.010086510764196534
1159.0, 0.005620665935087298
1160.0, 0.00927328674371881
1161.0, 0.012165222106711388
1162.0, 0.0021310381009999727
1163.0, 0.004110630759248018
1164.0, 0.005537431469703848
1165.0, 0.008890726738825816
1166.0, 0.0033319372154425523
1167.0, 0.0025875207530040643
1168.0, 0.007381067252305752
1169.0, 0.0067061787028026695
1170.0, 0.0032440577471947603
1171.0, 0.0039172315062085405
1172.0, 0.0031189826676928673
1173.0, 0.0033053505844790974
1174.0, 0.007433644346533467
1175.0, 0.012764328662513863
1176.0, 0.006010684726343897
1177.0, 0.0007034572498581542
1178.0, 0.001274965281380698
1179.0, 0.0025433712395165685
1180.0, 0.0017842078003585937
1181.0, 0.0034804368453146437
1182.0, 0.0016871046448650223
1183.0, 0.003558734930052364
1184.0, 0.001959317061410675
1185.0, 0.0061625323529689085
1186.0, 0.012167678867545953
1187.0, 0.012518573293968271
1188.0, 0.008359689278284059
1189.0, 0.0057005287685517655
1190.0, 0.0017405675164057271
1191.0, 0.0006596630841323443
1192.0, 0.00313662952236813
1193.0, 0.0013119663108758423
1194.0, 0.000400877359606206
1195.0, 0.001840833741997535
1196.0, 0.0020672447944869434
1197.0, 0.0009516240000219394
1198.0, 0.007087979180117337
1199.0, 0.003188758009206562
1200.0, 0.0006156513259461968
1201.0, 0.008044111384501895
1202.0, 0.006950413811269748
1203.0, 0.001498158291919392
1204.0, 0.005753073827210539
1205.0, 0.006575855795159815
1206.0, 0.004021222740731771
1207.0, 0.01068498996403577
1208.0, 0.007098326696942225
1209.0, 0.008040707744529649
1210.0, 0.004769249998904778
1211.0, 0.002007994003381353
1212.0, 0.0036247822799361745
1213.0, 0.0029083902821207476
1214.0, 0.004149566373961165
1215.0, 0.01002730917779941
1216.0, 0.01193279851971715
1217.0, 0.009002406312648769
1218.0, 0.009472125908833085
1219.0, 0.006804190868362296
1220.0, 0.005274308190461714
1221.0, 0.008619824387470809
1222.0, 0.011950396436415267
1223.0, 0.007947992428002098
1224.0, 0.0037019500116741064
1225.0, 0.00723514792992378
1226.0, 0.008482367959960786
1227.0, 0.005404061151698862
1228.0, 0.006391196835192878
1229.0, 0.006591305754454948
1230.0, 0.006439102094705733
1231.0, 0.0015150933491091556
1232.0, 0.002337463772180657
1233.0, 0.005783868925712656
1234.0, 0.0025904567614399112
1235.0, 0.005532541077255278
1236.0, 0.007721954222683581
1237.0, 0.006025412917025942
1238.0, 0.004215731346272762
1239.0, 0.007662415548682023
1240.0, 0.016985800621758647
1241.0, 0.01961722549053881
1242.0, 0.007811643268434847
1243.0, 0.002940543504524377
1244.0, 0.005880348493441552
1245.0, 0.002974776213062557
1246.0, 0.009132958823925381
1247.0, 0.0066460364563324615
1248.0, 0.004338884791792775
1249.0, 0.005789950234241439
1250.0, 0.0077446834918536
1251.0, 0.009211328320104517
1252.0, 0.006858121569065525
1253.0, 0.003386719818371336
1254.0, 0.0053191290527735335
1255.0, 0.0015761031162938464
1256.0, 0.005814610802423912
1257.0, 0.01579819224633748
1258.0, 0.015656740089589567
1259.0, 0.00892759981048422
1260.0, 0.005819587640408039
1261.0, 0.00872566615871907
1262.0, 0.0033901791637371446
1263.0, 0.002034802159394226
1264.0, 0.006819273135439175
1265.0, 0.006649529698003836
1266.0, 0.0010462007934735017
1267.0, 0.005102378080546267
1268.0, 0.003996264079310743
1269.0, 0.0037674518122828094
1270.0, 0.009708849041654189
1271.0, 0.0027238596031858844
1272.0, 0.005460916027484332
1273.0, 0.003811686718776982
1274.0, 0.004421688183620726
1275.0, 0.0051595912277027775
1276.0, 0.00736178523507186
1277.0, 0.007486487256635025
1278.0, 0.0034908715513537183
1279.0, 0.0021234670354099206
1280.0, 0.00028627494612246715
1281.0, 0.00017683284794164396
1282.0, 0.004706238623798679
1283.0, 0.004646661170813323
1284.0, 0.0019945558920333004
1285.0, 0.0034110310241860986
1286.0, 0.0009727133662313114
1287.0, 0.0016676267795593305
1288.0, 0.004851346348187905
1289.0, 0.0054687127223437835
1290.0, 0.007427151417947343
1291.0, 0.007209169404616815
1292.0, 0.0031225094925962575
1293.0, 0.005055222669712721
1294.0, 0.0038421661988248665
1295.0, 0.002754789329359978
1296.0, 0.007335512774501159
1297.0, 3.7493526236412805e-05
1298, 0.0
1299, 0.0
1300, 0.0
1301, 0.0
1302, 0.0
1303, 0.0
1304, 0.0
1305, 0.0
1306, 0.0
1307, 0.0
1308, 0.0
1309, 0.0
1310, 0.0
1311, 0.0
1312, 0.0
1313, 0.0
1314, 0.0
1315, 0.0
1316, 0.0
1317, 0.0
1318, 0.0
1319, 0.0
1320, 0.0
1321, 0.0
1322, 0.0
1323, 0.0
1324, 0.0
1325, 0.0
1326, 0.0
1327, 0.0
1328, 0.0
1329, 0.0
1330, 0.0
1331, 0.0
1332, 0.0
1333, 0.0
1334, 0.0
1335, 0.0
1336, 0.0
1337, 0.0
1338, 0.0
1339, 0.0
1340, 0.0
1341, 0.0
1342, 0.0
1343, 0.0
1344, 0.0
1345, 0.0
1346, 0.0
1347, 0.0
1348, 0.0
1349, 0.0
1350, 0.0
1351, 0.0
1352, 0.0
1353, 0.0
1354, 0.0
1355, 0.0
1356, 0.0
1357, 0.0
1358, 0.0
1359, 0.0
1360, 0.0
1361, 0.0
1362, 0.0
1363, 0.0
1364, 0.0
1365, 0.0
1366, 0.0
1367, 0.0
1368, 0.0
1369, 0.0
1370, 0.0
1371, 0.0
1372, 0.0
1373, 0.0
1374, 0.0
1375, 0.0
1376, 0.0
1377, 0.0
1378, 0.0
1379, 0.0
1380, 0.0
1381, 0.0
1382, 0.0
1383, 0.0
1384, 0.0
1385, 0.0
1386, 0.0
1387, 0.0
1388, 0.0
1389, 0.0
1390, 0.0
1391, 0.0
1392, 0.0
1393, 0.0
1394, 0.0
1395, 0.0
1396, 0.0
1397, 0.0
1398, 0.0
1399, 0.0
1400, 0.0
1401, 0.0
1402, 0.0
1403, 0.0
1404, 0.0
1405, 0.0
1406, 0.0
1407, 0.0
1408, 0.0
1409, 0.0
1410, 0.0
1411, 0.0
1412, 0.0
1413, 0.0
1414, 0.0
1415, 0.0
1416, 0.0
1417, 0.0
1418, 0.0
1419, 0.0
1420, 0.0
1421, 0.0
1422, 0.0
1423, 0.0
1424, 0.0
1425, 0.0
1426, 0.0
1427, 0.0
1428, 0.0
1429, 0.0
1430, 0.0
1431, 0.0
1432, 0.0
1433, 0.0
1434, 0.0
1435, 0.0
1436, 0.0
1437, 0.0
1438, 0.0
1439, 0.0
1440, 0.0
1441, 0.0
1442, 0.0
1443, 0.0
1444, 0.0
1445, 0.0
1446, 0.0
1447, 0.0
1448, 0.0
1449, 0.0
1450, 0.0
1451, 0.0
1452, 0.0
1453, 0.0
1454, 0.0
1455, 0.0
1456, 0.0
1457, 0.0
1458, 0.0
1459, 0.0
1460, 0.0
1461, 0.0
1462, 0.0
1463, 0.0
1464, 0.0
1465, 0.0
1466, 0.0
1467, 0.0
1468, 0.0
1469, 0.0
1470, 0.0
1471, 0.0
1472, 0.0
1473, 0.0
1474, 0.0
1475, 0.0
1476, 0.0
1477, 0.0
1478, 0.0
1479, 0.0
1480, 0.0
1481, 0.0
1482, 0.0
1483, 0.0
1484, 0.0
1485, 0.0
1486, 0.0
1487, 0.0
1488, 0.0
1489, 0.0
1490, 0.0
1491, 0.0
1492, 0.0
1493, 0.0
1494, 0.0
1495, 0.0
1496, 0.0
1497, 0.0
1498, 0.0
1499, 0.0
1500, 0.0
1501, 0.0
1502, 0.0
1503, 0.0
1504, 0.0
1505, 0.0
1506, 0.0
1507, 0.0
1508, 0.0
1509, 0.0
1510, 0.0
1511, 0.0
1512, 0.0
1513, 0.0
1514, 0.0
1515, 0.0
1516, 0.0
1517, 0.0
1518, 0.0
1519, 0.0
1520, 0.0
1521, 0.0
1522, 0.0
1523, 0.0
1524, 0.0
1525, 0.0
1526, 0.0
1527, 0.0
1528, 0.0
1529, 0.0
1530, 0.0
1531, 0.0
1532, 0.0
1533, 0.0
1534, 0.0
1535, 0.0
1536, 0.0
1537, 0.0
1538, 0.0
1539, 0.0
1540, 0.0
1541, 0.0
1542, 0.0
1543, 0.0
1544, 0.0
1545, 0.0
1546, 0.0
1547, 0.0
1548, 0.0
1549, 0.0
1550, 0.0
1551, 0.0
1552, 0.0
1553, 0.0
1554, 0.0
1555, 0.0
1556, 0.0
1557, 0.0
1558, 0.0
1559, 0.0
1560, 0.0
1561, 0.0
1562, 0.0
1563, 0.0
1564, 0.0
1565, 0.0
1566, 0.0
1567, 0.0
1568, 0.0
1569, 0.0
1570, 0.0
1571, 0.0
1572, 0.0
1573, 0.0
1574, 0.0
1575, 0.0
1576, 0.0
1577, 0.0
1578, 0.0
1579, 0.0
1580, 0.0
1581, 0.0
1582, 0.0
1583, 0.0
1584, 0.0
1585, 0.0
1586, 0.0
1587, 0.0
1588, 0.0
1589, 0.0
1590, 0.0
1591, 0.0
1592, 0.0
1593, 0.0
1594, 0.0
1595, 0.0
1596, 0.0
1597, 0.0
1598, 0.0
1599, 0.0
