30, 0.0
31, 0.0
32, 0.0
33, 0.0
34, 0.0
35, 0.0
36, 0.0
37, 0.0
38, 0.0
39, 0.0
40, 0.0
41, 0.0
42, 0.0
43, 0.0
44, 0.0
45, 0.0
46, 0.0
47, 0.0
48, 0.0
49, 0.0
50, 0.0
51, 0.0
52, 0.0
53, 0.0
54, 0.0
55, 0.0
56, 0.0
57, 0.0
58, 0.0
59, 0.0
60, 0.0
61, 0.0
62, 0.0
63, 0.0
64, 0.0
65, 0.0
66, 0.0
67, 0.0
68, 0.0
69, 0.0
70, 0.0
71, 0.0
72, 0.0
73, 0.0
74, 0.0
75, 0.0
76, 0.0
77, 0.0
78, 0.0
79, 0.0
80, 0.0
81, 0.0
82, 0.0
83, 0.0
84, 0.0
85, 0.0
86, 0.0
87, 0.0
88, 0.0
89, 0.0
90, 0.0
91, 0.0
92, 0.0
93, 0.0
94, 0.0
95, 0.0
96, 0.0
97, 0.0
98, 0.0
99, 0.0
100, 0.0
101, 0.0
102, 0.0
103, 0.0
104, 0.0
105, 0.0
106, 0.0
107, 0.0
108, 0.0
109, 0.0
110, 0.0
111, 0.0
112, 0.0
113, 0.0
114, 0.0
115, 0.0
116, 0.0
117, 0.0
118, 0.0
119, 0.0
120, 0.0
121, 0.0
122, 0.0
123, 0.0
124, 0.0
125, 0.0
126, 0.0
127, 0.0
128, 0.0
129, 0.0
130, 0.0
131, 0.0
132, 0.0
133, 0.0
134, 0.0
135, 0.0
136, 0.0
137, 0.0
138, 0.0
139, 0.0
140.0, 0.009420840739048622
141.0, 0.002352979943288095
142.0, 0.009503072682886214
143.0, 0.01616615424538804
144.0, 0.021397140615117643
145.0, 0.020063692650572344
146.0, 0.02765352703999321
147.0, 0.03439416695279404
148.0, 0.03324432125079349
149.0, 0.0402349588086561
150.0, 0.047147443066701475
151.0, 0.049185329044379125
152.0, 0.049493668936765385
153.0, 0.0657436557493245
154.0, 0.06261548964241681
155.0, 0.05932450770517179
156.0, 0.061668340998786576
157.0, 0.060406272509636934
158.0, 0.05177954297654258
159.0, 0.046519140411777224
160.0, 0.04997849890653263
161.0, 0.06075710618663066
162.0, 0.06507481844417469
163.0, 0.07118398447635169
164.0, 0.07233476448538999
165.0, 0.06885385477782265
166.0, 0.0785725753531327
167.0, 0.08273117489817823
168.0, 0.08386688912163759
169.0, 0.08666704757848781
170.0, 0.09307457050508139
171.0, 0.08935299785840956
172.0, 0.08528621737662909
173.0, 0.08571305270462512
174.0, 0.08893728296619058
175.0, 0.09093638926623968
176.0, 0.0887175993169743
177.0, 0.08978205004789716
178.0, 0.09610634417728513
179.0, 0.09936569790319297
180.0, 0.09901900853373326
181.0, 0.09678423993972256
182.0, 0.09278404310758136
183.0, 0.08983272300179285
184.0, 0.08735105008707907
185.0, 0.08367235049646929
186.0, 0.07897420568219146
187.0, 0.07571232436679824
188.0, 0.07352081152470234
189.0, 0.06785979985620971
190.0, 0.0597250430784797
191.0, 0.0543993218449039
192.0, 0.05598453324521292
193.0, 0.05055541092032712
194.0, 0.044793001891212755
195.0, 0.040167213245237664
196.0, 0.03501145417503274
197.0, 0.03390102456472899
198.0, 0.03438974875795997
199.0, 0.03363101899214874
200.0, 0.029652295611191135
201.0, 0.021788660330129238
202.0, 0.020278014945849486
203.0, 0.021736442513274303
204.0, 0.01831020009448455
205.0, 0.006711722542234235
206.0, 0.006206899226250071
207.0, 0.007888691920335825
208.0, 0.007115640716532572
209.0, 0.003125543739119559
210.0, 0.00229414851227928
211.0, 0.0012700468114731909
212.0, 0.0002797879964167488
213.0, 0.0003199441616878717
214.0, 0.001651350798398142
215.0, 0.005971641991945208
216.0, 0.006624952445780339
217.0, 0.0017876869653091164
218.0, 0.003919641854965724
219.0, 0.0005845652006368747
220.0, 0.0001824595421361101
221.0, 0.0016794706487694515
222.0, 0.0038045780301647586
223.0, 0.001338628157042021
224.0, 0.002457005369516115
225.0, 0.0011263174891703088
226.0, 0.0021815365141184175
227.0, 0.0035555985609429124
228.0, 0.006625643729653054
229.0, 0.005354771077464411
230.0, 0.004367049756933235
231.0, 0.00762567894124705
232.0, 0.01543328153553626
233.0, 0.015496116831770858
234.0, 0.016802126643318586
235.0, 0.024403105716699135
236.0, 0.03422962679973905
237.0, 0.027173124845012372
238.0, 0.03031004502782259
239.0, 0.038014659083162386
240.0, 0.041653300781578036
241.0, 0.037378228627024467
242.0, 0.04301315744762607
243.0, 0.043149194160891434
244.0, 0.044350394452101614
245.0, 0.051972813292260424
246.0, 0.05345832718926511
247.0, 0.05054671990425241
248.0, 0.051687346584004444
249.0, 0.05745921584683587
250.0, 0.06373527567645443
251.0, 0.0747297715373208
252.0, 0.08338370750309283
253.0, 0.08483817137765326
254.0, 0.08170526523411416
255.0, 0.0866607682411273
256.0, 0.08569570941589486
257.0, 0.08696757635563432
258.0, 0.09232291408421778
259.0, 0.09708090943631137
260.0, 0.09698839679628185
261.0, 0.09969299917932056
262.0, 0.10074342737667334
263.0, 0.09849078100154392
264.0, 0.09760493213631319
265.0, 0.0912737966985752
266.0, 0.08930225286339379
267.0, 0.09145662383503812
268.0, 0.09186290641683052
269.0, 0.08579258438402651
270.0, 0.07830365300265524
271.0, 0.07350923386805762
272.0, 0.06920853312236133
273.0, 0.060604011040825974
274.0, 0.05594850714843437
275.0, 0.051645757693493013
276.0, 0.047146200104185104
277.0, 0.04375580559323914
278.0, 0.04449102770172611
279.0, 0.038965211463404884
280.0, 0.0341737116585833
281.0, 0.03168177581097948
282.0, 0.027658222622016
283.0, 0.02249219936432401
284.0, 0.018975384533888816
285.0, 0.019858940911193435
286.0, 0.018982901207075634
287.0, 0.008673177036144933
288.0, 0.0030803486993624075
289.0, 0.0022825198612622384
290.0, 0.002942743736731538
291.0, 0.0016368144624114094
292.0, 0.005314893835802004
293.0, 0.004396661205859064
294.0, 0.005261146182229439
295.0, 0.006263657003196592
296.0, 0.0018447260480758257
297.0, 8.035830577978958e-05
298.0, 0.002072091319833031
299.0, 0.0033164430221566676
300.0, 0.001618642985325111
301.0, 0.001752122111230138
302.0, 0.005792541802458644
303.0, 0.007149898825217861
304.0, 0.005506313003783691
305.0, 0.004523314081111937
306.0, 0.00998095337384954
307.0, 0.012929999862935441
308.0, 0.011405169591429919
309.0, 0.011193229559969702
310.0, 0.014364949044899903
311.0, 0.011794573044976947
312.0, 0.014480581169087462
313.0, 0.011368204139335297
314.0, 0.005874988310800969
315.0, 0.008071457199277791
316.0, 0.010014660088377161
317.0, 0.010639237593066394
318.0, 0.006682836121769821
319.0, 0.0010494029967383974
320.0, 0.0012431032552463993
321.0, 0.004597025847180744
322.0, 0.005886324045277845
323.0, 0.003420408745085897
324.0, 0.0005922297414969344
325.0, 0.004847675654874797
326.0, 0.005371409289964972
327.0, 0.004712931137402941
328.0, 0.0065446373618326835
329.0, 0.011493708832692065
330.0, 0.014267557144828469
331.0, 0.01629924340909504
332.0, 0.015832408070260134
333.0, 0.013776256912263163
334.0, 0.013521464266000033
335.0, 0.021126169912876202
336.0, 0.0293045047271218
337.0, 0.026878908210764718
338.0, 0.021538922444004047
339.0, 0.030882339294605203
340.0, 0.036273942536492326
341.0, 0.04214266737904145
342.0, 0.050766739653152586
343.0, 0.0581536983031853
344.0, 0.05696702271521647
345.0, 0.0615330513990943
346.0, 0.07055049352939596
347.0, 0.0809231799257372
348.0, 0.09112208936134483
349.0, 0.10131833033971799
350.0, 0.1046541686841857
351.0, 0.11228417781729239
352.0, 0.12478056333744011
353.0, 0.13504153291941937
354.0, 0.13872361703973268
355.0, 0.1469245591478956
356.0, 0.15460434764930223
357.0, 0.16043117659642564
358.0, 0.1668600175316169
359.0, 0.17505840736404993
360.0, 0.17431612559759535
361.0, 0.1714917133574101
362.0, 0.17071745080983738
363.0, 0.17087280419800163
364.0, 0.16914536077906955
365.0, 0.16602831325839232
366.0, 0.1616275897658712
367.0, 0.15368677230787287
368.0, 0.14208123480019902
369.0, 0.14175178675837075
370.0, 0.13750761899006686
371.0, 0.1303046807354716
372.0, 0.1226313478583972
373.0, 0.11584837487375446
374.0, 0.11476948050955953
375.0, 0.11256599987876127
376.0, 0.11361898368402219
377.0, 0.11834099237058944
378.0, 0.11955722192949311
379.0, 0.11576415899510568
380.0, 0.11301358839342324
381.0, 0.11529608866616745
382.0, 0.12049708013053656
383.0, 0.12109145021908595
384.0, 0.11673532776781259
385.0, 0.11009736903597162
386.0, 0.10773788636048907
387.0, 0.10801201107066023
388.0, 0.10143510020560624
389.0, 0.0969749697099431
390.0, 0.09351830305777302
391.0, 0.09047355572630296
392.0, 0.08539210677054887
393.0, 0.07548595073083096
394.0, 0.06959026536197747
395.0, 0.06802806514482695
396.0, 0.06581158130700421
397.0, 0.06183781100443918
398.0, 0.06054096698489029
399.0, 0.06004969124133408
400.0, 0.0605130945643487
401.0, 0.05741459837133757
402.0, 0.051233522261040075
403.0, 0.05056165117089486
404.0, 0.04584400885142516
405.0, 0.0446926441515119
406.0, 0.04661370497736281
407.0, 0.048099268256968024
408.0, 0.048258109544590505
409.0, 0.050814655237896
410.0, 0.05081880545749507
411.0, 0.05417942330172794
412.0, 0.06138330191895925
413.0, 0.06069777363153744
414.0, 0.05723811515968583
415.0, 0.057199754258293316
416.0, 0.05960693777658898
417.0, 0.0631504170894403
418.0, 0.06568232331179777
419.0, 0.0496234729319042
420.0, 0.04234965430188048
421.0, 0.04070695488348692
422.0, 0.036741434667363
423.0, 0.03092781510342628
424.0, 0.023361750866025505
425.0, 0.019467700915024345
426.0, 0.013375773437700515
427.0, 0.005913230618094421
428.0, 0.004288221793200023
429.0, 0.0021417712146404445
430.0, 0.0005706098717758349
431.0, 0.0034507240924218892
432.0, 0.005900163757855649
433.0, 0.006572012732003994
434.0, 0.0008191346526545273
435.0, 0.007633709733213147
436.0, 0.009934745154144912
437.0, 0.011588823611948261
438.0, 0.004239674929340272
439.0, 0.0028377975069622634
440.0, 0.003327645009143061
441.0, 0.004457542315846386
442.0, 0.0016665393543581276
443.0, 0.011134225935251341
444.0, 0.016949201726732904
445.0, 0.016668988047075416
446.0, 0.021040656517571817
447.0, 0.028192279526143536
448.0, 0.03418117545395425
449.0, 0.04237191138991867
450.0, 0.04224381370409263
451.0, 0.04622111005879809
452.0, 0.05732003989306649
453.0, 0.06907997590961294
454.0, 0.0682177915659967
455.0, 0.07643810745965553
456.0, 0.08018464485173893
457.0, 0.08228676981388748
458.0, 0.0874122160025699
459.0, 0.09148520410652643
460.0, 0.09339271765346725
461.0, 0.08998363491751922
462.0, 0.09060164804057934
463.0, 0.09599606137512647
464.0, 0.0976909039394116
465.0, 0.09208132279650395
466.0, 0.09073957215787265
467.0, 0.09361150046863902
468.0, 0.09338654875265286
469.0, 0.08536516302758372
470.0, 0.0853219382474793
471.0, 0.08226753047702595
472.0, 0.08197657607668886
473.0, 0.08144853927555588
474.0, 0.07786387388104818
475.0, 0.07972226380515605
476.0, 0.08148216637590322
477.0, 0.07894600586100056
478.0, 0.07668846944593524
479.0, 0.07635647459335813
480.0, 0.0738645453392801
481.0, 0.07465690152635321
482.0, 0.08026782809101397
483.0, 0.07656946314740892
484.0, 0.07730494697544872
485.0, 0.07831832501595232
486.0, 0.08020189966070186
487.0, 0.08143912199022504
488.0, 0.0858559315461111
489.0, 0.09277463826914713
490.0, 0.094254519761938
491.0, 0.10427713555663573
492.0, 0.11732432782749214
493.0, 0.11945344372620663
494.0, 0.11931164124880116
495.0, 0.12469950378295357
496.0, 0.13080070536920393
497.0, 0.14258583342467362
498.0, 0.14401569745663537
499.0, 0.14816417622610809
500.0, 0.15704950878018864
501.0, 0.16094170742837738
502.0, 0.1738576095856271
503.0, 0.17811426350539722
504.0, 0.1797957117478969
505.0, 0.18266437947342937
506.0, 0.18547303118347835
507.0, 0.18697663074457685
508.0, 0.18154280319310184
509.0, 0.1765931648918159
510.0, 0.1728870342844377
511.0, 0.16913429594733662
512.0, 0.16608213020205417
513.0, 0.16388809151102238
514.0, 0.15797154737637578
515.0, 0.15063465713662066
516.0, 0.14460943392376877
517.0, 0.14007514721981915
518.0, 0.13237599410634265
519.0, 0.1258704873541311
520.0, 0.12039442385857206
521.0, 0.11236518763987113
522.0, 0.10209675226630816
523.0, 0.09759470912554523
524.0, 0.08855261986400867
525.0, 0.08404551086621832
526.0, 0.0794952134112285
527.0, 0.0713980412040108
528.0, 0.06456996227344299
529.0, 0.06494505854280432
530.0, 0.05985491512836284
531.0, 0.056146162477296375
532.0, 0.05004760889020913
533.0, 0.04027347104048378
534.0, 0.041226821296393615
535.0, 0.03715489008981917
536.0, 0.03675051598208099
537.0, 0.03548675641790377
538.0, 0.031119592772649727
539.0, 0.027815527874723606
540.0, 0.02459082408449221
541.0, 0.020066948177103985
542.0, 0.01771644937880593
543.0, 0.015298190707185503
544.0, 0.010896248964045261
545.0, 0.008782589387547033
546.0, 0.0068255923538646
547.0, 0.004894616780248013
548.0, 0.00519460860519521
549.0, 0.007052854762534681
550.0, 0.006895764223787208
551.0, 0.0013064972180712574
552.0, 0.00044115349975617444
553.0, 0.0007591311047267247
554.0, 0.0018303123640253452
555.0, 0.002259016976724769
556.0, 0.0023644577200584416
557.0, 0.0036903397290328245
558.0, 0.005379212888761883
559.0, 0.0035195229530707375
560.0, 0.00012430501260065677
561.0, 0.0007694622777922617
562.0, 0.002752388279609691
563.0, 0.00076788639026674
564.0, 0.0028388627941139657
565.0, 0.0013121482444545954
566.0, 0.0020194762215237387
567.0, 0.00036039930579739063
568.0, 0.000593534886631737
569.0, 0.0032851248397427818
570.0, 0.0007734048882632395
571.0, 0.002629793742909003
572.0, 0.001878706550151554
573.0, 0.0010299558494165691
574.0, 0.0024503517323957863
575.0, 0.0005848905485794012
576.0, 0.00379393162172914
577.0, 0.00389770861079148
578.0, 0.0027389506541637514
579.0, 0.004313502510043361
580.0, 0.007789194262149247
581.0, 0.00828098310839147
582.0, 0.005642068024829968
583.0, 0.00371752821030417
584.0, 0.005489510925683827
585.0, 0.008732157938155245
586.0, 0.004979772066472683
587.0, 0.0023614422986394665
588.0, 0.005931584427886711
589.0, 0.012474601625280751
590.0, 0.012490123441184699
591.0, 0.011489869321941614
592.0, 0.010599556511001132
593.0, 0.01037135669760003
594.0, 0.012350631674452654
595.0, 0.014916113246472991
596.0, 0.012057634787437824
597.0, 0.015505849517894712
598.0, 0.016620212338133256
599.0, 0.013706634294419902
600.0, 0.01457344115156472
601.0, 0.02406750687053987
602.0, 0.020275329539252686
603.0, 0.01778015822736429
604.0, 0.01716690769464198
605.0, 0.019338323703965946
606.0, 0.022200253127043646
607.0, 0.021340290312138032
608.0, 0.02127238347684953
609.0, 0.019732708918746535
610.0, 0.01993829653472984
611.0, 0.020335251899017748
612.0, 0.019643579175614333
613.0, 0.020888728246523096
614.0, 0.021973778565173945
615.0, 0.024622991215827113
616.0, 0.023679697571684415
617.0, 0.021643248210144357
618.0, 0.02279968197711192
619.0, 0.022776879940241856
620.0, 0.019666932023346028
621.0, 0.020935174343660466
622.0, 0.024120874431295992
623.0, 0.025366927228781255
624.0, 0.02405256538473207
625.0, 0.021853962370746074
626.0, 0.02042606425520446
627.0, 0.020293329664310262
628.0, 0.02179335258469996
629.0, 0.023206069514898297
630.0, 0.02155544797001293
631.0, 0.018313161721709437
632.0, 0.021246992473419553
633.0, 0.019622287091990258
634.0, 0.018399899942345428
635.0, 0.021623464593015413
636.0, 0.025155255786562986
637.0, 0.02429172769697957
638.0, 0.017376466530715475
639.0, 0.01633391886744304
640.0, 0.01837748036193382
641.0, 0.019456010980056494
642.0, 0.019698861651359825
643.0, 0.02046476053363168
644.0, 0.024693511837496906
645.0, 0.02369995745972902
646.0, 0.022488709268399815
647.0, 0.02408664828779867
648.0, 0.02440879813191068
649.0, 0.02155684772751713
650.0, 0.021344176080639952
651.0, 0.023995484890781453
652.0, 0.02488185109211857
653.0, 0.02272268912116392
654.0, 0.020677152919959637
655.0, 0.02222158707349764
656.0, 0.022628340017805833
657.0, 0.01996441832124355
658.0, 0.017153398121463898
659.0, 0.017476587256501322
660.0, 0.020850286006238925
661.0, 0.022098084159817562
662.0, 0.018317793205874684
663.0, 0.018889903150458243
664.0, 0.020766167798450745
665.0, 0.020607539637968297
666.0, 0.020168891751079533
667.0, 0.02169053828481853
668.0, 0.02180180758368275
669.0, 0.022498299735847885
670.0, 0.019187830088819524
671.0, 0.01773381769119365
672.0, 0.021757032414594233
673.0, 0.01786911830076141
674.0, 0.01745738093913322
675.0, 0.018284702421464065
676.0, 0.021240555372054798
677.0, 0.023100161551291902
678.0, 0.022084183796321828
679.0, 0.022899122545077873
680.0, 0.02267364865899132
681.0, 0.02198717720911144
682.0, 0.020540726421879093
683.0, 0.022576808307807995
684.0, 0.026533795108596655
685.0, 0.024223808192464075
686.0, 0.02131383103705183
687.0, 0.02101110147458422
688.0, 0.0204875496184913
689.0, 0.01968003838802991
690.0, 0.01978602148994463
691.0, 0.020401018525977727
692.0, 0.01825095783797935
693.0, 0.01874167070688016
694.0, 0.01795191157247918
695.0, 0.019813248880295998
696.0, 0.02226492366552241
697.0, 0.019378874740952456
698.0, 0.014468947560579551
699.0, 0.016134738873543223
700.0, 0.01511790995462882
701.0, 0.014587626316177722
702.0, 0.015857348954897335
703.0, 0.01564378458237112
704.0, 0.013516512303021479
705.0, 0.012810327653245327
706.0, 0.01226333800465258
707.0, 0.009975636705661674
708.0, 0.009053346516340387
709.0, 0.010529307898888812
710.0, 0.011607281103036568
711.0, 0.015144495476467875
712.0, 0.01136439652574451
713.0, 0.012613233197118278
714.0, 0.013490076068039791
715.0, 0.01138317896956679
716.0, 0.011085963467392643
717.0, 0.007807565661718338
718.0, 0.007682098669249207
719.0, 0.007288050655126187
720.0, 0.00491636686177477
721.0, 0.004855989862871056
722.0, 0.007102023742517565
723.0, 0.003801774014633012
724.0, 0.004208532379828925
725.0, 0.004302196422774463
726.0, 0.0037224272301810183
727.0, 0.001842387855541395
728.0, 0.000130206980520857
729.0, 0.000317252273441845
730.0, 0.000768722168027917
731.0, 0.0035692383150229285
732.0, 0.0017198576732476469
733.0, 0.00300682334409121
734.0, 0.006556660746373425
735.0, 0.006190203552850036
736.0, 0.0069391373957809
737.0, 0.00623010061202197
738.0, 0.00973500366262845
739.0, 0.006841389907669521
740.0, 0.005091190668268625
741.0, 0.006635467720113347
742.0, 0.003129645819746292
743.0, 0.006707519562859145
744.0, 0.0030685235155816816
745.0, 0.0032669324433592987
746.0, 0.008117270057823754
747.0, 0.009651396509790869
748.0, 0.0052247410517378854
749.0, 0.002491267081021195
750.0, 0.001941220029943782
751.0, 0.0037414436478681603
752.0, 0.006166903317102567
753.0, 0.004943078965860919
754.0, 0.0016174291058428864
755.0, 0.0007369990745790125
756.0, 0.003929439191046844
757.0, 0.0064227918301523095
758.0, 0.006412181293850013
759.0, 0.004312130164297099
760.0, 0.005124770413078285
761.0, 0.009452189261980088
762.0, 0.010885580558534261
763.0, 0.013237485707723417
764.0, 0.023658764344504216
765.0, 0.029783710056306235
766.0, 0.032373357123724585
767.0, 0.0361310683845269
768.0, 0.04157944391279125
769.0, 0.048165350986784004
770.0, 0.05749165986040493
771.0, 0.06974805712948784
772.0, 0.07526268845853311
773.0, 0.08248263378314309
774.0, 0.09211265768447645
775.0, 0.09726326854799623
776.0, 0.11323598042163685
777.0, 0.13515973463308706
778.0, 0.14715767308867994
779.0, 0.16334580996240716
780.0, 0.18407920504757536
781.0, 0.20513859130455814
782.0, 0.2303567330377951
783.0, 0.25045836014766226
784.0, 0.27342128542278155
785.0, 0.3016034436197905
786.0, 0.3326430529679936
787.0, 0.3600058439540444
788.0, 0.3857165429179293
789.0, 0.4213721839493047
790.0, 0.4579518594269643
791.0, 0.4873216898537976
792.0, 0.5105416300200131
793.0, 0.5387696110556859
794.0, 0.573914444927767
795.0, 0.6090669659580396
796.0, 0.6381531533343453
797.0, 0.6556918344651896
798.0, 0.6835905618325607
799.0, 0.6996403991845762
800.0, 0.7174655259088734
801.0, 0.7364874920184609
802.0, 0.7468557797085336
803.0, 0.7566351141449041
804.0, 0.7597762481531503
805.0, 0.7554932099578027
806.0, 0.7410036974225279
807.0, 0.7317071942251939
808.0, 0.7203506112879088
809.0, 0.6978540351098232
810.0, 0.6888253914155585
811.0, 0.6775375345084439
812.0, 0.6553635647628471
813.0, 0.6367309624205718
814.0, 0.6292737934977881
815.0, 0.6263130327637045
816.0, 0.6209323155375234
817.0, 0.617907928539539
818.0, 0.6149865143721751
819.0, 0.615253667832854
820.0, 0.6170872580852522
821.0, 0.6202154513510453
822.0, 0.6264803895308222
823.0, 0.6341141120092937
824.0, 0.6386207252558834
825.0, 0.647871870815045
826.0, 0.6562411516327235
827.0, 0.6723013143113712
828.0, 0.6875229571715415
829.0, 0.6995541544021868
830.0, 0.7159903800651278
831.0, 0.73890878271435
832.0, 0.748739679223912
833.0, 0.7693548037330369
834.0, 0.7950055050525775
835.0, 0.8206430749909454
836.0, 0.8431594256273139
837.0, 0.8640895592314465
838.0, 0.8904448945014153
839.0, 0.9195374415365484
840.0, 0.9274916501110495
841.0, 0.9424818206716745
842.0, 0.9698554279212617
843.0, 0.9907377709080564
844.0, 0.9977072203766943
845.0, 0.9995628417730401
846.0, 0.9960876814775329
847.0, 0.9998499089295225
848.0, 0.989631113396164
849.0, 0.9682945795551833
850.0, 0.942941524853304
851.0, 0.9085691163580399
852.0, 0.8624856428299328
853.0, 0.8227796902099777
854.0, 0.787195863127579
855.0, 0.7321117573690302
856.0, 0.6834928368470663
857.0, 0.6386479603990725
858.0, 0.5868721075943336
859.0, 0.5320180353017038
860.0, 0.48956219951072627
861.0, 0.4419972034109999
862.0, 0.39947650786054484
863.0, 0.36764723335671423
864.0, 0.33069809664880706
865.0, 0.2944826652489257
866.0, 0.26811433344358565
867.0, 0.24457374489272218
868.0, 0.22115172810153075
869.0, 0.20135990882356722
870.0, 0.18982976193333814
871.0, 0.1761400429658759
872.0, 0.1626035758994312
873.0, 0.1523726275841662
874.0, 0.14197898829590905
875.0, 0.12875892427592747
876.0, 0.11725776358882031
877.0, 0.11565184741822414
878.0, 0.1112235819625943
879.0, 0.1044611519273163
880.0, 0.09880259103304738
881.0, 0.09232950916517976
882.0, 0.0830780488646913
883.0, 0.07746792116109241
884.0, 0.07221400112818718
885.0, 0.06819270773881306
886.0, 0.06629093922447597
887.0, 0.06071326378637876
888.0, 0.05346582776781173
889.0, 0.05072673049706543
890.0, 0.04845842523905122
891.0, 0.042999307294741065
892.0, 0.03876795516183997
893.0, 0.034506389624995526
894.0, 0.027319960132159878
895.0, 0.020154261748448598
896.0, 0.014064100196081952
897.0, 0.00843469914093719
898.0, 0.010062786698851297
899.0, 0.0077423669673079695
900.0, 0.001442332506801965
901.0, 0.002443377074830572
902.0, 0.001507150481389521
903.0, 0.0024043744900292736
904.0, 0.00323295854793315
905.0, 0.004303813410748736
906.0, 0.004486671017603078
907.0, 0.003955546641282199
908.0, 0.009108404886249232
909.0, 0.0071633814584735125
910.0, 0.00958729689726537
911.0, 0.014210456882722221
912.0, 0.01172366189077045
913.0, 0.009925992095566669
914.0, 0.007705780319691937
915.0, 0.008064763278870929
916.0, 0.0036574988543954315
917.0, 0.006169624559817705
918.0, 0.006362066661835739
919.0, 0.00175459138748893
920.0, 0.002533366582197711
921.0, 0.006163535559652138
922.0, 0.004479531524030753
923.0, 0.0026378477097694034
924.0, 0.0007632666121989073
925.0, 0.0006798888644765728
926.0, 0.0030353324137828864
927.0, 0.005126153336970638
928.0, 0.005147727745442495
929.0, 0.005821709708389906
930.0, 0.006101060414673248
931.0, 0.008841139090185624
932.0, 0.010988282970920422
933.0, 0.00857446517682566
934.0, 0.00797147674978884
935.0, 0.011640904100358077
936.0, 0.01524610462580172
937.0, 0.017438231098399246
938.0, 0.019176570285979702
939.0, 0.014616741677427478
940.0, 0.016112616158277384
941.0, 0.018838771289428173
942.0, 0.02037706066157623
943.0, 0.02042798885324438
944.0, 0.018940750771551773
945.0, 0.018463924055722263
946.0, 0.018540498840518154
947.0, 0.02161161522718536
948.0, 0.022900483357180798
949.0, 0.01843079285330288
950.0, 0.01825554087282233
951.0, 0.021810343851017964
952.0, 0.020294282353365264
953.0, 0.016634275309488602
954.0, 0.020624180649841378
955.0, 0.016670114593192845
956.0, 0.016338541844098206
957.0, 0.018271820359882656
958.0, 0.01694512642536784
959.0, 0.01592371278024608
960.0, 0.0186977515048254
961.0, 0.020607937183318645
962.0, 0.018592494607307122
963.0, 0.022260566588091252
964.0, 0.0231129342583172
965.0, 0.019702397520835697
966.0, 0.0172477612847634
967.0, 0.016015037046300362
968.0, 0.015151427173641966
969.0, 0.014186056032889464
970.0, 0.009747719795646084
971.0, 0.008307139481087118
972.0, 0.010542868959168436
973.0, 0.006335741771526693
974.0, 0.004366300447787453
975.0, 0.005108908496857744
976.0, 0.006898247937837291
977.0, 0.009881250959310195
978.0, 0.009186150349135261
979.0, 0.0032777464742849783
980.0, 0.00043614016032914976
981.0, 0.005886444823107614
982.0, 0.005727014250134618
983.0, 0.0023439435270942734
984.0, 0.0017619813670720216
985.0, 0.005011236380755313
986.0, 0.007885019862672213
987.0, 0.004029362175681893
988.0, 0.00470088172138592
989.0, 0.008690440669344723
990.0, 0.006636213225023127
991.0, 0.0021494545245775627
992.0, 0.0002676921989483367
993.0, 0.003023769113727647
994.0, 0.007205530973618116
995.0, 0.007534548363103508
996.0, 0.0070080925835928525
997.0, 0.0023155200963143707
998.0, 0.003060625319654911
999.0, 0.004249087554081513
1000.0, 0.00483850372541013
1001.0, 0.006668839204565778
1002.0, 0.0069536061891294874
1003.0, 0.004460844222759453
1004.0, 0.004569857401627879
1005.0, 0.005793938520800129
1006.0, 0.006280915298180151
1007.0, 0.007854782961828193
1008.0, 0.007483593962990457
1009.0, 0.003554253907459556
1010.0, 0.004198926709584748
1011.0, 0.00937519499421306
1012.0, 0.009973055536732042
1013.0, 0.008937365657385713
1014.0, 0.01041654182811803
1015.0, 0.012040371402824681
1016.0, 0.012739209155930842
1017.0, 0.01358185577826414
1018.0, 0.014514830756470054
1019.0, 0.01711787127279748
1020.0, 0.01888854219100299
1021.0, 0.01709863532148246
1022.0, 0.01764420903389984
1023.0, 0.014235477621364482
1024.0, 0.01910801126977025
1025.0, 0.02009732515996072
1026.0, 0.02062123151411565
1027.0, 0.019566533474410026
1028.0, 0.01795720238646498
1029.0, 0.018927240874217665
1030.0, 0.019741739553895046
1031.0, 0.015901436213529865
1032.0, 0.020544763506887786
1033.0, 0.019058287778782296
1034.0, 0.02006376642307423
1035.0, 0.016035989665187746
1036.0, 0.01772192512130434
1037.0, 0.019304230175414758
1038.0, 0.017016218603483502
1039.0, 0.01808497660891287
1040.0, 0.017288553868108406
1041.0, 0.015567481029813483
1042.0, 0.01329973269936302
1043.0, 0.01374121872969496
1044.0, 0.017001123138916923
1045.0, 0.014989248801841186
1046.0, 0.012212505911531321
1047.0, 0.013481420690413243
1048.0, 0.01581847211620242
1049.0, 0.015083891685686237
1050.0, 0.012748533883132641
1051.0, 0.012970430142100255
1052.0, 0.013377146289182826
1053.0, 0.014776718464501487
1054.0, 0.014248106583576852
1055.0, 0.015163854439538388
1056.0, 0.014946371314791299
1057.0, 0.013574901573917532
1058.0, 0.014994819815394324
1059.0, 0.013148359137773518
1060.0, 0.012290974475345048
1061.0, 0.014916214780313455
1062.0, 0.011658224117451035
1063.0, 0.013107949570188678
1064.0, 0.012359160718330701
1065.0, 0.010897668317755948
1066.0, 0.0136474627156337
1067.0, 0.014966645789902413
1068.0, 0.01226455559122454
1069.0, 0.01356566069869683
1070.0, 0.014315220721948801
1071.0, 0.013516158385980036
1072.0, 0.011592956497095925
1073.0, 0.01105348487072247
1074.0, 0.010573850525023548
1075.0, 0.010089003161031545
1076.0, 0.011882031819127921
1077.0, 0.013705466166156388
1078.0, 0.01170697022921407
1079.0, 0.01115802102088183
1080.0, 0.010766152047193224
1081.0, 0.011184077093423289
1082.0, 0.0166439412766416
1083.0, 0.013638387609842206
1084.0, 0.008361843562797967
1085.0, 0.009502579881973016
1086.0, 0.013338430448665436
1087.0, 0.013205425090026028
1088.0, 0.010577559577418199
1089.0, 0.009939621490476402
1090.0, 0.009575268662814659
1091.0, 0.008454572967116002
1092.0, 0.010605123124699961
1093.0, 0.009306276110386166
1094.0, 0.008248175938570962
1095.0, 0.008662613894738356
1096.0, 0.005913848854975161
1097.0, 0.0032773257929545317
1098.0, 0.008298718710776353
1099.0, 0.0050965227558720325
1100.0, 0.005754149108092961
1101.0, 0.005396614026852143
1102.0, 0.0033026755636879263
1103.0, 0.004262759720604564
1104.0, 0.004887054863653402
1105.0, 0.002813486961832103
1106.0, 0.0018815726411432364
1107.0, 0.0035784656099824824
1108.0, 0.0029388789208130025
1109.0, 0.0007826861586289772
1110.0, 0.0028989063545664696
1111.0, 0.0016863390396368598
1112.0, 0.0022698989836718642
1113.0, 0.0009425121906411382
1114.0, 8.122148384908111e-05
1115.0, 0.0004719280617938146
1116.0, 0.0014755368002369296
1117.0, 0.0027373573639198254
1118.0, 0.0033875776090442366
1119.0, 0.0019108102726466299
1120.0, 0.00138107983164352
1121.0, 0.0030178025400557523
1122.0, 0.0009427695566756082
1123.0, 0.00029323075915510576
1124.0, 0.0007961763198312504
1125.0, 0.0019857183492621154
1126.0, 0.0029948000671522882
1127.0, 0.0005555023802328934
1128.0, 0.00034550527712207374
1129.0, 0.0008205851521043353
1130.0, 0.00016812300414273295
1131.0, 0.0013573310027294558
1132.0, 0.0008493502046489705
1133.0, 0.002064317847576929
1134.0, 0.001813867376117813
1135.0, 0.0022442688284960437
1136.0, 0.0014018936144129632
1137.0, 0.004451656020191219
1138.0, 0.001220643094557057
1139.0, 0.0002365956694589384
1140.0, 0.0006073142163229488
1141.0, 0.004596831256449401
1142.0, 0.002864297244992538
1143.0, 0.00147890204640259
1144.0, 0.0009774500422837578
1145.0, 0.0008036559880272909
1146.0, 0.004186796142048954
1147.0, 0.0029869756033191258
1148.0, 0.0026220717025054402
1149.0, 0.004859925792610963
1150.0, 0.0013378807985961181
1151.0, 0.0027396522706240756
1152.0, 0.005566597001791355
1153.0, 0.0016693422897689912
1154.0, 0.0014616698439072668
1155.0, 0.003898756149452165
1156.0, 0.004263191241443949
1157.0, 0.002468138208408272
1158.0, 0.0012021962857764427
1159.0, 0.0018492083780620406
1160.0, 0.004336011904040737
1161.0, 0.005072375399905411
1162.0, 0.0020355283338685764
1163.0, 0.0058837226593046335
1164.0, 0.0034973307399534348
1165.0, 0.003696201756346371
1166.0, 0.004166241901126008
1167.0, 0.0011922098150167852
1168.0, 0.004244275835506267
1169.0, 0.005764749732909019
1170.0, 0.0033938183577759047
1171.0, 0.003753991485090767
1172.0, 0.004764416238170813
1173.0, 0.003665245406050857
1174.0, 0.004861951208195906
1175.0, 0.003497696087376073
1176.0, 0.0012358863840957954
1177.0, 0.0038587888131145147
1178.0, 0.0052627134199020875
1179.0, 0.005296652512466293
1180.0, 0.005856857058257621
1181.0, 0.00356835071294316
1182.0, 0.002921719656867036
1183.0, 0.004787297689384584
1184.0, 0.002546022850239891
1185.0, 0.003398412165544806
1186.0, 0.002596277070234561
1187.0, 0.002540226617070053
1188.0, 0.0078487058345275
1189.0, 0.004094851738650706
1190.0, 0.002975898563165869
1191.0, 0.0051722878704447105
1192.0, 0.004242986983194807
1193.0, 0.001616913895305078
1194.0, 0.0014070351750750136
1195.0, 0.003737577752599689
1196.0, 0.005783854789747369
1197.0, 0.004853674557378763
1198.0, 0.006095397799828609
1199.0, 0.004898982684551245
1200.0, 0.0057744209085025654
1201.0, 0.004903404118796338
1202.0, 0.002703692111727705
1203.0, 0.0013403950105261595
1204.0, 0.002196073739838815
1205.0, 0.00348035132082885
1206.0, 0.001628059084077847
1207.0, 0.00044721183897824764
1208.0, 0.004169363400329961
1209.0, 0.003907629970463839
1210.0, 0.004928227480495822
1211.0, 0.0030311221570814987
1212.0, 0.001320555058115314
1213.0, 0.0013679851273775572
1214.0, 0.00447124068100983
1215.0, 0.004427121771050149
1216.0, 0.0050245746208344225
1217.0, 0.006136438414841134
1218.0, 0.00366272292232577
1219.0, 0.001029967024998389
1220.0, 0.0026679096253743742
1221.0, 0.004154327128316909
1222.0, 0.0033051468957028805
1223.0, 0.003962101444796513
1224.0, 0.002430811095449967
1225.0, 0.0036951539868187717
1226.0, 0.0030585381126346915
1227.0, 0.0013493637170255333
1228.0, 0.001038876521459197
1229.0, 0.0017389954310089426
1230.0, 0.0015285321461625744
1231.0, 0.0013185373806608339
1232.0, 0.001607176058677357
1233.0, 0.0005418150337793962
1234.0, 0.00037690207436916396
1235.0, 0.0052229493028758895
1236.0, 0.0014709842863337857
1237.0, 0.00011087888323377101
1238.0, 0.00010230908957183226
1239.0, 0.0003833732720474864
1240.0, 0.0031413521969664653
1241.0, 0.0046782821090275255
1242.0, 0.004447961730046543
1243.0, 0.0029771352231230176
1244.0, 0.001804377119840789
1245.0, 0.0012103943412045202
1246.0, 0.0007753667144649441
1247.0, 0.0025196094628602574
1248.0, 0.0033834118532979135
1249.0, 0.004249622331603148
1250.0, 0.0034904914068171486
1251.0, 0.000905459947901794
1252.0, 0.002679983441041612
1253.0, 0.002621604744564696
1254.0, 0.003777045405843681
1255.0, 0.0028332798450639955
1256.0, 0.004024525422336079
1257.0, 0.005592047992567321
1258.0, 0.0034231360195398947
1259.0, 0.0027876474368650787
1260.0, 0.004671274111334186
1261.0, 0.0013758698819191278
1262.0, 0.003618517131841621
1263.0, 0.0036371871723402623
1264.0, 0.0044545991913729184
1265.0, 0.002033113797061811
1266.0, 0.001092095771900709
1267.0, 0.0028575253952360723
1268.0, 0.0008047121368561635
1269.0, 0.0007587803198757586
1270.0, 0.0004699582406726278
1271.0, 0.0006507384022796754
1272.0, 0.0018971806234271173
1273.0, 0.002062506871593146
1274.0, 0.0023268651294566845
1275.0, 0.002492908617281184
1276.0, 0.0012550355349352517
1277.0, 0.00020899528801762243
1278.0, 0.000492833126298159
1279.0, 0.0028116818961788142
1280.0, 0.0022141856461566625
1281.0, 0.001453349165797026
1282.0, 0.0018025892915397937
1283, 0.0
1284, 0.0
1285, 0.0
1286, 0.0
1287, 0.0
1288, 0.0
1289, 0.0
1290, 0.0
1291, 0.0
1292, 0.0
1293, 0.0
1294, 0.0
1295, 0.0
1296, 0.0
1297, 0.0
1298, 0.0
1299, 0.0
1300, 0.0
1301, 0.0
1302, 0.0
1303, 0.0
1304, 0.0
1305, 0.0
1306, 0.0
1307, 0.0
1308, 0.0
1309, 0.0
1310, 0.0
1311, 0.0
1312, 0.0
1313, 0.0
1314, 0.0
1315, 0.0
1316, 0.0
1317, 0.0
1318, 0.0
1319, 0.0
1320, 0.0
1321, 0.0
1322, 0.0
1323, 0.0
1324, 0.0
1325, 0.0
1326, 0.0
1327, 0.0
1328, 0.0
1329, 0.0
1330, 0.0
1331, 0.0
1332, 0.0
1333, 0.0
1334, 0.0
1335, 0.0
1336, 0.0
1337, 0.0
1338, 0.0
1339, 0.0
1340, 0.0
1341, 0.0
1342, 0.0
1343, 0.0
1344, 0.0
1345, 0.0
1346, 0.0
1347, 0.0
1348, 0.0
1349, 0.0
1350, 0.0
1351, 0.0
1352, 0.0
1353, 0.0
1354, 0.0
1355, 0.0
1356, 0.0
1357, 0.0
1358, 0.0
1359, 0.0
1360, 0.0
1361, 0.0
1362, 0.0
1363, 0.0
1364, 0.0
1365, 0.0
1366, 0.0
1367, 0.0
1368, 0.0
1369, 0.0
1370, 0.0
1371, 0.0
1372, 0.0
1373, 0.0
1374, 0.0
1375, 0.0
1376, 0.0
1377, 0.0
1378, 0.0
1379, 0.0
1380, 0.0
1381, 0.0
1382, 0.0
1383, 0.0
1384, 0.0
1385, 0.0
1386, 0.0
1387, 0.0
1388, 0.0
1389, 0.0
1390, 0.0
1391, 0.0
1392, 0.0
1393, 0.0
1394, 0.0
1395, 0.0
1396, 0.0
1397, 0.0
1398, 0.0
1399, 0.0
1400, 0.0
1401, 0.0
1402, 0.0
1403, 0.0
1404, 0.0
1405, 0.0
1406, 0.0
1407, 0.0
1408, 0.0
1409, 0.0
1410, 0.0
1411, 0.0
1412, 0.0
1413, 0.0
1414, 0.0
1415, 0.0
1416, 0.0
1417, 0.0
1418, 0.0
1419, 0.0
1420, 0.0
1421, 0.0
1422, 0.0
1423, 0.0
1424, 0.0
1425, 0.0
1426, 0.0
1427, 0.0
1428, 0.0
1429, 0.0
1430, 0.0
1431, 0.0
1432, 0.0
1433, 0.0
1434, 0.0
1435, 0.0
1436, 0.0
1437, 0.0
1438, 0.0
1439, 0.0
1440, 0.0
1441, 0.0
1442, 0.0
1443, 0.0
1444, 0.0
1445, 0.0
1446, 0.0
1447, 0.0
1448, 0.0
1449, 0.0
1450, 0.0
1451, 0.0
1452, 0.0
1453, 0.0
1454, 0.0
1455, 0.0
1456, 0.0
1457, 0.0
1458, 0.0
1459, 0.0
1460, 0.0
1461, 0.0
1462, 0.0
1463, 0.0
1464, 0.0
1465, 0.0
1466, 0.0
1467, 0.0
1468, 0.0
1469, 0.0
1470, 0.0
1471, 0.0
1472, 0.0
1473, 0.0
1474, 0.0
1475, 0.0
1476, 0.0
1477, 0.0
1478, 0.0
1479, 0.0
1480, 0.0
1481, 0.0
1482, 0.0
1483, 0.0
1484, 0.0
1485, 0.0
1486, 0.0
1487, 0.0
1488, 0.0
1489, 0.0
1490, 0.0
1491, 0.0
1492, 0.0
1493, 0.0
1494, 0.0
1495, 0.0
1496, 0.0
1497, 0.0
1498, 0.0
1499, 0.0
1500, 0.0
1501, 0.0
1502, 0.0
1503, 0.0
1504, 0.0
1505, 0.0
1506, 0.0
1507, 0.0
1508, 0.0
1509, 0.0
1510, 0.0
1511, 0.0
1512, 0.0
1513, 0.0
1514, 0.0
1515, 0.0
1516, 0.0
1517, 0.0
1518, 0.0
1519, 0.0
1520, 0.0
1521, 0.0
1522, 0.0
1523, 0.0
1524, 0.0
1525, 0.0
1526, 0.0
1527, 0.0
1528, 0.0
1529, 0.0
1530, 0.0
1531, 0.0
1532, 0.0
1533, 0.0
1534, 0.0
1535, 0.0
1536, 0.0
1537, 0.0
1538, 0.0
1539, 0.0
1540, 0.0
1541, 0.0
1542, 0.0
1543, 0.0
1544, 0.0
1545, 0.0
1546, 0.0
1547, 0.0
1548, 0.0
1549, 0.0
1550, 0.0
1551, 0.0
1552, 0.0
1553, 0.0
1554, 0.0
1555, 0.0
1556, 0.0
1557, 0.0
1558, 0.0
1559, 0.0
1560, 0.0
1561, 0.0
1562, 0.0
1563, 0.0
1564, 0.0
1565, 0.0
1566, 0.0
1567, 0.0
1568, 0.0
1569, 0.0
1570, 0.0
1571, 0.0
1572, 0.0
1573, 0.0
1574, 0.0
1575, 0.0
1576, 0.0
1577, 0.0
1578, 0.0
1579, 0.0
1580, 0.0
1581, 0.0
1582, 0.0
1583, 0.0
1584, 0.0
1585, 0.0
1586, 0.0
1587, 0.0
1588, 0.0
1589, 0.0
1590, 0.0
1591, 0.0
1592, 0.0
1593, 0.0
1594, 0.0
1595, 0.0
1596, 0.0
1597, 0.0
1598, 0.0
1599, 0.0
