30, 0.0
31, 0.0
32, 0.0
33, 0.0
34, 0.0
35, 0.0
36, 0.0
37, 0.0
38, 0.0
39, 0.0
40, 0.0
41, 0.0
42, 0.0
43, 0.0
44, 0.0
45, 0.0
46, 0.0
47, 0.0
48, 0.0
49, 0.0
50, 0.0
51, 0.0
52, 0.0
53, 0.0
54, 0.0
55, 0.0
56, 0.0
57, 0.0
58, 0.0
59, 0.0
60, 0.0
61, 0.0
62, 0.0
63, 0.0
64, 0.0
65, 0.0
66, 0.0
67, 0.0
68, 0.0
69, 0.0
70, 0.0
71, 0.0
72, 0.0
73, 0.0
74, 0.0
75, 0.0
76, 0.0
77, 0.0
78, 0.0
79, 0.0
80, 0.0
81, 0.0
82, 0.0
83, 0.0
84, 0.0
85, 0.0
86, 0.0
87, 0.0
88, 0.0
89, 0.0
90, 0.0
91, 0.0
92, 0.0
93, 0.0
94, 0.0
95, 0.0
96, 0.0
97, 0.0
98, 0.0
99, 0.0
100, 0.0
101, 0.0
102, 0.0
103, 0.0
104, 0.0
105, 0.0
106, 0.0
107, 0.0
108, 0.0
109, 0.0
110.0, 0.0002628567002563235
111.0, 0.00339532113045724
112.0, 0.007336247061232114
113.0, 0.008097152502025728
114.0, 0.0036023202157223102
115.0, 0.000818506106660868
116.0, 0.0014649212187440547
117.0, 0.0022798806550277813
118.0, 0.00138921344534094
119.0, 0.00818828856087668
120.0, 0.020403452974239844
121.0, 0.03545878321363129
122.0, 0.05163433733269927
123.0, 0.07002468802474965
124.0, 0.08615205753398926
125.0, 0.10052556743304918
126.0, 0.11157572292693003
127.0, 0.11600350010440191
128.0, 0.12697615734597023
129.0, 0.1421275774311654
130.0, 0.15896501719891706
131.0, 0.1773970597832346
132.0, 0.19773425083059043
133.0, 0.22056008402890095
134.0, 0.24229310720520017
135.0, 0.26020736718339926
136.0, 0.2788606976664502
137.0, 0.29417890452482215
138.0, 0.3101242751319847
139.0, 0.32817961010207725
140.0, 0.34088165510609036
141.0, 0.3505513291662984
142.0, 0.36256537465285915
143.0, 0.37828630117461864
144.0, 0.39504136088086783
145.0, 0.41549700707182863
146.0, 0.43345223206762495
147.0, 0.4487817715175343
148.0, 0.46414102648132416
149.0, 0.4712841742986669
150.0, 0.4740704214770752
151.0, 0.47418760422976486
152.0, 0.4705441506470551
153.0, 0.46541753017750787
154.0, 0.462481012965206
155.0, 0.4543221478414166
156.0, 0.44142556442537695
157.0, 0.4331276258207747
158.0, 0.42609008836846857
159.0, 0.42380342151056444
160.0, 0.42389496963096474
161.0, 0.42258453264928103
162.0, 0.42374699348789147
163.0, 0.42611584037846445
164.0, 0.42654747644915886
165.0, 0.4244309195515143
166.0, 0.42363209960485854
167.0, 0.41637919283623526
168.0, 0.4057343069751391
169.0, 0.3945891128854961
170.0, 0.38231896301393326
171.0, 0.37026388739339716
172.0, 0.3576673421764196
173.0, 0.34478248037102194
174.0, 0.33284438499597263
175.0, 0.32598299775866313
176.0, 0.31644873105279
177.0, 0.30498124371958213
178.0, 0.29394420686628087
179.0, 0.2841438338581533
180.0, 0.27331983727371534
181.0, 0.26144522046639596
182.0, 0.2499192211386152
183.0, 0.24049535153622423
184.0, 0.23405924996185637
185.0, 0.22813405792545075
186.0, 0.22385915621430985
187.0, 0.22138923653637724
188.0, 0.21334846628978155
189.0, 0.20870747019985705
190.0, 0.20656954891598814
191.0, 0.20390018733559137
192.0, 0.198651961257861
193.0, 0.19549372465767398
194.0, 0.19113891786149018
195.0, 0.1850768247270101
196.0, 0.17936327606531374
197.0, 0.17437058039745323
198.0, 0.16832276731954615
199.0, 0.16078827830848558
200.0, 0.1512371883185094
201.0, 0.1384154107087717
202.0, 0.12651099595529167
203.0, 0.11441461750371656
204.0, 0.10277134340580671
205.0, 0.09352941924171307
206.0, 0.08465333727491979
207.0, 0.07534162377792777
208.0, 0.06768211076627666
209.0, 0.061994596176827316
210.0, 0.05333951031900135
211.0, 0.046219086821649505
212.0, 0.039619757079626956
213.0, 0.03361783407215249
214.0, 0.029902216199592803
215.0, 0.025840069108325626
216.0, 0.020753984099139318
217.0, 0.017079778969797205
218.0, 0.016211272533806834
219.0, 0.012780459561409819
220.0, 0.008141771623021883
221.0, 0.006393740851607943
222.0, 0.00603778303439554
223.0, 0.001235524452843875
224.0, 0.0027091110152590425
225.0, 0.0013295024446685175
226.0, 0.0019411746634789835
227.0, 0.0025982317497696924
228.0, 0.0017478649627753902
229.0, 0.00013820449021950828
230.0, 0.002528162101067677
231.0, 0.004223589301797509
232.0, 0.0037361493489734177
233.0, 0.0019455642739107514
234.0, 0.002841120634105528
235.0, 0.004418028928176401
236.0, 0.0036779991838687518
237.0, 0.0026575305099854297
238.0, 0.002298642921016672
239.0, 0.0021710749147237454
240.0, 0.0026327152918601705
241.0, 0.0046551239633196365
242.0, 0.006379935949956498
243.0, 0.008432331604093877
244.0, 0.01090177707576349
245.0, 0.012853714129164303
246.0, 0.011797680729621191
247.0, 0.014574644897857012
248.0, 0.016516668510689243
249.0, 0.016956279162410392
250.0, 0.019488135220164557
251.0, 0.022176087335571488
252.0, 0.02356303470821409
253.0, 0.02421667425885299
254.0, 0.02493162445766812
255.0, 0.025803491942843357
256.0, 0.024370657857775393
257.0, 0.02699318016219382
258.0, 0.031201249246043162
259.0, 0.03151878925417941
260.0, 0.03456443779663044
261.0, 0.03433926698113833
262.0, 0.03405543787570094
263.0, 0.035546123939483136
264.0, 0.035410789821848566
265.0, 0.03523596855362706
266.0, 0.03490390507393828
267.0, 0.03244466276209321
268.0, 0.02734778688036917
269.0, 0.024755449537505872
270.0, 0.021267851384984417
271.0, 0.018143854518877844
272.0, 0.016546472052513885
273.0, 0.016079375167927335
274.0, 0.012903091106726114
275.0, 0.010473466634928742
276.0, 0.008094609921372512
277.0, 0.005087055700520888
278.0, 0.003805583655175873
279.0, 0.0047300968148361
280.0, 0.004696932772348888
281.0, 0.002799688847318683
282.0, 9.238508595124932e-05
283.0, 0.0015749401718221216
284.0, 0.0030860588956394762
285.0, 0.0046567390132694324
286.0, 0.005735563336621598
287.0, 0.0052924371483931915
288.0, 0.004193820370209284
289.0, 0.005683736550725315
290.0, 0.006869980548560798
291.0, 0.005570112770695378
292.0, 0.005370633923627775
293.0, 0.004929570874989553
294.0, 0.006485189808138007
295.0, 0.007769048600198765
296.0, 0.005610818782322542
297.0, 0.003057250371334156
298.0, 0.002516863764393381
299.0, 0.0014423837014421262
300.0, 0.00015004989380122845
301.0, 0.0003554880765337745
302.0, 0.0004372504584931627
303.0, 0.00016049675349497588
304.0, 0.0025730890391334475
305.0, 0.007583195717541545
306.0, 0.010710299776072548
307.0, 0.007938817725752443
308.0, 0.0069952988438077525
309.0, 0.008731213582780456
310.0, 0.0108744792792596
311.0, 0.015322626818226196
312.0, 0.015393561422460534
313.0, 0.017256644005353008
314.0, 0.020109005713823937
315.0, 0.018926373845629
316.0, 0.021077813147182496
317.0, 0.02344954058867096
318.0, 0.025217742646649922
319.0, 0.02672639692572425
320.0, 0.028327854049445867
321.0, 0.03111174402581907
322.0, 0.03192403824123602
323.0, 0.03225818323713773
324.0, 0.0341449487421925
325.0, 0.037859956595987704
326.0, 0.04003700070034098
327.0, 0.0432798766539557
328.0, 0.04721910266509458
329.0, 0.05112401491793378
330.0, 0.05849443534520997
331.0, 0.061544088563248445
332.0, 0.0652884850778699
333.0, 0.0718370578142461
334.0, 0.078259055410217
335.0, 0.07931231218658506
336.0, 0.08590532423224646
337.0, 0.092857458662069
338.0, 0.09711023733125396
339.0, 0.10148521613138765
340.0, 0.1049384469907431
341.0, 0.10883774004108003
342.0, 0.11618271450691937
343.0, 0.12674990174000927
344.0, 0.136151033494436
345.0, 0.1462782393796828
346.0, 0.1550545925435838
347.0, 0.16554898622021988
348.0, 0.17947802890151343
349.0, 0.19261822024190361
350.0, 0.20644662108663994
351.0, 0.21991667230590378
352.0, 0.23586472110022338
353.0, 0.25309383760739274
354.0, 0.259581543594025
355.0, 0.2699122780050058
356.0, 0.2793980583537749
357.0, 0.28541433383553555
358.0, 0.2893199128840451
359.0, 0.2907021229879827
360.0, 0.2866631010884129
361.0, 0.2811184348866226
362.0, 0.2737153234338675
363.0, 0.26274066774966387
364.0, 0.2566500924686341
365.0, 0.2477320887935528
366.0, 0.23515048831239632
367.0, 0.22254948986023293
368.0, 0.2144100746003817
369.0, 0.2065554519661038
370.0, 0.2007079452737304
371.0, 0.1954070549269778
372.0, 0.19082027345775054
373.0, 0.18984937669348145
374.0, 0.19476908990758715
375.0, 0.19687518989143907
376.0, 0.1982568503718092
377.0, 0.2026221803492402
378.0, 0.2111968190715811
379.0, 0.21774592185843406
380.0, 0.22059903153035074
381.0, 0.22292857707316574
382.0, 0.22540279867841387
383.0, 0.2242450150033142
384.0, 0.22267145367499325
385.0, 0.21856993921762052
386.0, 0.21319734612052846
387.0, 0.20750009043356496
388.0, 0.1997571754421373
389.0, 0.18817158749758883
390.0, 0.1785656023738499
391.0, 0.169284727360875
392.0, 0.15898017632812053
393.0, 0.15007677169230044
394.0, 0.14170274619387682
395.0, 0.13771199385126506
396.0, 0.13265740491074668
397.0, 0.12458983807273458
398.0, 0.12074382756166448
399.0, 0.11430903005534357
400.0, 0.11075294838367686
401.0, 0.10690413461074191
402.0, 0.10128143042586733
403.0, 0.09932478345747624
404.0, 0.0947340681547297
405.0, 0.09210192361568953
406.0, 0.09204021378536084
407.0, 0.09340639823796948
408.0, 0.09400063158794501
409.0, 0.08973171302180809
410.0, 0.08795107811954507
411.0, 0.08872250885838702
412.0, 0.08955589961473363
413.0, 0.0900377727395146
414.0, 0.0866062698921183
415.0, 0.08480086620124574
416.0, 0.08261739003409338
417.0, 0.07738423987850168
418.0, 0.07038876953426783
419.0, 0.06489124347989915
420.0, 0.05814317664054864
421.0, 0.05158663684854898
422.0, 0.044674057127890035
423.0, 0.034491950510631295
424.0, 0.027979443942660567
425.0, 0.019947491712277252
426.0, 0.012876823093808715
427.0, 0.008158848834198408
428.0, 0.0036736119471761654
429.0, 0.0007551994271979978
430.0, 0.003643947897593431
431.0, 0.005665862890967026
432.0, 0.007687340096282087
433.0, 0.011111397113224265
434.0, 0.010061155149803764
435.0, 0.008076764862294129
436.0, 0.006909679339700871
437.0, 0.005673586270270941
438.0, 0.003044633408511623
439.0, 0.0007094570843189651
440.0, 0.002397835797278631
441.0, 0.007277030921835055
442.0, 0.013745265881689998
443.0, 0.02044482558246048
444.0, 0.024643036372768812
445.0, 0.03146489369835379
446.0, 0.03659542499007538
447.0, 0.04188394594481102
448.0, 0.04981768646242355
449.0, 0.05515957907297868
450.0, 0.06191596693948014
451.0, 0.06815694370469529
452.0, 0.0742118022200288
453.0, 0.08092231085824915
454.0, 0.08729219543647278
455.0, 0.0926292247289908
456.0, 0.09764815848015834
457.0, 0.10178745523957845
458.0, 0.10409867918218012
459.0, 0.10415304120521102
460.0, 0.10335601976731028
461.0, 0.0995738681549254
462.0, 0.09556069536527172
463.0, 0.09179968352983756
464.0, 0.08655461008348256
465.0, 0.0839523735019834
466.0, 0.07914416771952187
467.0, 0.07336813345591907
468.0, 0.06798405287602985
469.0, 0.06346278784563032
470.0, 0.06158738849964442
471.0, 0.0576809560261597
472.0, 0.054357445173861395
473.0, 0.05193709525853322
474.0, 0.05007925627290674
475.0, 0.050627229831791146
476.0, 0.04987530668995812
477.0, 0.048887914306902626
478.0, 0.04860255387006084
479.0, 0.04887012659951412
480.0, 0.04902805587072273
481.0, 0.048912809176173716
482.0, 0.0509247287701211
483.0, 0.053771603284376704
484.0, 0.056010839671885755
485.0, 0.057792211386396
486.0, 0.06270949208249826
487.0, 0.06453543870619005
488.0, 0.06858607267945209
489.0, 0.07431600752133415
490.0, 0.07899419732362661
491.0, 0.08627424320873599
492.0, 0.08954860709775747
493.0, 0.09328989099447282
494.0, 0.09928970456087827
495.0, 0.10636603122142034
496.0, 0.1144926491874733
497.0, 0.12771147795599624
498.0, 0.13836871456227984
499.0, 0.1455296672134698
500.0, 0.15369616085082438
501.0, 0.16588739856499882
502.0, 0.170964869039984
503.0, 0.17782320955585298
504.0, 0.1847665020944916
505.0, 0.1879427696372137
506.0, 0.18673635208039785
507.0, 0.1860550389730073
508.0, 0.18102576104270557
509.0, 0.17592544087421613
510.0, 0.1708598214653446
511.0, 0.1645326766818495
512.0, 0.15757102265084316
513.0, 0.15206660873807323
514.0, 0.1463254478315598
515.0, 0.1398831643964005
516.0, 0.13259872462782119
517.0, 0.12414428178290943
518.0, 0.11365123416980633
519.0, 0.10562724260839326
520.0, 0.09839009379969431
521.0, 0.09087343943565077
522.0, 0.08340259642384641
523.0, 0.07670296061801771
524.0, 0.07029869239110617
525.0, 0.0634147543576604
526.0, 0.05640686242321524
527.0, 0.05095479361542311
528.0, 0.047413757480827365
529.0, 0.04056676925173007
530.0, 0.036467134140513884
531.0, 0.032144190154536734
532.0, 0.02812762564853725
533.0, 0.025817846868923
534.0, 0.022799571617084867
535.0, 0.02257346243073889
536.0, 0.018792019028019302
537.0, 0.015219718930281461
538.0, 0.01424247764639368
539.0, 0.013933407371144759
540.0, 0.012703943731799418
541.0, 0.011036923680201972
542.0, 0.009956128987518534
543.0, 0.008730509872903053
544.0, 0.007216736196867369
545.0, 0.007077006700710554
546.0, 0.005519986362370621
547.0, 0.00468286932306469
548.0, 0.0028268544832761528
549.0, 0.000626358564742577
550.0, 0.0005687963055763911
551.0, 0.00027652794626424355
552.0, 0.0002840102332983614
553.0, 0.00020404530408364848
554.0, 0.0012821179361353382
555.0, 0.001288935638897206
556.0, 0.00026882658754049987
557.0, 0.0007256049990570785
558.0, 0.00030651729535661635
559.0, 0.002033499438783927
560.0, 0.0035841765705906447
561.0, 0.0036278525715738607
562.0, 0.0033090836797173315
563.0, 0.00307133513846301
564.0, 0.002621966259591292
565.0, 0.002860060560215939
566.0, 0.003183656956042171
567.0, 0.0015451380182762494
568.0, 0.0005246635887154372
569.0, 0.0004627514711461509
570.0, 0.0010004441859165678
571.0, 0.0017366420810348564
572.0, 0.0002630590946622589
573.0, 0.0004779209542201616
574.0, 0.00038090650156246455
575.0, 0.0010863858686719927
576.0, 0.0026660216047946694
577.0, 0.0033580424537020767
578.0, 0.0018050083548103552
579.0, 0.00016967789066223192
580.0, 0.0015651534774880004
581.0, 0.0025389302181594254
582.0, 0.004013254988717858
583.0, 0.006829296630975354
584.0, 0.00844017642462141
585.0, 0.005956309539050978
586.0, 0.005914580160427716
587.0, 0.005687667786741966
588.0, 0.006504379912092758
589.0, 0.009238513026629452
590.0, 0.009668378448379977
591.0, 0.00873008281177129
592.0, 0.008086186310691482
593.0, 0.008191437149108586
594.0, 0.009655605419653351
595.0, 0.011683857909441618
596.0, 0.010801529895714628
597.0, 0.010853511565753295
598.0, 0.01088973553634461
599.0, 0.01145913637315075
600.0, 0.012618995709481894
601.0, 0.013273439005172381
602.0, 0.012834232245011928
603.0, 0.013081621773735841
604.0, 0.013414090810304606
605.0, 0.013815484979727682
606.0, 0.014057376007482369
607.0, 0.0136949843258038
608.0, 0.014000448825137653
609.0, 0.014876040584434284
610.0, 0.014855416228790965
611.0, 0.014108510533105958
612.0, 0.014311835528666906
613.0, 0.016476702080986696
614.0, 0.015298612016381325
615.0, 0.016186217235759706
616.0, 0.017810134099208706
617.0, 0.017435091114197655
618.0, 0.015125038644967751
619.0, 0.014076965496800313
620.0, 0.015905890770358748
621.0, 0.015509287897039172
622.0, 0.01537565002795094
623.0, 0.014991228971936155
624.0, 0.01373420124318164
625.0, 0.015672923535153076
626.0, 0.015616608145149346
627.0, 0.013192442128664618
628.0, 0.013787585371319877
629.0, 0.015987001425743566
630.0, 0.015454200332897933
631.0, 0.014318223685643295
632.0, 0.01250739151314297
633.0, 0.014065155720176734
634.0, 0.015347376869528973
635.0, 0.015227500859354998
636.0, 0.01492306479223804
637.0, 0.013777540271827964
638.0, 0.015526515033860768
639.0, 0.01641205304321619
640.0, 0.01604859853190862
641.0, 0.015709911093615796
642.0, 0.01606789961340811
643.0, 0.016898558077040556
644.0, 0.01643549141299219
645.0, 0.01776068787231895
646.0, 0.01900898545681837
647.0, 0.018957447859111787
648.0, 0.018603720866730553
649.0, 0.019823735427219172
650.0, 0.0179256846343406
651.0, 0.018630895582296702
652.0, 0.018962803071218587
653.0, 0.018283579530975688
654.0, 0.01818894389478096
655.0, 0.01627872535303042
656.0, 0.017257721139591526
657.0, 0.017672737304560433
658.0, 0.017259163864145194
659.0, 0.01754444298924538
660.0, 0.01865767368932785
661.0, 0.01747597725822906
662.0, 0.016234347864384224
663.0, 0.016544224359184585
664.0, 0.017319416986229148
665.0, 0.01720702877484763
666.0, 0.016454268821680898
667.0, 0.016834608227315025
668.0, 0.01682584821188318
669.0, 0.017368563055791656
670.0, 0.01614035137625685
671.0, 0.015164397563733516
672.0, 0.016046875812914193
673.0, 0.015672074652917978
674.0, 0.015582297971366716
675.0, 0.014840374121223085
676.0, 0.015926988229375518
677.0, 0.01592528026427521
678.0, 0.01346865070440273
679.0, 0.01270313198969994
680.0, 0.01229488793136632
681.0, 0.012688989504976713
682.0, 0.013897235083672145
683.0, 0.014734703369687232
684.0, 0.01456174482152529
685.0, 0.013887766647126284
686.0, 0.013612267368887966
687.0, 0.013779302923333847
688.0, 0.015943684795029493
689.0, 0.015464666395670445
690.0, 0.013312317490341428
691.0, 0.014152630903353149
692.0, 0.013925069160227392
693.0, 0.013099915026181722
694.0, 0.012912487360211906
695.0, 0.012471792017518036
696.0, 0.013183731041110808
697.0, 0.014745179337673685
698.0, 0.012169106892657851
699.0, 0.012086197019046096
700.0, 0.011963228067670745
701.0, 0.012026029412646346
702.0, 0.011458740247953889
703.0, 0.010558504100052166
704.0, 0.011234681575754546
705.0, 0.010479223541605054
706.0, 0.010427528911757841
707.0, 0.010948789529664549
708.0, 0.011044324124114052
709.0, 0.010462542445671633
710.0, 0.009636485250490136
711.0, 0.008525795382775956
712.0, 0.008340348240447439
713.0, 0.00833795363651576
714.0, 0.006841419059215134
715.0, 0.0054191458831615155
716.0, 0.00588439084562853
717.0, 0.006387420861587982
718.0, 0.006821087340792097
719.0, 0.0046290354672095515
720.0, 0.003931274592536947
721.0, 0.004390161293828257
722.0, 0.004363408903089106
723.0, 0.004588741153272418
724.0, 0.0034353438658785806
725.0, 0.0038738432961240746
726.0, 0.002311485198904871
727.0, 0.0009247575647252283
728.0, 0.001439462650202783
729.0, 0.002374161601037778
730.0, 0.0016216647388113147
731.0, 0.00016326388842422148
732.0, 0.0005834540849111109
733.0, 0.0008904731476779609
734.0, 0.002096520641983461
735.0, 0.0033299101578953675
736.0, 0.002030167504718648
737.0, 0.0034605916625167913
738.0, 0.003993510961396227
739.0, 0.005130136206140748
740.0, 0.005332163959079861
741.0, 0.005382689472270659
742.0, 0.006888298145865911
743.0, 0.004616240002809187
744.0, 0.005896052677835647
745.0, 0.0061129384178700685
746.0, 0.006265266599420804
747.0, 0.006121746536354262
748.0, 0.005762382379090705
749.0, 0.006779754047348552
750.0, 0.00777079495612318
751.0, 0.005133967181586626
752.0, 0.003887983837938176
753.0, 0.0028554256195830923
754.0, 0.0013776688538997437
755.0, 0.0005321987193907052
756.0, 0.00028940298759007896
757.0, 0.0040205568551768215
758.0, 0.003929321559772796
759.0, 0.005201261257652932
760.0, 0.007083601194890423
761.0, 0.008652994042118526
762.0, 0.012084218043001955
763.0, 0.01642064098941514
764.0, 0.020214696270136744
765.0, 0.02348340553230718
766.0, 0.028739099844727455
767.0, 0.035609994618435344
768.0, 0.04235416738211716
769.0, 0.04843576102821389
770.0, 0.05556570680816787
771.0, 0.06491070187246395
772.0, 0.07453621553809962
773.0, 0.0849560209691521
774.0, 0.09734284892565517
775.0, 0.11080607888016981
776.0, 0.12356312678081845
777.0, 0.13979661273975114
778.0, 0.1571922584241728
779.0, 0.17759557219375685
780.0, 0.20111759484913858
781.0, 0.22644132453200158
782.0, 0.2528947807943023
783.0, 0.2817293089617185
784.0, 0.3189734577951134
785.0, 0.354307557579137
786.0, 0.3940657496701467
787.0, 0.4368430145405635
788.0, 0.4811069110527919
789.0, 0.5284078090995601
790.0, 0.573764312380247
791.0, 0.6225929214426242
792.0, 0.6705936395318247
793.0, 0.7166923189991743
794.0, 0.7613037156365302
795.0, 0.8049037976937997
796.0, 0.8472327277945867
797.0, 0.8846372750098751
798.0, 0.9189159583070635
799.0, 0.9450089036538303
800.0, 0.9641481494063242
801.0, 0.978516777455746
802.0, 0.9840396155945998
803.0, 0.9744997233893994
804.0, 0.9531439227673104
805.0, 0.9285134491898878
806.0, 0.898106828239323
807.0, 0.8627740219642555
808.0, 0.8219954138398164
809.0, 0.7800595154625256
810.0, 0.7438288934505477
811.0, 0.7080728413634204
812.0, 0.6824635679062379
813.0, 0.6598886032004461
814.0, 0.6387783461798168
815.0, 0.622618358865455
816.0, 0.6097977981133387
817.0, 0.5964465364827074
818.0, 0.5892749130454186
819.0, 0.5840366042703314
820.0, 0.5748249299686656
821.0, 0.5691695267009802
822.0, 0.5691132805774346
823.0, 0.573117615617192
824.0, 0.5795516981347073
825.0, 0.5860528841223885
826.0, 0.5969224357470909
827.0, 0.613853037486257
828.0, 0.6307522387291664
829.0, 0.6505630791913537
830.0, 0.6755826966967029
831.0, 0.7009890145265526
832.0, 0.7237308377265997
833.0, 0.7478405859018545
834.0, 0.776096819630841
835.0, 0.8049235668794175
836.0, 0.8325368945955547
837.0, 0.856812086909308
838.0, 0.8787561918439193
839.0, 0.9051991850016965
840.0, 0.9280424651439928
841.0, 0.9525580785951515
842.0, 0.972216778627358
843.0, 0.9855140181244777
844.0, 0.9954412493698569
845.0, 0.99912717649302
846.0, 0.9899452790049337
847.0, 0.9749361929832615
848.0, 0.9502585517630727
849.0, 0.9091596819747724
850.0, 0.8596311983601749
851.0, 0.8055195507150603
852.0, 0.7471564561924001
853.0, 0.6885096829235222
854.0, 0.6336713193772266
855.0, 0.5818711792489123
856.0, 0.5317092991197025
857.0, 0.4854679389919706
858.0, 0.4414423830006016
859.0, 0.3975281486505387
860.0, 0.35453082799287455
861.0, 0.3129044515737334
862.0, 0.2729289832188491
863.0, 0.23736264766680337
864.0, 0.2070958878460229
865.0, 0.17949523575830462
866.0, 0.15646296994750697
867.0, 0.1377635458864991
868.0, 0.11740825291726137
869.0, 0.1011859790851791
870.0, 0.09191008125946207
871.0, 0.081568242914589
872.0, 0.07254633651705882
873.0, 0.06797310511344126
874.0, 0.06543353123662804
875.0, 0.06136015079719115
876.0, 0.05697725838595359
877.0, 0.054073677488607516
878.0, 0.05562037385831356
879.0, 0.054035281965809756
880.0, 0.05221177863576787
881.0, 0.05404741587552526
882.0, 0.05622418968185837
883.0, 0.05408458937251708
884.0, 0.052541346960731754
885.0, 0.05086798707589018
886.0, 0.048269340312731474
887.0, 0.04498656033604671
888.0, 0.04057028396354279
889.0, 0.0369215134359184
890.0, 0.035119166692516565
891.0, 0.030255370906532998
892.0, 0.02519790882163026
893.0, 0.018391221695413625
894.0, 0.015515032190789136
895.0, 0.01365000738677331
896.0, 0.009991980634016642
897.0, 0.005860553667004312
898.0, 0.0031678079973010034
899.0, 0.0008512192289044504
900.0, 0.0013425439222079492
901.0, 0.0022284002570840786
902.0, 0.004257605434172822
903.0, 0.006686248285263656
904.0, 0.008448145225754404
905.0, 0.009037252585598067
906.0, 0.008494160603775138
907.0, 0.0095084760486053
908.0, 0.00849050228173613
909.0, 0.008641951193368438
910.0, 0.008638410234597575
911.0, 0.008102710513993184
912.0, 0.006813942303500207
913.0, 0.004898726812992513
914.0, 0.003954025737460658
915.0, 0.004373361310315373
916.0, 0.0026844235091091975
917.0, 0.002538682827506984
918.0, 0.001105491699062649
919.0, 0.00024110971939496806
920.0, 0.0005407002625406141
921.0, 0.001027986522806384
922.0, 0.0016465913679651512
923.0, 0.003804127042898395
924.0, 0.004100252642757603
925.0, 0.006265509412423757
926.0, 0.008448006881220691
927.0, 0.010104987481790452
928.0, 0.010928404831611003
929.0, 0.010860397096451532
930.0, 0.012397280747913944
931.0, 0.013855020291656445
932.0, 0.014912326333318694
933.0, 0.016517502687363912
934.0, 0.018819284165150798
935.0, 0.01989530541997353
936.0, 0.019909727588263287
937.0, 0.02042134298982837
938.0, 0.020561741296233265
939.0, 0.02142282396487703
940.0, 0.022436584599133766
941.0, 0.021629149859047077
942.0, 0.02056797460396671
943.0, 0.01958104737281181
944.0, 0.019308975374430475
945.0, 0.01989748877760992
946.0, 0.019662707207881727
947.0, 0.020118491368189502
948.0, 0.0176717733807423
949.0, 0.016864289994313247
950.0, 0.01835929544269312
951.0, 0.01805690574618869
952.0, 0.01680086572529216
953.0, 0.01732492203313352
954.0, 0.01781412085103824
955.0, 0.016366905118743825
956.0, 0.015424117395312562
957.0, 0.016788200658908615
958.0, 0.01646655177308027
959.0, 0.01622568829457186
960.0, 0.015719971560538074
961.0, 0.014534376901457419
962.0, 0.014019122732173253
963.0, 0.012555577057068777
964.0, 0.010076910695931465
965.0, 0.009540105151679421
966.0, 0.007746181253885697
967.0, 0.007062038501024077
968.0, 0.006479035498714347
969.0, 0.005170834499298503
970.0, 0.003983363906135081
971.0, 0.002247986367628539
972.0, 0.0033542916440480407
973.0, 0.002031504590247436
974.0, 0.0020580120546603064
975.0, 0.002559008253102769
976.0, 0.0023817334630985496
977.0, 0.0020326382330760387
978.0, 0.0018567585544524941
979.0, 0.00197114609167916
980.0, 0.0029401651550453444
981.0, 0.0011554296808454127
982.0, 0.0012345653124100314
983.0, 0.0008710440188324131
984.0, 0.001398066567934262
985.0, 0.001396127272955855
986.0, 0.0016559960360048977
987.0, 0.003365513706529606
988.0, 0.0029724874322306642
989.0, 0.002733125017838463
990.0, 0.0014522821200271014
991.0, 0.0017976413742593253
992.0, 0.002433993431500841
993.0, 0.002230271320855902
994.0, 0.0015054454076018503
995.0, 0.0005621115644918761
996.0, 0.0001201742395293476
997.0, 0.0005854174962615177
998.0, 0.0014714049811827739
999.0, 0.0007601939881553008
1000.0, 0.0009616973068224888
1001.0, 0.002221807153055598
1002.0, 0.0034835600707465173
1003.0, 0.004201596624538633
1004.0, 0.004586881160916153
1005.0, 0.005275854517249556
1006.0, 0.006474768918234131
1007.0, 0.00658570674307172
1008.0, 0.008292932523575918
1009.0, 0.009092098331062984
1010.0, 0.010302927459515459
1011.0, 0.012637702124688618
1012.0, 0.014910291336816761
1013.0, 0.016093454514798974
1014.0, 0.016956559057512484
1015.0, 0.019197835803914272
1016.0, 0.02179767929031391
1017.0, 0.02201353996601992
1018.0, 0.024384472875277133
1019.0, 0.02691635399633157
1020.0, 0.029296811639363356
1021.0, 0.030508929074698526
1022.0, 0.03051237394257537
1023.0, 0.03138531366463591
1024.0, 0.03128523296383528
1025.0, 0.0339228655722889
1026.0, 0.03257323355719869
1027.0, 0.03361569811686183
1028.0, 0.034437197198399265
1029.0, 0.035345520303589534
1030.0, 0.035556925575846235
1031.0, 0.03338749141369551
1032.0, 0.03189373374087007
1033.0, 0.032734478513486535
1034.0, 0.03198157779338489
1035.0, 0.032288751577459286
1036.0, 0.02981815704376529
1037.0, 0.0282224559273003
1038.0, 0.027800606505033677
1039.0, 0.026758234369990506
1040.0, 0.02576543984696346
1041.0, 0.02583218806791915
1042.0, 0.024981908528931666
1043.0, 0.02468141092936994
1044.0, 0.02512797278537516
1045.0, 0.02598054450327631
1046.0, 0.02581041070916821
1047.0, 0.026480086805835724
1048.0, 0.027724335603665287
1049.0, 0.030398681749801756
1050.0, 0.03394965600544857
1051.0, 0.03566549803579894
1052.0, 0.042084744259099575
1053.0, 0.042037525496537866
1054.0, 0.03990012381931997
1055.0, 0.03306465085450578
1056.0, 0.029410502612553638
1057.0, 0.0265561191084119
1058.0, 0.022198713397274916
1059.0, 0.018215023447462488
1060.0, 0.014900244202721931
1061.0, 0.012987608396543336
1062.0, 0.013139672045805947
1063.0, 0.014386123542508055
1064.0, 0.012324334155108247
1065.0, 0.012725240929844254
1066.0, 0.011455684640622445
1067.0, 0.008914812126897757
1068.0, 0.007838408701897054
1069.0, 0.008706471399155424
1070.0, 0.009396166292696562
1071.0, 0.006715758642901767
1072.0, 0.005438921882236711
1073.0, 0.005315296862165266
1074.0, 0.004475372473415075
1075.0, 0.005028271764956398
1076.0, 0.004866050065462717
1077.0, 0.003243002533357656
1078.0, 0.0026900213649418974
1079.0, 0.003884965916454762
1080.0, 0.0036710116368179006
1081.0, 0.0024628181336278083
1082.0, 0.0017600526321072604
1083.0, 0.0021975530628068804
1084.0, 0.0024615336951069396
1085.0, 0.002367357298101121
1086.0, 0.0014576060069515114
1087.0, 0.0007747145982238957
1088.0, 0.0010681497284641028
1089.0, 0.0015080130167617503
1090.0, 0.00116176260008176
1091.0, 0.0002506693357560554
1092.0, 0.0018895822416416656
1093.0, 0.00033756319461956345
1094.0, 0.00024483453391292167
1095.0, 0.0004873203142067347
1096.0, 0.0015365989254414437
1097.0, 0.001633600299847768
1098.0, 0.001244136530263556
1099.0, 0.0015520926997463355
1100.0, 0.000956637762371933
1101.0, 0.0008593640210054836
1102.0, 0.00011114065358824541
1103.0, 0.000245097845107267
1104.0, 0.00034723705938419696
1105.0, 0.0002548967424940617
1106.0, 0.000321974712342779
1107.0, 0.0008179127623747402
1108.0, 0.0009218933931805364
1109.0, 0.00066407965849002
1110.0, 0.0006156280128098339
1111.0, 0.0017830659449090147
1112.0, 0.0009360739250344115
1113.0, 0.0004291432717672457
1114.0, 0.00024578210600994816
1115.0, 0.00020021303501287108
1116.0, 5.953250886792791e-05
1117.0, 0.0008522782049088264
1118.0, 0.0002719188095116432
1119.0, 0.0011249128964981347
1120.0, 0.0002119849658112365
1121.0, 0.00024464977696612804
1122.0, 0.0003339534902260979
1123.0, 0.0015593243133584687
1124.0, 0.0003397732863818261
1125.0, 0.0006454997762646645
1126.0, 0.0003208195913789529
1127.0, 0.00017112941344427134
1128.0, 0.0011012694040499157
1129.0, 0.0007922168216887178
1130.0, 0.000559349023649726
1131.0, 0.0020713622289348175
1132.0, 0.0004654716365499689
1133.0, 0.0012303899689164951
1134.0, 0.0022651097695521485
1135.0, 0.0016371527233908986
1136.0, 0.0008256009073928865
1137.0, 0.0011253001470848234
1138.0, 0.001781081661278389
1139.0, 0.0015235723433121736
1140.0, 0.0008522550270023727
1141.0, 0.001238704896214316
1142.0, 0.0020697254407788554
1143.0, 0.001400248670131486
1144.0, 0.0008036489780447544
1145.0, 0.0011980435461562936
1146.0, 3.667936247141721e-05
1147.0, 0.0026009822957147044
1148.0, 0.0025688123422298167
1149.0, 0.002158998084336007
1150.0, 0.002051010793525543
1151.0, 0.0010639976348262477
1152.0, 0.0009813830907931926
1153.0, 0.0018284390146233109
1154.0, 0.000882761626630401
1155.0, 0.0009694476795259273
1156.0, 0.0019161217064092774
1157.0, 0.0011144580251457327
1158.0, 0.0014933843562502228
1159.0, 0.0010193216381426768
1160.0, 0.0003390137875997772
1161.0, 0.0005345058742546076
1162.0, 0.0013540718753965728
1163.0, 0.0013786844219855824
1164.0, 0.0004316379256424003
1165.0, 0.00034073103322248096
1166.0, 0.0006533220370495234
1167.0, 0.0006100342500237722
1168.0, 0.002123395252818411
1169.0, 0.001791773244769448
1170.0, 0.0016432109836169917
1171.0, 0.0011868241400238497
1172.0, 0.0020293694501500015
1173.0, 0.0013841811647010668
1174.0, 0.0004582595254843093
1175.0, 0.001944526324614834
1176.0, 0.0013121519562622503
1177.0, 0.0015279910973541647
1178.0, 0.000480349976480287
1179.0, 0.001016220388918573
1180.0, 0.0005692922426745819
1181.0, 0.0010478505703182873
1182.0, 0.0009354948395242315
1183.0, 0.00019504383436461816
1184.0, 0.0006600258588527648
1185.0, 0.000989812467721701
1186.0, 0.0007663206882010077
1187.0, 0.0009431397872139536
1188.0, 0.0016744281768323757
1189.0, 0.00212873136384768
1190.0, 0.000496972299326325
1191.0, 0.0003824014134312627
1192.0, 0.0018049578752491698
1193.0, 0.0017502061963380667
1194.0, 0.0010372424851445056
1195.0, 0.0009571736592593726
1196.0, 0.0004627576532946182
1197.0, 0.0013134967092087327
1198.0, 0.0025185585761752297
1199.0, 0.0019243654759791388
1200.0, 0.0019945266715916403
1201.0, 0.0010468625432224414
1202.0, 0.0013835134460836967
1203.0, 0.0012833446273318478
1204.0, 0.0020306610369657005
1205.0, 0.0015708202901670886
1206.0, 0.0015935363377834798
1207.0, 0.0022266982656904597
1208.0, 0.002493812762821258
1209.0, 0.0010173163271417435
1210.0, 0.0005300052495690622
1211.0, 0.0017139737336350123
1212.0, 0.001240238195604923
1213.0, 0.0013698392957805024
1214.0, 0.003403483048384165
1215.0, 0.0023656154928555708
1216.0, 0.001753712832777418
1217.0, 0.002129360667613599
1218.0, 0.0019577075674571914
1219.0, 0.0009868806987930587
1220.0, 0.0020220138677715695
1221.0, 0.0018425344503431194
1222.0, 0.0016365059773896817
1223.0, 0.0026538132928015097
1224.0, 0.0020907559971755393
1225.0, 0.0018330358978981116
1226.0, 0.0017807277470609864
1227.0, 0.001132890440972035
1228.0, 0.0009918713316039672
1229.0, 0.0013572693453299152
1230.0, 0.001314358789631446
1231.0, 0.0020800937020836016
1232.0, 0.002460277998093819
1233.0, 0.0016314661778015068
1234.0, 0.0012812398071422413
1235.0, 0.0016531479618925229
1236.0, 0.001469412177572569
1237.0, 0.001540974484054436
1238.0, 0.002144954323779281
1239.0, 0.001394848984763712
1240.0, 0.0012487412265610963
1241.0, 0.00024350114286583795
1242.0, 0.0002727410172586787
1243.0, 0.0011725841147635313
1244.0, 0.0016274834556854283
1245.0, 0.0017245631800636941
1246.0, 0.0016493141618566423
1247.0, 0.0011587927363466463
1248.0, 0.00037473171919241667
1249.0, 0.0003050919425877338
1250.0, 0.0011065258765027006
1251.0, 0.0013930076384663097
1252.0, 0.0011570178637847893
1253.0, 0.0017975607907883718
1254.0, 0.0017085397812791302
1255.0, 0.0013601322144073424
1256.0, 0.0005130755873942917
1257.0, 0.0006365482024321223
1258.0, 0.0007097511689714703
1259.0, 0.0008071660281852426
1260.0, 0.0011550286666626537
1261.0, 0.0004952865465580176
1262.0, 0.0003621162591030607
1263.0, 0.0007967790534221454
1264.0, 0.0010752545843402714
1265.0, 0.0015411461672902894
1266.0, 0.0004315475039956295
1267.0, 0.0009408769508098985
1268.0, 0.0016072615663676067
1269.0, 0.0011475876343611526
1270.0, 0.0011526560326230472
1271.0, 0.001165369140151652
1272.0, 0.00048215388303095964
1273.0, 0.0001994666040271213
1274.0, 0.001572791423176335
1275.0, 0.0021583209630252707
1276.0, 0.000689746295542858
1277.0, 0.0006744749363065205
1278.0, 0.002057881904769574
1279.0, 0.0019333359148939464
1280.0, 0.00040418753010731094
1281.0, 0.0004952324651906039
1282.0, 0.0016058849251691194
1283.0, 0.0005382602854494228
1284.0, 0.0006699211358222767
1285.0, 0.00022206763402504644
1286.0, 0.0028569079048567005
1287.0, 0.0045390110476031245
1288.0, 0.003400335619218325
1289.0, 0.0016811611675467126
1290.0, 0.002391142825632545
1291.0, 0.0023185764144342635
1292.0, 0.0004943506121401118
1293.0, 0.00021075954551382252
1294.0, 0.0014195225149009907
1295.0, 0.0019793194375751872
1296.0, 0.00022640112251577692
1297.0, 0.0014087634519353847
1298.0, 0.0008209793754395051
1299.0, 0.0018103246725267863
1300.0, 0.0007652081734251061
1301.0, 6.493000498522365e-05
1302.0, 5.648839848200891e-05
1303, 0.0
1304, 0.0
1305, 0.0
1306, 0.0
1307, 0.0
1308, 0.0
1309, 0.0
1310, 0.0
1311, 0.0
1312, 0.0
1313, 0.0
1314, 0.0
1315, 0.0
1316, 0.0
1317, 0.0
1318, 0.0
1319, 0.0
1320, 0.0
1321, 0.0
1322, 0.0
1323, 0.0
1324, 0.0
1325, 0.0
1326, 0.0
1327, 0.0
1328, 0.0
1329, 0.0
1330, 0.0
1331, 0.0
1332, 0.0
1333, 0.0
1334, 0.0
1335, 0.0
1336, 0.0
1337, 0.0
1338, 0.0
1339, 0.0
1340, 0.0
1341, 0.0
1342, 0.0
1343, 0.0
1344, 0.0
1345, 0.0
1346, 0.0
1347, 0.0
1348, 0.0
1349, 0.0
1350, 0.0
1351, 0.0
1352, 0.0
1353, 0.0
1354, 0.0
1355, 0.0
1356, 0.0
1357, 0.0
1358, 0.0
1359, 0.0
1360, 0.0
1361, 0.0
1362, 0.0
1363, 0.0
1364, 0.0
1365, 0.0
1366, 0.0
1367, 0.0
1368, 0.0
1369, 0.0
1370, 0.0
1371, 0.0
1372, 0.0
1373, 0.0
1374, 0.0
1375, 0.0
1376, 0.0
1377, 0.0
1378, 0.0
1379, 0.0
1380, 0.0
1381, 0.0
1382, 0.0
1383, 0.0
1384, 0.0
1385, 0.0
1386, 0.0
1387, 0.0
1388, 0.0
1389, 0.0
1390, 0.0
1391, 0.0
1392, 0.0
1393, 0.0
1394, 0.0
1395, 0.0
1396, 0.0
1397, 0.0
1398, 0.0
1399, 0.0
1400, 0.0
1401, 0.0
1402, 0.0
1403, 0.0
1404, 0.0
1405, 0.0
1406, 0.0
1407, 0.0
1408, 0.0
1409, 0.0
1410, 0.0
1411, 0.0
1412, 0.0
1413, 0.0
1414, 0.0
1415, 0.0
1416, 0.0
1417, 0.0
1418, 0.0
1419, 0.0
1420, 0.0
1421, 0.0
1422, 0.0
1423, 0.0
1424, 0.0
1425, 0.0
1426, 0.0
1427, 0.0
1428, 0.0
1429, 0.0
1430, 0.0
1431, 0.0
1432, 0.0
1433, 0.0
1434, 0.0
1435, 0.0
1436, 0.0
1437, 0.0
1438, 0.0
1439, 0.0
1440, 0.0
1441, 0.0
1442, 0.0
1443, 0.0
1444, 0.0
1445, 0.0
1446, 0.0
1447, 0.0
1448, 0.0
1449, 0.0
1450, 0.0
1451, 0.0
1452, 0.0
1453, 0.0
1454, 0.0
1455, 0.0
1456, 0.0
1457, 0.0
1458, 0.0
1459, 0.0
1460, 0.0
1461, 0.0
1462, 0.0
1463, 0.0
1464, 0.0
1465, 0.0
1466, 0.0
1467, 0.0
1468, 0.0
1469, 0.0
1470, 0.0
1471, 0.0
1472, 0.0
1473, 0.0
1474, 0.0
1475, 0.0
1476, 0.0
1477, 0.0
1478, 0.0
1479, 0.0
1480, 0.0
1481, 0.0
1482, 0.0
1483, 0.0
1484, 0.0
1485, 0.0
1486, 0.0
1487, 0.0
1488, 0.0
1489, 0.0
1490, 0.0
1491, 0.0
1492, 0.0
1493, 0.0
1494, 0.0
1495, 0.0
1496, 0.0
1497, 0.0
1498, 0.0
1499, 0.0
1500, 0.0
1501, 0.0
1502, 0.0
1503, 0.0
1504, 0.0
1505, 0.0
1506, 0.0
1507, 0.0
1508, 0.0
1509, 0.0
1510, 0.0
1511, 0.0
1512, 0.0
1513, 0.0
1514, 0.0
1515, 0.0
1516, 0.0
1517, 0.0
1518, 0.0
1519, 0.0
1520, 0.0
1521, 0.0
1522, 0.0
1523, 0.0
1524, 0.0
1525, 0.0
1526, 0.0
1527, 0.0
1528, 0.0
1529, 0.0
1530, 0.0
1531, 0.0
1532, 0.0
1533, 0.0
1534, 0.0
1535, 0.0
1536, 0.0
1537, 0.0
1538, 0.0
1539, 0.0
1540, 0.0
1541, 0.0
1542, 0.0
1543, 0.0
1544, 0.0
1545, 0.0
1546, 0.0
1547, 0.0
1548, 0.0
1549, 0.0
1550, 0.0
1551, 0.0
1552, 0.0
1553, 0.0
1554, 0.0
1555, 0.0
1556, 0.0
1557, 0.0
1558, 0.0
1559, 0.0
1560, 0.0
1561, 0.0
1562, 0.0
1563, 0.0
1564, 0.0
1565, 0.0
1566, 0.0
1567, 0.0
1568, 0.0
1569, 0.0
1570, 0.0
1571, 0.0
1572, 0.0
1573, 0.0
1574, 0.0
1575, 0.0
1576, 0.0
1577, 0.0
1578, 0.0
1579, 0.0
1580, 0.0
1581, 0.0
1582, 0.0
1583, 0.0
1584, 0.0
1585, 0.0
1586, 0.0
1587, 0.0
1588, 0.0
1589, 0.0
1590, 0.0
1591, 0.0
1592, 0.0
1593, 0.0
1594, 0.0
1595, 0.0
1596, 0.0
1597, 0.0
1598, 0.0
1599, 0.0
