30, 0.0
31, 0.0
32, 0.0
33, 0.0
34, 0.0
35, 0.0
36, 0.0
37, 0.0
38, 0.0
39, 0.0
40, 0.0
41, 0.0
42, 0.0
43, 0.0
44, 0.0
45, 0.0
46, 0.0
47, 0.0
48, 0.0
49, 0.0
50, 0.0
51, 0.0
52, 0.0
53, 0.0
54, 0.0
55, 0.0
56, 0.0
57, 0.0
58, 0.0
59, 0.0
60, 0.0
61, 0.0
62, 0.0
63, 0.0
64, 0.0
65, 0.0
66, 0.0
67, 0.0
68, 0.0
69, 0.0
70, 0.0
71, 0.0
72, 0.0
73, 0.0
74, 0.0
75, 0.0
76, 0.0
77, 0.0
78, 0.0
79, 0.0
80, 0.0
81, 0.0
82, 0.0
83, 0.0
84, 0.0
85, 0.0
86, 0.0
87, 0.0
88, 0.0
89, 0.0
90, 0.0
91, 0.0
92, 0.0
93, 0.0
94, 0.0
95, 0.0
96, 0.0
97, 0.0
98, 0.0
99, 0.0
100, 0.0
101, 0.0
102, 0.0
103, 0.0
104, 0.0
105, 0.0
106, 0.0
107, 0.0
108, 0.0
109, 0.0
110, 0.0
111, 0.0
112, 0.0
113, 0.0
114, 0.0
115, 0.0
116, 0.0
117, 0.0
118, 0.0
119, 0.0
120, 0.0
121, 0.0
122, 0.0
123, 0.0
124, 0.0
125, 0.0
126, 0.0
127, 0.0
128, 0.0
129, 0.0
130, 0.0
131, 0.0
132, 0.0
133, 0.0
134, 0.0
135, 0.0
136, 0.0
137, 0.0
138, 0.0
139, 0.0
140, 0.0
141, 0.0
142, 0.0
143, 0.0
144, 0.0
145, 0.0
146, 0.0
147, 0.0
148, 0.0
149, 0.0
150, 0.0
151, 0.0
152.0, 0.0002007028150969015
153.0, 0.009021503949041046
154.0, 0.031542948395372854
155.0, 0.0449657136590087
156.0, 0.046829995693479454
157.0, 0.0652946333213027
158.0, 0.07917384776683914
159.0, 0.08424115128898216
160.0, 0.09015333602142907
161.0, 0.08570758377788514
162.0, 0.0941437948814554
163.0, 0.09574880919951755
164.0, 0.07591725486434296
165.0, 0.07186559825270555
166.0, 0.06762700344376905
167.0, 0.059778441597092065
168.0, 0.04725719435039983
169.0, 0.032786451284056065
170.0, 0.03250453413668331
171.0, 0.02579966669581045
172.0, 0.029193824077082275
173.0, 0.026592955199016034
174.0, 0.03135375823598938
175.0, 0.028024148333368904
176.0, 0.027098543704193324
177.0, 0.026454120312626797
178.0, 0.030787512605100084
179.0, 0.02983555324224444
180.0, 0.0312348912420692
181.0, 0.030224868803220263
182.0, 0.030591732673902233
183.0, 0.03731636259633103
184.0, 0.04921244893724759
185.0, 0.05829033817356203
186.0, 0.05978223549749564
187.0, 0.060650034556678556
188.0, 0.05507643253029561
189.0, 0.05650961970716587
190.0, 0.06833295745359927
191.0, 0.0639716517330126
192.0, 0.060013685565244494
193.0, 0.05969410891842117
194.0, 0.06129306635654801
195.0, 0.06314676254450367
196.0, 0.06508675247387442
197.0, 0.06595671613449881
198.0, 0.07091072292868526
199.0, 0.0815358422935747
200.0, 0.07546034301051836
201.0, 0.06292256656951487
202.0, 0.05358033089092551
203.0, 0.05032345189241167
204.0, 0.04580730717954746
205.0, 0.03189802782291827
206.0, 0.02093910745929867
207.0, 0.01606730367889647
208.0, 0.013682842112873567
209.0, 0.01860219239464858
210.0, 0.006949148193208737
211.0, 0.005436569575290714
212.0, 0.006896019911248892
213.0, 0.0075534736206426655
214.0, 0.014980907245737777
215.0, 0.01608328957190724
216.0, 0.015546011105207317
217.0, 0.01468049999254446
218.0, 0.009509449825591215
219.0, 0.005113698437512679
220.0, 0.0028327116499110524
221.0, 0.002751937544865188
222.0, 0.004308781586667457
223.0, 0.011072102935279701
224.0, 0.013472551637480581
225.0, 0.023816871082496
226.0, 0.03131712249715002
227.0, 0.028553941876839996
228.0, 0.04309271681368076
229.0, 0.05617070754204986
230.0, 0.056892141148328704
231.0, 0.06631863298349468
232.0, 0.07162617548197475
233.0, 0.07537115553413003
234.0, 0.08289928515960215
235.0, 0.09407994482285602
236.0, 0.0921275382928018
237.0, 0.09240606357796534
238.0, 0.09279808904762807
239.0, 0.09103823931591319
240.0, 0.09427685333887086
241.0, 0.09997337382286081
242.0, 0.10074073244087542
243.0, 0.09608344779097594
244.0, 0.09101640747024023
245.0, 0.09881654763662143
246.0, 0.10542867877321863
247.0, 0.10471583055275012
248.0, 0.09949599473088527
249.0, 0.10057576927134562
250.0, 0.10230646998766176
251.0, 0.09784931060480004
252.0, 0.09971317133659845
253.0, 0.11309539158100243
254.0, 0.11040490528757957
255.0, 0.11427161071985019
256.0, 0.1190956538210878
257.0, 0.1206573665434255
258.0, 0.12300695410599144
259.0, 0.12876417004023422
260.0, 0.14038126602139192
261.0, 0.1497376478529637
262.0, 0.15106654941795367
263.0, 0.14860731605724592
264.0, 0.14472387706452852
265.0, 0.14751002116487644
266.0, 0.15430655478935104
267.0, 0.15634459047348764
268.0, 0.14933190472937102
269.0, 0.15478109411169017
270.0, 0.16122279663254926
271.0, 0.15826545105305204
272.0, 0.15743013893492358
273.0, 0.1619353665520216
274.0, 0.15660071921176977
275.0, 0.15587876637438394
276.0, 0.15602674345902254
277.0, 0.1580846120522129
278.0, 0.15899826145260765
279.0, 0.1598532577990548
280.0, 0.1622888434950091
281.0, 0.16913209491824116
282.0, 0.16997377192032304
283.0, 0.17212161726777536
284.0, 0.17467547475769002
285.0, 0.18183999306940618
286.0, 0.18507894720058551
287.0, 0.1921527076679833
288.0, 0.1953432664519261
289.0, 0.1994308712550573
290.0, 0.19794108315058542
291.0, 0.1990511238930502
292.0, 0.19405730221071887
293.0, 0.18816848718281792
294.0, 0.1846774480464625
295.0, 0.18261349809454464
296.0, 0.1823840143794027
297.0, 0.18140765122084726
298.0, 0.17743676663715613
299.0, 0.17171709050149547
300.0, 0.1659372271554581
301.0, 0.14936795687480764
302.0, 0.14751325663185436
303.0, 0.1488678190134127
304.0, 0.14005215386086325
305.0, 0.12652306052640994
306.0, 0.13199538334903888
307.0, 0.12993902105325733
308.0, 0.12197629649292907
309.0, 0.11921714677883849
310.0, 0.11309699354906491
311.0, 0.1036817380312587
312.0, 0.09997797743943622
313.0, 0.09873449214967016
314.0, 0.09252580890755661
315.0, 0.09988236433316515
316.0, 0.0949872344483483
317.0, 0.08314975456769098
318.0, 0.07636010001977388
319.0, 0.07574239374826996
320.0, 0.07287847893499229
321.0, 0.06266205876853169
322.0, 0.05246166733425125
323.0, 0.04809164208804368
324.0, 0.046474667839659145
325.0, 0.030248186710041283
326.0, 0.02283502779204898
327.0, 0.019828627776969747
328.0, 0.013572125615705782
329.0, 0.010356973729695003
330.0, 0.006441514857194486
331.0, 0.006291859027813234
332.0, 0.005314052541193375
333.0, 0.0006366019433753383
334.0, 0.0017674198040366293
335.0, 0.001019158369415294
336.0, 0.005473602458933732
337.0, 0.006370284564801115
338.0, 0.0009318079706119161
339.0, 0.007524374216319005
340.0, 0.0026710125114221997
341.0, 0.0018038392295257088
342.0, 0.0010759493492751605
343.0, 0.000687270872142272
344.0, 0.005304106258178505
345.0, 0.0010727989913112393
346.0, 0.0031680252179577192
347.0, 0.0007983717283751084
348.0, 0.00280819732023309
349.0, 0.0026909063874362327
350.0, 0.005674742038513458
351.0, 0.004981520322473914
352.0, 0.008995752341916912
353.0, 0.008852341135732947
354.0, 0.008458202798993293
355.0, 0.010745318130542482
356.0, 0.00970146522264327
357.0, 0.007907676015162726
358.0, 0.011506627285992457
359.0, 0.011647041739853977
360.0, 0.014714460506643639
361.0, 0.02004514303608194
362.0, 0.02357745861429617
363.0, 0.023109955136611734
364.0, 0.03478752615551494
365.0, 0.048875789423297455
366.0, 0.051112475220742366
367.0, 0.04713704807644693
368.0, 0.05579737787408466
369.0, 0.06551970437815008
370.0, 0.07811198945761454
371.0, 0.08752094311109825
372.0, 0.095170097457602
373.0, 0.10822499959956783
374.0, 0.10938400946178156
375.0, 0.12596685828882617
376.0, 0.13790355310945265
377.0, 0.13961197232490125
378.0, 0.15846073272700467
379.0, 0.1728180072787159
380.0, 0.17955319730469485
381.0, 0.19006451327361165
382.0, 0.20670819714562852
383.0, 0.2168171381524332
384.0, 0.22871480072608916
385.0, 0.23665158113897342
386.0, 0.2465705214541759
387.0, 0.2547666323299417
388.0, 0.25345999810216086
389.0, 0.25902978493658685
390.0, 0.2627341025310409
391.0, 0.25681626011890624
392.0, 0.24257731010381992
393.0, 0.22699694446663124
394.0, 0.22208313171389144
395.0, 0.20170030837951358
396.0, 0.1808240700229481
397.0, 0.16607750419271375
398.0, 0.15278878654637795
399.0, 0.1356499631739101
400.0, 0.12594548419698243
401.0, 0.1112631305511515
402.0, 0.09452566983681507
403.0, 0.0852218264984819
404.0, 0.06935824844043098
405.0, 0.06524019643216449
406.0, 0.0490536164289509
407.0, 0.03383557450297495
408.0, 0.03530910716557718
409.0, 0.021340626327640826
410.0, 0.02063584707165673
411.0, 0.018657748043358575
412.0, 0.01401371775201724
413.0, 0.013015567948385341
414.0, 0.013549150937316968
415.0, 0.0020434264772568014
416.0, 0.009360935554870189
417.0, 0.007219522847161142
418.0, 0.0012605169100486555
419.0, 0.006240220869778279
420.0, 0.011771305314282252
421.0, 0.009382963914473672
422.0, 0.003936879402296797
423.0, 0.002135554661579225
424.0, 0.0020464033223229353
425.0, 0.004722100089870815
426.0, 0.0022046504675026102
427.0, 0.004195667897747706
428.0, 0.003452469610622768
429.0, 0.0019406262797975727
430.0, 0.006604708265246535
431.0, 0.01917930866592478
432.0, 0.011353220202431508
433.0, 0.004233063907297426
434.0, 0.013162904949488288
435.0, 0.017657606341027532
436.0, 0.02222509070896355
437.0, 0.026298314967248385
438.0, 0.028932820146752716
439.0, 0.03299853608873648
440.0, 0.0429791965449481
441.0, 0.052578352641665826
442.0, 0.053597096236862186
443.0, 0.06350566226429395
444.0, 0.07799924965534555
445.0, 0.07868834451128608
446.0, 0.09041670899884552
447.0, 0.09090684566046434
448.0, 0.09942959783782922
449.0, 0.10885135752925573
450.0, 0.11216055386237535
451.0, 0.134825297764968
452.0, 0.14034238637115912
453.0, 0.14880713617780514
454.0, 0.15719087458119285
455.0, 0.1617653145106357
456.0, 0.17395067962412375
457.0, 0.17878014741634463
458.0, 0.18813585007965866
459.0, 0.18931208192551163
460.0, 0.1864794786896401
461.0, 0.2005591862103235
462.0, 0.21014749758792312
463.0, 0.20638743364353163
464.0, 0.1989637984007922
465.0, 0.19767199104986852
466.0, 0.2032022464656573
467.0, 0.2071533941427105
468.0, 0.2005764915442966
469.0, 0.19853515616507555
470.0, 0.19503184534741985
471.0, 0.18991739947367
472.0, 0.1933335286139197
473.0, 0.17992329337356291
474.0, 0.1795009808252449
475.0, 0.17273305103823478
476.0, 0.1620371122829233
477.0, 0.15869570848973938
478.0, 0.13899147431718378
479.0, 0.138663782780945
480.0, 0.13288243380623777
481.0, 0.1204238356741671
482.0, 0.111561656815387
483.0, 0.10629220235706835
484.0, 0.1071120757333378
485.0, 0.09646649026214271
486.0, 0.10218997516891877
487.0, 0.11240756523219085
488.0, 0.10862311329905606
489.0, 0.10831895632790929
490.0, 0.11520687802820731
491.0, 0.13001402944000576
492.0, 0.1406548437197292
493.0, 0.1479236064664901
494.0, 0.16316976563113308
495.0, 0.17367542690884616
496.0, 0.1893620645146554
497.0, 0.20833476982399857
498.0, 0.22851534693837602
499.0, 0.24530125479515602
500.0, 0.25252488786394806
501.0, 0.2684867916053228
502.0, 0.2840386174982348
503.0, 0.2954794421054932
504.0, 0.31312270227970607
505.0, 0.34122596643289893
506.0, 0.3526770098082655
507.0, 0.36305810948106154
508.0, 0.3645169837807114
509.0, 0.3665923495099611
510.0, 0.37163654860497336
511.0, 0.36150956601726286
512.0, 0.35417809105376236
513.0, 0.32722566955384386
514.0, 0.3036836257027318
515.0, 0.28219234874786675
516.0, 0.25434815418731166
517.0, 0.23822591327300666
518.0, 0.21520725560064705
519.0, 0.1827367955482011
520.0, 0.16532709384404934
521.0, 0.1592332846818054
522.0, 0.13992624629685563
523.0, 0.11994381932422672
524.0, 0.10753827006462954
525.0, 0.09897649267763287
526.0, 0.09699670554130888
527.0, 0.09624146260785145
528.0, 0.08006879338538417
529.0, 0.07038792691512666
530.0, 0.06294803573128219
531.0, 0.06462897756353156
532.0, 0.06566531984681097
533.0, 0.05627704614281679
534.0, 0.046950229370464204
535.0, 0.044929967002318556
536.0, 0.03262380495552755
537.0, 0.027496551183871686
538.0, 0.030949220647143626
539.0, 0.028287591463167148
540.0, 0.0275354925537731
541.0, 0.018284854679484437
542.0, 0.011821594449970113
543.0, 0.011379772223078134
544.0, 0.01126789592837792
545.0, 0.007731145785891702
546.0, 0.010702613325436474
547.0, 0.012176559033828168
548.0, 0.00952349628207631
549.0, 0.004807331617267377
550.0, 0.0019107474941853252
551.0, 0.003803964969141035
552.0, 0.0018494045976892607
553.0, 0.0006713257408420738
554.0, 0.008427662812708658
555.0, 0.014955825905407023
556.0, 0.011611863327573276
557.0, 0.0024497906865707368
558.0, 0.0005010776146465589
559.0, 0.0008949559373213194
560.0, 0.003919655555263349
561.0, 0.008571350048715178
562.0, 0.0118977840549021
563.0, 0.010161678330531488
564.0, 0.01990460638194612
565.0, 0.0184230652744877
566.0, 0.02552236996424051
567.0, 0.03801804579860243
568.0, 0.04260040112090034
569.0, 0.04835197142149187
570.0, 0.054530735993752605
571.0, 0.06480337039939696
572.0, 0.07247719773126864
573.0, 0.0748263394354803
574.0, 0.08074919396568046
575.0, 0.09916033631357064
576.0, 0.10586671958759718
577.0, 0.11544469510548208
578.0, 0.1309465817770977
579.0, 0.14045039541998705
580.0, 0.14022686695507555
581.0, 0.15783094901608785
582.0, 0.17911953926337243
583.0, 0.18903306137065154
584.0, 0.18972160532641238
585.0, 0.1913083021955935
586.0, 0.1996633782508815
587.0, 0.20766524071063813
588.0, 0.2024685506799159
589.0, 0.19957612669917524
590.0, 0.20325045891410043
591.0, 0.19952004073451898
592.0, 0.1870628947764141
593.0, 0.19340276431935607
594.0, 0.194778722595903
595.0, 0.17820387172904156
596.0, 0.17237055833091197
597.0, 0.1687912542164502
598.0, 0.15510265223263273
599.0, 0.15334064140660636
600.0, 0.15958406521658472
601.0, 0.1396204245127566
602.0, 0.13563437841937376
603.0, 0.1401267725211488
604.0, 0.1353514581266376
605.0, 0.12644382009716962
606.0, 0.11807382439973338
607.0, 0.11566525260540168
608.0, 0.10735808627344776
609.0, 0.09460743281010059
610.0, 0.08920411700270646
611.0, 0.09585733777130896
612.0, 0.09229784188787149
613.0, 0.07381530191578486
614.0, 0.058945601041001654
615.0, 0.05931350748376672
616.0, 0.0589684948039104
617.0, 0.04773499192043503
618.0, 0.054662150609797615
619.0, 0.0456046370414507
620.0, 0.03809904114179888
621.0, 0.028677174739712562
622.0, 0.020624653434190076
623.0, 0.01935920993745936
624.0, 0.017173623835081878
625.0, 0.010246532458418233
626.0, 0.003070426522098303
627.0, 0.0028449116825331705
628.0, 0.003160595612380432
629.0, 0.0003627213644266285
630.0, 0.001916002185581193
631.0, 0.0008161325894746703
632.0, 0.002202404643122975
633.0, 0.0010230759947922948
634.0, 0.001694117990793133
635.0, 0.0002979520401757022
636.0, 0.0007608719619352313
637.0, 0.0015492883537742929
638.0, 0.004083516327454893
639.0, 0.0014163786181712905
640.0, 0.004210193702886807
641.0, 0.0026582280185065326
642.0, 0.0036696258488565377
643.0, 0.008226227428826612
644.0, 0.004941664730957031
645.0, 0.002923237474161654
646.0, 0.0006425523441359086
647.0, 0.0010832485374175501
648.0, 0.006570434432680489
649.0, 0.012193009050151239
650.0, 0.00599996828232003
651.0, 0.002602791227385615
652.0, 0.007550872713154942
653.0, 0.00823986368678972
654.0, 0.0031727618400717215
655.0, 0.000814671695090949
656.0, 0.006451650881360728
657.0, 0.008680940205707083
658.0, 0.007034593080899562
659.0, 0.00544234586713697
660.0, 0.003657030407740718
661.0, 0.0038713361892082796
662.0, 0.00637092018601956
663.0, 0.005446944730671185
664.0, 0.0038254054979741654
665.0, 0.00979828071592263
666.0, 0.005474570437945626
667.0, 0.00011210768906638508
668.0, 0.004091616571755964
669.0, 0.007873897107381489
670.0, 0.0009610672065639789
671.0, 0.005054709913925342
672.0, 0.006848262220847984
673.0, 0.004777225417148624
674.0, 0.006899866283584137
675.0, 0.004320378697712703
676.0, 0.006427308672667762
677.0, 0.010360853209656767
678.0, 0.0026118579877446044
679.0, 0.002719197585044992
680.0, 0.0014971639595182686
681.0, 0.004119558315641159
682.0, 0.01227905706705074
683.0, 0.011916888184134904
684.0, 0.0018960206803367446
685.0, 0.002338352632779093
686.0, 0.0011770296568542398
687.0, 0.0033319595880795406
688.0, 0.01035156322725142
689.0, 0.011322889978647532
690.0, 0.004592059199445618
691.0, 0.0031977092938252666
692.0, 0.008283192149222183
693.0, 0.008524040338647447
694.0, 0.0055512247318148765
695.0, 0.010269524783505794
696.0, 0.018301637136165966
697.0, 0.012435533728706583
698.0, 0.012748466410886616
699.0, 0.006801090325372484
700.0, 0.0011748417276225465
701.0, 0.0006310869462305898
702.0, 0.003754701098973496
703.0, 0.00705405404703229
704.0, 0.0023188570975826144
705.0, 0.011958224660311175
706.0, 0.012305996996690547
707.0, 0.008916095592789008
708.0, 0.007189911916738908
709.0, 0.008450824857598849
710.0, 0.016038442495725672
711.0, 0.01714480324913577
712.0, 0.013904412905881715
713.0, 0.012589999375786047
714.0, 0.011141291306280676
715.0, 0.010134587394390675
716.0, 0.00821600145451826
717.0, 0.0055246438042573206
718.0, 0.017842631772509953
719.0, 0.013171551980676837
720.0, 0.010367468426102327
721.0, 0.014123511054329397
722.0, 0.018381098471515197
723.0, 0.017676395228514878
724.0, 0.014316578151110045
725.0, 0.017931809068416456
726.0, 0.009061762670160128
727.0, 0.012122800817643024
728.0, 0.02161069706621812
729.0, 0.022803451198164962
730.0, 0.020714853402879062
731.0, 0.022055020431860025
732.0, 0.019165340580501695
733.0, 0.0168705235379886
734.0, 0.01447314999810917
735.0, 0.014137582865516607
736.0, 0.016943846562813798
737.0, 0.02064715206295257
738.0, 0.014441446446691103
739.0, 0.015719356066829813
740.0, 0.012795438299825152
741.0, 0.009083315939912497
742.0, 0.013901340780317715
743.0, 0.019004369293684206
744.0, 0.016079174348919187
745.0, 0.009568651237414273
746.0, 0.011410007677822288
747.0, 0.015230579230506204
748.0, 0.012438302395611611
749.0, 0.010445333077899245
750.0, 0.00887178381838889
751.0, 0.00990015337815794
752.0, 0.012701015121214864
753.0, 0.009185485194248045
754.0, 0.01488033483062608
755.0, 0.01414852157437808
756.0, 0.01285982743576692
757.0, 0.0067475075599875015
758.0, 0.005831782662608058
759.0, 0.007823050418796303
760.0, 0.0023506658711921957
761.0, 0.004885049521882814
762.0, 0.005156349564920179
763.0, 0.003845985993415742
764.0, 0.008857343724224307
765.0, 0.009702749918795012
766.0, 0.0069983913962037665
767.0, 0.010012321176376468
768.0, 0.012934830133968692
769.0, 0.0015549829499235917
770.0, 0.000464085143498567
771.0, 0.005465631956303777
772.0, 0.009086083529917917
773.0, 0.009103012537635742
774.0, 0.009631887484860725
775.0, 0.012181552966532894
776.0, 0.010349772825739236
777.0, 0.01128810838759358
778.0, 0.00829982243151542
779.0, 0.00381429474241843
780.0, 0.0034845467355785306
781.0, 0.0020113094687976164
782.0, 0.002038793721235071
783.0, 0.009361373103330893
784.0, 0.00833013310403582
785.0, 0.005238881322453371
786.0, 0.006489513836560467
787.0, 0.0037380949262106654
788.0, 0.0035378656256327135
789.0, 0.00911766164078072
790.0, 0.010956682286054908
791.0, 0.006364125911886346
792.0, 0.005655096995896375
793.0, 0.017140214682825883
794.0, 0.016267780436555704
795.0, 0.011573263832093544
796.0, 0.00656650855816386
797.0, 0.00362442380486507
798.0, 0.00554367216331019
799.0, 0.006351749022245842
800.0, 0.00986425620581626
801.0, 0.008202535424614346
802.0, 0.006730010739663861
803.0, 0.010362854721044375
804.0, 0.009960506865246334
805.0, 0.0028722295104922297
806.0, 0.003291358222714823
807.0, 0.01490343550992159
808.0, 0.010114923237832816
809.0, 0.00962141084835703
810.0, 0.006379982199429868
811.0, 0.00606868267703464
812.0, 0.009539148458360926
813.0, 0.010711615378708683
814.0, 0.008738555052151608
815.0, 0.009028444596686183
816.0, 0.018436833481504555
817.0, 0.017333872465119828
818.0, 0.01706160200751479
819.0, 0.013363152997860346
820.0, 0.014627291816888453
821.0, 0.02059035387316502
822.0, 0.014098506806539964
823.0, 0.012170327493757207
824.0, 0.018268621803894387
825.0, 0.01933769346915817
826.0, 0.016942318612312875
827.0, 0.013128651141225607
828.0, 0.013800168457030308
829.0, 0.016584808810865954
830.0, 0.016767903186419436
831.0, 0.02008587381736663
832.0, 0.02247148502431885
833.0, 0.010874755254726436
834.0, 0.010454467444513508
835.0, 0.015627402858378867
836.0, 0.020783976852909995
837.0, 0.02298762511472329
838.0, 0.02057262133900041
839.0, 0.01907368397244298
840.0, 0.019489589105370738
841.0, 0.01672406505117963
842.0, 0.018673523977529062
843.0, 0.020748937457138943
844.0, 0.019332749955055215
845.0, 0.01903856334242296
846.0, 0.01734171419286503
847.0, 0.00797138029414393
848.0, 0.01960534601561981
849.0, 0.018086082166857597
850.0, 0.017442328070409147
851.0, 0.016522970335353243
852.0, 0.017933858072800162
853.0, 0.020600071709563003
854.0, 0.019146549652984166
855.0, 0.01609120378616895
856.0, 0.022685270128663587
857.0, 0.01958214605062269
858.0, 0.01852059893991698
859.0, 0.019388173193426197
860.0, 0.01610154558766941
861.0, 0.014567775061685731
862.0, 0.01858325163641265
863.0, 0.016913610322095877
864.0, 0.007262632798217747
865.0, 0.024606323910731857
866.0, 0.014276679181789466
867.0, 0.017693399922174675
868.0, 0.01811230934602511
869.0, 0.013519606093796733
870.0, 0.020020487681147087
871.0, 0.019621989938680966
872.0, 0.006408658313804888
873.0, 0.01545380873416057
874.0, 0.01339108021667419
875.0, 0.0074560858523502116
876.0, 0.009050853808607692
877.0, 0.009624229109265232
878.0, 0.0026846090723271956
879.0, 0.002538917525764422
880.0, 0.0024311186216631484
881.0, 0.005536208259530592
882.0, 0.0024922173853541493
883.0, 0.00991229628386984
884.0, 0.005969939896423975
885.0, 0.0021035336871414656
886.0, 0.003744946101296303
887.0, 0.0014649306444397643
888.0, 0.0005584826088551854
889.0, 0.0048378709986135315
890.0, 0.000885513981147457
891.0, 0.005402513080234841
892.0, 0.0009132950708065593
893.0, 0.0006899089375280237
894.0, 0.0019024303721642813
895.0, 0.0012644116259872599
896.0, 0.0019790720230730688
897.0, 0.0029594172903086567
898.0, 0.0007394366727532414
899.0, 0.0016134678001634623
900.0, 0.0018792757898401476
901.0, 0.005423803349213679
902.0, 0.011043472077219205
903.0, 0.0014233675253803144
904.0, 0.0014107614717268886
905.0, 0.0030773650418445065
906.0, 0.003462079433620607
907.0, 0.00029525245885330266
908.0, 0.0044727289347592
909.0, 0.01080473659912322
910.0, 0.002033393297979294
911.0, 0.002560622209604341
912.0, 0.009547181911881196
913.0, 0.004030836945183145
914.0, 0.00595901155111787
915.0, 0.0017516433206456084
916.0, 0.006583394690198042
917.0, 0.004300245623437871
918.0, 0.0009541703785063867
919.0, 0.004404519417123358
920.0, 0.004042858520883264
921.0, 0.012085654600276618
922.0, 0.00899975558756461
923.0, 0.0067131167540393465
924.0, 0.010430104734061233
925.0, 0.010242262915031684
926.0, 0.006863024471412535
927.0, 0.010709157770157166
928.0, 0.01603186586464801
929.0, 0.009577116290831106
930.0, 0.012133428763116553
931.0, 0.014786148652742914
932.0, 0.01900599477904882
933.0, 0.02514894383242884
934.0, 0.02776014008102333
935.0, 0.023521816396068894
936.0, 0.02374710741892102
937.0, 0.030325391520493628
938.0, 0.02578154745191658
939.0, 0.02229724841221087
940.0, 0.024134246060159882
941.0, 0.0374910834898389
942.0, 0.0326999620492643
943.0, 0.030016814068444243
944.0, 0.04026338783775987
945.0, 0.05172635281479297
946.0, 0.0538385985136239
947.0, 0.05142161001864906
948.0, 0.055544464656848
949.0, 0.05374814812153075
950.0, 0.06469187736080549
951.0, 0.06986741106152596
952.0, 0.08251624599702582
953.0, 0.08393509126175255
954.0, 0.09008406076190122
955.0, 0.10266241870229381
956.0, 0.11342450828653193
957.0, 0.12519945905704796
958.0, 0.12420927602836238
959.0, 0.13388233367105082
960.0, 0.1481929695966853
961.0, 0.15990760891620937
962.0, 0.17205495530277695
963.0, 0.18395372825737005
964.0, 0.196606155703701
965.0, 0.21030789430324512
966.0, 0.2238715349715405
967.0, 0.23588638200203776
968.0, 0.24789014419382793
969.0, 0.26955278850727377
970.0, 0.2895658456167017
971.0, 0.31143300804018825
972.0, 0.31147828462551336
973.0, 0.32033794123455156
974.0, 0.3419840060405034
975.0, 0.35863373412588734
976.0, 0.361116418453616
977.0, 0.36418133536345876
978.0, 0.37532365502957454
979.0, 0.37392480223791474
980.0, 0.37653561422531007
981.0, 0.3609225005580713
982.0, 0.359362302999953
983.0, 0.3555350900648015
984.0, 0.3489860178198233
985.0, 0.3406128610947106
986.0, 0.33915713881764115
987.0, 0.3430629396365472
988.0, 0.3423061294607587
989.0, 0.35305442664385955
990.0, 0.373656283639017
991.0, 0.38031956420153595
992.0, 0.3950773068317755
993.0, 0.42330967177939893
994.0, 0.4551911147934434
995.0, 0.49708666105903737
996.0, 0.5343091030045536
997.0, 0.5745663548693435
998.0, 0.6182454679871294
999.0, 0.6540325356850994
1000.0, 0.6935052802943126
1001.0, 0.7454991037109332
1002.0, 0.7978975031415467
1003.0, 0.8237521731836995
1004.0, 0.8733892914349313
1005.0, 0.9167241589139162
1006.0, 0.9472390816468521
1007.0, 0.9835393047321204
1008.0, 0.9990422876265653
1009.0, 0.9951853609262661
1010.0, 0.9975078123769636
1011.0, 0.9929699487868122
1012.0, 0.9868835753762197
1013.0, 0.9803046085652919
1014.0, 0.9549706597139221
1015.0, 0.9321753366340622
1016.0, 0.8996403350698774
1017.0, 0.8635913972800777
1018.0, 0.8160014241343589
1019.0, 0.7609175057321376
1020.0, 0.7030951654905636
1021.0, 0.6288986007641437
1022.0, 0.5402624580292943
1023.0, 0.4634267586676827
1024.0, 0.392589308827661
1025.0, 0.34501684990282616
1026.0, 0.2880048875092438
1027.0, 0.24115646866854817
1028.0, 0.20291584303094976
1029.0, 0.1769036941438323
1030.0, 0.14965919715093892
1031.0, 0.12310754375647123
1032.0, 0.1059816933986805
1033.0, 0.08960957518105447
1034.0, 0.07458611919232754
1035.0, 0.06946942234484459
1036.0, 0.05313072872419473
1037.0, 0.03618872641449568
1038.0, 0.03994300253605983
1039.0, 0.036338099559690244
1040.0, 0.0318078426240183
1041.0, 0.018461803584186896
1042.0, 0.013011256314423932
1043.0, 0.01162235970300503
1044.0, 0.0083114001267255
1045.0, 0.007270887421032644
1046.0, 0.007129836812819811
1047.0, 0.005574797924790565
1048.0, 0.007961753586784207
1049.0, 0.0030064251802647745
1050.0, 0.007395680298525156
1051.0, 0.008700117852498926
1052.0, 0.006113321962711637
1053.0, 0.00926173544036792
1054.0, 0.009136893069683192
1055.0, 0.006864934493899984
1056.0, 0.00817542224490777
1057.0, 0.008764483443572602
1058.0, 0.005019677718251726
1059.0, 0.0034493889029667837
1060.0, 0.003754245549898096
1061.0, 0.0021108419679288742
1062.0, 0.01378999512207885
1063.0, 0.00587766186700328
1064.0, 0.01146285792730321
1065.0, 0.01865863806204132
1066.0, 0.03309489795664156
1067.0, 0.03819730544286194
1068.0, 0.039293627367883034
1069.0, 0.05014927125491691
1070.0, 0.06634058184563889
1071.0, 0.07482910114898562
1072.0, 0.07593678500648658
1073.0, 0.08747989291968382
1074.0, 0.09845370429001403
1075.0, 0.09896769018715207
1076.0, 0.10611756489597293
1077.0, 0.1267925886002316
1078.0, 0.12669985076653517
1079.0, 0.12559343642931362
1080.0, 0.11934651957652997
1081.0, 0.12330320514141722
1082.0, 0.13136542000804893
1083.0, 0.12931660829558977
1084.0, 0.12369672228514737
1085.0, 0.12270923968485543
1086.0, 0.1257893222036162
1087.0, 0.12127986892644434
1088.0, 0.12821084564969143
1089.0, 0.11514505126101983
1090.0, 0.10732184531964883
1091.0, 0.11151296963763484
1092.0, 0.11452006322696108
1093.0, 0.11103307510232485
1094.0, 0.09836908489055031
1095.0, 0.09268352773027802
1096.0, 0.09361846686627329
1097.0, 0.08907850386248944
1098.0, 0.07999983413278945
1099.0, 0.07630190567864832
1100.0, 0.07737670092523273
1101.0, 0.06336428140774558
1102.0, 0.058568158015804554
1103.0, 0.050746698932002794
1104.0, 0.045285751112439925
1105.0, 0.04955184421473866
1106.0, 0.03868568889215678
1107.0, 0.031827541153294336
1108.0, 0.02457334076666486
1109.0, 0.021407478085985546
1110.0, 0.022905980355062684
1111.0, 0.024537518045403564
1112.0, 0.022179363506319993
1113.0, 0.014129927793248936
1114.0, 0.013533863058436867
1115.0, 0.019040234447270685
1116.0, 0.01954118731408841
1117.0, 0.02805935335792764
1118.0, 0.00945203802558289
1119.0, 0.020275238015387616
1120.0, 0.018082260702014033
1121.0, 0.026633533604497224
1122.0, 0.03287705121708143
1123.0, 0.03387451962730472
1124.0, 0.04204772247478109
1125.0, 0.04949898046996626
1126.0, 0.05483548128054583
1127.0, 0.06251231321619635
1128.0, 0.06446505137150256
1129.0, 0.06907601468134562
1130.0, 0.08377069583434579
1131.0, 0.09268608914229119
1132.0, 0.09889227121382572
1133.0, 0.10742581422187025
1134.0, 0.10503470002989954
1135.0, 0.10812875460718516
1136.0, 0.11020034439703671
1137.0, 0.10952765283413846
1138.0, 0.11205565781777886
1139.0, 0.10893125883997253
1140.0, 0.10769496303012996
1141.0, 0.11073575115999629
1142.0, 0.10722460144090397
1143.0, 0.10662717793988329
1144.0, 0.11176227310893025
1145.0, 0.10769138890514122
1146.0, 0.1131329840639374
1147.0, 0.11195965546786793
1148.0, 0.11266613556252073
1149.0, 0.11101451470416229
1150.0, 0.10533657185255085
1151.0, 0.10498527124534518
1152.0, 0.09591834119464519
1153.0, 0.09477694570619431
1154.0, 0.08426290236510882
1155.0, 0.07489215643101998
1156.0, 0.07353749334498348
1157.0, 0.0631625624958637
1158.0, 0.052547425369138645
1159.0, 0.05278648974493852
1160.0, 0.04984577109297785
1161.0, 0.041821111539156894
1162.0, 0.03825282977179558
1163.0, 0.03339088035481652
1164.0, 0.026078235735752704
1165.0, 0.020371808149810645
1166.0, 0.014763805096516687
1167.0, 0.023712478847538212
1168.0, 0.012107125039936419
1169.0, 0.007363153611552559
1170.0, 0.007886662715363701
1171.0, 0.006166948698778474
1172.0, 0.0018060717284148387
1173.0, 0.004660158268921233
1174.0, 0.0033218677969019126
1175.0, 0.0008596238026612541
1176.0, 0.0049729217341417335
1177.0, 0.0028485625585821335
1178.0, 0.002293475833431358
1179.0, 0.003096838386993307
1180.0, 0.0012440275437295878
1181.0, 0.0008997458142178631
1182.0, 0.0035384809477949294
1183.0, 0.009339543647782014
1184.0, 0.0016404897996602165
1185.0, 0.007889118108447458
1186.0, 0.0008947742472791315
1187.0, 0.0005480332629406626
1188.0, 0.002152965153993627
1189.0, 0.0007789524060472208
1190.0, 0.0028879227934568074
1191.0, 0.003310603570289201
1192.0, 0.0012907125396437403
1193.0, 0.002837921373997754
1194.0, 0.0017526237782122776
1195.0, 0.001968038106511841
1196.0, 0.0015339357870773306
1197.0, 0.00327521991360467
1198.0, 0.010795364290041083
1199.0, 0.0035101303451008517
1200.0, 0.015433877341694161
1201.0, 0.00574634185919011
1202.0, 0.0014920232005486943
1203.0, 0.0032206256636679908
1204.0, 0.003682230115911321
1205.0, 0.00422241539105596
1206.0, 0.007469001715873032
1207.0, 0.006599411347240116
1208.0, 0.0063867602782545635
1209.0, 0.009060046861311212
1210.0, 0.008407144003489226
1211.0, 0.01189850496442823
1212.0, 0.014867723576718962
1213.0, 0.017384574074130243
1214.0, 0.013954271890147743
1215.0, 0.007895060263738665
1216.0, 0.006062715744406806
1217.0, 0.007672283544789357
1218.0, 0.016314874418240283
1219.0, 0.015363158974332767
1220.0, 0.014889102618803263
1221.0, 0.016683753414988626
1222.0, 0.01591092587250285
1223.0, 0.01934161937898682
1224.0, 0.01762673618986228
1225.0, 0.022302976614726047
1226.0, 0.02230258950631234
1227.0, 0.018687944268141868
1228.0, 0.021104030628325873
1229.0, 0.024528133127750564
1230.0, 0.020749354558884277
1231.0, 0.016947986925636288
1232.0, 0.017346257209005896
1233.0, 0.012860164851170579
1234.0, 0.009441339386160184
1235.0, 0.010983850818863428
1236.0, 0.00840766717174072
1237.0, 0.01182186636208471
1238.0, 0.01731777341256832
1239.0, 0.009591767668551727
1240.0, 0.004867993985148987
1241.0, 0.00030051937250010554
1242.0, 0.0038680850561174673
1243.0, 0.005120384979310078
1244.0, 0.001794650212350629
1245.0, 0.004484138186155749
1246.0, 0.00459698331599116
1247.0, 0.00343610649595719
1248.0, 0.0011852079673570328
1249.0, 0.005933025031243539
1250.0, 0.0023903900256306036
1251.0, 0.008379691496562272
1252.0, 0.005909089062052267
1253.0, 0.006064159273726439
1254.0, 0.008808034135337265
1255.0, 0.003980391992577185
1256.0, 0.004397087702326394
1257.0, 0.01226113752227048
1258.0, 0.011028051264683921
1259.0, 0.003257946608869536
1260.0, 0.003751113015640735
1261.0, 0.006037550353710141
1262.0, 0.010074015426013246
1263.0, 0.009606837498542947
1264.0, 0.0030393884411647433
1265.0, 0.0041880320948060185
1266.0, 0.006022186844223331
1267.0, 0.004871312228067335
1268.0, 0.0011080683917385624
1269.0, 0.007815801202543963
1270.0, 0.004449160060246701
1271.0, 0.0010139737193734038
1272.0, 0.0007924360342501424
1273.0, 0.005446087229905572
1274.0, 0.011659759173865794
1275.0, 0.012102402360041098
1276.0, 0.010880635035836446
1277.0, 0.0024972853422041397
1278.0, 0.008174640856911197
1279.0, 0.007548651600788113
1280.0, 0.004743682024457862
1281.0, 0.004091167097725027
1282.0, 0.004988737652979865
1283.0, 0.006056795854417503
1284.0, 0.0023461691809720207
1285.0, 0.000201805367757427
1286.0, 0.00022158300466981295
1287, 0.0
1288, 0.0
1289, 0.0
1290, 0.0
1291, 0.0
1292, 0.0
1293, 0.0
1294, 0.0
1295, 0.0
1296, 0.0
1297, 0.0
1298, 0.0
1299, 0.0
1300, 0.0
1301, 0.0
1302, 0.0
1303, 0.0
1304, 0.0
1305, 0.0
1306, 0.0
1307, 0.0
1308, 0.0
1309, 0.0
1310, 0.0
1311, 0.0
1312, 0.0
1313, 0.0
1314, 0.0
1315, 0.0
1316, 0.0
1317, 0.0
1318, 0.0
1319, 0.0
1320, 0.0
1321, 0.0
1322, 0.0
1323, 0.0
1324, 0.0
1325, 0.0
1326, 0.0
1327, 0.0
1328, 0.0
1329, 0.0
1330, 0.0
1331, 0.0
1332, 0.0
1333, 0.0
1334, 0.0
1335, 0.0
1336, 0.0
1337, 0.0
1338, 0.0
1339, 0.0
1340, 0.0
1341, 0.0
1342, 0.0
1343, 0.0
1344, 0.0
1345, 0.0
1346, 0.0
1347, 0.0
1348, 0.0
1349, 0.0
1350, 0.0
1351, 0.0
1352, 0.0
1353, 0.0
1354, 0.0
1355, 0.0
1356, 0.0
1357, 0.0
1358, 0.0
1359, 0.0
1360, 0.0
1361, 0.0
1362, 0.0
1363, 0.0
1364, 0.0
1365, 0.0
1366, 0.0
1367, 0.0
1368, 0.0
1369, 0.0
1370, 0.0
1371, 0.0
1372, 0.0
1373, 0.0
1374, 0.0
1375, 0.0
1376, 0.0
1377, 0.0
1378, 0.0
1379, 0.0
1380, 0.0
1381, 0.0
1382, 0.0
1383, 0.0
1384, 0.0
1385, 0.0
1386, 0.0
1387, 0.0
1388, 0.0
1389, 0.0
1390, 0.0
1391, 0.0
1392, 0.0
1393, 0.0
1394, 0.0
1395, 0.0
1396, 0.0
1397, 0.0
1398, 0.0
1399, 0.0
1400, 0.0
1401, 0.0
1402, 0.0
1403, 0.0
1404, 0.0
1405, 0.0
1406, 0.0
1407, 0.0
1408, 0.0
1409, 0.0
1410, 0.0
1411, 0.0
1412, 0.0
1413, 0.0
1414, 0.0
1415, 0.0
1416, 0.0
1417, 0.0
1418, 0.0
1419, 0.0
1420, 0.0
1421, 0.0
1422, 0.0
1423, 0.0
1424, 0.0
1425, 0.0
1426, 0.0
1427, 0.0
1428, 0.0
1429, 0.0
1430, 0.0
1431, 0.0
1432, 0.0
1433, 0.0
1434, 0.0
1435, 0.0
1436, 0.0
1437, 0.0
1438, 0.0
1439, 0.0
1440, 0.0
1441, 0.0
1442, 0.0
1443, 0.0
1444, 0.0
1445, 0.0
1446, 0.0
1447, 0.0
1448, 0.0
1449, 0.0
1450, 0.0
1451, 0.0
1452, 0.0
1453, 0.0
1454, 0.0
1455, 0.0
1456, 0.0
1457, 0.0
1458, 0.0
1459, 0.0
1460, 0.0
1461, 0.0
1462, 0.0
1463, 0.0
1464, 0.0
1465, 0.0
1466, 0.0
1467, 0.0
1468, 0.0
1469, 0.0
1470, 0.0
1471, 0.0
1472, 0.0
1473, 0.0
1474, 0.0
1475, 0.0
1476, 0.0
1477, 0.0
1478, 0.0
1479, 0.0
1480, 0.0
1481, 0.0
1482, 0.0
1483, 0.0
1484, 0.0
1485, 0.0
1486, 0.0
1487, 0.0
1488, 0.0
1489, 0.0
1490, 0.0
1491, 0.0
1492, 0.0
1493, 0.0
1494, 0.0
1495, 0.0
1496, 0.0
1497, 0.0
1498, 0.0
1499, 0.0
1500, 0.0
1501, 0.0
1502, 0.0
1503, 0.0
1504, 0.0
1505, 0.0
1506, 0.0
1507, 0.0
1508, 0.0
1509, 0.0
1510, 0.0
1511, 0.0
1512, 0.0
1513, 0.0
1514, 0.0
1515, 0.0
1516, 0.0
1517, 0.0
1518, 0.0
1519, 0.0
1520, 0.0
1521, 0.0
1522, 0.0
1523, 0.0
1524, 0.0
1525, 0.0
1526, 0.0
1527, 0.0
1528, 0.0
1529, 0.0
1530, 0.0
1531, 0.0
1532, 0.0
1533, 0.0
1534, 0.0
1535, 0.0
1536, 0.0
1537, 0.0
1538, 0.0
1539, 0.0
1540, 0.0
1541, 0.0
1542, 0.0
1543, 0.0
1544, 0.0
1545, 0.0
1546, 0.0
1547, 0.0
1548, 0.0
1549, 0.0
1550, 0.0
1551, 0.0
1552, 0.0
1553, 0.0
1554, 0.0
1555, 0.0
1556, 0.0
1557, 0.0
1558, 0.0
1559, 0.0
1560, 0.0
1561, 0.0
1562, 0.0
1563, 0.0
1564, 0.0
1565, 0.0
1566, 0.0
1567, 0.0
1568, 0.0
1569, 0.0
1570, 0.0
1571, 0.0
1572, 0.0
1573, 0.0
1574, 0.0
1575, 0.0
1576, 0.0
1577, 0.0
1578, 0.0
1579, 0.0
1580, 0.0
1581, 0.0
1582, 0.0
1583, 0.0
1584, 0.0
1585, 0.0
1586, 0.0
1587, 0.0
1588, 0.0
1589, 0.0
1590, 0.0
1591, 0.0
1592, 0.0
1593, 0.0
1594, 0.0
1595, 0.0
1596, 0.0
1597, 0.0
1598, 0.0
1599, 0.0
