30, 0.0
31, 0.0
32, 0.0
33, 0.0
34, 0.0
35, 0.0
36, 0.0
37, 0.0
38, 0.0
39, 0.0
40, 0.0
41, 0.0
42, 0.0
43, 0.0
44, 0.0
45, 0.0
46, 0.0
47, 0.0
48, 0.0
49, 0.0
50, 0.0
51, 0.0
52, 0.0
53, 0.0
54, 0.0
55, 0.0
56, 0.0
57, 0.0
58, 0.0
59, 0.0
60, 0.0
61, 0.0
62, 0.0
63, 0.0
64, 0.0
65, 0.0
66, 0.0
67, 0.0
68, 0.0
69, 0.0
70, 0.0
71, 0.0
72, 0.0
73, 0.0
74, 0.0
75, 0.0
76, 0.0
77, 0.0
78, 0.0
79, 0.0
80, 0.0
81, 0.0
82, 0.0
83, 0.0
84, 0.0
85, 0.0
86, 0.0
87, 0.0
88, 0.0
89, 0.0
90, 0.0
91, 0.0
92, 0.0
93, 0.0
94, 0.0
95, 0.0
96, 0.0
97, 0.0
98, 0.0
99, 0.0
100, 0.0
101, 0.0
102, 0.0
103, 0.0
104, 0.0
105, 0.0
106, 0.0
107, 0.0
108, 0.0
109, 0.0
110, 0.0
111, 0.0
112, 0.0
113, 0.0
114, 0.0
115, 0.0
116, 0.0
117, 0.0
118, 0.0
119, 0.0
120, 0.0
121, 0.0
122, 0.0
123, 0.0
124, 0.0
125, 0.0
126, 0.0
127, 0.0
128, 0.0
129, 0.0
130, 0.0
131, 0.0
132, 0.0
133, 0.0
134, 0.0
135, 0.0
136, 0.0
137, 0.0
138, 0.0
139, 0.0
140, 0.0
141, 0.0
142, 0.0
143, 0.0
144, 0.0
145, 0.0
146, 0.0
147, 0.0
148, 0.0
149, 0.0
150, 0.0
151, 0.0
152, 0.0
153, 0.0
154, 0.0
155, 0.0
156, 0.0
157, 0.0
158, 0.0
159, 0.0
160, 0.0
161, 0.0
162, 0.0
163, 0.0
164, 0.0
165, 0.0
166, 0.0
167, 0.0
168.0, 0.0006606773916478166
169.0, 0.000804336224402978
170.0, 0.00043046961460666174
171.0, 0.0024300488744613733
172.0, 0.003156971591904019
173.0, 0.002401974007889464
174.0, 0.003113618024014165
175.0, 0.005449648659025403
176.0, 0.006649652010657584
177.0, 0.0022411200827904387
178.0, 0.0029824739154381353
179.0, 0.0028648314943645137
180.0, 0.003608257205582761
181.0, 0.0077832932362056515
182.0, 0.0031282177466299237
183.0, 0.005780386876748776
184.0, 0.007549229624659114
185.0, 0.006988227530318446
186.0, 0.005594424651735734
187.0, 0.008488256078831661
188.0, 0.009378993542967111
189.0, 0.010721239116317949
190.0, 0.011040490759910256
191.0, 0.010558349768635327
192.0, 0.011129592667993996
193.0, 0.010399306715241521
194.0, 0.011069881079833444
195.0, 0.01155940656953488
196.0, 0.012420591103518414
197.0, 0.014192509393647296
198.0, 0.013079714397472778
199.0, 0.014617071188270374
200.0, 0.015555828479636404
201.0, 0.015040768863602012
202.0, 0.0136676118394999
203.0, 0.013848213997182588
204.0, 0.010335993141415962
205.0, 0.008980379359838728
206.0, 0.006084810907665865
207.0, 0.002811499284232233
208.0, 0.002991024639996456
209.0, 0.0005034489104737692
210.0, 0.0017406255114098047
211.0, 0.001379377178112869
212.0, 0.00028855126270464375
213.0, 0.0004012621344334801
214.0, 0.00171224846664447
215.0, 0.0004820147376714573
216.0, 0.0004934052273575373
217.0, 0.000808900447355755
218.0, 0.0012013504222355273
219.0, 0.0024119137846397346
220.0, 0.0022740735967053142
221.0, 0.0027238265891809652
222.0, 0.0037523150971098896
223.0, 0.00419544623732576
224.0, 0.0032967806910361116
225.0, 0.003536803467459014
226.0, 0.0016973510753449154
227.0, 0.0035147636723938257
228.0, 0.005024559155211987
229.0, 0.005012514249349862
230.0, 0.0070168637298040504
231.0, 0.005025976496656839
232.0, 0.00662487178482505
233.0, 0.0076373173487040745
234.0, 0.007050494928039648
235.0, 0.006108103971376335
236.0, 0.009039809105061825
237.0, 0.010253691360764376
238.0, 0.008556454434814502
239.0, 0.007119411691374021
240.0, 0.007516501948208522
241.0, 0.008200780542544696
242.0, 0.007905016890853744
243.0, 0.008350307384874252
244.0, 0.008038262362979788
245.0, 0.007262405959469169
246.0, 0.006917044247282558
247.0, 0.0067294129853818245
248.0, 0.007209296892101493
249.0, 0.00624241796831895
250.0, 0.005400092347322213
251.0, 0.005149612184663299
252.0, 0.004198410329651488
253.0, 0.007642468478793395
254.0, 0.006619131390105604
255.0, 0.00458401916627776
256.0, 0.003229272480726392
257.0, 0.004570579305739025
258.0, 0.01456629398076522
259.0, 0.019772513820577906
260.0, 0.01817120287952792
261.0, 0.012645979204025083
262.0, 0.00752142281575875
263.0, 0.007104250672820313
264.0, 0.008303089229144838
265.0, 0.011036947955394633
266.0, 0.012386830025126435
267.0, 0.01348942119413217
268.0, 0.015645577015170303
269.0, 0.017548362694443542
270.0, 0.01908237998650009
271.0, 0.019435085112852104
272.0, 0.0179172188035872
273.0, 0.01605065669523607
274.0, 0.015957219618071738
275.0, 0.013839500768243126
276.0, 0.014989064103534656
277.0, 0.014777509690292583
278.0, 0.014764837980643684
279.0, 0.015946268292174073
280.0, 0.016776242468957148
281.0, 0.017789483284448886
282.0, 0.020994568591944294
283.0, 0.02244175760482848
284.0, 0.02344134996595699
285.0, 0.0261366195378641
286.0, 0.027753895068706326
287.0, 0.028176125668562747
288.0, 0.03392025728699291
289.0, 0.03619293846027967
290.0, 0.03672344845828862
291.0, 0.043453056680585245
292.0, 0.03225651404966272
293.0, 0.029498633517857302
294.0, 0.02688411967400926
295.0, 0.02401747499682435
296.0, 0.02102265653388656
297.0, 0.01644151795129902
298.0, 0.01744822267246524
299.0, 0.01533845913590174
300.0, 0.014638027524205153
301.0, 0.015128582929727581
302.0, 0.015341732002048181
303.0, 0.016533456098002282
304.0, 0.017448151889256303
305.0, 0.018614761261795173
306.0, 0.020028121397350933
307.0, 0.02185750849250091
308.0, 0.02427826709557271
309.0, 0.02668596473707984
310.0, 0.02972868222105596
311.0, 0.03242290391179124
312.0, 0.03479990802374252
313.0, 0.03820105995392619
314.0, 0.04470900348338129
315.0, 0.048889412687653414
316.0, 0.0510172728620253
317.0, 0.05613677160598899
318.0, 0.06316703117045971
319.0, 0.06928761406314796
320.0, 0.0723194933615665
321.0, 0.08040260257752616
322.0, 0.08454533248737611
323.0, 0.08781475738062096
324.0, 0.087388524995471
325.0, 0.08013462796483051
326.0, 0.07057311065980677
327.0, 0.056735040222403194
328.0, 0.04352873183149762
329.0, 0.030746938068056166
330.0, 0.020256108862590164
331.0, 0.013890129165724453
332.0, 0.0057307778121926
333.0, 0.0074571476058978275
334.0, 0.005000468943393103
335.0, 0.001798273965050248
336.0, 0.0008332929533340052
337.0, 0.0018808283422359323
338.0, 0.0017814246299104085
339.0, 0.0007493064418487568
340.0, 0.00023435749261562706
341.0, 0.0011436711559677357
342.0, 0.002533250084400308
343.0, 0.001704527447132466
344.0, 0.0019245062751322333
345.0, 0.0008983361526672042
346.0, 0.0009328710837902757
347.0, 0.001382144630005084
348.0, 0.0013176380356873768
349.0, 0.0008604401064137361
350.0, 0.0002963144871646682
351.0, 9.754843762183114e-05
352.0, 6.864299123470664e-05
353.0, 0.0006497808585851485
354.0, 0.0016038067710578189
355.0, 0.0008993336379723726
356.0, 0.0012585791136224159
357.0, 0.0006671669340900897
358.0, 0.0003158282007577209
359.0, 0.0006759577696084926
360.0, 0.0015357329515460535
361.0, 0.0019693265738362346
362.0, 0.0028862464690672224
363.0, 0.002480320067190871
364.0, 0.0023813405526431995
365.0, 0.0021453065020055947
366.0, 0.0011901012268506618
367.0, 0.0020519586688216834
368.0, 0.0024053828817092726
369.0, 0.002682988431043247
370.0, 0.0025083007806538135
371.0, 0.003124738505201975
372.0, 0.00570923422118641
373.0, 0.008079173087234895
374.0, 0.006284906945789584
375.0, 0.008711435865427233
376.0, 0.011392677538765416
377.0, 0.013600417528012951
378.0, 0.016306459980708215
379.0, 0.016866611804830754
380.0, 0.02203653426818136
381.0, 0.02560643860726645
382.0, 0.029433857367778225
383.0, 0.034791377933576104
384.0, 0.04248688292548894
385.0, 0.05481808626340152
386.0, 0.06441311749725359
387.0, 0.07751717446007196
388.0, 0.09354968178440871
389.0, 0.11254041685294178
390.0, 0.13418881932440538
391.0, 0.15458746506060353
392.0, 0.1846384396922569
393.0, 0.2123233165739147
394.0, 0.24219500883531836
395.0, 0.2732785591138831
396.0, 0.30056316135259803
397.0, 0.31989983039242564
398.0, 0.32612780497639576
399.0, 0.3196831519222814
400.0, 0.3010460402502429
401.0, 0.27326263119420585
402.0, 0.2409218413148214
403.0, 0.20887452284095842
404.0, 0.18009565560906005
405.0, 0.1550631518286659
406.0, 0.13484387332699704
407.0, 0.11956370844221058
408.0, 0.10849864541003934
409.0, 0.10025165963127791
410.0, 0.09606305668432628
411.0, 0.09230452616466585
412.0, 0.08863496622650319
413.0, 0.08633988884995379
414.0, 0.08556499718123022
415.0, 0.08276012045078135
416.0, 0.07843560136877904
417.0, 0.07806068422897146
418.0, 0.07306344113476905
419.0, 0.0677709223146925
420.0, 0.06501847747726595
421.0, 0.057151582691941205
422.0, 0.049369467420123464
423.0, 0.045526815668660334
424.0, 0.04204222531395875
425.0, 0.03823716521377153
426.0, 0.03525185805402374
427.0, 0.03475749361985203
428.0, 0.03122204248780001
429.0, 0.030315302020510762
430.0, 0.030285329427538574
431.0, 0.030499965512920186
432.0, 0.031271297608598814
433.0, 0.03309834792764081
434.0, 0.03286638213483621
435.0, 0.034504045196172985
436.0, 0.03546331577397672
437.0, 0.03769858855739653
438.0, 0.04170579889934273
439.0, 0.046436886071783014
440.0, 0.051643947005891325
441.0, 0.052957431507703843
442.0, 0.05326373293680396
443.0, 0.05103153282459683
444.0, 0.04665067926958442
445.0, 0.04127047124566473
446.0, 0.034549781344157544
447.0, 0.030237502862728447
448.0, 0.024241519573791982
449.0, 0.01999625546921988
450.0, 0.01726632575278287
451.0, 0.014909544123891103
452.0, 0.012949629879130606
453.0, 0.009570184136817244
454.0, 0.011348793397462724
455.0, 0.010252974086188856
456.0, 0.009824319469175608
457.0, 0.010227723425156543
458.0, 0.006235827345966155
459.0, 0.005484770808371444
460.0, 0.009093487957108865
461.0, 0.008757205579333455
462.0, 0.007878593385746148
463.0, 0.00743638121814147
464.0, 0.005991787233677029
465.0, 0.004722701676588382
466.0, 0.004176514132424534
467.0, 0.0052046205107148125
468.0, 0.0067657901569919444
469.0, 0.006372124238317756
470.0, 0.00444088103368561
471.0, 0.007242515330246247
472.0, 0.00427302209301657
473.0, 0.005863820854429249
474.0, 0.0056013608387043045
475.0, 0.0057343602401307096
476.0, 0.00729419511431288
477.0, 0.007622763650175554
478.0, 0.008596982223641136
479.0, 0.010274574454742964
480.0, 0.008770891975473184
481.0, 0.007558899587000387
482.0, 0.00795579078291333
483.0, 0.009257257996721996
484.0, 0.01173733519325599
485.0, 0.007256264982772876
486.0, 0.007564396474532353
487.0, 0.008080736280318142
488.0, 0.007736787596086505
489.0, 0.006505563215889765
490.0, 0.004095557712107411
491.0, 0.007605261007811124
492.0, 0.0050342591482899785
493.0, 0.004690166939307572
494.0, 0.005913977675691588
495.0, 0.006355402377311202
496.0, 0.00473940482956238
497.0, 0.0032360504657573935
498.0, 0.006406359498550163
499.0, 0.006760358531782323
500.0, 0.005098606653466712
501.0, 0.005060115212719936
502.0, 0.0068688641082427174
503.0, 0.004061662654899265
504.0, 0.005244586650219026
505.0, 0.007535993571044108
506.0, 0.006185511409639166
507.0, 0.0042072679991451535
508.0, 0.004079207523356414
509.0, 0.005380360008158666
510.0, 0.005279592584821104
511.0, 0.006975732810972619
512.0, 0.006782172244281888
513.0, 0.006697871029275963
514.0, 0.0066354714689122705
515.0, 0.0067182286404403576
516.0, 0.00879848049980237
517.0, 0.008359085602588348
518.0, 0.010478454377221379
519.0, 0.008619615137853628
520.0, 0.008379559423798682
521.0, 0.009825007106225681
522.0, 0.009251098217922197
523.0, 0.012596814114517843
524.0, 0.009620594193980241
525.0, 0.009661078026381994
526.0, 0.009619138849840293
527.0, 0.008159447666829007
528.0, 0.006516727015993627
529.0, 0.007372486793073816
530.0, 0.007547113826454121
531.0, 0.004381784912934631
532.0, 0.0029123107201670727
533.0, 0.0024752063047522614
534.0, 0.0018948878076086413
535.0, 0.0014311311403478787
536.0, 0.0037754263636587144
537.0, 0.0006206450151218987
538.0, 0.0008498307386969199
539.0, 0.0018979155344405736
540.0, 0.0014505780998182675
541.0, 0.0012865814598391416
542.0, 0.004406006650974804
543.0, 0.0026367157077633128
544.0, 0.0018548505152589062
545.0, 0.003482582239498409
546.0, 0.0030093066401613833
547.0, 0.0016314346813395863
548.0, 0.0013840411688527457
549.0, 0.0013657423252241337
550.0, 0.0010668655233754603
551.0, 0.0011029403826342398
552.0, 0.002010097273187219
553.0, 0.0034642894538313602
554.0, 0.005733911629175295
555.0, 0.00839832251798542
556.0, 0.008960661140511871
557.0, 0.010764438629118208
558.0, 0.013621004953453416
559.0, 0.01794923598934882
560.0, 0.022900008180591166
561.0, 0.025424715509419594
562.0, 0.023813493085533113
563.0, 0.02492462924243477
564.0, 0.026594829162739662
565.0, 0.025366084081794363
566.0, 0.024731039618924016
567.0, 0.024639351298372456
568.0, 0.02414042312313231
569.0, 0.02348506824169828
570.0, 0.026143380610520274
571.0, 0.0287272533900148
572.0, 0.030880518497406955
573.0, 0.03190487748209361
574.0, 0.032145984962931015
575.0, 0.03297653982968339
576.0, 0.0354404119072722
577.0, 0.03421203107640136
578.0, 0.033579271412980546
579.0, 0.0331661490164817
580.0, 0.03156192950379567
581.0, 0.03068014990387764
582.0, 0.03129519192293242
583.0, 0.029919974326097
584.0, 0.02954223012743161
585.0, 0.025063308217894445
586.0, 0.027030876825571388
587.0, 0.02713561757775269
588.0, 0.02589076728182498
589.0, 0.026646553298444894
590.0, 0.02483391336645941
591.0, 0.02567652211723758
592.0, 0.025412776004465912
593.0, 0.026389136884448397
594.0, 0.027149028448650712
595.0, 0.026860817643456106
596.0, 0.025717111153244623
597.0, 0.024132369138557198
598.0, 0.023424529725212008
599.0, 0.021467092013294952
600.0, 0.02002073231326267
601.0, 0.019386811139767098
602.0, 0.01817456544373094
603.0, 0.016226098128853294
604.0, 0.01785249650416912
605.0, 0.019609061295690226
606.0, 0.016223679115198637
607.0, 0.014748214640821891
608.0, 0.012734314962483211
609.0, 0.010710600557264818
610.0, 0.011183781676712254
611.0, 0.012595260830082637
612.0, 0.012487882985130245
613.0, 0.01273634716476967
614.0, 0.012735005962542274
615.0, 0.011522617912386799
616.0, 0.01084956973207498
617.0, 0.011695641551936638
618.0, 0.009734831102283195
619.0, 0.010560744310983765
620.0, 0.008716082336495755
621.0, 0.007115889840035776
622.0, 0.0068057335567919255
623.0, 0.007859633123019169
624.0, 0.00889763624954729
625.0, 0.007241921381180966
626.0, 0.00684326494415089
627.0, 0.0060071609987956825
628.0, 0.0055524612783119575
629.0, 0.0050068514647199
630.0, 0.004023263174745225
631.0, 0.003049158634170569
632.0, 0.003235079291036392
633.0, 0.0034241921111380137
634.0, 0.003145994997185551
635.0, 0.0044948775665628075
636.0, 0.005335083131713626
637.0, 0.005127630330522551
638.0, 0.005435481056003973
639.0, 0.007989354463576293
640.0, 0.007691493054487216
641.0, 0.008279557444206827
642.0, 0.008935605360413086
643.0, 0.007441116758615536
644.0, 0.007374244266749877
645.0, 0.009464983917339369
646.0, 0.009283892272119319
647.0, 0.009825671708106085
648.0, 0.007367724663876847
649.0, 0.007511145256735051
650.0, 0.010044539977616325
651.0, 0.010497267205324165
652.0, 0.008934712238251425
653.0, 0.009857090220265851
654.0, 0.012782014344153648
655.0, 0.013460735650469633
656.0, 0.012347472979690712
657.0, 0.012503759285483773
658.0, 0.01233043719474261
659.0, 0.013579842093578067
660.0, 0.017912652184653738
661.0, 0.019895764017208266
662.0, 0.02208210187232827
663.0, 0.027567509456837464
664.0, 0.03285791437519425
665.0, 0.03792488875122938
666.0, 0.042392314487641705
667.0, 0.04706659600182861
668.0, 0.054766580711966356
669.0, 0.0655415899963293
670.0, 0.07526068287634605
671.0, 0.0890316881500414
672.0, 0.1051304910378155
673.0, 0.12445442283504228
674.0, 0.15097614193702
675.0, 0.1873378092462324
676.0, 0.22645939276509694
677.0, 0.2817665292780199
678.0, 0.3432453412847165
679.0, 0.414050430565341
680.0, 0.4999490664057611
681.0, 0.5963164738259721
682.0, 0.6947718458248555
683.0, 0.7964019526462863
684.0, 0.9014510821489391
685.0, 0.9734968655091968
686.0, 0.9965400443931434
687.0, 0.9662091715385256
688.0, 0.8863458570570102
689.0, 0.7716927700510385
690.0, 0.6444909953521191
691.0, 0.5186994280749191
692.0, 0.424061062032294
693.0, 0.3429700287930242
694.0, 0.28118316582445685
695.0, 0.23459447190377383
696.0, 0.19860555878204042
697.0, 0.17012836748138171
698.0, 0.14553407244510658
699.0, 0.1317885778404361
700.0, 0.11295899673806005
701.0, 0.10415462242058567
702.0, 0.09493877543019603
703.0, 0.08367111719006846
704.0, 0.07500194246090502
705.0, 0.07096386693427452
706.0, 0.06425438057225806
707.0, 0.059647102878204634
708.0, 0.055891463059036244
709.0, 0.05014344076318156
710.0, 0.046956342172849656
711.0, 0.04398492417880866
712.0, 0.03748076435413269
713.0, 0.03384701211551858
714.0, 0.03616649949437206
715.0, 0.029796046510891162
716.0, 0.028453794824793086
717.0, 0.02701299747125646
718.0, 0.0246565490664165
719.0, 0.02261278820458862
720.0, 0.021441347225060022
721.0, 0.021342940882686907
722.0, 0.01806980319517571
723.0, 0.018161559658239405
724.0, 0.016866145430590177
725.0, 0.015627127878935654
726.0, 0.015075293052426079
727.0, 0.013965535135647094
728.0, 0.011564697465815604
729.0, 0.013417017643871638
730.0, 0.010167600930918032
731.0, 0.010149825249616022
732.0, 0.009299670323343686
733.0, 0.010186050775715877
734.0, 0.011610135788721079
735.0, 0.010980108466731045
736.0, 0.010834762106024066
737.0, 0.00919341010152084
738.0, 0.008397450880676853
739.0, 0.01015056255161466
740.0, 0.009500600836261025
741.0, 0.009294064004879615
742.0, 0.008971247394393624
743.0, 0.006421916099896265
744.0, 0.009060476722456839
745.0, 0.00969027985710502
746.0, 0.011613306760346654
747.0, 0.012283550301956426
748.0, 0.012198017209366124
749.0, 0.011289491552341316
750.0, 0.010004592252809308
751.0, 0.009785975105622593
752.0, 0.01171622469956878
753.0, 0.012663113863401488
754.0, 0.012152206562114767
755.0, 0.013342381023038493
756.0, 0.014779524649505278
757.0, 0.015406221855448583
758.0, 0.015851225997280494
759.0, 0.01759067752145308
760.0, 0.020434362656102774
761.0, 0.019957334698182914
762.0, 0.02234034481685281
763.0, 0.022358235166415465
764.0, 0.02178110014703946
765.0, 0.02209916629061012
766.0, 0.022045588370405815
767.0, 0.01996726426122101
768.0, 0.02060231729673753
769.0, 0.018105589970055663
770.0, 0.01511621613718345
771.0, 0.013714641491572045
772.0, 0.013042129386708064
773.0, 0.012985818241819769
774.0, 0.012441355895265144
775.0, 0.00999674101294914
776.0, 0.010380824607532904
777.0, 0.0064516357435274
778.0, 0.006744084374816742
779.0, 0.00719925474230842
780.0, 0.00739659815255035
781.0, 0.007569105251023851
782.0, 0.006805468510937746
783.0, 0.004626440653408609
784.0, 0.005786060017091303
785.0, 0.0033626356945139066
786.0, 0.0028031194895093334
787.0, 0.004125435011181648
788.0, 0.0037885208900643474
789.0, 0.003935470308268117
790.0, 0.004636330300468591
791.0, 0.0030092101301451473
792.0, 0.004455215924469059
793.0, 0.002206785276243727
794.0, 0.0014661561087116637
795.0, 0.000831983561715015
796.0, 0.0017845526377138212
797.0, 0.0022985714717291103
798.0, 0.002261726358350073
799.0, 0.0033153023805790388
800.0, 0.0030153430297202902
801.0, 0.005539657055169518
802.0, 0.001560681473994989
803.0, 0.0004078504658878882
804.0, 0.0011252962733959999
805.0, 0.0014918424920254993
806.0, 0.0014911343635922345
807.0, 0.0018562957312947064
808.0, 0.001301407286303552
809.0, 0.0013437295662113438
810.0, 0.0022017920031445755
811.0, 0.0012070184010213795
812.0, 0.00044748114497367955
813.0, 0.0002593235198865117
814.0, 0.0008752433619514671
815.0, 0.0015900295279318852
816.0, 0.0007618183887629678
817.0, 0.0003338380839937283
818.0, 0.00031451820943816675
819.0, 0.0008344079158910076
820.0, 0.0009454482761645424
821.0, 0.0006843164611989041
822.0, 0.0005514539775740982
823.0, 0.0004709450500603681
824.0, 7.84163941344126e-05
825.0, 0.00030370577848693164
826.0, 0.0006151638007373806
827.0, 0.00019829292057536984
828.0, 0.0006289929847027118
829.0, 0.0006782708234443142
830.0, 0.0003811985598270735
831.0, 0.0004693287901534213
832.0, 0.0009517434949533436
833.0, 0.0007286636815464338
834.0, 0.0005165312213326774
835.0, 0.00035779326121776164
836.0, 0.0015714900147957005
837.0, 0.0022447275734872396
838.0, 0.0013142625968173476
839.0, 0.0006096801893942784
840.0, 0.0013904040141505432
841.0, 0.0022003908238715213
842.0, 0.001842706073417479
843.0, 0.0018985734249568971
844.0, 0.0037727287941949354
845.0, 0.002098802282621896
846.0, 0.0037191682004109185
847.0, 0.0034489002363419915
848.0, 0.0011037615969982696
849.0, 0.0017152500492320665
850.0, 0.0034559729509315
851.0, 0.00027574299713441436
852.0, 0.004884889929588208
853.0, 0.00258158618917736
854.0, 0.004058713205020567
855.0, 0.0032957455173595347
856.0, 0.0024516473372995385
857.0, 0.004197934395604396
858.0, 0.004740854435898042
859.0, 0.0014312167772841987
860.0, 0.0016284956198502785
861.0, 0.001729677245703427
862.0, 0.001378091152852186
863.0, 0.0025596660831681676
864.0, 0.0025126606221120137
865.0, 0.0010406903110660797
866.0, 0.0004164973715652321
867.0, 0.001657474021283818
868.0, 0.003039750924889512
869.0, 0.000404716196936655
870.0, 5.440138546862478e-05
871.0, 0.0012478490309863464
872.0, 0.0009051559346800176
873.0, 0.0009353980595384194
874.0, 0.0011919559291052359
875.0, 0.0007058560360782304
876.0, 0.0014124212310379152
877.0, 0.0008521650198005078
878.0, 0.0012078826765535926
879.0, 0.0026713973898926085
880.0, 0.0019481211659711337
881.0, 0.001017452392760116
882.0, 0.0013078200605430256
883.0, 0.0015037348670386558
884.0, 0.0010275054674349342
885.0, 0.002815195206492845
886.0, 0.003429132137227674
887.0, 0.0013347823689204498
888.0, 0.0013394037704923519
889.0, 0.003068685203587759
890.0, 0.004218099796335116
891.0, 0.0046282794727917674
892.0, 0.005215748725705365
893.0, 0.0058831047294493465
894.0, 0.005455974344728805
895.0, 0.005910001091233036
896.0, 0.005225797214463378
897.0, 0.005550676773674725
898.0, 0.006744438466717762
899.0, 0.009418972275959456
900.0, 0.010473603512622725
901.0, 0.010292612615550903
902.0, 0.012042901701338015
903.0, 0.014067514736404996
904.0, 0.01416452721820162
905.0, 0.01366247724173607
906.0, 0.015176250537654513
907.0, 0.015264543167858042
908.0, 0.015968476477089977
909.0, 0.01705239001632902
910.0, 0.017557830806224476
911.0, 0.017658200174471225
912.0, 0.017632431829730538
913.0, 0.015354813667606552
914.0, 0.014752189237162023
915.0, 0.015023005966233448
916.0, 0.014635302296398433
917.0, 0.01624538228742371
918.0, 0.016653276901100182
919.0, 0.01636823956476968
920.0, 0.017622632980221088
921.0, 0.017223379391028963
922.0, 0.013694101507751686
923.0, 0.013031772841092477
924.0, 0.012107322394476977
925.0, 0.01039679640255209
926.0, 0.009761943732997904
927.0, 0.00915893576329091
928.0, 0.009084316758357797
929.0, 0.009724847271739919
930.0, 0.00941135503788316
931.0, 0.009329499582963401
932.0, 0.009861609199033089
933.0, 0.0076467791918084045
934.0, 0.008926522535878391
935.0, 0.00525192432987612
936.0, 0.003404363472817633
937.0, 0.004396277165742219
938.0, 0.004673093429939034
939.0, 0.003934177316501201
940.0, 0.005080554242194401
941.0, 0.005427017498069558
942.0, 0.00515153199946455
943.0, 0.0012524196056859702
944.0, 0.0009726991234512234
945.0, 0.0012359082699136112
946.0, 0.001451501608498144
947.0, 0.0018156358782230155
948.0, 0.0018119997969382733
949.0, 0.0012247455040189184
950.0, 0.0003213253453147778
951.0, 0.00055416567981949
952.0, 0.0012689086108050327
953.0, 0.00151223196060519
954.0, 0.0016594125521112097
955.0, 0.0010473025951680387
956.0, 0.00031099481183613747
957.0, 0.0003964885980828018
958.0, 0.001247598337026309
959.0, 0.0019477660783482832
960.0, 0.0004171601013661239
961.0, 0.0018127006823638223
962.0, 0.0014799884679845912
963.0, 0.00043910328384520796
964.0, 3.616140092944617e-05
965.0, 0.0004594025466293907
966.0, 0.0017357407252057435
967.0, 0.0026289976341010548
968.0, 0.0019312710295431555
969.0, 0.0029343822212229633
970.0, 0.00017099810937373414
971.0, 0.0009454400844983757
972.0, 0.004078477984812442
973.0, 0.003290973286962776
974.0, 0.0022744200321136677
975.0, 0.0023256176118167165
976.0, 0.0023618029118041796
977.0, 0.002168388882060433
978.0, 0.0030425503024214037
979.0, 0.005505256144594402
980.0, 0.008025228037515417
981.0, 0.010215055660678467
982.0, 0.008156255189238288
983.0, 0.009621493896502919
984.0, 0.010209598803357114
985.0, 0.009748729646877154
986.0, 0.011750803482437332
987.0, 0.0158271640642292
988.0, 0.017921827195795267
989.0, 0.02265364629306614
990.0, 0.022245220317752216
991.0, 0.029157015944170753
992.0, 0.03123003722850072
993.0, 0.03363684922112985
994.0, 0.03820475285878554
995.0, 0.04405643067633113
996.0, 0.04964298381687817
997.0, 0.053378841741668175
998.0, 0.054770784567162334
999.0, 0.0580368003706465
1000.0, 0.05954011600159379
1001.0, 0.06318811574616871
1002.0, 0.06166192703322919
1003.0, 0.06267306190259857
1004.0, 0.06051362251289186
1005.0, 0.0588634742790268
1006.0, 0.057797225690425294
1007.0, 0.05362293607321271
1008.0, 0.0523972185763979
1009.0, 0.051716906629907265
1010.0, 0.048270268864791174
1011.0, 0.0458406327497264
1012.0, 0.042943346772521346
1013.0, 0.04141546934275678
1014.0, 0.03940725757046536
1015.0, 0.03686890116642062
1016.0, 0.03519504208620725
1017.0, 0.03359443016614844
1018.0, 0.030096702772251932
1019.0, 0.028924488907752576
1020.0, 0.028218287883947854
1021.0, 0.023172310292509372
1022.0, 0.024316445749928143
1023.0, 0.023824919427372578
1024.0, 0.021982521171136225
1025.0, 0.020095656197067113
1026.0, 0.019036271358727944
1027.0, 0.018491511050572576
1028.0, 0.016910227209305653
1029.0, 0.014313915449210091
1030.0, 0.016925874678827786
1031.0, 0.014577509639710254
1032.0, 0.015534266451160399
1033.0, 0.013650801751007472
1034.0, 0.011789246717850537
1035.0, 0.01173139264521003
1036.0, 0.012144506901477569
1037.0, 0.01153347520295844
1038.0, 0.010543606997609246
1039.0, 0.010344823999739142
1040.0, 0.009338070493050778
1041.0, 0.009655387092835106
1042.0, 0.01060590426682263
1043.0, 0.01084442257261217
1044.0, 0.011729318775842634
1045.0, 0.012911052217633908
1046.0, 0.01420093776237419
1047.0, 0.01632613332114508
1048.0, 0.019055685784597
1049.0, 0.020408262916098947
1050.0, 0.019667211810383597
1051.0, 0.01995770602162572
1052.0, 0.02460301555241992
1053.0, 0.029821153693406523
1054.0, 0.03289502009920554
1055.0, 0.04048929462880659
1056.0, 0.04552264569438075
1057.0, 0.05088610857143698
1058.0, 0.058006799101162194
1059.0, 0.06550642067076183
1060.0, 0.07717752556785877
1061.0, 0.08851677674907862
1062.0, 0.09755363597995984
1063.0, 0.10860180267313821
1064.0, 0.11607435324987489
1065.0, 0.12159328592593413
1066.0, 0.1267414891184159
1067.0, 0.12985254222330664
1068.0, 0.13201488447845908
1069.0, 0.13103061311302547
1070.0, 0.12548122397092518
1071.0, 0.12183580259660452
1072.0, 0.11838974489181957
1073.0, 0.1118948864325032
1074.0, 0.11401279084407194
1075.0, 0.10212916313560629
1076.0, 0.09083973746395073
1077.0, 0.08546669408102217
1078.0, 0.08140207702292432
1079.0, 0.07590652382874287
1080.0, 0.06862994630041788
1081.0, 0.06096040368926261
1082.0, 0.05707838859191083
1083.0, 0.05690625228329282
1084.0, 0.05061016634121464
1085.0, 0.04903018707491526
1086.0, 0.04542541031977186
1087.0, 0.04231017963426072
1088.0, 0.0401357290633477
1089.0, 0.0387447315910307
1090.0, 0.03628423531580323
1091.0, 0.03514059936186251
1092.0, 0.03528107963208612
1093.0, 0.031030900654136905
1094.0, 0.0297129564831914
1095.0, 0.028055428663888545
1096.0, 0.021973247200008875
1097.0, 0.0223779698153544
1098.0, 0.024820930932555194
1099.0, 0.02440692202835695
1100.0, 0.022528343292890406
1101.0, 0.02014670029575616
1102.0, 0.01848032274471595
1103.0, 0.017770001584502523
1104.0, 0.016895482166025926
1105.0, 0.01698315003162021
1106.0, 0.01644294384322523
1107.0, 0.01631868489750934
1108.0, 0.01721666532630729
1109.0, 0.017512666677055005
1110.0, 0.016719780747285442
1111.0, 0.016845557860570976
1112.0, 0.016987591434190593
1113.0, 0.01581200762968321
1114.0, 0.014850810183460648
1115.0, 0.015775209553575788
1116.0, 0.0159000119124768
1117.0, 0.013017308783354978
1118.0, 0.016487316032228142
1119.0, 0.014848252695142918
1120.0, 0.015159623947192065
1121.0, 0.01651031990110607
1122.0, 0.018194490871201147
1123.0, 0.019320616072609556
1124.0, 0.02056206156469582
1125.0, 0.019900273494127516
1126.0, 0.01809395835486938
1127.0, 0.01884609918286932
1128.0, 0.01954602268682076
1129.0, 0.022298172191196685
1130.0, 0.02250680461070085
1131.0, 0.022521336601922164
1132.0, 0.021412943364691066
1133.0, 0.020491108340258617
1134.0, 0.01958411028450068
1135.0, 0.017020800459059255
1136.0, 0.013984237745450257
1137.0, 0.012694636369694708
1138.0, 0.012173702598696821
1139.0, 0.010395786753735918
1140.0, 0.009428450067942419
1141.0, 0.007369191777170291
1142.0, 0.008227738370354046
1143.0, 0.007161282451356161
1144.0, 0.006606736841144328
1145.0, 0.006049294066154465
1146.0, 0.0040214042204973054
1147.0, 0.005457735008028988
1148.0, 0.004771033243696039
1149.0, 0.0030477597589651084
1150.0, 0.0038483833992921414
1151.0, 0.002433796079123649
1152.0, 0.0012626556673661922
1153.0, 0.0022493053376966554
1154.0, 0.0010114786039548947
1155.0, 0.001723181646963218
1156.0, 0.0016609904149233353
1157.0, 0.000558192072857857
1158.0, 0.0010007403079065425
1159.0, 0.0008862158477593397
1160.0, 0.00036650606430944026
1161.0, 0.00038246146333696267
1162.0, 0.0007682674761194737
1163.0, 0.0008237090138389144
1164.0, 0.00033266324806689794
1165.0, 0.000856977436206872
1166.0, 0.0007181739855122002
1167.0, 0.001460836401543895
1168.0, 0.001205754956241494
1169.0, 0.0009909627197779644
1170.0, 0.0006972682379909367
1171.0, 0.0027804585636879153
1172.0, 0.005735390524627499
1173.0, 0.006138806042912992
1174.0, 0.005244870210728485
1175.0, 0.005051894530669824
1176.0, 0.004782020575344188
1177.0, 0.008329562576479838
1178.0, 0.009192874400654001
1179.0, 0.009724450519597468
1180.0, 0.00628570067676431
1181.0, 0.008033638232021918
1182.0, 0.007894586813220746
1183.0, 0.009158993499477356
1184.0, 0.010289714453430705
1185.0, 0.008648369706542652
1186.0, 0.007888072480745115
1187.0, 0.010362930669848804
1188.0, 0.01134609117801411
1189.0, 0.009040301463920533
1190.0, 0.009836759739760066
1191.0, 0.007308547225899937
1192.0, 0.010362180088661738
1193.0, 0.00871339506255521
1194.0, 0.009014146675634367
1195.0, 0.007769160785879861
1196.0, 0.009868867402395889
1197.0, 0.010483009559166935
1198.0, 0.0118768495266104
1199.0, 0.01179132423446948
1200.0, 0.009600941317423601
1201.0, 0.010531381726122824
1202.0, 0.012126013717369958
1203.0, 0.013731783925616125
1204.0, 0.012781843974959762
1205.0, 0.01370904483783213
1206.0, 0.013331286066535945
1207.0, 0.01700490089862594
1208.0, 0.018294641346942267
1209.0, 0.018073071423116063
1210.0, 0.019750562293303305
1211.0, 0.019998388256796326
1212.0, 0.021111810170817927
1213.0, 0.023968415298995845
1214.0, 0.02442426506586935
1215.0, 0.023690397703874107
1216.0, 0.023096640395934075
1217.0, 0.028399471489534693
1218.0, 0.0316154843534959
1219.0, 0.030182445858793105
1220.0, 0.031501762704279
1221.0, 0.03292365109309708
1222.0, 0.036611520946527025
1223.0, 0.03622758618435696
1224.0, 0.035409602488525586
1225.0, 0.034641983134529604
1226.0, 0.033820912998041304
1227.0, 0.0337222127183219
1228.0, 0.03313917556251089
1229.0, 0.03315765706400843
1230.0, 0.03015519726309136
1231.0, 0.02907888520760423
1232.0, 0.02671738994673485
1233.0, 0.02372883890224752
1234.0, 0.02418776482308054
1235.0, 0.021066993374350078
1236.0, 0.018973154205540094
1237.0, 0.0168169892784168
1238.0, 0.01555375493986263
1239.0, 0.016878589747949934
1240.0, 0.016064241961872422
1241.0, 0.013210918866506082
1242.0, 0.013806596122274263
1243.0, 0.008777518043536062
1244.0, 0.009685986985063191
1245.0, 0.010438405783947275
1246.0, 0.009486872358299942
1247.0, 0.008635607877681431
1248.0, 0.008049567470952639
1249.0, 0.008312369554884132
1250.0, 0.007203546186162891
1251.0, 0.006933316363319606
1252.0, 0.007279719435346318
1253.0, 0.006744394166001089
1254.0, 0.005937645021395978
1255.0, 0.005380459987106018
1256.0, 0.0043540805035453415
1257.0, 0.004220317850344199
1258.0, 0.004288332921383415
1259.0, 0.004778571263881554
1260.0, 0.006632032632858025
1261.0, 0.00673557123831987
1262.0, 0.003356186397765647
1263.0, 0.004569022738660554
1264.0, 0.004713482405154759
1265.0, 0.0032474925806645853
1266.0, 0.0037804292601190783
1267.0, 0.0060878463407545505
1268.0, 0.0064272686591034705
1269.0, 0.005167709546559104
1270.0, 0.006541699877043578
1271.0, 0.009085014049438934
1272.0, 0.007247880680045621
1273.0, 0.005331774604908126
1274.0, 0.004785854037734263
1275.0, 0.005692891781594053
1276.0, 0.004248112757684088
1277.0, 0.0038222545898054967
1278.0, 0.004682534599743762
1279.0, 0.003213002289419238
1280.0, 0.0016878972225947953
1281.0, 0.0014234795887626773
1282.0, 0.0010425789798051595
1283.0, 0.0017335948361918616
1284.0, 0.0025470598212747595
1285.0, 0.000865333485221176
1286.0, 0.0016305837143508915
1287.0, 0.0017585747695893026
1288.0, 0.0004120903050407417
1289.0, 0.000669591401842156
1290.0, 0.00023088793694934066
1291.0, 0.0007286876744371708
1292.0, 0.0007825063308120184
1293.0, 0.000656746801176754
1294.0, 0.0011518291502584368
1295.0, 0.0010581808862978636
1296.0, 0.0010200626084401524
1297.0, 0.0015998083195846496
1298.0, 0.0013903328741766451
1299.0, 0.00035722257844182653
1300.0, 0.0004368571371067074
1301.0, 0.0015380594647025577
1302.0, 0.0030028876745325727
1303.0, 0.002763871988038733
1304.0, 0.0022576620607921223
1305.0, 0.00039083284697321403
1306.0, 0.0017247196087477519
1307.0, 0.0005079349387973093
1308.0, 0.0003538343885685449
1309.0, 0.0023010708689371355
1310.0, 0.00229734750676589
1311.0, 0.0025067130840490705
1312.0, 0.0015784519376887984
1313.0, 0.0007079567190932439
1314.0, 0.001840836499969747
1315.0, 0.002196555091578507
1316.0, 0.0010496674007851436
1317.0, 0.0016840008540505245
1318.0, 0.0019080835342706877
1319.0, 0.0004376871599657932
1320.0, 0.0026381988691558033
1321.0, 0.0006801812588857601
1322.0, 0.0007011441883386253
1323.0, 0.0019902814505697443
1324.0, 0.001186642583063489
1325.0, 0.0007670516719664275
1326.0, 0.0006191652559941563
1327.0, 0.0018361070867094838
1328.0, 0.002938290923897737
1329.0, 0.0022959174653459135
1330.0, 0.003912645929389247
1331.0, 0.0055407870018701275
1332.0, 0.0021076766286302236
1333.0, 0.004446824638985102
1334.0, 0.002452232322296095
1335.0, 0.0007593664953351583
1336.0, 0.006043253732181604
1337.0, 0.0007204611091478812
1338.0, 0.002923705308625955
1339.0, 0.00166795107993258
1340.0, 0.0012773203382418952
1341.0, 0.0023976256952914087
1342.0, 0.0028056890846612347
1343.0, 0.003296608375800429
1344.0, 0.002903015992665541
1345.0, 0.0023178464352786466
1346.0, 0.0018638010152209488
1347.0, 0.0014081929056224897
1348.0, 0.0016722135441322092
1349.0, 0.0019038902667036957
1350.0, 0.0023965413090121955
1351.0, 0.002349440088009074
1352.0, 0.002291855246346953
1353.0, 0.002151369960481777
1354.0, 0.003789531283127163
1355.0, 0.001773333481220351
1356.0, 0.004483096206811298
1357.0, 0.0033764859781724573
1358.0, 0.0033445135885122423
1359.0, 0.003925802502155519
1360.0, 0.003772440387486008
1361.0, 0.00265318740333262
1362.0, 0.00253749979938747
1363.0, 0.002923365001295861
1364.0, 0.0032977076890458486
1365.0, 0.004022378234349234
1366.0, 0.0034926144614214655
1367.0, 0.0041579072769311505
1368.0, 0.004033661086394177
1369.0, 0.0033936862323022355
1370.0, 0.004595775921006491
1371.0, 0.0034990535788559174
1372.0, 0.0037161628227029755
1373.0, 0.005085770906948514
1374.0, 0.005116433400378591
1375.0, 0.00565924515486645
1376.0, 0.00711015516955292
1377.0, 0.007483267284099002
1378.0, 0.00833519272098442
1379.0, 0.011103328421076634
1380.0, 0.0163337004808356
1381.0, 0.025782074224934115
1382.0, 0.040629499767269955
1383.0, 0.05862224404070535
1384.0, 0.07481892513936772
1385.0, 0.08179030898140091
1386.0, 0.07099878990712569
1387.0, 0.04955302947711374
1388.0, 0.031074730145560003
1389.0, 0.017990884006729307
1390.0, 0.013738865049754738
1391.0, 0.009717101017319046
1392.0, 0.007318296115414907
1393.0, 0.00459166593905022
1394.0, 0.004333147794672395
1395.0, 0.0037431042951451827
1396.0, 0.002956440926461238
1397.0, 0.003098591711832051
1398.0, 0.0037761644963555277
1399.0, 0.00497758151979426
1400.0, 0.005496191168344208
1401.0, 0.004327376664000701
1402.0, 0.003200615515939473
1403.0, 0.002572974765000731
1404.0, 0.004054768877736809
1405.0, 0.003534212431913219
1406.0, 0.0028821220268722275
1407.0, 0.004877024438313554
1408.0, 0.003897995178783152
1409.0, 0.0028774058149497604
1410.0, 0.002504158951868794
1411.0, 0.0011372268061650205
1412.0, 0.0010711172136364435
1413.0, 0.00154189120889713
1414.0, 0.0031118083168390374
1415.0, 0.003546916355679721
1416.0, 0.003189934943137871
1417.0, 0.0028283345331121717
1418.0, 0.0025710170566396293
1419.0, 0.0028923291212003873
1420.0, 0.0038186546291734593
1421.0, 0.0035381542298337067
1422.0, 0.001264441014571405
1423.0, 0.0015502349984392845
1424.0, 0.002456130275733894
1425.0, 0.000646612678717566
1426.0, 0.0012319354558481541
1427.0, 0.0035536262272324497
1428.0, 0.002928213456634318
1429.0, 0.0021698707042465885
1430.0, 0.0009732187615240925
1431.0, 0.002674859386745946
1432.0, 0.0023701333879220417
1433.0, 0.0030514612669210804
1434.0, 0.0024825821391239074
1435.0, 0.0022854024117072345
1436.0, 0.0019294079049693848
1437.0, 0.0017053201369093992
1438.0, 0.003180744923659053
1439.0, 0.00450126896159727
1440.0, 0.004422746070500094
1441.0, 0.004534927200512913
1442.0, 0.004049977114313126
1443.0, 0.0036018128040247737
1444.0, 0.0032933358660226487
1445.0, 0.00327002743790321
1446.0, 0.004975991086389814
1447.0, 0.00619258924271631
1448.0, 0.004353947322215971
1449.0, 0.004226137503428931
1450.0, 0.0034527964138769164
1451.0, 0.0065814753604704936
1452.0, 0.006223875458451457
1453.0, 0.006029449168246161
1454.0, 0.0050036354300463885
1455.0, 0.002938208936981149
1456.0, 0.004277349377555429
1457.0, 0.005661626037464755
1458.0, 0.004106294461257728
1459.0, 0.0032869573919633234
1460.0, 0.005078369818780637
1461.0, 0.006188746984703745
1462.0, 0.005305752250415849
1463.0, 0.005125141164278273
1464.0, 0.005034303437620204
1465.0, 0.0028866128796084653
1466.0, 0.005494065252880887
1467.0, 0.0035338174980554657
1468.0, 0.0024208907594090107
1469.0, 0.0009795836293640505
1470.0, 0.002702010298948339
1471.0, 0.005405639287480637
1472.0, 0.002801359858681716
1473.0, 0.001490410661235835
1474.0, 0.002102592484162581
1475.0, 0.00112981875656458
1476.0, 0.002981197493672181
1477.0, 0.004285883387752611
1478.0, 0.0034159083063367798
1479.0, 0.004058859279596393
1480.0, 0.004916965786729573
1481.0, 0.0033404115812655727
1482.0, 0.0018528858067451994
1483.0, 0.0013669825774870617
1484.0, 0.0009905548058390637
1485.0, 0.0021673530973046365
1486.0, 0.0022732562365160853
1487.0, 0.0017697012067184653
1488.0, 0.0028902176663982934
1489.0, 0.002424515467188121
1490.0, 0.0029345154697451377
1491.0, 0.0023762831750309505
1492.0, 0.0036269778666281026
1493.0, 0.003051319123072074
1494.0, 0.002232809623237513
1495.0, 0.001624686341459254
1496.0, 0.004399914919380091
1497.0, 0.0012723560137394186
1498.0, 0.0024489556498313286
1499.0, 0.0032641861726511786
1500.0, 0.0015185106104946967
1501.0, 0.0025111311908339934
1502.0, 0.003959831926623913
1503.0, 0.0027203302424746298
1504.0, 0.002299435405186303
1505.0, 0.002246564484310993
1506.0, 0.0022898216757986523
1507.0, 0.002502974265983562
1508.0, 0.002808812646341772
1509.0, 0.004924534474160784
1510.0, 0.002677709371923828
1511.0, 0.005346756905945478
1512.0, 0.005154421879595911
1513.0, 0.005161360416449541
1514.0, 0.00325084875048415
1515.0, 0.003523608032712758
1516.0, 0.0017990123777570782
1517.0, 0.0023880603757579443
1518.0, 0.007035307382351873
1519.0, 0.003770726987851002
1520.0, 0.003151312161293362
1521.0, 0.0011880361749769797
1522.0, 0.001465339368279025
1523.0, 0.0033928633310684173
1524.0, 0.003929049581092856
1525.0, 0.003631980422773691
1526.0, 0.0037439848936865468
1527.0, 0.0034005207452302796
1528.0, 0.0029508390739020154
1529.0, 0.0026180308308394297
1530.0, 0.002096274878073417
1531.0, 0.0019471378633641092
1532.0, 0.002901071448452917
1533.0, 0.003508457775075612
1534.0, 0.00334973330380359
1535.0, 0.004262433460838782
1536.0, 0.0040990721697232195
1537.0, 0.004309724603120945
1538.0, 0.004568173535295446
1539.0, 0.004521641504633657
1540.0, 0.004134619860544164
1541.0, 0.00388833628223375
1542.0, 0.0029391891055573285
1543.0, 0.003432184592547502
1544.0, 0.0003970063797084102
1545.0, 0.0018410126306045663
1546.0, 0.004539911645054309
1547.0, 0.0031877461382103403
1548.0, 0.004608890973023418
1549.0, 0.002890269605021329
1550.0, 0.0034304345071961293
1551.0, 0.003784333361516935
1552.0, 0.005344776371254389
1553.0, 0.004434457630258136
1554.0, 0.005994952536820804
1555.0, 0.00644522662610179
1556.0, 0.003589666384536856
1557.0, 0.0025246261393018976
1558.0, 0.0017019227260584376
1559.0, 0.0011468506331596944
1560.0, 0.0026654947704861285
1561.0, 0.0026580746571711806
1562.0, 0.0014848480870016457
1563.0, 0.0005010681511796662
1564, 0.0
1565, 0.0
1566, 0.0
1567, 0.0
1568, 0.0
1569, 0.0
1570, 0.0
1571, 0.0
1572, 0.0
1573, 0.0
1574, 0.0
1575, 0.0
1576, 0.0
1577, 0.0
1578, 0.0
1579, 0.0
1580, 0.0
1581, 0.0
1582, 0.0
1583, 0.0
1584, 0.0
1585, 0.0
1586, 0.0
1587, 0.0
1588, 0.0
1589, 0.0
1590, 0.0
1591, 0.0
1592, 0.0
1593, 0.0
1594, 0.0
1595, 0.0
1596, 0.0
1597, 0.0
1598, 0.0
1599, 0.0
