30, 0.0
31, 0.0
32, 0.0
33, 0.0
34, 0.0
35, 0.0
36, 0.0
37, 0.0
38, 0.0
39, 0.0
40, 0.0
41, 0.0
42, 0.0
43, 0.0
44, 0.0
45, 0.0
46, 0.0
47, 0.0
48, 0.0
49, 0.0
50, 0.0
51, 0.0
52, 0.0
53, 0.0
54, 0.0
55, 0.0
56, 0.0
57, 0.0
58, 0.0
59, 0.0
60, 0.0
61, 0.0
62, 0.0
63, 0.0
64, 0.0
65, 0.0
66, 0.0
67, 0.0
68, 0.0
69, 0.0
70, 0.0
71, 0.0
72, 0.0
73, 0.0
74, 0.0
75, 0.0
76, 0.0
77, 0.0
78, 0.0
79, 0.0
80, 0.0
81, 0.0
82, 0.0
83, 0.0
84, 0.0
85, 0.0
86, 0.0
87, 0.0
88, 0.0
89, 0.0
90, 0.0
91, 0.0
92, 0.0
93, 0.0
94, 0.0
95, 0.0
96, 0.0
97, 0.0
98, 0.0
99, 0.0
100, 0.0
101, 0.0
102, 0.0
103, 0.0
104, 0.0
105, 0.0
106, 0.0
107, 0.0
108, 0.0
109, 0.0
110, 0.0
111, 0.0
112, 0.0
113, 0.0
114, 0.0
115, 0.0
116, 0.0
117, 0.0
118, 0.0
119, 0.0
120, 0.0
121, 0.0
122, 0.0
123, 0.0
124, 0.0
125, 0.0
126, 0.0
127, 0.0
128, 0.0
129, 0.0
130, 0.0
131, 0.0
132, 0.0
133, 0.0
134, 0.0
135, 0.0
136, 0.0
137, 0.0
138, 0.0
139, 0.0
140, 0.0
141, 0.0
142, 0.0
143, 0.0
144, 0.0
145, 0.0
146, 0.0
147, 0.0
148, 0.0
149, 0.0
150, 0.0
151, 0.0
152, 0.0
153, 0.0
154, 0.0
155, 0.0
156, 0.0
157, 0.0
158, 0.0
159, 0.0
160, 0.0
161, 0.0
162, 0.0
163, 0.0
164, 0.0
165, 0.0
166, 0.0
167, 0.0
168.0, 7.685206719669282e-06
169.0, 0.0007505255738426296
170.0, 0.002013601103783944
171.0, 0.0015271537558297203
172.0, 0.000377689167681447
173.0, 0.0010162888976976685
174.0, 0.002104996921765737
175.0, 0.002520676866422561
176.0, 0.0017343496273490699
177.0, 0.0026804677410659484
178.0, 0.002348341170102531
179.0, 0.003400229036705955
180.0, 0.004791721910439094
181.0, 0.004637818338499854
182.0, 0.005828538223405737
183.0, 0.006512281746941063
184.0, 0.006019380301264254
185.0, 0.006207452676504523
186.0, 0.007576822819669355
187.0, 0.006533365693403577
188.0, 0.007889313306328928
189.0, 0.008389358617255826
190.0, 0.0079607703736297
191.0, 0.007561337260740719
192.0, 0.008703775628188781
193.0, 0.007912931844194719
194.0, 0.009037272893995947
195.0, 0.009283282748660802
196.0, 0.008409252602595884
197.0, 0.007422165964684485
198.0, 0.007926793149153443
199.0, 0.0087669212562738
200.0, 0.009034010291612502
201.0, 0.009085573654843571
202.0, 0.009426948054593086
203.0, 0.010432363899716043
204.0, 0.007432970144673328
205.0, 0.005698508580157551
206.0, 0.004811650361519668
207.0, 0.0043347068502836384
208.0, 0.0038749338778815623
209.0, 0.0026877951589936184
210.0, 0.0042653721556181814
211.0, 0.0033981250702869188
212.0, 0.002359160943566787
213.0, 0.0037225736195307647
214.0, 0.004984609343126097
215.0, 0.0049110349150495785
216.0, 0.007062807098904333
217.0, 0.009529517329748684
218.0, 0.010449987847544747
219.0, 0.008930930168674467
220.0, 0.01067690971479431
221.0, 0.012100821255475337
222.0, 0.013390391005632895
223.0, 0.01453817454740315
224.0, 0.015255780832411778
225.0, 0.014424496633319166
226.0, 0.01440974843103241
227.0, 0.01514487332793344
228.0, 0.014889706741608852
229.0, 0.014142358861621249
230.0, 0.016223359954639204
231.0, 0.016510540909913694
232.0, 0.015324169438810648
233.0, 0.01595542618825926
234.0, 0.01772046395585465
235.0, 0.018729956376209264
236.0, 0.020273694827130456
237.0, 0.02025484307038612
238.0, 0.02168330308055876
239.0, 0.023000210866163908
240.0, 0.023300526016794987
241.0, 0.023478875653443303
242.0, 0.024881634495923646
243.0, 0.026442290922889564
244.0, 0.027790019267641748
245.0, 0.02926582529830107
246.0, 0.03131076222171077
247.0, 0.03339516502489959
248.0, 0.034693238919919524
249.0, 0.03611738920262127
250.0, 0.03473071715541925
251.0, 0.030805891642798438
252.0, 0.02878853757591452
253.0, 0.022847570303756056
254.0, 0.017818397091749944
255.0, 0.013187470328647841
256.0, 0.008683553130582566
257.0, 0.0049110295274278895
258.0, 0.005178316157889495
259.0, 0.0018238205777676587
260.0, 0.0019857812286964934
261.0, 0.0027604964018398525
262.0, 0.002508253686239456
263.0, 0.0019256343472149084
264.0, 0.0016356733290992965
265.0, 0.002809416038875162
266.0, 0.0020108535993027263
267.0, 0.0009806479364311024
268.0, 0.0017644426917676954
269.0, 0.003291204893734848
270.0, 0.00457062286811708
271.0, 0.004746664717689299
272.0, 0.003938376965068584
273.0, 0.003100858742756634
274.0, 0.003283001348150345
275.0, 0.002825720522018707
276.0, 0.0026849889043107965
277.0, 0.0028055043804149486
278.0, 0.0031763491407854855
279.0, 0.0033227480115492402
280.0, 0.0022503803641517007
281.0, 0.0036404202747419216
282.0, 0.004650770114653686
283.0, 0.006348108543041646
284.0, 0.008375873144358264
285.0, 0.009897582190961412
286.0, 0.010604204648146747
287.0, 0.01129784493127291
288.0, 0.014822774645026463
289.0, 0.017442918901216912
290.0, 0.018261053092225445
291.0, 0.019116575748317332
292.0, 0.01947444291882505
293.0, 0.019209619756116153
294.0, 0.017592568227008096
295.0, 0.01609448071453832
296.0, 0.015526580934338034
297.0, 0.014911034355202508
298.0, 0.01670788127002643
299.0, 0.01750065443219891
300.0, 0.01713294659839664
301.0, 0.01632467144006686
302.0, 0.016346859074891404
303.0, 0.018946202200957697
304.0, 0.018455704928000437
305.0, 0.020653393226733863
306.0, 0.02195864248699076
307.0, 0.023102822196230516
308.0, 0.027033736927411036
309.0, 0.027779063087567092
310.0, 0.03165873395361559
311.0, 0.036212918254251436
312.0, 0.04245748194541621
313.0, 0.0497121123521461
314.0, 0.05519243382553855
315.0, 0.06409865784628545
316.0, 0.07568543526972407
317.0, 0.08800650185466262
318.0, 0.10041684484839329
319.0, 0.11448533769550617
320.0, 0.13495368801232194
321.0, 0.15812995883173825
322.0, 0.1799581588921258
323.0, 0.19515959188267454
324.0, 0.20091236261757778
325.0, 0.19570459808103885
326.0, 0.17704708045972276
327.0, 0.14458502594700745
328.0, 0.11342825714894732
329.0, 0.0857048980344716
330.0, 0.0623531087229724
331.0, 0.04394728597562511
332.0, 0.03213089982550819
333.0, 0.02302460320153141
334.0, 0.016118542813862456
335.0, 0.011759783023394893
336.0, 0.009430597797513905
337.0, 0.00769269910853033
338.0, 0.00490749523594715
339.0, 0.0028318546873016214
340.0, 0.002616695829832292
341.0, 0.001876743008384989
342.0, 0.0003884654841523467
343.0, 0.001256695663050384
344.0, 0.0010131582437579705
345.0, 0.001598332615822443
346.0, 0.0009058227502011402
347.0, 0.0002509489526727361
348.0, 0.000485023568033133
349.0, 8.619373128775825e-05
350.0, 0.001210330206601197
351.0, 0.0005980926913844936
352.0, 0.0004813192338959927
353.0, 0.0006188710068809453
354.0, 0.00045833107317513677
355.0, 0.0008139288367948303
356.0, 0.0007614906147948187
357.0, 0.0007900605695953965
358.0, 0.0007842340014877015
359.0, 0.0009741358246565689
360.0, 0.0013878528703780704
361.0, 0.0011633541658161624
362.0, 0.0014883563034965748
363.0, 0.001297794316785136
364.0, 0.00119415136287883
365.0, 0.0016754173009546531
366.0, 0.0026385181460377473
367.0, 0.0025700965610733553
368.0, 0.004128853987765852
369.0, 0.005110749821599919
370.0, 0.0063028177232115155
371.0, 0.0074741050915256005
372.0, 0.008220095281518399
373.0, 0.00989467277582
374.0, 0.010749086825538684
375.0, 0.012802825156427272
376.0, 0.01607305760636676
377.0, 0.019375748900496845
378.0, 0.021755015238101593
379.0, 0.025425568698180308
380.0, 0.029194887447785513
381.0, 0.03328218816412284
382.0, 0.03895619074064696
383.0, 0.04474678851131008
384.0, 0.048229636364337476
385.0, 0.05021138453603133
386.0, 0.06066320676603878
387.0, 0.07081224809611227
388.0, 0.0804119347257824
389.0, 0.09204701268176232
390.0, 0.10792474849365447
391.0, 0.1239454426349023
392.0, 0.14571931177558617
393.0, 0.1676397578277602
394.0, 0.19176852170655836
395.0, 0.2179566218067339
396.0, 0.24265990274655305
397.0, 0.2570313944626157
398.0, 0.25619887344589487
399.0, 0.24516731648412737
400.0, 0.2270610637441462
401.0, 0.20314275605367496
402.0, 0.1748065852301431
403.0, 0.14727854527143724
404.0, 0.1217265629335271
405.0, 0.09891278528103105
406.0, 0.08111182364467912
407.0, 0.06816930307771815
408.0, 0.05886455476178122
409.0, 0.05286243088585182
410.0, 0.04756328815449394
411.0, 0.04396572097598734
412.0, 0.04008554888297524
413.0, 0.036318343120174415
414.0, 0.03380708958562858
415.0, 0.03271951902912733
416.0, 0.03133667029343666
417.0, 0.029432517794757897
418.0, 0.02807311292062064
419.0, 0.026920521031243698
420.0, 0.025085597384187856
421.0, 0.021982905389489445
422.0, 0.021818969442777024
423.0, 0.020017253626682004
424.0, 0.01883087461839477
425.0, 0.018459644405243714
426.0, 0.018331689380624957
427.0, 0.017790941964455628
428.0, 0.016980379107263938
429.0, 0.01796749468299126
430.0, 0.018630480115546647
431.0, 0.01901617589026372
432.0, 0.020072507157293997
433.0, 0.022607923689293305
434.0, 0.024050277835611564
435.0, 0.0272812874694534
436.0, 0.030509099127988246
437.0, 0.03203857110947462
438.0, 0.03349854518226399
439.0, 0.03752839962859378
440.0, 0.040394769736260036
441.0, 0.0452632318507171
442.0, 0.04511404514547164
443.0, 0.045204295679144565
444.0, 0.044248340370828934
445.0, 0.03903397932175311
446.0, 0.03280567162488604
447.0, 0.03061686439331307
448.0, 0.024745820079376535
449.0, 0.021236722852866118
450.0, 0.018633304426528413
451.0, 0.015392383095432706
452.0, 0.014847843945054558
453.0, 0.011613059177597574
454.0, 0.010569131215803928
455.0, 0.008898316430866119
456.0, 0.008679387845328228
457.0, 0.009566193127962476
458.0, 0.008105555136213043
459.0, 0.008122384811686588
460.0, 0.007729179331099257
461.0, 0.007351629431276639
462.0, 0.007600335938911942
463.0, 0.007763313844871848
464.0, 0.006559407972588971
465.0, 0.004230754180387189
466.0, 0.0063897455588721236
467.0, 0.0055172655478517635
468.0, 0.005275337198745426
469.0, 0.005396546338033683
470.0, 0.004716519634662522
471.0, 0.004663813611695206
472.0, 0.006304424139865409
473.0, 0.0054991080411814644
474.0, 0.0054629706092780865
475.0, 0.006128522311903004
476.0, 0.006579074201095983
477.0, 0.00658667712042715
478.0, 0.009313394574257429
479.0, 0.008026725244550895
480.0, 0.007893974460578898
481.0, 0.007594953387062029
482.0, 0.007748083584908793
483.0, 0.009269832707802073
484.0, 0.008372065183900577
485.0, 0.008670383025337706
486.0, 0.00856964810405091
487.0, 0.010008584975744892
488.0, 0.010233931891324809
489.0, 0.008695662275997036
490.0, 0.010218119985773726
491.0, 0.008698619334191405
492.0, 0.010050066240722041
493.0, 0.01269688979166922
494.0, 0.013258095720815117
495.0, 0.012163828520450427
496.0, 0.01216644362442389
497.0, 0.010778929804671362
498.0, 0.012038161187479975
499.0, 0.012312570692604316
500.0, 0.012802778103352857
501.0, 0.013341547164434146
502.0, 0.013868960170085987
503.0, 0.015598128881057069
504.0, 0.016234930254566897
505.0, 0.01616862939576032
506.0, 0.017891263250833622
507.0, 0.01874683543313934
508.0, 0.018776650469866207
509.0, 0.02077156246276876
510.0, 0.024352068631933697
511.0, 0.025924608472447347
512.0, 0.026987241880298468
513.0, 0.028516787169392866
514.0, 0.03239403105991936
515.0, 0.038598350808590184
516.0, 0.043626225268933054
517.0, 0.04735488623089326
518.0, 0.05279475901756252
519.0, 0.059568351811069405
520.0, 0.06588607423450801
521.0, 0.07038860170924835
522.0, 0.07310026057374602
523.0, 0.07619047847361142
524.0, 0.07724924250206514
525.0, 0.07494007031805802
526.0, 0.07122789950034056
527.0, 0.06652904390841927
528.0, 0.059949847276558686
529.0, 0.05071606772169004
530.0, 0.044832658357381885
531.0, 0.0393778278367193
532.0, 0.03234057813006373
533.0, 0.026701835856446244
534.0, 0.022588962852939383
535.0, 0.018593362690072984
536.0, 0.015337561820166263
537.0, 0.01223447959042727
538.0, 0.009609516647237309
539.0, 0.007658628187865471
540.0, 0.005790724841987475
541.0, 0.003834997386677426
542.0, 0.002203041899621245
543.0, 0.0009688259795498169
544.0, 0.0008755035512241622
545.0, 0.001894794704036524
546.0, 0.0027481800741981496
547.0, 0.002410889679329139
548.0, 0.0016106192892291983
549.0, 0.002655340590308186
550.0, 0.002599733791838215
551.0, 0.002615894587204955
552.0, 0.0032752446482414727
553.0, 0.0027842234782882317
554.0, 0.0019185640293323178
555.0, 0.0020128503366378422
556.0, 0.001582872339476146
557.0, 0.00039438005023569955
558.0, 0.0011913471167376872
559.0, 0.0018606736184677555
560.0, 0.0027021930923521583
561.0, 0.003803495420928727
562.0, 0.00441290283990085
563.0, 0.0033822307039915343
564.0, 0.003918620052149086
565.0, 0.0032147303923016754
566.0, 0.0031172992275283707
567.0, 0.0027843467657292253
568.0, 0.0024664573873981947
569.0, 0.003754020505531069
570.0, 0.004090217361453634
571.0, 0.006785261087088922
572.0, 0.007947330114139032
573.0, 0.008356888165184576
574.0, 0.008203176682147355
575.0, 0.00836732458036254
576.0, 0.010500442040993024
577.0, 0.012112070292383337
578.0, 0.010788522918480531
579.0, 0.011171860951006096
580.0, 0.011391837562479173
581.0, 0.01126923467501944
582.0, 0.011295924785858353
583.0, 0.011093663398955674
584.0, 0.011934988541083512
585.0, 0.012246717316858636
586.0, 0.010747393623622672
587.0, 0.010306252228767238
588.0, 0.010438740188547815
589.0, 0.00995729843747767
590.0, 0.01080925478985934
591.0, 0.010374772579598023
592.0, 0.008576995134464515
593.0, 0.01007918542271067
594.0, 0.011709605853130174
595.0, 0.012226414311397964
596.0, 0.012044237012133061
597.0, 0.01035600469453934
598.0, 0.011213760106808909
599.0, 0.010014854656480884
600.0, 0.01012670950724227
601.0, 0.009454157309965223
602.0, 0.008792840167659544
603.0, 0.009884058163762529
604.0, 0.010176726377904942
605.0, 0.010167494743340133
606.0, 0.010135822575583623
607.0, 0.01088414627576076
608.0, 0.011163471112109838
609.0, 0.011829926770410759
610.0, 0.014258724691482143
611.0, 0.01670626222379369
612.0, 0.0174941816397942
613.0, 0.020343246837336695
614.0, 0.023900985992472177
615.0, 0.02629995767833892
616.0, 0.028178602135328374
617.0, 0.03057929807386854
618.0, 0.03155496233061028
619.0, 0.03413706381630052
620.0, 0.03293691157702499
621.0, 0.03080399113450247
622.0, 0.02719617443665568
623.0, 0.02222228867014637
624.0, 0.017266394286890405
625.0, 0.01423385028742377
626.0, 0.01306770757257726
627.0, 0.010093276346459274
628.0, 0.00994687352657982
629.0, 0.00910059307848574
630.0, 0.007246305301316918
631.0, 0.006053888630077392
632.0, 0.005688837428408417
633.0, 0.007865471741798653
634.0, 0.007332419375299284
635.0, 0.007247296454844559
636.0, 0.0073534572859479015
637.0, 0.006920177152808613
638.0, 0.006239370109524891
639.0, 0.006791981509464306
640.0, 0.007783206777701076
641.0, 0.009405917604323803
642.0, 0.010068356551390186
643.0, 0.010626160850562947
644.0, 0.010421377417469908
645.0, 0.009599965274663605
646.0, 0.0097701459675568
647.0, 0.010446254671760469
648.0, 0.010531603560499337
649.0, 0.011175256453831887
650.0, 0.010955312495311873
651.0, 0.010099770491326846
652.0, 0.010467468920318093
653.0, 0.012825446931256802
654.0, 0.012216876589828413
655.0, 0.015385438776306144
656.0, 0.016104718356272446
657.0, 0.017434672517022493
658.0, 0.019642467259058702
659.0, 0.02185790504640739
660.0, 0.02374410646900005
661.0, 0.026599686314038067
662.0, 0.029486629930910842
663.0, 0.03262950716207469
664.0, 0.03820412455562487
665.0, 0.04366452662389729
666.0, 0.04901115091050326
667.0, 0.05504736793685231
668.0, 0.061402889252395204
669.0, 0.07130354023681104
670.0, 0.08207789873044243
671.0, 0.09368900906854653
672.0, 0.10962963540454503
673.0, 0.12967115997921816
674.0, 0.15256753209416318
675.0, 0.17966890431949303
676.0, 0.21798087583159773
677.0, 0.2658511938811013
678.0, 0.32208770420274546
679.0, 0.3875077995386
680.0, 0.46770304669604057
681.0, 0.5630057742031336
682.0, 0.6704844253819287
683.0, 0.7883142225987515
684.0, 0.8911879486043193
685.0, 0.96995916325005
686.0, 0.9959405791806198
687.0, 0.9675733698415669
688.0, 0.8879283117506965
689.0, 0.7698752592308632
690.0, 0.6380586485609524
691.0, 0.5169363996817794
692.0, 0.4153039675623701
693.0, 0.3347449352439531
694.0, 0.2716585094133634
695.0, 0.2235018360776566
696.0, 0.1868012073549985
697.0, 0.1586085103859992
698.0, 0.13847240018289894
699.0, 0.1164585851353219
700.0, 0.1033254443392574
701.0, 0.09233146882794187
702.0, 0.08212442308127246
703.0, 0.07327122842972157
704.0, 0.0656467448224132
705.0, 0.05843176570675461
706.0, 0.0547875387342934
707.0, 0.04980421673431999
708.0, 0.046679805952885636
709.0, 0.04233825163081464
710.0, 0.037580198959174915
711.0, 0.03445270231523693
712.0, 0.03294520576427763
713.0, 0.02972310719587881
714.0, 0.02749569521950443
715.0, 0.02372853548223917
716.0, 0.023361328798958168
717.0, 0.022358044835178337
718.0, 0.019250729719744366
719.0, 0.016344896604997515
720.0, 0.016032155614412333
721.0, 0.014292698433230179
722.0, 0.01344316259955051
723.0, 0.013599820692697884
724.0, 0.013535913153960678
725.0, 0.012333561918394341
726.0, 0.01057891961961183
727.0, 0.009404229213644316
728.0, 0.009162789032412941
729.0, 0.009073910573042365
730.0, 0.009298498420851828
731.0, 0.008544311994039313
732.0, 0.007057726761682192
733.0, 0.00663123280815508
734.0, 0.007058927375777037
735.0, 0.007354941619686156
736.0, 0.008306856790019674
737.0, 0.008456605322950641
738.0, 0.0069767718646968945
739.0, 0.006691402812849322
740.0, 0.007192557335557515
741.0, 0.00705267492068207
742.0, 0.0068806642366121325
743.0, 0.007880231460936278
744.0, 0.007812575550027352
745.0, 0.007999192746017148
746.0, 0.006749808958019054
747.0, 0.007580811679693415
748.0, 0.007437218301488846
749.0, 0.007088687782024054
750.0, 0.008065953588437893
751.0, 0.009563544567816891
752.0, 0.008922478505695369
753.0, 0.008496588002149117
754.0, 0.009270445810955437
755.0, 0.010421463192316781
756.0, 0.012278367892530919
757.0, 0.013067128771201026
758.0, 0.013153174048848033
759.0, 0.01471491106225306
760.0, 0.013359776557390672
761.0, 0.016875759192772004
762.0, 0.0182802439211697
763.0, 0.01775224351365224
764.0, 0.01735907154729313
765.0, 0.017093743920658423
766.0, 0.017140359244968033
767.0, 0.018495181284978873
768.0, 0.018230907170327566
769.0, 0.018186567753085848
770.0, 0.018567690333555462
771.0, 0.01725810171686114
772.0, 0.017331445365476577
773.0, 0.017245465239140192
774.0, 0.015602910169978609
775.0, 0.014748767771397872
776.0, 0.014592403848425103
777.0, 0.013916775367762844
778.0, 0.012870590153781203
779.0, 0.01225282485240249
780.0, 0.012063305284138643
781.0, 0.011530318781995681
782.0, 0.010655803356204044
783.0, 0.010032947692800595
784.0, 0.00791452795487005
785.0, 0.007478212169466577
786.0, 0.006940591104605162
787.0, 0.007923305129462623
788.0, 0.0071217830369890425
789.0, 0.006431156160422484
790.0, 0.00653006810424259
791.0, 0.005121634730606378
792.0, 0.005394883282185337
793.0, 0.005391100822246536
794.0, 0.004017125617367809
795.0, 0.004510545899842019
796.0, 0.004237729006391195
797.0, 0.002999514600263472
798.0, 0.0021522415122345474
799.0, 0.0026459991622835794
800.0, 0.004054026763463334
801.0, 0.004000577483473051
802.0, 0.003399668976704286
803.0, 0.003566745216612753
804.0, 0.003664976560418036
805.0, 0.003974968354684057
806.0, 0.003885834946745692
807.0, 0.0024678855097532326
808.0, 0.0006540063687410588
809.0, 0.00044126652723396027
810.0, 0.00028090854004779654
811.0, 0.0007765888131399152
812.0, 0.0012235681099355361
813.0, 0.001950285478003722
814.0, 0.001955698094385599
815.0, 0.0007851701767387421
816.0, 0.00015577396467256197
817.0, 0.00026707743777633374
818.0, 0.0018981574703372003
819.0, 0.002301208411172737
820.0, 0.0010039876547154561
821.0, 0.0008245870751556408
822.0, 0.0018443478519970915
823.0, 0.0021733288453104904
824.0, 0.0009752849657400384
825.0, 0.0004236959087442593
826.0, 0.0011774686557532662
827.0, 0.00028975631893543027
828.0, 0.0009794479337666476
829.0, 0.0011740837449660585
830.0, 0.0008286573568412735
831.0, 0.0008431827022664566
832.0, 0.0010429685691059887
833.0, 8.396707438723485e-05
834.0, 0.0002602164024166231
835.0, 4.825274335204463e-05
836.0, 0.0009696762726520661
837.0, 0.0005116527664760724
838.0, 0.0005128419587250125
839.0, 0.0008610303123038955
840.0, 0.0008016301549420378
841.0, 0.000983665299494232
842.0, 0.001702658872235307
843.0, 0.00029455497867408344
844.0, 0.0011642935410401322
845.0, 0.0014382232332351052
846.0, 0.0015653375877662907
847.0, 0.0013956772891834006
848.0, 0.000924703928258192
849.0, 0.0004443283268926468
850.0, 6.503350050473608e-05
851.0, 8.94860130043356e-05
852.0, 0.00040621332662021785
853.0, 0.00028679773624455955
854.0, 0.00024054527276195148
855.0, 0.0003410852470446294
856.0, 0.0006428161523795054
857.0, 0.0008981253631865955
858.0, 0.0009953297410854392
859.0, 0.0016401596189299275
860.0, 0.00038163207983116763
861.0, 0.00037820235823439257
862.0, 0.0010608457970900558
863.0, 0.0005748961007634863
864.0, 0.00017678990486031136
865.0, 0.00020817435331708153
866.0, 0.0005113168780753897
867.0, 0.0012993228439948576
868.0, 0.0007698363017560132
869.0, 0.00032229468386772513
870.0, 0.0007863092493242182
871.0, 0.0006146067444744401
872.0, 0.0004038585712727163
873.0, 0.0005280755244269481
874.0, 0.0005365261899521921
875.0, 0.00040138168856512736
876.0, 0.0010143760398107255
877.0, 0.0009055036862227082
878.0, 0.0018100996457333734
879.0, 0.0011013820643926645
880.0, 0.0020882021298113704
881.0, 0.001937801306480811
882.0, 0.0011462625410523866
883.0, 0.000771108632961451
884.0, 0.0008689438111731762
885.0, 0.001576209712308546
886.0, 0.0016527674755545448
887.0, 0.00268405432018836
888.0, 0.002640099789096601
889.0, 0.003065215677685906
890.0, 0.0031596907105666126
891.0, 0.0029620534332080966
892.0, 0.003005914275246401
893.0, 0.003530271247908356
894.0, 0.004207826998741891
895.0, 0.003796941387184848
896.0, 0.005407667478211184
897.0, 0.006744871337228624
898.0, 0.006822010656039805
899.0, 0.008470555596691479
900.0, 0.009316155500535803
901.0, 0.008958477392957716
902.0, 0.009687237412228777
903.0, 0.010210763619795336
904.0, 0.010914155658604256
905.0, 0.012656842774493481
906.0, 0.01455900878860895
907.0, 0.014361287024795154
908.0, 0.015653177805240726
909.0, 0.01638585131728035
910.0, 0.015575046479603302
911.0, 0.015988402521154417
912.0, 0.018939042847471704
913.0, 0.02057462758613111
914.0, 0.02108893349627929
915.0, 0.021973001519372815
916.0, 0.022539316330369045
917.0, 0.02275256815977915
918.0, 0.023638969348730887
919.0, 0.02340771986826194
920.0, 0.021396870158510172
921.0, 0.020853238412214214
922.0, 0.018018260954203953
923.0, 0.018483816654964055
924.0, 0.018126913832979964
925.0, 0.01714905005166748
926.0, 0.014923078940087826
927.0, 0.014084805695062487
928.0, 0.01384702854447454
929.0, 0.012898620705256948
930.0, 0.012552989897228951
931.0, 0.01158534481319346
932.0, 0.011854376797076871
933.0, 0.00941459674899898
934.0, 0.009394966320946744
935.0, 0.008368798277384794
936.0, 0.008031595604260108
937.0, 0.007888741777589097
938.0, 0.006628592303373752
939.0, 0.005363974165449442
940.0, 0.006089893856520846
941.0, 0.004221360022090714
942.0, 0.004310460242736544
943.0, 0.004580925647769356
944.0, 0.0027361848506516065
945.0, 0.0021273359580404436
946.0, 0.0015719342517435553
947.0, 0.0005543096139863546
948.0, 0.00023220670929861506
949.0, 0.0003847853011937546
950.0, 0.00048085960368543637
951.0, 0.001022025565317627
952.0, 0.000390815761083851
953.0, 0.0016257221223883213
954.0, 0.0007695824361408712
955.0, 0.0003847692263177181
956.0, 0.0010137832067746491
957.0, 0.00111498127123925
958.0, 0.000862167946526434
959.0, 0.0021177419844034054
960.0, 0.0010680947924290606
961.0, 0.000745716235559751
962.0, 0.000276624420792851
963.0, 0.000702745851123363
964.0, 0.0007126416651239231
965.0, 0.00029107082124635525
966.0, 6.261733495294803e-05
967.0, 0.00015560460155168409
968.0, 0.00041205372677927636
969.0, 0.0014406788634748233
970.0, 0.0014980609754705325
971.0, 0.002328025171380403
972.0, 0.0012483240200036776
973.0, 0.002063182783696399
974.0, 0.0027741511521053677
975.0, 0.0021396301965674915
976.0, 0.003020763071198771
977.0, 0.005576413562445423
978.0, 0.004494239342307527
979.0, 0.0051635711072768545
980.0, 0.007001693940358508
981.0, 0.007819998228650862
982.0, 0.00835094914728088
983.0, 0.011020354342966469
984.0, 0.011553034602657634
985.0, 0.012151677394241306
986.0, 0.015175305372643208
987.0, 0.018082955133054992
988.0, 0.019404083898196804
989.0, 0.02509347790378591
990.0, 0.028536023080008504
991.0, 0.03164708541325451
992.0, 0.03620676485696034
993.0, 0.04107421397394963
994.0, 0.047639809794746774
995.0, 0.0524215624337672
996.0, 0.05635493366026253
997.0, 0.06347316395555937
998.0, 0.06937342574574011
999.0, 0.07071447207408703
1000.0, 0.07764877295915806
1001.0, 0.08269875682447762
1002.0, 0.08975752771622042
1003.0, 0.09250618420475824
1004.0, 0.09619548828750027
1005.0, 0.09941023203963618
1006.0, 0.10088159543882264
1007.0, 0.10301147984342263
1008.0, 0.10471845651300325
1009.0, 0.10454096810456705
1010.0, 0.10408555686633052
1011.0, 0.10143717459482285
1012.0, 0.09960491959768125
1013.0, 0.09626660558548973
1014.0, 0.09183613333676285
1015.0, 0.08737321728560765
1016.0, 0.083372580693769
1017.0, 0.0788576363472197
1018.0, 0.07363275461105769
1019.0, 0.07270908315679378
1020.0, 0.06740420641544848
1021.0, 0.0646141758701474
1022.0, 0.06259843691146434
1023.0, 0.05999521081063236
1024.0, 0.05747006526032352
1025.0, 0.05409677418922236
1026.0, 0.05158860934724704
1027.0, 0.05067704508354116
1028.0, 0.049069540692415606
1029.0, 0.04824437923452622
1030.0, 0.04822735162556484
1031.0, 0.04793544424430759
1032.0, 0.04805281980595125
1033.0, 0.04877671332131928
1034.0, 0.049646437409870424
1035.0, 0.0505319834360933
1036.0, 0.052607074183799535
1037.0, 0.0559509506641014
1038.0, 0.05856578326394646
1039.0, 0.05975978104482582
1040.0, 0.0640737224476845
1041.0, 0.06969232476516932
1042.0, 0.07621026763405825
1043.0, 0.08048901467489435
1044.0, 0.08672086805647947
1045.0, 0.09347367051550057
1046.0, 0.10100412870661893
1047.0, 0.11121106942139988
1048.0, 0.12319851885416457
1049.0, 0.13420808540985735
1050.0, 0.14721332967920142
1051.0, 0.1677832608099489
1052.0, 0.1841529933190557
1053.0, 0.2097538727143421
1054.0, 0.23658509431697852
1055.0, 0.26622764735568966
1056.0, 0.300974011491704
1057.0, 0.33988410611763265
1058.0, 0.3834965662405441
1059.0, 0.4339567552401429
1060.0, 0.48961681821477865
1061.0, 0.5443447568586361
1062.0, 0.596353249802632
1063.0, 0.6548483573955269
1064.0, 0.7043945057809844
1065.0, 0.7385486388860447
1066.0, 0.7613800312765421
1067.0, 0.76880243541419
1068.0, 0.7608985780442227
1069.0, 0.7425557881615495
1070.0, 0.7176071661190004
1071.0, 0.6873840966888153
1072.0, 0.6524661250587627
1073.0, 0.606570811116158
1074.0, 0.5681294946103637
1075.0, 0.5252827879059817
1076.0, 0.4764160734635769
1077.0, 0.43109732448855975
1078.0, 0.39492038816646985
1079.0, 0.36004736140077775
1080.0, 0.3260248951561067
1081.0, 0.29824558857775724
1082.0, 0.2709024463279154
1083.0, 0.24735743379040065
1084.0, 0.22907106657155904
1085.0, 0.2120839522457113
1086.0, 0.19283658509303445
1087.0, 0.17921313761406138
1088.0, 0.1669845405635574
1089.0, 0.15646513250499133
1090.0, 0.14664896852473383
1091.0, 0.13713766885734496
1092.0, 0.1282336807911178
1093.0, 0.11963586298447826
1094.0, 0.11449159730804043
1095.0, 0.10694032485370633
1096.0, 0.10212994327898266
1097.0, 0.09788285878883149
1098.0, 0.09409386484156428
1099.0, 0.08898480898344839
1100.0, 0.08538741376245781
1101.0, 0.08208015864062368
1102.0, 0.07729472216113252
1103.0, 0.07356800214889578
1104.0, 0.073040845976167
1105.0, 0.07102280683867439
1106.0, 0.06939608356247319
1107.0, 0.0650019816991328
1108.0, 0.06273695818570496
1109.0, 0.061045013643009745
1110.0, 0.05961074290537181
1111.0, 0.05827634682331478
1112.0, 0.058556011980258255
1113.0, 0.05788805067322026
1114.0, 0.05616499971758258
1115.0, 0.05604811051599673
1116.0, 0.055357994884788896
1117.0, 0.05385255218141245
1118.0, 0.055542574748241806
1119.0, 0.053382037340243146
1120.0, 0.05418654181441105
1121.0, 0.05593690236475281
1122.0, 0.05691428125131788
1123.0, 0.059262980615995435
1124.0, 0.062041282345694934
1125.0, 0.06376577135023317
1126.0, 0.06525236263652988
1127.0, 0.06760168021958951
1128.0, 0.06950510274591702
1129.0, 0.07004018955758984
1130.0, 0.07253104518487796
1131.0, 0.07268166839547575
1132.0, 0.07078443104083561
1133.0, 0.06938143126748211
1134.0, 0.06875392155115294
1135.0, 0.06578780693954675
1136.0, 0.060688964089590784
1137.0, 0.05696365718815988
1138.0, 0.05398621226371767
1139.0, 0.048396889222754376
1140.0, 0.04417274504868443
1141.0, 0.04068949857472337
1142.0, 0.03790640999153664
1143.0, 0.03477691171575184
1144.0, 0.031080835214047538
1145.0, 0.028586043928533263
1146.0, 0.02604727903727026
1147.0, 0.02375844003039329
1148.0, 0.021759672540327426
1149.0, 0.019641652780795674
1150.0, 0.016417363189605863
1151.0, 0.012916644339873903
1152.0, 0.012872637030485785
1153.0, 0.011208274015155778
1154.0, 0.008209039551531272
1155.0, 0.009519201455909412
1156.0, 0.008654002900416935
1157.0, 0.007621487452908697
1158.0, 0.006442260102749355
1159.0, 0.005966958485415148
1160.0, 0.005657589671876398
1161.0, 0.004956422885442466
1162.0, 0.004732506599067324
1163.0, 0.0051052954394460014
1164.0, 0.003812018987715995
1165.0, 0.0015948974349600637
1166.0, 0.002726515063966395
1167.0, 0.0028288129513279682
1168.0, 0.0009883248719638063
1169.0, 0.0009447558602975408
1170.0, 0.0026560289996088826
1171.0, 0.002155813122107574
1172.0, 0.0019477097520814253
1173.0, 0.0031318785263281285
1174.0, 0.004048144231175268
1175.0, 0.0038956194600885657
1176.0, 0.003425625783747361
1177.0, 0.003466112015168825
1178.0, 0.0029112177773098374
1179.0, 0.0025432895198857814
1180.0, 0.0027424109911433703
1181.0, 0.0022553903039631107
1182.0, 0.0029616363750918978
1183.0, 0.004163935368097275
1184.0, 0.00482756398048955
1185.0, 0.005574895172242904
1186.0, 0.00598623955420385
1187.0, 0.005171276040429072
1188.0, 0.004293584646916922
1189.0, 0.004596515195027284
1190.0, 0.003556149038120478
1191.0, 0.0030283088032498334
1192.0, 0.004171808878469606
1193.0, 0.0024388972521188924
1194.0, 0.002935838484737746
1195.0, 0.0030792936483371577
1196.0, 0.0028993625506798463
1197.0, 0.0024954298879520816
1198.0, 0.0035244000667917033
1199.0, 0.0036958098246100374
1200.0, 0.002959984786026918
1201.0, 0.0037908669289684733
1202.0, 0.0032822201693951977
1203.0, 0.0038574387860692613
1204.0, 0.0039271743591683455
1205.0, 0.0035168051771306726
1206.0, 0.003769571038520974
1207.0, 0.0028391512306758424
1208.0, 0.0029220506950514715
1209.0, 0.004505252692164596
1210.0, 0.0038138217552325594
1211.0, 0.004336361945021221
1212.0, 0.006200446948198761
1213.0, 0.0070747005190212936
1214.0, 0.007333853292091253
1215.0, 0.007652428769670179
1216.0, 0.009393533777358416
1217.0, 0.006972490951911609
1218.0, 0.009476304486984733
1219.0, 0.008166112252479731
1220.0, 0.007636483494004313
1221.0, 0.009508115925816634
1222.0, 0.010584914201692937
1223.0, 0.011973798705818401
1224.0, 0.010916508249725175
1225.0, 0.009570312700925685
1226.0, 0.009163918080481146
1227.0, 0.008895309192686067
1228.0, 0.009888308044551397
1229.0, 0.010247204805102455
1230.0, 0.009573168050576175
1231.0, 0.009629817072679452
1232.0, 0.008727936756832014
1233.0, 0.0075112771509612195
1234.0, 0.0076029776894694446
1235.0, 0.0054391152034148045
1236.0, 0.0046958505860358445
1237.0, 0.0037276961418473108
1238.0, 0.0035281961005609597
1239.0, 0.004325020276036668
1240.0, 0.004289008143734938
1241.0, 0.0032384725575207735
1242.0, 0.0021872122282080297
1243.0, 0.0005096074500567627
1244.0, 0.0010310790711034478
1245.0, 0.0022371551164370677
1246.0, 0.0012988548921350318
1247.0, 0.0020013369948484678
1248.0, 0.0005927363838939247
1249.0, 0.0010986064037419546
1250.0, 0.0011301445401860697
1251.0, 0.0006781232898119138
1252.0, 0.00038452972948623947
1253.0, 0.0002434705879525928
1254.0, 0.0006111776649557444
1255.0, 0.0013158002944156553
1256.0, 0.0017453328214940042
1257.0, 0.002459772622418261
1258.0, 0.0006009890821055666
1259.0, 0.0006694814979829546
1260.0, 0.000843962283387801
1261.0, 0.0015160823362167044
1262.0, 0.001167229741935179
1263.0, 0.00043559160868365864
1264.0, 0.0004325135408042984
1265.0, 0.0003289469837109307
1266.0, 0.00040583276872005567
1267.0, 0.0004881155676542271
1268.0, 0.00030735520257724587
1269.0, 0.00021959053904992907
1270.0, 0.00048493393707954254
1271.0, 0.0010710768015075693
1272.0, 0.0018621797486203732
1273.0, 0.0014710796773551955
1274.0, 0.0019746567604419256
1275.0, 0.0009256974217723852
1276.0, 0.00033034220139327994
1277.0, 0.0001722544352674468
1278.0, 0.00039998696017050996
1279.0, 0.00024923226294163174
1280.0, 0.000453920698429234
1281.0, 0.00033533032593882276
1282.0, 0.00021290699427723738
1283.0, 0.0012990756810430618
1284.0, 0.0022841466008384583
1285.0, 0.0017529376240631373
1286.0, 0.0016842502885072294
1287.0, 0.000255614768499356
1288.0, 0.0013166802763000115
1289.0, 0.0009252619592831225
1290.0, 0.0004527066217600513
1291.0, 0.0005210487229078201
1292.0, 0.0008431907786710297
1293.0, 0.0005710699760965747
1294.0, 0.0005812232364155787
1295.0, 0.0006508715615832734
1296.0, 0.0003875149006623705
1297.0, 0.0003925096727261212
1298.0, 0.000499900034901901
1299.0, 0.0004268277935070521
1300.0, 0.0005248253179547124
1301.0, 0.0005101166462920103
1302.0, 0.001194875812684977
1303.0, 0.0006099669514807337
1304.0, 0.00036943988578636705
1305.0, 0.0008600375741637132
1306.0, 0.001976740381547067
1307.0, 0.0012724536652404385
1308.0, 0.0017463798123649047
1309.0, 0.0007982988193859299
1310.0, 0.0013527661828315078
1311.0, 0.001481417091519188
1312.0, 0.0007880080975059014
1313.0, 0.0008508059295666762
1314.0, 0.0010562577989098963
1315.0, 0.00047150643348163997
1316.0, 0.0002937336055270341
1317.0, 0.0005997095600347986
1318.0, 0.0009863169509455503
1319.0, 0.0007139378451902946
1320.0, 0.0007462236363367809
1321.0, 0.00020156173743222488
1322.0, 0.001278442828263941
1323.0, 0.0010817782294098473
1324.0, 0.001726733791324187
1325.0, 0.0010550360020331077
1326.0, 0.001040274758952802
1327.0, 0.0010155686089558097
1328.0, 0.0013387048295393342
1329.0, 0.002444791788093138
1330.0, 0.0023766352456514243
1331.0, 0.0013047282373346324
1332.0, 0.0016839703615725743
1333.0, 0.0015927371134476108
1334.0, 0.001949704854542564
1335.0, 0.0036043755135408222
1336.0, 0.0029552977189309074
1337.0, 0.002473565378858636
1338.0, 0.003400126527211086
1339.0, 0.002303466506659584
1340.0, 0.001134925807726531
1341.0, 0.002656760364118345
1342.0, 0.0030683749981556983
1343.0, 0.0019707989978214324
1344.0, 0.002197280190655504
1345.0, 0.0025670098641630387
1346.0, 0.002737344655555982
1347.0, 0.0029555478428548053
1348.0, 0.0023927403101087585
1349.0, 0.0029928895959954994
1350.0, 0.0034727079288949187
1351.0, 0.0034608711674733905
1352.0, 0.0029494095982828435
1353.0, 0.0021097367084525896
1354.0, 0.00281679161630158
1355.0, 0.0028433044106179885
1356.0, 0.0035052747883774064
1357.0, 0.003263548463346899
1358.0, 0.003038504749870166
1359.0, 0.003553961919758493
1360.0, 0.004413684477041966
1361.0, 0.003680483555092644
1362.0, 0.00300256204798449
1363.0, 0.003121900022424301
1364.0, 0.002478601311461789
1365.0, 0.002119307495295941
1366.0, 0.003178932456931397
1367.0, 0.0032475277672956953
1368.0, 0.0028332453822455224
1369.0, 0.0024071896767460304
1370.0, 0.002851677737852004
1371.0, 0.001747286102589631
1372.0, 0.0034536173534345047
1373.0, 0.0053419321833812535
1374.0, 0.004082544062100599
1375.0, 0.0034012135745309455
1376.0, 0.0032005164063278833
1377.0, 0.004231785364377083
1378.0, 0.004834457391099892
1379.0, 0.006328772526969707
1380.0, 0.00879919710625162
1381.0, 0.012561388236716627
1382.0, 0.019161142176160356
1383.0, 0.028511197829884125
1384.0, 0.03842795772197104
1385.0, 0.04187792384072549
1386.0, 0.03675663444479536
1387.0, 0.024960599437734727
1388.0, 0.01613114178246366
1389.0, 0.011302134044005593
1390.0, 0.005828074810749312
1391.0, 0.006414519109489617
1392.0, 0.005038939585545599
1393.0, 0.004190594746244105
1394.0, 0.0035395795285460903
1395.0, 0.0034100855061636806
1396.0, 0.004308155389106221
1397.0, 0.0037489452009157754
1398.0, 0.0023587020302794654
1399.0, 0.0031470371737893346
1400.0, 0.005033946595753394
1401.0, 0.00487319170656155
1402.0, 0.0036659405228529436
1403.0, 0.0036434022525201233
1404.0, 0.0035801685489312745
1405.0, 0.004691963503750817
1406.0, 0.0032016696317974332
1407.0, 0.0034528995865461
1408.0, 0.0021605700773499725
1409.0, 0.003257987894518828
1410.0, 0.004243358718887846
1411.0, 0.0037241904943505055
1412.0, 0.003399305334064714
1413.0, 0.003232862212444937
1414.0, 0.002545783121295465
1415.0, 0.0014625649703808434
1416.0, 0.0021007197155026845
1417.0, 0.002175837400518608
1418.0, 0.00220044232713015
1419.0, 0.00309329428206825
1420.0, 0.0025809114332599366
1421.0, 0.0018772493454730617
1422.0, 0.0019377267709362982
1423.0, 0.0024072087385192706
1424.0, 0.0033385478227655214
1425.0, 0.0009222259664896964
1426.0, 0.002503906106154165
1427.0, 0.0007957541567465694
1428.0, 0.0031618560501422057
1429.0, 0.0034592269234781266
1430.0, 0.001593361636365584
1431.0, 0.0011173579146981807
1432.0, 0.0018991760476385886
1433.0, 0.0013906669149480637
1434.0, 0.0010519245331910361
1435.0, 0.0017349387100204226
1436.0, 0.002034003579182913
1437.0, 0.001790880517940294
1438.0, 0.0017772837095778604
1439.0, 0.0018060200562314396
1440.0, 0.001756475740087648
1441.0, 0.0018806461873607956
1442.0, 0.0019313316832297073
1443.0, 0.002350488983489275
1444.0, 0.0027070666290746476
1445.0, 0.002649782504919655
1446.0, 0.002147516767367246
1447.0, 0.0024538182744493937
1448.0, 0.0004965520042348338
1449.0, 0.004146987089393523
1450.0, 0.0026179383696663385
1451.0, 0.004121650040258303
1452.0, 0.004910355315026948
1453.0, 0.0027793647511997707
1454.0, 0.0032941038761218067
1455.0, 0.0034368598428416337
1456.0, 0.0024574484932263487
1457.0, 0.001983306471525347
1458.0, 0.002319848262414835
1459.0, 0.002356591405384579
1460.0, 0.0026514321870631293
1461.0, 0.0037850333180134824
1462.0, 0.004209809098875604
1463.0, 0.0034459702150829944
1464.0, 0.0022259268754261175
1465.0, 0.0030095942882298965
1466.0, 0.0022309209044102433
1467.0, 0.0023535926723819763
1468.0, 0.0011644804171707245
1469.0, 0.0017087037848877232
1470.0, 0.002876534422630425
1471.0, 0.003720925493412978
1472.0, 0.003099261968947469
1473.0, 0.0015180626876324028
1474.0, 0.00252868872994789
1475.0, 0.004020293455380881
1476.0, 0.0032413880002577933
1477.0, 0.0012181430721426429
1478.0, 0.0014014845962596425
1479.0, 0.000905420402057872
1480.0, 0.0015695575180658897
1481.0, 0.0015565157153238733
1482.0, 0.0009873052093221746
1483.0, 0.002442950390644193
1484.0, 0.0031347611633389598
1485.0, 0.0038349451527976254
1486.0, 0.003638910074498278
1487.0, 0.0020547126630934367
1488.0, 0.0017281015918022696
1489.0, 0.00279277839604475
1490.0, 0.002288924132414623
1491.0, 0.002374788439446029
1492.0, 0.0018341860719782994
1493.0, 0.002109802667589438
1494.0, 0.002059107500752037
1495.0, 0.002210418957239303
1496.0, 0.001101805622158974
1497.0, 0.0022886818495829056
1498.0, 0.002223021779064023
1499.0, 0.0017657580382496251
1500.0, 0.0025643139831170872
1501.0, 0.0011414750429975431
1502.0, 0.0007642212283589973
1503.0, 0.0012745744633630358
1504.0, 0.002445231767641013
1505.0, 0.003322147059052254
1506.0, 0.003557406610704798
1507.0, 0.004045579822071839
1508.0, 0.00317025815279611
1509.0, 0.00207704944725815
1510.0, 0.0019146326868187914
1511.0, 0.000648094561081577
1512.0, 0.0004229960471524498
1513.0, 0.0003300656347901093
1514.0, 0.0005317896129177261
1515.0, 0.0014588173643117542
1516.0, 0.0022117136545734186
1517.0, 0.002666408273394254
1518.0, 0.0010219584983524308
1519.0, 0.001930898136318278
1520.0, 0.002750088449871328
1521.0, 0.0018917296818677903
1522.0, 0.0025876313609534563
1523.0, 0.002225333871255369
1524.0, 0.0016000628717447562
1525.0, 0.0020698224257266187
1526.0, 0.0009183718809878511
1527.0, 0.002138687366121326
1528.0, 0.002077615568805636
1529.0, 0.0019267062829818934
1530.0, 0.002974571409401888
1531.0, 0.002574062903990863
1532.0, 0.0013668252780986519
1533.0, 0.0012568962610377819
1534.0, 0.0023292909800994425
1535.0, 0.0020765392759507775
1536.0, 0.0004285313427131712
1537.0, 0.0014420295397999927
1538.0, 0.0016970227500707714
1539.0, 0.0018927510717181943
1540.0, 0.001952638623911567
1541.0, 0.0024179702671865482
1542.0, 0.0023722128249799405
1543.0, 0.0030963278643466765
1544.0, 0.002573236763819546
1545.0, 0.002362938292476669
1546.0, 0.0030291978332663127
1547.0, 0.00040703106007079336
1548.0, 0.0017520093443868499
1549.0, 0.0017433064055714623
1550.0, 0.0014918697295476344
1551.0, 0.002174699051099601
1552.0, 0.001978522049055545
1553.0, 0.001751679156215389
1554.0, 0.0018825231393055583
1555.0, 0.0020683048003285304
1556.0, 0.0019775515150512765
1557.0, 0.0009248939398492855
1558.0, 0.0008221747138550719
1559.0, 0.0014279132111078537
1560.0, 0.0013263237868485665
1561.0, 0.001749991784113318
1562.0, 0.001895055536441501
1563.0, 0.000968609321270809
1564, 0.0
1565, 0.0
1566, 0.0
1567, 0.0
1568, 0.0
1569, 0.0
1570, 0.0
1571, 0.0
1572, 0.0
1573, 0.0
1574, 0.0
1575, 0.0
1576, 0.0
1577, 0.0
1578, 0.0
1579, 0.0
1580, 0.0
1581, 0.0
1582, 0.0
1583, 0.0
1584, 0.0
1585, 0.0
1586, 0.0
1587, 0.0
1588, 0.0
1589, 0.0
1590, 0.0
1591, 0.0
1592, 0.0
1593, 0.0
1594, 0.0
1595, 0.0
1596, 0.0
1597, 0.0
1598, 0.0
1599, 0.0
