30, 0.0
31, 0.0
32, 0.0
33, 0.0
34, 0.0
35, 0.0
36, 0.0
37, 0.0
38, 0.0
39, 0.0
40, 0.0
41, 0.0
42, 0.0
43, 0.0
44, 0.0
45, 0.0
46, 0.0
47, 0.0
48, 0.0
49, 0.0
50, 0.0
51, 0.0
52, 0.0
53, 0.0
54, 0.0
55, 0.0
56, 0.0
57, 0.0
58, 0.0
59, 0.0
60, 0.0
61, 0.0
62, 0.0
63, 0.0
64, 0.0
65, 0.0
66, 0.0
67, 0.0
68, 0.0
69, 0.0
70, 0.0
71, 0.0
72, 0.0
73, 0.0
74, 0.0
75, 0.0
76, 0.0
77, 0.0
78, 0.0
79, 0.0
80, 0.0
81, 0.0
82, 0.0
83, 0.0
84, 0.0
85, 0.0
86, 0.0
87, 0.0
88, 0.0
89, 0.0
90, 0.0
91, 0.0
92, 0.0
93, 0.0
94, 0.0
95, 0.0
96, 0.0
97, 0.0
98, 0.0
99, 0.0
100, 0.0
101, 0.0
102, 0.0
103, 0.0
104, 0.0
105, 0.0
106, 0.0
107, 0.0
108, 0.0
109, 0.0
110, 0.0
111, 0.0
112, 0.0
113, 0.0
114, 0.0
115, 0.0
116, 0.0
117, 0.0
118, 0.0
119, 0.0
120, 0.0
121, 0.0
122, 0.0
123, 0.0
124, 0.0
125, 0.0
126, 0.0
127, 0.0
128, 0.0
129, 0.0
130, 0.0
131, 0.0
132, 0.0
133, 0.0
134, 0.0
135, 0.0
136, 0.0
137, 0.0
138, 0.0
139, 0.0
140, 0.0
141, 0.0
142, 0.0
143, 0.0
144, 0.0
145, 0.0
146, 0.0
147, 0.0
148, 0.0
149, 0.0
150, 0.0
151, 0.0
152, 0.0
153, 0.0
154, 0.0
155, 0.0
156, 0.0
157, 0.0
158, 0.0
159, 0.0
160, 0.0
161, 0.0
162, 0.0
163, 0.0
164, 0.0
165, 0.0
166, 0.0
167, 0.0
168, 0.0
169, 0.0
170, 0.0
171, 0.0
172, 0.0
173, 0.0
174, 0.0
175, 0.0
176, 0.0
177, 0.0
178, 0.0
179, 0.0
180, 0.0
181, 0.0
182, 0.0
183, 0.0
184, 0.0
185, 0.0
186, 0.0
187, 0.0
188, 0.0
189, 0.0
190, 0.0
191, 0.0
192, 0.0
193, 0.0
194, 0.0
195, 0.0
196, 0.0
197, 0.0
198, 0.0
199, 0.0
200, 0.0
201, 0.0
202, 0.0
203, 0.0
204, 0.0
205, 0.0
206, 0.0
207, 0.0
208, 0.0
209, 0.0
210, 0.0
211, 0.0
212, 0.0
213, 0.0
214, 0.0
215, 0.0
216, 0.0
217, 0.0
218, 0.0
219, 0.0
220, 0.0
221, 0.0
222.0, 0.0020159399623757126
223.0, 0.004150427103636721
224.0, 0.0032110419813260915
225.0, 0.002466862594254253
226.0, 0.007070928994926508
227.0, 0.006831511951057596
228.0, 0.0041878749614031
229.0, 0.007088269603396351
230.0, 0.012731462863547992
231.0, 0.01720740713835579
232.0, 0.018500042139486216
233.0, 0.023883033669153033
234.0, 0.025397229219584195
235.0, 0.030118418033781468
236.0, 0.03605501620884309
237.0, 0.03818923023682902
238.0, 0.035951195019388586
239.0, 0.04706449331402612
240.0, 0.05028399679986606
241.0, 0.05499972793383647
242.0, 0.06207873402788537
243.0, 0.06294773022194405
244.0, 0.06636365226875761
245.0, 0.06345756230327712
246.0, 0.06617109034723047
247.0, 0.06891848117685016
248.0, 0.06776840412634588
249.0, 0.07126312028796906
250.0, 0.07094379159101157
251.0, 0.07485378934073411
252.0, 0.079225172477223
253.0, 0.08255308659310368
254.0, 0.08431113095767699
255.0, 0.08145570497192295
256.0, 0.08488765120091069
257.0, 0.08690911946755177
258.0, 0.08804189543658501
259.0, 0.09015297126908016
260.0, 0.09454793799951139
261.0, 0.09229764213416654
262.0, 0.09597971818024585
263.0, 0.09890154968490139
264.0, 0.09867138078416376
265.0, 0.09623084250141671
266.0, 0.09632914182502186
267.0, 0.09016886788467768
268.0, 0.08865232216514159
269.0, 0.08781665343066072
270.0, 0.08597432820897895
271.0, 0.08410713994592678
272.0, 0.08786589760277835
273.0, 0.08535218255896887
274.0, 0.08796981770628719
275.0, 0.0943226666081208
276.0, 0.09702811215511126
277.0, 0.08884056601819756
278.0, 0.09319888660407707
279.0, 0.0878503059804618
280.0, 0.08079033572245232
281.0, 0.07962012286597105
282.0, 0.08330316692148479
283.0, 0.07968977996489521
284.0, 0.08123448626809737
285.0, 0.08139029727893585
286.0, 0.08049419623785525
287.0, 0.07680609547503404
288.0, 0.07096259384252161
289.0, 0.07058074464262401
290.0, 0.06726202849991629
291.0, 0.06382311419094529
292.0, 0.06272318012050036
293.0, 0.060877824326529814
294.0, 0.05525045110385002
295.0, 0.0554544103899813
296.0, 0.05300565093754253
297.0, 0.051296212269374676
298.0, 0.048508514084046335
299.0, 0.04534721421228477
300.0, 0.04497257568784298
301.0, 0.04997568548715885
302.0, 0.039699702560073886
303.0, 0.03897341104019213
304.0, 0.038854685823349236
305.0, 0.034177974220670516
306.0, 0.03155305872832476
307.0, 0.02869719896205182
308.0, 0.026480983245282277
309.0, 0.025998037548184024
310.0, 0.0259145189401657
311.0, 0.024896230197336878
312.0, 0.02297905422853766
313.0, 0.02339007007757642
314.0, 0.024542386880808866
315.0, 0.023499884472708402
316.0, 0.021951920390919717
317.0, 0.021613244987612343
318.0, 0.019828796607730265
319.0, 0.01739774768125701
320.0, 0.017069132763767397
321.0, 0.015369100348829802
322.0, 0.011829491666683832
323.0, 0.008190465980314296
324.0, 0.007376684821364421
325.0, 0.00596910552798139
326.0, 0.0060245135630701855
327.0, 0.005340398616530275
328.0, 0.00548558517529013
329.0, 0.008622835118649957
330.0, 0.00802204175292852
331.0, 0.009392031513940502
332.0, 0.013789533738449735
333.0, 0.021116606522424423
334.0, 0.02146094482790696
335.0, 0.005717122757737083
336.0, 0.009512397948548723
337.0, 0.008400684332875552
338.0, 0.0036715741526464236
339.0, 0.002915605527799295
340.0, 0.0050605484251861985
341.0, 0.0019651094019836547
342.0, 0.0010869778156516318
343.0, 0.00031663748024931973
344.0, 0.0014698989097951508
345.0, 0.002058685416349298
346.0, 0.0014248154369835427
347.0, 0.0014704020986979838
348.0, 0.0009849927652272007
349.0, 0.004522738061040419
350.0, 0.0036639283399530166
351.0, 0.0017220661228090713
352.0, 0.002515531649785814
353.0, 0.006319397041899562
354.0, 0.0037128676315315596
355.0, 0.004762186106037932
356.0, 0.005845675062286302
357.0, 0.007331246488950425
358.0, 0.009213479767733204
359.0, 0.009785024882446999
360.0, 0.006087188570974862
361.0, 0.018474331925721867
362.0, 0.014762909640635287
363.0, 0.004706312697008924
364.0, 0.002392450916980697
365.0, 0.010268007956273995
366.0, 0.003356309419237276
367.0, 0.00644701709269845
368.0, 0.010862735890606982
369.0, 0.013643118376879726
370.0, 0.013966713471161617
371.0, 0.012666297095693802
372.0, 0.01830856978165957
373.0, 0.018520669820672454
374.0, 0.016330154977573043
375.0, 0.014991605047200235
376.0, 0.016555944323828276
377.0, 0.020376316872681696
378.0, 0.016051775555751525
379.0, 0.023661925941650494
380.0, 0.02694171871450953
381.0, 0.027149602763564713
382.0, 0.030316879630636465
383.0, 0.039797824412795224
384.0, 0.028313811184922967
385.0, 0.033850832366190645
386.0, 0.035550538286063
387.0, 0.03631461846485713
388.0, 0.03767940404543994
389.0, 0.03520744606557697
390.0, 0.036607006287683916
391.0, 0.04285934774724877
392.0, 0.04027578765405057
393.0, 0.03854363915887896
394.0, 0.04050698741592389
395.0, 0.038723074873681075
396.0, 0.03574952123352613
397.0, 0.03258631681630591
398.0, 0.035925455015487606
399.0, 0.03683330805492834
400.0, 0.03413283686473425
401.0, 0.03395998951169483
402.0, 0.03211680655774965
403.0, 0.029548415760930688
404.0, 0.029135186619473816
405.0, 0.02442430910196426
406.0, 0.020253862209081794
407.0, 0.024296183927938607
408.0, 0.019100220592004745
409.0, 0.010377105152293028
410.0, 0.004763546043790186
411.0, 0.008179376069548671
412.0, 0.010084337854731246
413.0, 0.003127780187444802
414.0, 0.018257568487878083
415.0, 0.018847899950145047
416.0, 0.007187376330244398
417.0, 0.003148494428939332
418.0, 0.0045963776603474985
419.0, 0.0028166568700616424
420.0, 0.000878892537251185
421.0, 0.002457527518873067
422.0, 0.003876017898170655
423.0, 0.0023760522048712077
424.0, 0.001090903239579085
425.0, 0.0020825901194545782
426.0, 0.002295809947687077
427.0, 0.006164935965031071
428.0, 0.005024257899313303
429.0, 0.004663754716142617
430.0, 0.005069759379634941
431.0, 0.007605009303859147
432.0, 0.01437239467227263
433.0, 0.005195617705156321
434.0, 0.005702373736765197
435.0, 0.0058013874469815315
436.0, 0.005231410056060868
437.0, 0.004125235933123846
438.0, 0.0020964432785345287
439.0, 0.0012572792035741543
440.0, 0.002313109850516924
441.0, 0.0010193577882177199
442.0, 0.0008654152508615122
443.0, 0.0017618052086179736
444.0, 0.0022483217125801955
445.0, 0.004878057235336519
446.0, 0.008355897792223562
447.0, 0.004955449631569211
448.0, 0.006752548774713043
449.0, 0.007234177504922707
450.0, 0.002589984856146218
451.0, 0.007298312276236401
452.0, 0.0052371076836184175
453.0, 0.009098897991475655
454.0, 0.007744256487783815
455.0, 0.00593054467381647
456.0, 0.007666676712570975
457.0, 0.010717198450742892
458.0, 0.013580078193587388
459.0, 0.010548212114626143
460.0, 0.00843145569793969
461.0, 0.008687941554814598
462.0, 0.00895243598117021
463.0, 0.00781894332492558
464.0, 0.015066383675605678
465.0, 0.009400257319964023
466.0, 0.012252311955423882
467.0, 0.013014912516708381
468.0, 0.012100247316132073
469.0, 0.014286616638941107
470.0, 0.01967890138507905
471.0, 0.014738165609132612
472.0, 0.017697917520018862
473.0, 0.015698053068074525
474.0, 0.01143706738759721
475.0, 0.010313511859590688
476.0, 0.013560970796980808
477.0, 0.011196519719374132
478.0, 0.013321351742859514
479.0, 0.015175013713676157
480.0, 0.015678813827736313
481.0, 0.01343756085674492
482.0, 0.009239161382879587
483.0, 0.011020723245827917
484.0, 0.009911287032267926
485.0, 0.008654303809723837
486.0, 0.009786763078081826
487.0, 0.009167442488734306
488.0, 0.006262869879784403
489.0, 0.00867141640911612
490.0, 0.008418227474597993
491.0, 0.009307828311080998
492.0, 0.008455119168155705
493.0, 0.007197228682044492
494.0, 0.007259328940831845
495.0, 0.008989682260601272
496.0, 0.009494081733905126
497.0, 0.007549252431990936
498.0, 0.008102355986592664
499.0, 0.005895419855401853
500.0, 0.003520080431630289
501.0, 0.004656519166311609
502.0, 0.007242496921382607
503.0, 0.005421770290498555
504.0, 0.0023822699487952587
505.0, 0.0013612932612120673
506.0, 0.0034544080567569086
507.0, 0.006104482762732903
508.0, 0.00608021425896851
509.0, 0.008920140202584335
510.0, 0.002177111230168923
511.0, 0.006092203049808138
512.0, 0.008083020253407324
513.0, 0.00967937674366023
514.0, 0.013393441769825608
515.0, 0.010741642173591925
516.0, 0.01467544739073082
517.0, 0.024646081950452307
518.0, 0.024955216470636206
519.0, 0.022124548178654613
520.0, 0.02276009773508666
521.0, 0.026296701559257698
522.0, 0.02334135152794551
523.0, 0.025002305170688997
524.0, 0.027009609762722528
525.0, 0.02706420422584213
526.0, 0.027094294465442984
527.0, 0.028235858454452208
528.0, 0.02797908621869091
529.0, 0.028083638738426796
530.0, 0.02549857969561237
531.0, 0.0261919717682297
532.0, 0.02796901820631058
533.0, 0.027980478420690163
534.0, 0.025046834784058628
535.0, 0.020776369767728047
536.0, 0.020907608949487542
537.0, 0.01986308196650377
538.0, 0.020177147955870688
539.0, 0.021037813557437564
540.0, 0.021126751750218414
541.0, 0.02024807634317208
542.0, 0.019623863738077195
543.0, 0.017277648813475353
544.0, 0.015395260124741463
545.0, 0.014008861347177853
546.0, 0.012553951823347037
547.0, 0.01066939943154665
548.0, 0.008849994374434613
549.0, 0.008525979115853887
550.0, 0.008202609012992312
551.0, 0.00838122115322253
552.0, 0.008175429450964453
553.0, 0.006270640051860904
554.0, 0.003249266949110907
555.0, 0.004978340626017429
556.0, 0.009642584501941692
557.0, 0.006202719267975205
558.0, 0.0070828503178821545
559.0, 0.00837026840943929
560.0, 0.006428481862919975
561.0, 0.003999591826018472
562.0, 0.0006933912931602389
563.0, 0.009390509843768026
564.0, 0.011119218391273823
565.0, 0.009129762254810488
566.0, 0.005951013126396333
567.0, 0.0033359712821157414
568.0, 0.0028880449236544257
569.0, 0.0012188162669999167
570.0, 0.0007357677266981805
571.0, 0.00049431619113774
572.0, 0.003419185484929446
573.0, 0.004487032410269612
574.0, 0.0003573548498774433
575.0, 0.00185238755683526
576.0, 0.004018895626239534
577.0, 0.004250700749982272
578.0, 0.001770297877953003
579.0, 0.0002709209159165962
580.0, 0.0005345627778699949
581.0, 0.0016747590126616465
582.0, 0.007198657903943328
583.0, 0.0024637178173767924
584.0, 0.009136706605845667
585.0, 0.00565488908873035
586.0, 0.00258250863815013
587.0, 0.00422940446855174
588.0, 0.002808304304024968
589.0, 0.007123638302480894
590.0, 0.0022701423431410973
591.0, 0.00147478066635716
592.0, 0.0022582677964929827
593.0, 0.004940440630520423
594.0, 0.007763307362546798
595.0, 0.006699414733868984
596.0, 0.004829706194462344
597.0, 0.002461040545350326
598.0, 0.001580310337242522
599.0, 0.0026671958235565344
600.0, 0.003592435131617999
601.0, 0.003132356424950628
602.0, 0.0030660864980080887
603.0, 0.006549099874544886
604.0, 0.0039145002111788604
605.0, 0.0043443904685210285
606.0, 0.004009822962439622
607.0, 0.004156366290599874
608.0, 0.0051720951552683735
609.0, 0.003193932070565883
610.0, 0.0038301540989211405
611.0, 0.004351212084157148
612.0, 0.003834448095729798
613.0, 0.0053215144774841515
614.0, 0.00552387363579233
615.0, 0.003697020139969905
616.0, 0.006942384242198931
617.0, 0.012024337752521132
618.0, 0.013821700738682522
619.0, 0.009014290544843762
620.0, 0.0037150865272210483
621.0, 0.004933488641552081
622.0, 0.01014421790731036
623.0, 0.006684162798690685
624.0, 0.010866039503038251
625.0, 0.011993100558241576
626.0, 0.010764248032451742
627.0, 0.009130502504410913
628.0, 0.010601032054762672
629.0, 0.014382407175474612
630.0, 0.013743523510687118
631.0, 0.01208120073861064
632.0, 0.009316560852019366
633.0, 0.015064507234894161
634.0, 0.01596913905493129
635.0, 0.015236251737769643
636.0, 0.016349036168119842
637.0, 0.012685990966511834
638.0, 0.017554128548683177
639.0, 0.012656477695343834
640.0, 0.012014752670839877
641.0, 0.013674097337006674
642.0, 0.017049460826698636
643.0, 0.018567513967914256
644.0, 0.01366968803323213
645.0, 0.017880538348722993
646.0, 0.017192763697503933
647.0, 0.016198805470119725
648.0, 0.011578956136876628
649.0, 0.010650409660956282
650.0, 0.013432843958386
651.0, 0.01092211033708655
652.0, 0.010586167114109559
653.0, 0.01435339842053363
654.0, 0.01978215453337526
655.0, 0.01826926756896273
656.0, 0.014476633723182456
657.0, 0.011530219355818555
658.0, 0.008257933527495835
659.0, 0.00845304697072203
660.0, 0.013817815476237215
661.0, 0.01203758650783726
662.0, 0.011559479051055078
663.0, 0.015014814882972117
664.0, 0.014901077407394332
665.0, 0.009137559352364016
666.0, 0.019213797461124178
667.0, 0.014423331934057534
668.0, 0.009069974926733233
669.0, 0.009054962749845588
670.0, 0.007478861317537833
671.0, 0.006366238148283655
672.0, 0.009002554082660309
673.0, 0.009774323268866441
674.0, 0.01243531827087685
675.0, 0.010190842570620553
676.0, 0.011936174964033904
677.0, 0.012941430713347047
678.0, 0.014047614933297299
679.0, 0.015740948596383232
680.0, 0.015350383487103814
681.0, 0.017194678125680474
682.0, 0.014214042424805427
683.0, 0.013444532678304144
684.0, 0.01329146903821304
685.0, 0.01358662992920634
686.0, 0.01259142768332559
687.0, 0.009377257675832033
688.0, 0.010116579333143052
689.0, 0.01365897937844689
690.0, 0.014113226192402717
691.0, 0.017283926916400787
692.0, 0.019587322656944794
693.0, 0.020583248348644168
694.0, 0.02078699731624225
695.0, 0.018051035461938793
696.0, 0.024475074857211482
697.0, 0.021078427681760395
698.0, 0.022110373524092848
699.0, 0.022182711866842033
700.0, 0.023445129254572337
701.0, 0.026057149169711157
702.0, 0.025838244242423775
703.0, 0.03025804392109701
704.0, 0.030852231099379242
705.0, 0.029038555855339092
706.0, 0.02931468509149277
707.0, 0.031507181044076515
708.0, 0.03285211476950608
709.0, 0.03291253135045378
710.0, 0.03656213230757664
711.0, 0.033733755785738666
712.0, 0.03141854527213323
713.0, 0.03385425916612521
714.0, 0.03819429387831898
715.0, 0.040501380848350844
716.0, 0.04132293281791834
717.0, 0.04457153286613834
718.0, 0.04462492606226718
719.0, 0.05104648954635177
720.0, 0.05323219754600957
721.0, 0.04903655787665983
722.0, 0.05052033535188371
723.0, 0.054463063384614874
724.0, 0.05290094862290938
725.0, 0.0574818448054528
726.0, 0.05683612765678003
727.0, 0.06269149981704629
728.0, 0.06388332605017702
729.0, 0.06698070391432469
730.0, 0.06889532447281879
731.0, 0.06863992872075508
732.0, 0.07204415654357414
733.0, 0.07748448876208118
734.0, 0.07223264504650072
735.0, 0.07872033305047713
736.0, 0.08942193115226889
737.0, 0.09258240708945822
738.0, 0.0872909681287453
739.0, 0.08361346209714035
740.0, 0.09097405039893727
741.0, 0.09058605263182398
742.0, 0.0961225910115326
743.0, 0.09888449937084941
744.0, 0.10165281801450626
745.0, 0.1034483561954691
746.0, 0.10423841434580426
747.0, 0.10643672568811435
748.0, 0.11140825311331888
749.0, 0.10624538903571072
750.0, 0.11374339872732427
751.0, 0.1159569690127944
752.0, 0.11693955783737803
753.0, 0.11884601701311444
754.0, 0.12077069061876555
755.0, 0.12148819588388773
756.0, 0.12165337655244302
757.0, 0.1252359706812457
758.0, 0.13583498453474618
759.0, 0.1357744110108144
760.0, 0.1348756548089248
761.0, 0.1381861404291302
762.0, 0.14144390316852928
763.0, 0.14032088191703707
764.0, 0.14677312275845594
765.0, 0.1473124408359925
766.0, 0.1512868491934719
767.0, 0.156114768053603
768.0, 0.15672452940354956
769.0, 0.15614859680491422
770.0, 0.1589272136949846
771.0, 0.16124623009017466
772.0, 0.16093967348323
773.0, 0.16179916529252208
774.0, 0.16534755998520975
775.0, 0.16854412778072125
776.0, 0.16940438707750427
777.0, 0.16786400415685745
778.0, 0.16747462575800356
779.0, 0.17371009441383412
780.0, 0.17380928906032142
781.0, 0.17852962885854565
782.0, 0.17226029624909364
783.0, 0.18068976249690605
784.0, 0.1856162613781507
785.0, 0.18416523142304939
786.0, 0.18843457918597936
787.0, 0.1840666759230615
788.0, 0.19102432877389994
789.0, 0.1873236970308956
790.0, 0.18929606406586946
791.0, 0.19241449934880178
792.0, 0.19412873057072935
793.0, 0.1962092232682356
794.0, 0.19916965404849896
795.0, 0.19677946184428824
796.0, 0.19738867339031452
797.0, 0.19800081986959908
798.0, 0.20178254660654263
799.0, 0.20794856109425977
800.0, 0.20950852560808278
801.0, 0.20573113573097399
802.0, 0.20382714920481632
803.0, 0.2092235126506439
804.0, 0.21296389966727014
805.0, 0.2169371359848879
806.0, 0.2170349015373876
807.0, 0.22164492013436507
808.0, 0.22836216523105096
809.0, 0.23007242441096426
810.0, 0.22782355432532092
811.0, 0.23495024989531524
812.0, 0.23818769748849028
813.0, 0.2481418905706278
814.0, 0.24711526010149007
815.0, 0.25176714547462425
816.0, 0.25726548577311154
817.0, 0.2587969791857303
818.0, 0.2604983276560168
819.0, 0.2681742824018261
820.0, 0.27068600613319255
821.0, 0.27792945609409125
822.0, 0.2807311541501586
823.0, 0.28225289382178315
824.0, 0.2882382192485948
825.0, 0.29601207719114114
826.0, 0.2998363148507182
827.0, 0.3008835018151769
828.0, 0.308620256628878
829.0, 0.31659244665770825
830.0, 0.3153242266508379
831.0, 0.3197898399803237
832.0, 0.32076339418632993
833.0, 0.327610091495627
834.0, 0.33927282902938727
835.0, 0.34025725470965856
836.0, 0.3506810008251343
837.0, 0.35169520488346356
838.0, 0.3664638631199553
839.0, 0.41267213223259097
840.0, 0.4072476421422527
841.0, 0.3872197380990709
842.0, 0.4157972151453821
843.0, 0.46495336322893094
844.0, 0.42002455998070837
845.0, 0.4306834017317918
846.0, 0.43435929324178213
847.0, 0.4514489532112374
848.0, 0.46730833407051503
849.0, 0.484178606926262
850.0, 0.5032435701067174
851.0, 0.5214758917835347
852.0, 0.5388540586108335
853.0, 0.562469350072171
854.0, 0.579301603007292
855.0, 0.6052461332854637
856.0, 0.6338322805745942
857.0, 0.6602479125797539
858.0, 0.6811164050690335
859.0, 0.7050469776743291
860.0, 0.7413456625237845
861.0, 0.7730461390611212
862.0, 0.7958918929457616
863.0, 0.8345827162267346
864.0, 0.8813110326634382
865.0, 0.9101768299371069
866.0, 0.9355018901316056
867.0, 0.9622795711022901
868.0, 0.9818954638709995
869.0, 0.9916974426275724
870.0, 0.9892769677686324
871.0, 0.9989373571662608
872.0, 0.9934203277961094
873.0, 0.9623453340879142
874.0, 0.9337578839289064
875.0, 0.9008783596694561
876.0, 0.8515210478296683
877.0, 0.794653102643871
878.0, 0.7455481028209281
879.0, 0.6773378029604387
880.0, 0.617818329042742
881.0, 0.5509129471781623
882.0, 0.4925724831048737
883.0, 0.4344524000573811
884.0, 0.3813776525676428
885.0, 0.337389834095149
886.0, 0.29490339492373296
887.0, 0.2635985032949008
888.0, 0.23576034558010886
889.0, 0.204413679786511
890.0, 0.18189111395012864
891.0, 0.16335351076933144
892.0, 0.1470350978124207
893.0, 0.13217886013200897
894.0, 0.11946103515159293
895.0, 0.10959526829688274
896.0, 0.09252500247475719
897.0, 0.08790535986526883
898.0, 0.08093798792357168
899.0, 0.0708471648910987
900.0, 0.06644710340577539
901.0, 0.06139787308870428
902.0, 0.05263504238589931
903.0, 0.0453040317100559
904.0, 0.04155974968644584
905.0, 0.0425556387692134
906.0, 0.03644283251812473
907.0, 0.03209689148815039
908.0, 0.03266401126723962
909.0, 0.03040890678511029
910.0, 0.027548455317836822
911.0, 0.025850854999670034
912.0, 0.022817189774710665
913.0, 0.019609562483570077
914.0, 0.014444101599530832
915.0, 0.01707187727291064
916.0, 0.01573125595188295
917.0, 0.012688277716155261
918.0, 0.012031153559008387
919.0, 0.011726258632754708
920.0, 0.009824783684242574
921.0, 0.008002453767540676
922.0, 0.007088789461697997
923.0, 0.002333740635287113
924.0, 0.004651931585572612
925.0, 0.005207206449738226
926.0, 0.005005834002517534
927.0, 0.007664908302701341
928.0, 0.009183895088707504
929.0, 0.008063432979614553
930.0, 0.007395203220918996
931.0, 0.006354977448529617
932.0, 0.005230775888160885
933.0, 0.0029716639676299313
934.0, 0.0077842838021920675
935.0, 0.0034794462807183897
936.0, 0.0015268116494774758
937.0, 0.0021499844587231825
938.0, 0.0032642961618272576
939.0, 0.005551952161596304
940.0, 0.005900554155669759
941.0, 0.0025119642991726573
942.0, 0.0006115227794432989
943.0, 0.00015263794229285524
944.0, 0.004111110052339356
945.0, 0.0044563680309445425
946.0, 0.003937274209939149
947.0, 0.004847696339823613
948.0, 0.004601192552711716
949.0, 0.002787454263314442
950.0, 0.0068617814183836
951.0, 0.0037745816851327287
952.0, 0.0035243305147929275
953.0, 0.00234639501161444
954.0, 0.0029977420791807772
955.0, 0.0040397376144513265
956.0, 0.0033268962148386046
957.0, 0.0026178424732903787
958.0, 0.0047774487067514925
959.0, 0.005617362410874514
960.0, 0.007456674699168488
961.0, 0.003545670182344386
962.0, 0.003352352147473952
963.0, 0.006790641263215196
964.0, 0.004059509039112937
965.0, 0.0021121453130293092
966.0, 0.0030290289821361316
967.0, 0.0020902514427057492
968.0, 0.0051015349416571
969.0, 0.0007245890823782305
970.0, 0.0025535119835448537
971.0, 0.0041570728002075855
972.0, 0.0014487401119805017
973.0, 0.002159482968540535
974.0, 0.00358024533712719
975.0, 0.003789511649741957
976.0, 0.005281456525812359
977.0, 0.007985902647267742
978.0, 0.005302592414023722
979.0, 0.009536015217718862
980.0, 0.010803377040420153
981.0, 0.010017007264364714
982.0, 0.012588123977918203
983.0, 0.01447881111048452
984.0, 0.012650616081085805
985.0, 0.012603167871117073
986.0, 0.017433015995354254
987.0, 0.018797521488323303
988.0, 0.023076274573651658
989.0, 0.023785453273580354
990.0, 0.021565889599081314
991.0, 0.0211257018331744
992.0, 0.019007174712235002
993.0, 0.016859890254612903
994.0, 0.018711313505061587
995.0, 0.023815592442368007
996.0, 0.02612741375910413
997.0, 0.023156342032775373
998.0, 0.023781159469051003
999.0, 0.020716850695353832
1000.0, 0.016737783117414983
1001.0, 0.018368012730966343
1002.0, 0.020442128703690055
1003.0, 0.02121126317655661
1004.0, 0.01871602602715097
1005.0, 0.015595570102626122
1006.0, 0.016729599251439423
1007.0, 0.01554154191712431
1008.0, 0.014244266463344448
1009.0, 0.0171236303819551
1010.0, 0.01313129152460322
1011.0, 0.014273873669185675
1012.0, 0.015050206710010288
1013.0, 0.015575697465400612
1014.0, 0.016956185489548522
1015.0, 0.017556563180212266
1016.0, 0.016937756665229158
1017.0, 0.018741065674739453
1018.0, 0.013836541786757682
1019.0, 0.014964866712636093
1020.0, 0.020127043951010906
1021.0, 0.017377347912214916
1022.0, 0.016422100285657704
1023.0, 0.019061523749265164
1024.0, 0.0205582711602802
1025.0, 0.01901554384648213
1026.0, 0.017215217925488073
1027.0, 0.01651024842447145
1028.0, 0.022720723378038345
1029.0, 0.01806602982597244
1030.0, 0.01961667456373398
1031.0, 0.017236579603910594
1032.0, 0.016074538957794066
1033.0, 0.018182628505152048
1034.0, 0.02124132803439833
1035.0, 0.022981532179958915
1036.0, 0.022215948908910602
1037.0, 0.01815967412242235
1038.0, 0.020426173472601394
1039.0, 0.019783413900371815
1040.0, 0.019022943096288946
1041.0, 0.021700318897744555
1042.0, 0.01962597156703089
1043.0, 0.019950437991415923
1044.0, 0.02178610132619799
1045.0, 0.022630722462393144
1046.0, 0.02346634427173022
1047.0, 0.022277029355838175
1048.0, 0.022096567144573098
1049.0, 0.02472603569711589
1050.0, 0.025725206115041366
1051.0, 0.02440988255258153
1052.0, 0.028900082879860265
1053.0, 0.02936737738789351
1054.0, 0.024406417330923365
1055.0, 0.025085708691554624
1056.0, 0.030361307992884126
1057.0, 0.027373706633527728
1058.0, 0.03027612842017174
1059.0, 0.02727869572417112
1060.0, 0.028112836252601022
1061.0, 0.028347479695462887
1062.0, 0.030903543973026273
1063.0, 0.030257162119850432
1064.0, 0.03150478088361722
1065.0, 0.032038547618598305
1066.0, 0.02935777274415898
1067.0, 0.02853314953437519
1068.0, 0.03152862238095203
1069.0, 0.02993883736541938
1070.0, 0.03133704508488732
1071.0, 0.033442981344577315
1072.0, 0.03024128875518071
1073.0, 0.0330838893695528
1074.0, 0.03126886795752252
1075.0, 0.03201790656169144
1076.0, 0.031286199427270504
1077.0, 0.027694582197122192
1078.0, 0.03066249552262454
1079.0, 0.031288584167968286
1080.0, 0.030136224017666444
1081.0, 0.02462052080042125
1082.0, 0.027534491208361198
1083.0, 0.024323900774319007
1084.0, 0.026953124488857325
1085.0, 0.026525538295930295
1086.0, 0.024299537197468257
1087.0, 0.022314438549543073
1088.0, 0.021578032622635017
1089.0, 0.023795100797362936
1090.0, 0.02305145936915888
1091.0, 0.020956814913792556
1092.0, 0.020158454822912463
1093.0, 0.01875930919780807
1094.0, 0.019862591248598772
1095.0, 0.01998388652933797
1096.0, 0.020349714332956337
1097.0, 0.02018956412304692
1098.0, 0.018683467110754377
1099.0, 0.01759640019641692
1100.0, 0.019714384103047718
1101.0, 0.023845319820740056
1102.0, 0.02129451455741799
1103.0, 0.02114397430134005
1104.0, 0.020395681776709838
1105.0, 0.018193306101686162
1106.0, 0.016724588384826385
1107.0, 0.014463785416721726
1108.0, 0.01503709010909938
1109.0, 0.017526897586397142
1110.0, 0.018666167996817938
1111.0, 0.017244377992634157
1112.0, 0.012955741391808197
1113.0, 0.014672394202776672
1114.0, 0.013573627011965598
1115.0, 0.012378040097245505
1116.0, 0.014977406981222186
1117.0, 0.011839275810220616
1118.0, 0.012442306300818756
1119.0, 0.013570923220740468
1120.0, 0.014164184876995452
1121.0, 0.014206987275762811
1122.0, 0.012712959457181927
1123.0, 0.01253286644283552
1124.0, 0.014566902570194275
1125.0, 0.01502833429590436
1126.0, 0.012893501230984105
1127.0, 0.0140204820772673
1128.0, 0.010132002327751808
1129.0, 0.0093043508792824
1130.0, 0.011445823353382388
1131.0, 0.011666982446137465
1132.0, 0.011231994369359838
1133.0, 0.012172254025020292
1134.0, 0.010671312723751469
1135.0, 0.006685472433753078
1136.0, 0.01078515786155786
1137.0, 0.01080096555786262
1138.0, 0.006329032201893181
1139.0, 0.009567794990313643
1140.0, 0.007977042018465885
1141.0, 0.005811610703116416
1142.0, 0.004381229172769213
1143.0, 0.004971804161316187
1144.0, 0.007769730299227071
1145.0, 0.00852662917910505
1146.0, 0.006405858013119009
1147.0, 0.010995941509988574
1148.0, 0.01029617370503045
1149.0, 0.006375690889953141
1150.0, 0.003574613405639276
1151.0, 0.008868012882705466
1152.0, 0.005063246795455147
1153.0, 0.00476089754668972
1154.0, 0.006183005885344039
1155.0, 0.004087678425478773
1156.0, 0.0043033294968091735
1157.0, 0.00882778118599315
1158.0, 0.008047709368120517
1159.0, 0.004643361548069458
1160.0, 0.0008736536351432482
1161.0, 0.01280500669037269
1162.0, 0.008622955316290292
1163.0, 0.005737508364320561
1164.0, 0.004628274781437179
1165.0, 0.0029366063584430964
1166.0, 0.00454446003211275
1167.0, 0.004181371664315903
1168.0, 0.004731886206340444
1169.0, 0.008065840185463509
1170.0, 0.006820252876123061
1171.0, 0.00657866996213564
1172.0, 0.004461434762762769
1173.0, 0.004622644053798006
1174.0, 0.006333223289935868
1175.0, 0.006101542331377738
1176.0, 0.003928810792232233
1177.0, 0.00761576156897927
1178.0, 0.005375951489735289
1179.0, 0.0036643370539823613
1180.0, 0.005478585124623
1181.0, 0.0048583286823959335
1182.0, 0.001945205025183013
1183.0, 0.002364874266887658
1184.0, 0.004227908967665575
1185.0, 0.0054695479175290536
1186.0, 0.0017335027849864277
1187.0, 0.00114639925958822
1188.0, 0.004418433108968832
1189.0, 0.002526578845353469
1190.0, 0.0053761193074536974
1191.0, 0.005384237643231407
1192.0, 0.0026604533006923466
1193.0, 0.0012742585425269722
1194.0, 0.002166262959470027
1195.0, 0.004642301892073811
1196.0, 0.0060294599500582404
1197.0, 0.007821849989583794
1198.0, 0.004100675280678749
1199.0, 0.00284422957928764
1200.0, 0.001660902751197579
1201.0, 0.007031418507315241
1202.0, 0.005288412991757196
1203.0, 0.00882910753456373
1204.0, 0.008695779645921492
1205.0, 0.003940602920277269
1206.0, 0.000950318816392074
1207.0, 0.0009746092022394749
1208.0, 0.0017281840839235196
1209.0, 0.0017544405372629732
1210.0, 0.002471455068335005
1211.0, 0.0020989448095665077
1212.0, 0.005544959835968936
1213.0, 0.0054209821992139
1214.0, 0.002687228961373464
1215.0, 0.004535997113935075
1216.0, 0.002881147018784589
1217.0, 0.0026841687667960054
1218.0, 0.002828550180564293
1219.0, 0.0019490837704399411
1220.0, 0.0028317218846937503
1221.0, 0.0035752217038535435
1222.0, 0.000627331327809524
1223.0, 0.0019913012489245225
1224.0, 0.0005443750093635812
1225.0, 0.00170811444318246
1226.0, 0.005599335104420032
1227.0, 0.003549232329318356
1228.0, 0.00582409540956636
1229.0, 0.002108602781133736
1230.0, 0.005122952137060024
1231.0, 0.004814265652722879
1232.0, 0.0015605898083539721
1233.0, 0.005235487806378517
1234.0, 0.009394721698511837
1235.0, 0.005196234724679301
1236.0, 0.0042022178459981165
1237.0, 0.0018703549794803075
1238.0, 0.007832551394672604
1239.0, 0.005350720834629848
1240.0, 0.005792106858609766
1241.0, 0.0027176707973701874
1242.0, 0.0041109543047090835
1243.0, 0.005654240389125237
1244.0, 0.0038856103244105595
1245.0, 0.0017196511889012976
1246.0, 0.0014084386458245103
1247.0, 0.0013354035191124468
1248.0, 0.0007227891515798996
1249.0, 0.0010978166110091865
1250.0, 0.0019573637777826605
1251.0, 0.0049310837488812445
1252.0, 0.00642773908940894
1253.0, 0.0018298647758687443
1254.0, 0.0034515372882154742
1255.0, 0.0017494672385418423
1256.0, 0.003077979624054052
1257.0, 0.005077095592616832
1258.0, 0.003548680302831778
1259.0, 0.002050136490515208
1260.0, 0.004686900469180912
1261.0, 0.005675760500797458
1262.0, 0.004085241799149576
1263.0, 0.006608419835660178
1264.0, 0.005960907182825754
1265.0, 0.007689904044461311
1266.0, 0.006238978678298505
1267.0, 0.0007578894259780027
1268.0, 0.0049276134437050015
1269.0, 0.002524310914298041
1270.0, 0.005513401564864601
1271.0, 0.004651136181513196
1272.0, 0.0019027466011427318
1273.0, 0.0035642460788155015
1274.0, 0.0031565442894420422
1275.0, 0.002940780384911785
1276.0, 0.003664725901246933
1277.0, 0.0021127559903484387
1278.0, 0.005666689129063591
1279.0, 0.0064806788920424
1280.0, 0.005265468572288866
1281.0, 0.0007389707450425587
1282.0, 0.0032710936987349975
1283.0, 0.0007353046413916858
1284.0, 0.0006948681285134355
1285.0, 0.0005298994563550358
1286.0, 0.0011647339294575526
1287.0, 0.0042430758008469745
1288.0, 0.003931005825412074
1289.0, 0.007334253451779329
1290.0, 0.008761794751106907
1291.0, 0.004131634427202163
1292.0, 0.0040995321818418605
1293.0, 0.006811001330169027
1294.0, 0.006595358201090232
1295.0, 0.00947034661558814
1296.0, 0.004773819518055849
1297.0, 0.007988928486520596
1298.0, 0.003917797137860812
1299.0, 0.008829751705836272
1300.0, 0.00981214391087856
1301.0, 0.004417086182626641
1302.0, 0.006473063136859621
1303.0, 0.00778106990598512
1304.0, 0.0075070811628224566
1305.0, 0.006948416608529034
1306.0, 0.006545922694791793
1307.0, 0.008085489801085883
1308.0, 0.00794943265676037
1309.0, 0.0028044562397546375
1310.0, 0.00438579381387467
1311.0, 0.01049395269221601
1312.0, 0.004683459435695496
1313.0, 0.007708444607957667
1314.0, 0.012001367372521147
1315.0, 0.011113812983853496
1316.0, 0.0063277952723778145
1317.0, 0.005733384315427557
1318.0, 0.007106901816558325
1319.0, 0.004690940342673955
1320.0, 0.004142741107138782
1321.0, 0.006127980420443507
1322.0, 0.006922244594293012
1323.0, 0.0070188950082280205
1324.0, 0.007682972647284359
1325.0, 0.007773952336981039
1326.0, 0.00653708367458974
1327.0, 0.007365229376984892
1328.0, 0.004767175559639795
1329.0, 0.007966026044173326
1330.0, 0.008638258338764386
1331.0, 0.007556469677268272
1332.0, 0.00865040309768519
1333.0, 0.008697890050669023
1334.0, 0.00904974370584749
1335.0, 0.009287459319303162
1336.0, 0.009830575323731413
1337.0, 0.010630456156324342
1338.0, 0.011258126627805773
1339.0, 0.010102433688323182
1340.0, 0.008170282936165814
1341.0, 0.008554268280751565
1342.0, 0.00873869428020505
1343.0, 0.008963602870189323
1344.0, 0.01041445971070304
1345.0, 0.008801847515858567
1346.0, 0.011480243359734769
1347.0, 0.008511100194323488
1348.0, 0.010244145172401593
1349.0, 0.011849602301530187
1350.0, 0.009208026113034784
1351.0, 0.009849675835305546
1352.0, 0.012774171123607505
1353.0, 0.011415231980506712
1354.0, 0.008963613909811242
1355.0, 0.010104703036914605
1356.0, 0.009258604872474492
1357.0, 0.007849244903634065
1358.0, 0.011683312023693031
1359.0, 0.01128725098155955
1360.0, 0.009634693557433804
1361.0, 0.0071811889189402015
1362.0, 0.005988939988177602
1363.0, 0.0061793952567914655
1364.0, 0.00855397473642282
1365.0, 0.009776800157676738
1366.0, 0.009373832016550112
1367.0, 0.0072168420228970916
1368.0, 0.011019571674201372
1369.0, 0.010239424903438894
1370.0, 0.005939591077955004
1371.0, 0.006457161053766533
1372.0, 0.009262207966589879
1373.0, 0.010557945744910148
1374.0, 0.008313660207567575
1375.0, 0.005925617741256504
1376.0, 0.007184689394520922
1377.0, 0.006332463486954261
1378.0, 0.006413589603953504
1379.0, 0.008473328073847758
1380.0, 0.004792122337401444
1381.0, 0.008015383007755053
1382.0, 0.008211348014261884
1383.0, 0.009856237461943572
1384.0, 0.008482255165232641
1385.0, 0.007833657929160047
1386.0, 0.00995167150000243
1387.0, 0.01119551481553014
1388.0, 0.01005560408583111
1389.0, 0.010613382919621352
1390.0, 0.008330625653102696
1391.0, 0.006802982617171318
1392.0, 0.00902145968993611
1393.0, 0.010095888697474674
1394.0, 0.009771140445820135
1395.0, 0.011082317253251945
1396.0, 0.009720159467432207
1397.0, 0.0066077550011416275
1398.0, 0.010749121231386603
1399.0, 0.011122824410227928
1400.0, 0.010838565092529017
1401.0, 0.0023779647263439006
1402.0, 0.0009251266943436226
1403.0, 0.0054653354421156704
1404.0, 0.011255109487616145
1405.0, 0.011583916237505135
1406.0, 0.010897775579533414
1407.0, 0.009309164902076826
1408.0, 0.00803929905192594
1409.0, 0.006188392354348757
1410.0, 0.005184683619268855
1411.0, 0.0045992191374633245
1412.0, 0.004327274897983877
1413.0, 0.003325741340054446
1414.0, 0.00405730776940006
1415.0, 0.00847338447572937
1416.0, 0.008620226749870487
1417.0, 0.005024723784890456
1418.0, 0.005049218923664875
1419.0, 0.003623044827546002
1420.0, 0.0024450009005525255
1421.0, 0.006181431039921838
1422.0, 0.007195915986558506
1423.0, 0.013060838382601473
1424.0, 0.0066398458660226565
1425.0, 0.004666100177633905
1426.0, 0.005304581179447901
1427.0, 0.010387144052728435
1428.0, 0.008904511621674046
1429.0, 0.006683790000908536
1430.0, 0.0041017122912571325
1431.0, 0.0027286321874052414
1432.0, 0.0035837381673033374
1433.0, 0.004800157619966995
1434.0, 0.004767019864906539
1435.0, 0.003580250855017213
1436.0, 0.0019718133135151346
1437.0, 0.0015101859060384871
1438.0, 0.0027361091101420253
1439.0, 0.0017126304292021978
1440.0, 0.0007722594889183372
1441.0, 0.0031157271931337494
1442.0, 0.001590720641339321
1443.0, 0.0008579902556366603
1444.0, 0.0011660078639458224
1445.0, 0.0005280565700904593
1446.0, 0.0012523302614097555
1447.0, 0.0011651364951132017
1448.0, 0.00041035381892206603
1449.0, 0.0015463699714285983
1450.0, 0.0006579262024696616
1451.0, 0.0011088147504136482
1452.0, 0.003517002528436064
1453.0, 0.0023807264495356983
1454.0, 0.0007540467985034802
1455.0, 0.0013997807032354998
1456.0, 0.004211052681448541
1457.0, 0.005586370951401476
1458.0, 0.006445686686609081
1459.0, 0.007410556113972408
1460.0, 0.003162899941870262
1461.0, 0.0020844875150715907
1462.0, 0.004293232250272517
1463.0, 0.0041676107786670375
1464.0, 0.002060916475374656
1465.0, 0.004645659311466533
1466.0, 0.005033410217521708
1467.0, 0.005057322719499744
1468.0, 0.002663735042758733
1469.0, 0.008956288177123371
1470.0, 0.0024207336187311882
1471.0, 0.006304384535292338
1472.0, 0.005974538492402112
1473.0, 0.00171529791644857
1474.0, 0.0025622988729943567
1475.0, 0.0047265035244939265
1476.0, 0.005694095429143589
1477.0, 0.0022287365725321426
1478.0, 0.0013975341422252092
1479.0, 0.0017906358066983822
1480.0, 0.0008099481412015324
1481.0, 0.0019678072539933422
1482.0, 0.002678785079810713
1483.0, 0.0016241635934700167
1484.0, 0.0023698333046776794
1485.0, 0.002961995348186375
1486.0, 0.003604517898205406
1487.0, 0.0021877753833365403
1488.0, 0.0021566839048117823
1489.0, 0.004432578737959433
1490.0, 0.004846322517220464
1491.0, 0.0031878507673103237
1492.0, 0.004521672140488051
1493.0, 0.00036672922219240693
1494.0, 0.0005202992648572776
1495.0, 0.0038471981254254136
1496.0, 0.0022705376673815285
1497.0, 0.0036626622666737175
1498.0, 0.004214661938406456
1499.0, 0.008217388185085111
1500.0, 0.005683255505882175
1501.0, 0.00642089677103867
1502.0, 0.0034285745919011863
1503.0, 0.0058197914749525004
1504.0, 0.004892136597356621
1505.0, 0.0015924010738578144
1506.0, 0.002634300935644129
1507.0, 0.004717347381670154
1508.0, 0.005412435165573041
1509.0, 0.006572368121416491
1510.0, 0.006922741793180287
1511.0, 0.006101091193975052
1512.0, 0.0051051031704167985
1513.0, 0.0036599675963732235
1514.0, 0.004409020741119887
1515.0, 0.00228560749461602
1516.0, 0.002823615339114609
1517.0, 0.0034075424273981797
1518.0, 0.0034429833506014968
1519.0, 0.0038694655291198117
1520.0, 0.004037461349922677
1521.0, 0.0013348058813918353
1522.0, 0.0005904508529197272
1523.0, 0.004580682421686206
1524.0, 0.0012970498913592481
1525.0, 0.0029650323052171942
1526.0, 0.001985771745017532
1527.0, 0.005246138344837642
1528.0, 0.0013841621310742504
1529.0, 0.0030023840127788985
1530.0, 0.005478622333157882
1531.0, 0.006633479123491633
1532.0, 0.0029004574380654792
1533.0, 0.002736840933576977
1534.0, 0.0030611539484274716
1535.0, 0.0022784507582833476
1536.0, 0.004129514027981301
1537.0, 0.003147920622629516
1538.0, 0.002841709046634077
1539.0, 0.0047261303341147795
1540.0, 0.005654301992359702
1541.0, 0.006047669817979299
1542.0, 0.004996947063216285
1543.0, 0.005728740955313701
1544.0, 0.007855028763833143
1545.0, 0.007891281749418187
1546.0, 0.007048151572352163
1547.0, 0.007172744612071733
1548.0, 0.0036061294526545315
1549.0, 0.005075939702268828
1550.0, 0.007690522951943893
1551.0, 0.006223531376888209
1552.0, 0.0079894449647802
1553.0, 0.007938504300483477
1554.0, 0.0026608919045599953
1555.0, 0.007644282063707107
1556.0, 0.008073666529385072
1557.0, 0.0036632981264458396
1558.0, 0.00812712368698584
1559.0, 0.0048748224158038575
1560.0, 0.0038755969891374783
1561.0, 0.005180967142382088
1562.0, 0.004724765191258449
1563.0, 0.007061611258984775
1564.0, 0.0071477848836070034
1565.0, 0.004533172256091981
1566.0, 0.0038252143744949454
1567.0, 0.0032406011406760013
1568.0, 0.0010210639845659817
1569.0, 0.0005723777825138799
1570.0, 0.0010101337632179835
1571.0, 0.0004453618856106877
1572, 0.0
1573, 0.0
1574, 0.0
1575, 0.0
1576, 0.0
1577, 0.0
1578, 0.0
1579, 0.0
1580, 0.0
1581, 0.0
1582, 0.0
1583, 0.0
1584, 0.0
1585, 0.0
1586, 0.0
1587, 0.0
1588, 0.0
1589, 0.0
1590, 0.0
1591, 0.0
1592, 0.0
1593, 0.0
1594, 0.0
1595, 0.0
1596, 0.0
1597, 0.0
1598, 0.0
1599, 0.0
