30, 0.0
31, 0.0
32, 0.0
33, 0.0
34, 0.0
35, 0.0
36, 0.0
37, 0.0
38, 0.0
39, 0.0
40, 0.0
41, 0.0
42, 0.0
43, 0.0
44, 0.0
45, 0.0
46, 0.0
47, 0.0
48, 0.0
49, 0.0
50, 0.0
51, 0.0
52, 0.0
53, 0.0
54, 0.0
55, 0.0
56, 0.0
57, 0.0
58, 0.0
59, 0.0
60, 0.0
61, 0.0
62, 0.0
63, 0.0
64, 0.0
65, 0.0
66, 0.0
67, 0.0
68, 0.0
69, 0.0
70, 0.0
71, 0.0
72, 0.0
73, 0.0
74, 0.0
75, 0.0
76, 0.0
77, 0.0
78, 0.0
79, 0.0
80, 0.0
81, 0.0
82, 0.0
83, 0.0
84, 0.0
85, 0.0
86, 0.0
87, 0.0
88, 0.0
89, 0.0
90, 0.0
91, 0.0
92, 0.0
93, 0.0
94, 0.0
95, 0.0
96, 0.0
97, 0.0
98, 0.0
99, 0.0
100, 0.0
101, 0.0
102, 0.0
103, 0.0
104, 0.0
105, 0.0
106, 0.0
107, 0.0
108, 0.0
109, 0.0
110, 0.0
111, 0.0
112, 0.0
113, 0.0
114, 0.0
115, 0.0
116, 0.0
117, 0.0
118.0, 8.270115239427814e-05
119.0, 0.0006297772447428837
120.0, 0.0008062131667807139
121.0, 0.0004189946968447892
122.0, 0.0018279542783241473
123.0, 0.002641359115639806
124.0, 0.0038428620486213334
125.0, 0.005039637608852058
126.0, 0.005176617617227865
127.0, 0.005397630006646207
128.0, 0.006266242620653791
129.0, 0.0076962758307093345
130.0, 0.009523452967615528
131.0, 0.012766965020655784
132.0, 0.01437607122768878
133.0, 0.015405133551580033
134.0, 0.01726708658697676
135.0, 0.019254380907614665
136.0, 0.019916698302284843
137.0, 0.022509114930725924
138.0, 0.02756033066323814
139.0, 0.029668105961616485
140.0, 0.031144533573086768
141.0, 0.03221861220177139
142.0, 0.03297418686580102
143.0, 0.03241402250426721
144.0, 0.03092333983758761
145.0, 0.03008429477305152
146.0, 0.028326230222226124
147.0, 0.023542200711225796
148.0, 0.020160811970919762
149.0, 0.01788417646386555
150.0, 0.015351953603064414
151.0, 0.011749909109164326
152.0, 0.00924815523826465
153.0, 0.007369541881395518
154.0, 0.005497682157702732
155.0, 0.003609687872557161
156.0, 0.0022854627755501318
157.0, 0.0006164935216060076
158.0, 9.714792137835565e-05
159.0, 0.00037031075576664815
160.0, 0.00015111725353520895
161.0, 0.0010105458155274358
162.0, 0.0013538965687754326
163.0, 0.0006751239235289381
164.0, 0.00019321415514230965
165.0, 0.0007380238236231555
166.0, 0.0003877051260451555
167.0, 0.0011601327775322707
168.0, 0.0014903199749024313
169.0, 0.0009756593274704667
170.0, 0.0005583128706994001
171.0, 0.0018304799802224556
172.0, 0.003217096312724593
173.0, 0.0027703647600377263
174.0, 0.0035292071569177456
175.0, 0.004262716835188853
176.0, 0.004537548508180168
177.0, 0.004439304378652434
178.0, 0.003892767602567871
179.0, 0.005694754460494314
180.0, 0.00783861589683725
181.0, 0.008855032370564175
182.0, 0.00887787569239903
183.0, 0.009593330993069785
184.0, 0.010336385180207608
185.0, 0.011530908362778038
186.0, 0.013803930441901452
187.0, 0.014385318605561965
188.0, 0.016735326651510174
189.0, 0.018243509024287285
190.0, 0.017818390197541188
191.0, 0.020706687982013264
192.0, 0.021582273975789882
193.0, 0.022493618769244023
194.0, 0.024471114705808057
195.0, 0.02629299740446729
196.0, 0.026801800184277746
197.0, 0.02904823491282738
198.0, 0.03148705021045181
199.0, 0.032168011831895174
200.0, 0.03301664124542291
201.0, 0.03228138222997534
202.0, 0.03322527989911761
203.0, 0.03678293031416091
204.0, 0.037431102298897734
205.0, 0.036457411083573824
206.0, 0.03580816749494932
207.0, 0.03623908112005743
208.0, 0.036786008702557986
209.0, 0.034742530134859013
210.0, 0.03349698384358189
211.0, 0.03257520492589851
212.0, 0.031180829404385355
213.0, 0.030351775176736106
214.0, 0.029150385625617867
215.0, 0.028185273428601578
216.0, 0.02754679062250167
217.0, 0.026919105392912614
218.0, 0.026449764344229493
219.0, 0.025361732880330307
220.0, 0.023428498709388852
221.0, 0.021360672299308263
222.0, 0.02041234886784492
223.0, 0.019092084122113932
224.0, 0.01788599225332811
225.0, 0.016929236711049237
226.0, 0.015908259152578687
227.0, 0.014915550023433314
228.0, 0.014573479111492248
229.0, 0.013305689563537552
230.0, 0.011355005880557987
231.0, 0.011842631994309813
232.0, 0.011017194149039773
233.0, 0.010177830430083752
234.0, 0.009163868392068156
235.0, 0.007201642824651835
236.0, 0.007124654000150592
237.0, 0.006798174736955398
238.0, 0.005964471990986524
239.0, 0.004923579759232281
240.0, 0.003548403125596954
241.0, 0.005176383881036205
242.0, 0.005158827392874099
243.0, 0.0033179666475335323
244.0, 0.002576645459647715
245.0, 0.002683496106747091
246.0, 0.0033352704085955406
247.0, 0.003365600729779729
248.0, 0.002607609487272413
249.0, 0.002732123216846185
250.0, 0.001914113281886597
251.0, 0.0014894515932595055
252.0, 0.0013086318051180096
253.0, 0.0004231661090464162
254.0, 0.0005418634231023242
255.0, 6.447851052150889e-05
256.0, 0.000542937760141025
257.0, 0.0001965389327434631
258.0, 0.0002929729159090516
259.0, 0.00024085177711740525
260.0, 0.0004659757612982939
261.0, 0.001032244201990381
262.0, 0.00046470498285847774
263.0, 0.0006289944308028168
264.0, 0.0005972778805300948
265.0, 0.0016973601196671063
266.0, 0.0015539557343261178
267.0, 0.0005368598717461061
268.0, 0.0017247686477270287
269.0, 0.0021302810973637875
270.0, 0.002107812156697067
271.0, 0.002841639429180356
272.0, 0.004919147164904881
273.0, 0.0050420892565759805
274.0, 0.00553702133675644
275.0, 0.00710467214744652
276.0, 0.008885618970966066
277.0, 0.01028419146710254
278.0, 0.012385804061512165
279.0, 0.01540325496152852
280.0, 0.018086069134014005
281.0, 0.019224027406425516
282.0, 0.021160473501190193
283.0, 0.024441661444975425
284.0, 0.02710280668102103
285.0, 0.029231195644853606
286.0, 0.03383989594131323
287.0, 0.037917595528998496
288.0, 0.042376835177044055
289.0, 0.04857808669546034
290.0, 0.056071763707437224
291.0, 0.06195716301322823
292.0, 0.0676259366654125
293.0, 0.07561705812649362
294.0, 0.08430451319818183
295.0, 0.09033041668745503
296.0, 0.09401704689839363
297.0, 0.09351476116262199
298.0, 0.08925323644845609
299.0, 0.08147389847872556
300.0, 0.07007410006929518
301.0, 0.05852708426367038
302.0, 0.047985929419012724
303.0, 0.038990717069122625
304.0, 0.03187010387204022
305.0, 0.026748693408358407
306.0, 0.02151068694868842
307.0, 0.01753469623411651
308.0, 0.014095765242164895
309.0, 0.01057038982380979
310.0, 0.010875586666761987
311.0, 0.008309507247186923
312.0, 0.005811844318351318
313.0, 0.005030731486685463
314.0, 0.0046417788748521534
315.0, 0.0027899469151972055
316.0, 0.0017485795880150265
317.0, 0.0011652176618288646
318.0, 0.00046561831000392585
319.0, 0.00015262233884954444
320.0, 0.000464116483752388
321.0, 0.0007798932236826135
322.0, 0.0011885789143125144
323.0, 0.0003414970099287329
324.0, 0.0006265379294966706
325.0, 0.0009211732793533604
326.0, 0.0007251846451723857
327.0, 0.0008071811679639954
328.0, 0.0009941581047010802
329.0, 0.00024687133736114733
330.0, 0.00013017909355676914
331.0, 0.0004744272980371151
332.0, 0.000715030394444626
333.0, 0.00022330397507595168
334.0, 6.519678291066345e-05
335.0, 0.0007724161191568497
336.0, 0.0017026335685704265
337.0, 0.002358496768583932
338.0, 0.002464834256687748
339.0, 0.0019485339406203211
340.0, 0.002606455485974193
341.0, 0.0035314043896625628
342.0, 0.0037893163916867434
343.0, 0.0032904891377499093
344.0, 0.0029378554705177975
345.0, 0.00367218046967836
346.0, 0.004889237384921112
347.0, 0.005704848280150529
348.0, 0.006010707771629644
349.0, 0.007273572659653762
350.0, 0.008368340145067056
351.0, 0.008507132765203871
352.0, 0.008675168821163533
353.0, 0.01014902996116089
354.0, 0.010215177444006953
355.0, 0.011160028692623808
356.0, 0.011808889484809576
357.0, 0.012260122948455037
358.0, 0.014034817014172902
359.0, 0.014783818801683108
360.0, 0.01613146246328581
361.0, 0.018210011560224344
362.0, 0.02098401560276674
363.0, 0.024368013481154343
364.0, 0.025328878094391407
365.0, 0.027935113585705718
366.0, 0.0313204218944649
367.0, 0.034510835204753745
368.0, 0.038160778139337076
369.0, 0.04289645804874226
370.0, 0.04604062235989172
371.0, 0.049447652506791756
372.0, 0.05467709383034446
373.0, 0.06071934943254641
374.0, 0.06325803587331173
375.0, 0.06834470059828958
376.0, 0.07413704756646879
377.0, 0.07889860417241366
378.0, 0.08374785677854299
379.0, 0.08725472799636386
380.0, 0.0922040646349616
381.0, 0.0980812865167669
382.0, 0.10394915502107283
383.0, 0.10969516792055395
384.0, 0.112955832539999
385.0, 0.1170166194760805
386.0, 0.12015477141182213
387.0, 0.12213504220902276
388.0, 0.12432792852505885
389.0, 0.1238467566214572
390.0, 0.12279929791525536
391.0, 0.11922812721144745
392.0, 0.11415349294599124
393.0, 0.1095146480327862
394.0, 0.10367633039186332
395.0, 0.09630809528700034
396.0, 0.09025755402187553
397.0, 0.08387124510347656
398.0, 0.07477706266151195
399.0, 0.06676954867864404
400.0, 0.06012120484489995
401.0, 0.052597706203954986
402.0, 0.04511229798306455
403.0, 0.03950535206414158
404.0, 0.034279259663345024
405.0, 0.029601945069978233
406.0, 0.02537261677101488
407.0, 0.0221451294425109
408.0, 0.02030093921005534
409.0, 0.01851742525413924
410.0, 0.013902775652476102
411.0, 0.01087457208146548
412.0, 0.009892555970879511
413.0, 0.009118491618185124
414.0, 0.007868954759117607
415.0, 0.005615175750365919
416.0, 0.0044714354864106975
417.0, 0.0034160295751549715
418.0, 0.0017706923153386225
419.0, 0.0011066159024980505
420.0, 0.002327621459680184
421.0, 0.0023531305012577212
422.0, 0.0008141234024008057
423.0, 0.0009760157673862568
424.0, 0.0015624992449868888
425.0, 0.0014912498610892386
426.0, 0.002409890568895531
427.0, 0.0024696853797275525
428.0, 0.002026411036184578
429.0, 0.002485214106951402
430.0, 0.0021828438156919934
431.0, 0.0008059867586994362
432.0, 0.0004859483770266117
433.0, 0.00022363567995133525
434.0, 0.001728798882552189
435.0, 0.0020453293988419107
436.0, 0.0028741765236332127
437.0, 0.004658967869340712
438.0, 0.006867191329733037
439.0, 0.009111376480688946
440.0, 0.011224048206874502
441.0, 0.012199701847229993
442.0, 0.016030921113145715
443.0, 0.020350826162979303
444.0, 0.024140873878267397
445.0, 0.02923415595245066
446.0, 0.03682522492902908
447.0, 0.04511115340087155
448.0, 0.05374137092172112
449.0, 0.06366169327739064
450.0, 0.0753325691244527
451.0, 0.08780673022518728
452.0, 0.10393104459687597
453.0, 0.12202675797440897
454.0, 0.14169220384119324
455.0, 0.1625916859040538
456.0, 0.18367138223034057
457.0, 0.21251974101503202
458.0, 0.24283345010625967
459.0, 0.27329154044451537
460.0, 0.30565766789452953
461.0, 0.34217570947659026
462.0, 0.37939117595240396
463.0, 0.41766465238925043
464.0, 0.46007580767932343
465.0, 0.5063859954429458
466.0, 0.55464706210508
467.0, 0.6057360299106697
468.0, 0.6629084110343032
469.0, 0.7215276921673638
470.0, 0.7780733458089897
471.0, 0.8332904530154962
472.0, 0.889435587736938
473.0, 0.9360581381315487
474.0, 0.9763771052118563
475.0, 0.9979563962571579
476.0, 0.9971007030803594
477.0, 0.9786808452907991
478.0, 0.9401589320398946
479.0, 0.8870759014477715
480.0, 0.8232699252792307
481.0, 0.7509054631531489
482.0, 0.6778524092761155
483.0, 0.6120620010671309
484.0, 0.547959375431261
485.0, 0.48718762988686226
486.0, 0.4330172844483651
487.0, 0.3865701474460211
488.0, 0.34605698722463574
489.0, 0.3089645336753979
490.0, 0.2786017994215518
491.0, 0.2514365794531332
492.0, 0.228103399201108
493.0, 0.20803700239062145
494.0, 0.1883595451190949
495.0, 0.17001751318986366
496.0, 0.15341791910879163
497.0, 0.13858593128490146
498.0, 0.12463287814049837
499.0, 0.11187667938994732
500.0, 0.1019846507142946
501.0, 0.09229192765775306
502.0, 0.08284285186197649
503.0, 0.0761215627491135
504.0, 0.07074448260929521
505.0, 0.06377968935506001
506.0, 0.05672712160489801
507.0, 0.052480652713244966
508.0, 0.048327534183533735
509.0, 0.04445136204194773
510.0, 0.04148030422882802
511.0, 0.03829832479546999
512.0, 0.03515314030482066
513.0, 0.032681148969102215
514.0, 0.03036140573463657
515.0, 0.027993147713087117
516.0, 0.02519984068930256
517.0, 0.02152467303986659
518.0, 0.021149006453962158
519.0, 0.020114157640295036
520.0, 0.01856057130828473
521.0, 0.017246700276462752
522.0, 0.01577710465356038
523.0, 0.01352963008483429
524.0, 0.01247121920787893
525.0, 0.010832306426508741
526.0, 0.00983938683398366
527.0, 0.010031210397024039
528.0, 0.00888466500374194
529.0, 0.007887767697332973
530.0, 0.007977882914114996
531.0, 0.007005849870214165
532.0, 0.006396802128206575
533.0, 0.007048554263158816
534.0, 0.005447305917868642
535.0, 0.005263795240234026
536.0, 0.004817714405563758
537.0, 0.004532149797782243
538.0, 0.004374795478095403
539.0, 0.003737548980328399
540.0, 0.00411123990536379
541.0, 0.003532431782471644
542.0, 0.0032327127546799565
543.0, 0.0028233865303662594
544.0, 0.001766293400879326
545.0, 0.0007178066140005653
546.0, 0.0005949166715077756
547.0, 0.0008531794102415073
548.0, 0.0007493576275605985
549.0, 0.001232207202023202
550.0, 0.00041662977922347596
551.0, 0.000635763894271851
552.0, 0.0005228186694579871
553.0, 0.0005672237346026189
554.0, 0.000432832506774046
555.0, 0.0007788602458952735
556.0, 0.0016888500619608275
557.0, 0.0014335899433973714
558.0, 0.0007143310281764359
559.0, 0.0008855208716655373
560.0, 0.0008350488561311103
561.0, 0.0006838244873954755
562.0, 0.0010491395641478124
563.0, 0.0014878396482391068
564.0, 0.001421164344387851
565.0, 0.00020178176905373616
566.0, 3.87513514308388e-05
567.0, 0.00025538678272455913
568.0, 0.0007782109383835499
569.0, 0.0009760727044822008
570.0, 0.0005482325772944892
571.0, 0.0022673439958975886
572.0, 0.0030269503418443268
573.0, 0.0027693145988110755
574.0, 0.0032152675085113944
575.0, 0.003221791300294488
576.0, 0.003790510352069138
577.0, 0.004841488402623818
578.0, 0.005012153091596785
579.0, 0.004684100134099646
580.0, 0.004888112300024658
581.0, 0.005352440943166249
582.0, 0.004515731197327916
583.0, 0.0042051162762496395
584.0, 0.004390053523073255
585.0, 0.00465168399521891
586.0, 0.00467001042814781
587.0, 0.004457348334655599
588.0, 0.0052471540799737286
589.0, 0.0053837075048629454
590.0, 0.00478017630529768
591.0, 0.0045439249825155546
592.0, 0.004990433641858793
593.0, 0.004840844792218506
594.0, 0.005298679066717841
595.0, 0.005075818155238986
596.0, 0.004708642420059112
597.0, 0.00448709605064278
598.0, 0.004701682957407221
599.0, 0.005643417760812153
600.0, 0.0059852173585114195
601.0, 0.005344733013251318
602.0, 0.0057277050095417845
603.0, 0.006222892374753219
604.0, 0.006075431977601779
605.0, 0.005952438617245447
606.0, 0.005805842715590169
607.0, 0.006381284424979672
608.0, 0.005363357377133706
609.0, 0.005122764242257212
610.0, 0.005981035145818539
611.0, 0.005476317742614392
612.0, 0.006011078052302627
613.0, 0.005516626347214294
614.0, 0.005383757039536614
615.0, 0.004996435188485574
616.0, 0.0047903833403905105
617.0, 0.005397526904856935
618.0, 0.005720937869599064
619.0, 0.0053348017598694895
620.0, 0.00494386429364913
621.0, 0.0035558150878070745
622.0, 0.0029383982340118408
623.0, 0.003955405145560866
624.0, 0.0036703153641618686
625.0, 0.003946555442475059
626.0, 0.003692452824105898
627.0, 0.0031535031717291736
628.0, 0.00295789143726237
629.0, 0.002977125171828865
630.0, 0.002692994970699423
631.0, 0.0027435569089586235
632.0, 0.0030385916378169596
633.0, 0.00207560148929388
634.0, 0.0022648320907113022
635.0, 0.003140563564212211
636.0, 0.0026090931409275225
637.0, 0.0022468888154234617
638.0, 0.00321241680380306
639.0, 0.0024317464464910935
640.0, 0.0021905275332015596
641.0, 0.00272387729004652
642.0, 0.00300042551007106
643.0, 0.0029947854354771724
644.0, 0.003878589673385642
645.0, 0.0034429203487758523
646.0, 0.0038692009935640294
647.0, 0.004271796678133308
648.0, 0.0044268645349939935
649.0, 0.0048089415397594626
650.0, 0.004702453610582021
651.0, 0.005546167493339391
652.0, 0.005666059967167703
653.0, 0.006459846623717745
654.0, 0.007171613507880016
655.0, 0.0073778733238007745
656.0, 0.00778396556442223
657.0, 0.0067013116740065075
658.0, 0.008199461702450724
659.0, 0.00951370677132991
660.0, 0.009273183254325931
661.0, 0.008831259895748728
662.0, 0.009066028767766824
663.0, 0.009015177522056706
664.0, 0.01013385365368124
665.0, 0.01030895909157622
666.0, 0.010580281821438572
667.0, 0.01080406046833549
668.0, 0.01112544407581127
669.0, 0.012025023082394738
670.0, 0.012005171229997776
671.0, 0.01206661276610784
672.0, 0.012256972962678636
673.0, 0.011079994739677967
674.0, 0.010190301502681147
675.0, 0.010667250486440709
676.0, 0.010756085043992912
677.0, 0.009457378501073857
678.0, 0.008470417601444524
679.0, 0.008110454957166948
680.0, 0.00753171164209147
681.0, 0.00632141119169775
682.0, 0.005267861064781265
683.0, 0.004994649350750416
684.0, 0.004671460344485161
685.0, 0.004779777393056613
686.0, 0.0040536896442940566
687.0, 0.0028402652209885727
688.0, 0.0019079293019349825
689.0, 0.0015232972745246687
690.0, 0.002057751646710705
691.0, 0.0024018556351197646
692.0, 0.0017109136282137069
693.0, 0.0012804199669861538
694.0, 0.001328803067206241
695.0, 0.0011628407487693415
696.0, 0.0007838796153137425
697.0, 0.00044986877023560996
698.0, 0.0007647180215872352
699.0, 0.0012202521703023955
700.0, 0.0008539607493105502
701.0, 0.00013349249636968803
702.0, 0.0005163330223704769
703.0, 0.0012237025774249663
704.0, 0.001738543874834018
705.0, 0.00038609241225400474
706.0, 0.00013329768074858334
707.0, 0.00031449419212728626
708.0, 0.0007514932933575691
709.0, 0.001078799642383753
710.0, 0.0013206205991202634
711.0, 0.001558365364919405
712.0, 0.001863829567895521
713.0, 0.0012879413820432732
714.0, 0.0009754073667883844
715.0, 0.0005819597873147832
716.0, 0.00017732586155827404
717.0, 0.0008967288517113249
718.0, 0.000841740640474158
719.0, 0.0021855734610446986
720.0, 0.001673895201562386
721.0, 0.0006168972282054001
722.0, 0.0007134275927787179
723.0, 0.0011470939597724762
724.0, 0.0005599356081154106
725.0, 0.0008850766684653
726.0, 0.00030670885997516
727.0, 0.0006675570719864741
728.0, 7.293212158535368e-05
729.0, 0.0005242963102854661
730.0, 0.00017808782583572086
731.0, 0.0003618640615723239
732.0, 0.0004979952846381724
733.0, 0.0006427617962244262
734.0, 0.000733054350290968
735.0, 0.00032229005642090715
736.0, 0.00028068733849505637
737.0, 0.00022893199081545288
738.0, 0.00030351103158829656
739.0, 0.0006586529847618784
740.0, 0.0005308688453852758
741.0, 0.0005237714073025573
742.0, 4.5314856790493256e-05
743.0, 0.00016232069209816099
744.0, 0.00031037514111506163
745.0, 0.000368058741329178
746.0, 1.139782780318577e-05
747.0, 0.00014900993928692845
748.0, 3.829173613964006e-05
749.0, 0.0001387276975911755
750.0, 0.0008186784959935092
751.0, 0.0009877852083504943
752.0, 0.0004967299683984417
753.0, 0.000925623012135754
754.0, 0.0018357849619132253
755.0, 0.0011442576011112206
756.0, 0.0005695686716817353
757.0, 0.0017022173374745425
758.0, 0.00246543952783794
759.0, 0.0021002475395688154
760.0, 0.002278929483323249
761.0, 0.002083798160409452
762.0, 0.0017345626492885128
763.0, 0.001385294966870564
764.0, 0.0020485665202366918
765.0, 0.002658542595894764
766.0, 0.0025731241599043267
767.0, 0.002624577684226003
768.0, 0.0033274968052038655
769.0, 0.0031417221992352104
770.0, 0.0033106337295286353
771.0, 0.00283708585755769
772.0, 0.00392766103071283
773.0, 0.004468894912457959
774.0, 0.0037608885247439002
775.0, 0.004278824388242182
776.0, 0.004277758435538946
777.0, 0.0046563632951747555
778.0, 0.003791797378609845
779.0, 0.004430434784037968
780.0, 0.004205678909747513
781.0, 0.003831694868893928
782.0, 0.004891329573331138
783.0, 0.004194014463182724
784.0, 0.00340556997229805
785.0, 0.0036256695893777387
786.0, 0.0038460092813179772
787.0, 0.00371187356220621
788.0, 0.0034718640540941344
789.0, 0.0033643799881463965
790.0, 0.003342526466250035
791.0, 0.00321342070325476
792.0, 0.0037013413027273804
793.0, 0.0041352935624557755
794.0, 0.002979933738997097
795.0, 0.0023801012434670464
796.0, 0.002498160581884602
797.0, 0.002563039216003472
798.0, 0.002619824315401893
799.0, 0.0024539327604032337
800.0, 0.0021050456887148667
801.0, 0.002107033386934441
802.0, 0.0022766385976141926
803.0, 0.0025922641059768236
804.0, 0.0027191191876449875
805.0, 0.0025846208939099098
806.0, 0.002197493742558851
807.0, 0.0015683444412693353
808.0, 0.0024490609426799236
809.0, 0.002062982766622325
810.0, 0.0018125689600486218
811.0, 0.001792406457751994
812.0, 0.0017399202578454414
813.0, 0.0015510171814611376
814.0, 0.001344190440652312
815.0, 0.002046789517501859
816.0, 0.002433804246078699
817.0, 0.0016746223212782067
818.0, 0.002241574136724844
819.0, 0.0022719254194557325
820.0, 0.001495931766676227
821.0, 0.0011975838846303023
822.0, 0.0017981400152003147
823.0, 0.0029682287509730926
824.0, 0.0022256254619332154
825.0, 0.001696836520845467
826.0, 0.001637251031385553
827.0, 0.0015728572570299576
828.0, 0.0014199368831714063
829.0, 0.0016661575185821097
830.0, 0.002367206785802807
831.0, 0.002634545121546036
832.0, 0.0026071580631251592
833.0, 0.0017636407700338083
834.0, 0.0022752918415934287
835.0, 0.002604512016478003
836.0, 0.0020864623918779844
837.0, 0.002304627136005395
838.0, 0.0033035112532419173
839.0, 0.002397594437493947
840.0, 0.0026794965987219205
841.0, 0.0026420355485478955
842.0, 0.0026065880158628383
843.0, 0.0032823770720041955
844.0, 0.0030206326180118462
845.0, 0.002246042737744398
846.0, 0.002296976770083561
847.0, 0.00234636783319064
848.0, 0.002060598779487695
849.0, 0.0014974156391797755
850.0, 0.0023480516633201044
851.0, 0.003061571067062966
852.0, 0.0028885846451558238
853.0, 0.002136465941699521
854.0, 0.002038145829214199
855.0, 0.0026738944928060295
856.0, 0.002379711380851666
857.0, 0.0017519300606856558
858.0, 0.002044728222227398
859.0, 0.0025145056031536366
860.0, 0.0018585944357272272
861.0, 0.0009780123561549078
862.0, 0.001234403404549869
863.0, 0.0023862785310959328
864.0, 0.0031684851744062906
865.0, 0.0028131736146826923
866.0, 0.0015677330918451144
867.0, 0.002204665588745211
868.0, 0.0026727151907807085
869.0, 0.0028589850445137057
870.0, 0.001863039599889372
871.0, 0.0008324108191947522
872.0, 0.0013007075857136253
873.0, 0.0014359556469404973
874.0, 0.0012707685348163124
875.0, 0.0011059906667616342
876.0, 0.0005864779458846865
877.0, 0.0011172588176741585
878.0, 0.0015414150398192392
879.0, 0.0013640860132092484
880.0, 0.0008814896120048895
881.0, 0.000568646580472799
882.0, 0.000847800759781192
883.0, 0.0007423495086410088
884.0, 0.0009761059892376451
885.0, 0.0016131940562182506
886.0, 0.0013532101424242788
887.0, 0.0013253895670818886
888.0, 0.0010180225528733536
889.0, 0.000457787591116903
890.0, 0.0008141245513757563
891.0, 0.00040419066203675074
892.0, 0.0005602792565240534
893.0, 9.278918954919719e-05
894.0, 0.00010838306141696573
895.0, 0.0001230881513950633
896.0, 0.00026860911973441883
897.0, 0.0003561505677141312
898.0, 5.297360948762906e-05
899.0, 0.00038844254240573276
900.0, 0.0004055570377637671
901.0, 0.00010036692424389728
902.0, 1.1877303980140967e-05
903.0, 0.0004527102124758358
904.0, 0.0005684630470767295
905.0, 0.0003062436382850442
906.0, 0.00032756153823888454
907.0, 0.00023031303362113737
908.0, 0.0001728264920224067
909.0, 0.0004885668896080683
910.0, 0.00028845430958092605
911.0, 0.0002577755103237782
912.0, 0.00020295074195672
913.0, 0.0006028298828223924
914.0, 0.0005451516451639353
915.0, 0.0013232437836920756
916.0, 0.001584307892905927
917.0, 0.0006453432055724447
918.0, 0.0010486677970718017
919.0, 0.0009856839873639475
920.0, 0.0006707179872261384
921.0, 0.0004995706926161338
922.0, 0.0013561884639406636
923.0, 0.0010505742472420702
924.0, 0.0012275827399902696
925.0, 0.0016332985421793783
926.0, 0.0015450877858631262
927.0, 0.0013534365703976356
928.0, 0.0008783017499950349
929.0, 0.0012760148411703465
930.0, 0.0011584842687059553
931.0, 0.0018247308095571855
932.0, 0.0013869074551633377
933.0, 0.0014641440902928278
934.0, 0.001662915550029073
935.0, 0.0015453109018215552
936.0, 0.001307153043142495
937.0, 0.0006625570614036063
938.0, 0.00030817895454440266
939.0, 0.0005084734806357857
940.0, 0.0014685528127408366
941.0, 0.0011486425080063144
942.0, 0.002039233279378936
943.0, 0.001967198938621881
944.0, 0.0018550911637801488
945.0, 0.0013199462131917158
946.0, 0.0006770538136008891
947.0, 0.0013999487173452854
948.0, 0.001081553633556895
949.0, 0.0012999781212726623
950.0, 0.00017672925294989116
951.0, 0.0006886915471602575
952.0, 0.0011684051426253436
953.0, 0.0004666643870360615
954.0, 0.0008607336215702987
955.0, 0.001093318333095295
956.0, 5.674559546401223e-05
957.0, 0.00013804527865191686
958.0, 0.0006195134377427143
959.0, 0.000779588812571931
960.0, 0.00043162880266929657
961.0, 5.045708863808615e-05
962.0, 0.00017241451255553054
963.0, 0.0008031566888267979
964.0, 0.0011268088441948117
965.0, 0.0005765855976087918
966.0, 4.1757640182833055e-05
967.0, 0.00018111345245046725
968.0, 0.0004180496955368901
969.0, 0.00012140305818389079
970.0, 0.0006210291938953944
971.0, 0.00024815537687020715
972.0, 9.060237693862526e-05
973.0, 0.00022200763918547249
974.0, 0.00012487123793146563
975.0, 0.00011710276571036566
976.0, 0.00010726881129508957
977.0, 0.0002733297717658846
978.0, 0.0003357636935502612
979.0, 0.00027927642203482973
980.0, 9.578361730473434e-05
981.0, 0.00030449396526396986
982.0, 6.314226532163231e-05
983.0, 0.0005015473924994591
984.0, 0.0014851582861974883
985.0, 0.0014076469995941403
986.0, 0.0008204937398347774
987.0, 0.0010575670177346047
988.0, 0.001388636180094504
989.0, 0.001101351978240639
990.0, 0.0014020512831840214
991.0, 0.0016551963530761192
992.0, 0.0016224322720896195
993.0, 0.0025945462808730766
994.0, 0.0024652505542209434
995.0, 0.0021143038289941347
996.0, 0.002511575280884052
997.0, 0.003005319474336359
998.0, 0.002163905362655442
999.0, 0.0013238344995268791
1000.0, 0.003140785287386434
1001.0, 0.0024204754088645855
1002.0, 0.0014592877083182802
1003.0, 0.0022950591414846854
1004.0, 0.0023669104297975993
1005.0, 0.002039756781920569
1006.0, 0.002514013739374122
1007.0, 0.0028618285007506045
1008.0, 0.0027828641000099247
1009.0, 0.0029395354111511614
1010.0, 0.00250535463682243
1011.0, 0.00145200722329114
1012.0, 0.0023935879139162816
1013.0, 0.002529471202495007
1014.0, 0.0018762617253210347
1015.0, 0.0017041106215090647
1016.0, 0.0009988374847555326
1017.0, 0.0010519350411417297
1018.0, 0.0016707776317171237
1019.0, 0.0017445651545497807
1020.0, 0.0008049980889227833
1021.0, 0.0007080063694112903
1022.0, 0.002126441232751139
1023.0, 0.0013566452282734879
1024.0, 0.00032417159638954766
1025.0, 5.579691800490021e-05
1026.0, 0.000346734582621615
1027.0, 0.0002961542825390135
1028.0, 0.0004942130490174762
1029.0, 0.0007787372423242339
1030.0, 0.00043964052135895464
1031.0, 0.0003527460423935195
1032.0, 0.00022936187112554312
1033.0, 0.00018192835669783027
1034.0, 0.0008790994894218569
1035.0, 0.0001544408096567758
1036.0, 0.00011113048744408004
1037.0, 0.00022485811708267413
1038.0, 0.00047077450138842733
1039.0, 6.840456483373812e-05
1040.0, 0.000194416116593438
1041.0, 6.707376452867213e-05
1042.0, 2.8211761540378377e-05
1043.0, 0.0006941802690151217
1044.0, 0.0005372569116523038
1045.0, 0.0006028629624777087
1046.0, 0.00013715440969290694
1047.0, 0.000742260056555856
1048.0, 0.0011484589309107207
1049.0, 0.0005149496288194717
1050.0, 0.00022513351101855676
1051.0, 0.0006217620662538285
1052.0, 0.001162106863499467
1053.0, 0.00045046623669392646
1054.0, 0.0003566005037983228
1055.0, 0.00021955385586313984
1056.0, 0.0008398359638414299
1057.0, 0.0008537549869424532
1058.0, 0.00027682436344823364
1059.0, 0.00013523710704518534
1060.0, 0.0003953154534905732
1061.0, 0.0017546408718865192
1062.0, 0.0017787500097582367
1063.0, 0.002057349979093362
1064.0, 0.002090277052861518
1065.0, 0.002768009090566841
1066.0, 0.0025856639848261
1067.0, 0.0025725627631864676
1068.0, 0.003957994203497205
1069.0, 0.004734842577346489
1070.0, 0.004583288255702791
1071.0, 0.0056447121730060276
1072.0, 0.006814549198633924
1073.0, 0.006261419042989281
1074.0, 0.006988246630983665
1075.0, 0.008521424317631603
1076.0, 0.00911965958521455
1077.0, 0.009339430681061906
1078.0, 0.009853392247606356
1079.0, 0.01132252038068955
1080.0, 0.01193142741950278
1081.0, 0.012986835572420136
1082.0, 0.013451311928832775
1083.0, 0.01331037745495745
1084.0, 0.014371532387038168
1085.0, 0.015605286974052108
1086.0, 0.016337991203468738
1087.0, 0.017236132691941464
1088.0, 0.019132608837856148
1089.0, 0.019368427881630044
1090.0, 0.02098035932174022
1091.0, 0.02150342405659144
1092.0, 0.021170309589892713
1093.0, 0.02195713466708671
1094.0, 0.022626175493225736
1095.0, 0.023734449717249338
1096.0, 0.024838093092975886
1097.0, 0.025099315869355158
1098.0, 0.02602146388321721
1099.0, 0.027706422738430766
1100.0, 0.027765630079213063
1101.0, 0.02753128094396253
1102.0, 0.02841876137508184
1103.0, 0.029309575740860187
1104.0, 0.029651950442820384
1105.0, 0.02842732640048847
1106.0, 0.029494267000749502
1107.0, 0.029876091533887584
1108.0, 0.02981879909669633
1109.0, 0.03066858010251553
1110.0, 0.030374643878005852
1111.0, 0.029355438555781706
1112.0, 0.029470133568510488
1113.0, 0.029297634113722226
1114.0, 0.02928305203065744
1115.0, 0.029966453259520135
1116.0, 0.028303402590381634
1117.0, 0.02859053473974568
1118.0, 0.028427499054642712
1119.0, 0.02836492375938326
1120.0, 0.027789466436242676
1121.0, 0.027555393300612054
1122.0, 0.02807679907662221
1123.0, 0.027956735646318086
1124.0, 0.027294143931821255
1125.0, 0.027154428920945314
1126.0, 0.027187810703870573
1127.0, 0.026414784165566814
1128.0, 0.025532249211543616
1129.0, 0.025596879808337736
1130.0, 0.025545244959565117
1131.0, 0.024924903126133064
1132.0, 0.023361715922363017
1133.0, 0.024176224892043102
1134.0, 0.022744968736899643
1135.0, 0.02174053161862493
1136.0, 0.021496623032935487
1137.0, 0.021384165243822032
1138.0, 0.021007638501950778
1139.0, 0.019156279038423644
1140.0, 0.017983706466078483
1141.0, 0.01820022043820834
1142.0, 0.017583864140042628
1143.0, 0.016101569892724488
1144.0, 0.015167091561999012
1145.0, 0.014446907798629314
1146.0, 0.013375469698322094
1147.0, 0.013020075211430117
1148.0, 0.011805864993845616
1149.0, 0.011056358568615284
1150.0, 0.011172037519796738
1151.0, 0.010580331733314907
1152.0, 0.00931056285963438
1153.0, 0.009417202094520592
1154.0, 0.008053816245629156
1155.0, 0.006674543455595961
1156.0, 0.0067430850000762994
1157.0, 0.0068617400824245636
1158.0, 0.006853920654012583
1159.0, 0.006158462604117972
1160.0, 0.0047844414434138
1161.0, 0.004512494599317734
1162.0, 0.004066310425775096
1163.0, 0.004324544215104507
1164.0, 0.004134878949079343
1165.0, 0.0030473756212539083
1166.0, 0.003953444048008844
1167.0, 0.0034437321436187815
1168.0, 0.0021487300321516357
1169.0, 0.0025552639611218448
1170.0, 0.0020130665111399108
1171.0, 0.002569223965750319
1172.0, 0.0018543626245059576
1173.0, 0.0007538677883754654
1174.0, 0.001280834197218111
1175.0, 0.0008773688262486276
1176.0, 0.00028269554583447025
1177.0, 0.00022933602151912563
1178.0, 0.0002360095592700992
1179.0, 0.0003448251571057759
1180.0, 0.0002256420413758031
1181.0, 0.00011565461010120929
1182.0, 0.00045790043431965263
1183.0, 0.00027105185274115055
1184.0, 0.0004815645175165
1185.0, 0.00010063948692758969
1186.0, 0.00042419895215514415
1187.0, 6.422084903511925e-05
1188.0, 9.749264040865594e-05
1189.0, 0.0009846171013856426
1190.0, 0.0003757034558098179
1191.0, 0.0002257978767238626
1192.0, 0.0005396900240077704
1193.0, 0.0002747573820821844
1194.0, 0.0003281827915063491
1195.0, 0.000494382113686403
1196.0, 7.448089516940435e-05
1197.0, 0.0001652208471088032
1198.0, 0.0008716195805366958
1199.0, 0.0008389856442895182
1200.0, 0.000453772413336122
1201.0, 0.00038631957525666764
1202.0, 0.0006297527820988667
1203.0, 9.611545821303349e-05
1204.0, 0.0001951655765059846
1205.0, 0.0010749118151037807
1206.0, 0.0014968050650102718
1207.0, 0.0007874792620530365
1208.0, 0.0023779387546958484
1209.0, 0.0015730319202386554
1210.0, 0.0012322153624611317
1211.0, 0.0014605126840034283
1212.0, 0.0021592921980710224
1213.0, 0.0017154060722801782
1214.0, 0.0018727675478286516
1215.0, 0.0023670468663660733
1216.0, 0.0015803471696040961
1217.0, 0.001447188100550369
1218.0, 0.0021954187293409715
1219.0, 0.003083970767344716
1220.0, 0.0023994584800546607
1221.0, 0.002632239189877158
1222.0, 0.0032183910675801634
1223.0, 0.002354954329696447
1224.0, 0.003967447665730544
1225.0, 0.004364091645718022
1226.0, 0.0024951097343646855
1227.0, 0.0032416900252383927
1228.0, 0.0033291330923851605
1229.0, 0.002907771671671288
1230.0, 0.0033241206631728385
1231.0, 0.003541039755212882
1232.0, 0.002769827948059245
1233.0, 0.002403210159770199
1234.0, 0.002654247336243478
1235.0, 0.002475891346675507
1236.0, 0.0021389036904383447
1237.0, 0.0027739431400788787
1238.0, 0.003223360500920255
1239.0, 0.002593001827165963
1240.0, 0.0021145152649479117
1241.0, 0.0021356563205201795
1242.0, 0.0026671210809694505
1243.0, 0.002006696546051464
1244.0, 0.0017772489094707497
1245.0, 0.0010610898912341861
1246.0, 0.0017977045399234833
1247.0, 0.0018114321103810769
1248.0, 0.000456260238222581
1249.0, 0.0018009600821945234
1250.0, 0.0017979454852872908
1251.0, 0.002089074249127797
1252.0, 0.0014872003743779984
1253.0, 0.0010961111357443917
1254.0, 0.001378191449903258
1255.0, 0.0026165060251713314
1256.0, 0.0018187936570774105
1257.0, 0.0006255712032679842
1258.0, 0.000462712974354884
1259.0, 0.0005630125744996123
1260.0, 0.000816685078819083
1261.0, 0.0009399612608364071
1262.0, 0.0005819466906560684
1263.0, 6.98137443810444e-05
1264.0, 0.0003291253953914653
1265.0, 0.0006345035673633312
1266.0, 9.081639827303913e-05
1267.0, 0.0001334796686330743
1268.0, 0.00030308917295065687
1269.0, 0.0009762494462797663
1270.0, 0.00027507652288470734
1271.0, 0.0004457437930269047
1272.0, 1.5044517894574165e-06
1273, 0.0
1274, 0.0
1275, 0.0
1276, 0.0
1277, 0.0
1278, 0.0
1279, 0.0
1280, 0.0
1281, 0.0
1282, 0.0
1283, 0.0
1284, 0.0
1285, 0.0
1286, 0.0
1287, 0.0
1288, 0.0
1289, 0.0
1290, 0.0
1291, 0.0
1292, 0.0
1293, 0.0
1294, 0.0
1295, 0.0
1296, 0.0
1297, 0.0
1298, 0.0
1299, 0.0
1300, 0.0
1301, 0.0
1302, 0.0
1303, 0.0
1304, 0.0
1305, 0.0
1306, 0.0
1307, 0.0
1308, 0.0
1309, 0.0
1310, 0.0
1311, 0.0
1312, 0.0
1313, 0.0
1314, 0.0
1315, 0.0
1316, 0.0
1317, 0.0
1318, 0.0
1319, 0.0
1320, 0.0
1321, 0.0
1322, 0.0
1323, 0.0
1324, 0.0
1325, 0.0
1326, 0.0
1327, 0.0
1328, 0.0
1329, 0.0
1330, 0.0
1331, 0.0
1332, 0.0
1333, 0.0
1334, 0.0
1335, 0.0
1336, 0.0
1337, 0.0
1338, 0.0
1339, 0.0
1340, 0.0
1341, 0.0
1342, 0.0
1343, 0.0
1344, 0.0
1345, 0.0
1346, 0.0
1347, 0.0
1348, 0.0
1349, 0.0
1350, 0.0
1351, 0.0
1352, 0.0
1353, 0.0
1354, 0.0
1355, 0.0
1356, 0.0
1357, 0.0
1358, 0.0
1359, 0.0
1360, 0.0
1361, 0.0
1362, 0.0
1363, 0.0
1364, 0.0
1365, 0.0
1366, 0.0
1367, 0.0
1368, 0.0
1369, 0.0
1370, 0.0
1371, 0.0
1372, 0.0
1373, 0.0
1374, 0.0
1375, 0.0
1376, 0.0
1377, 0.0
1378, 0.0
1379, 0.0
1380, 0.0
1381, 0.0
1382, 0.0
1383, 0.0
1384, 0.0
1385, 0.0
1386, 0.0
1387, 0.0
1388, 0.0
1389, 0.0
1390, 0.0
1391, 0.0
1392, 0.0
1393, 0.0
1394, 0.0
1395, 0.0
1396, 0.0
1397, 0.0
1398, 0.0
1399, 0.0
1400, 0.0
1401, 0.0
1402, 0.0
1403, 0.0
1404, 0.0
1405, 0.0
1406, 0.0
1407, 0.0
1408, 0.0
1409, 0.0
1410, 0.0
1411, 0.0
1412, 0.0
1413, 0.0
1414, 0.0
1415, 0.0
1416, 0.0
1417, 0.0
1418, 0.0
1419, 0.0
1420, 0.0
1421, 0.0
1422, 0.0
1423, 0.0
1424, 0.0
1425, 0.0
1426, 0.0
1427, 0.0
1428, 0.0
1429, 0.0
1430, 0.0
1431, 0.0
1432, 0.0
1433, 0.0
1434, 0.0
1435, 0.0
1436, 0.0
1437, 0.0
1438, 0.0
1439, 0.0
1440, 0.0
1441, 0.0
1442, 0.0
1443, 0.0
1444, 0.0
1445, 0.0
1446, 0.0
1447, 0.0
1448, 0.0
1449, 0.0
1450, 0.0
1451, 0.0
1452, 0.0
1453, 0.0
1454, 0.0
1455, 0.0
1456, 0.0
1457, 0.0
1458, 0.0
1459, 0.0
1460, 0.0
1461, 0.0
1462, 0.0
1463, 0.0
1464, 0.0
1465, 0.0
1466, 0.0
1467, 0.0
1468, 0.0
1469, 0.0
1470, 0.0
1471, 0.0
1472, 0.0
1473, 0.0
1474, 0.0
1475, 0.0
1476, 0.0
1477, 0.0
1478, 0.0
1479, 0.0
1480, 0.0
1481, 0.0
1482, 0.0
1483, 0.0
1484, 0.0
1485, 0.0
1486, 0.0
1487, 0.0
1488, 0.0
1489, 0.0
1490, 0.0
1491, 0.0
1492, 0.0
1493, 0.0
1494, 0.0
1495, 0.0
1496, 0.0
1497, 0.0
1498, 0.0
1499, 0.0
1500, 0.0
1501, 0.0
1502, 0.0
1503, 0.0
1504, 0.0
1505, 0.0
1506, 0.0
1507, 0.0
1508, 0.0
1509, 0.0
1510, 0.0
1511, 0.0
1512, 0.0
1513, 0.0
1514, 0.0
1515, 0.0
1516, 0.0
1517, 0.0
1518, 0.0
1519, 0.0
1520, 0.0
1521, 0.0
1522, 0.0
1523, 0.0
1524, 0.0
1525, 0.0
1526, 0.0
1527, 0.0
1528, 0.0
1529, 0.0
1530, 0.0
1531, 0.0
1532, 0.0
1533, 0.0
1534, 0.0
1535, 0.0
1536, 0.0
1537, 0.0
1538, 0.0
1539, 0.0
1540, 0.0
1541, 0.0
1542, 0.0
1543, 0.0
1544, 0.0
1545, 0.0
1546, 0.0
1547, 0.0
1548, 0.0
1549, 0.0
1550, 0.0
1551, 0.0
1552, 0.0
1553, 0.0
1554, 0.0
1555, 0.0
1556, 0.0
1557, 0.0
1558, 0.0
1559, 0.0
1560, 0.0
1561, 0.0
1562, 0.0
1563, 0.0
1564, 0.0
1565, 0.0
1566, 0.0
1567, 0.0
1568, 0.0
1569, 0.0
1570, 0.0
1571, 0.0
1572, 0.0
1573, 0.0
1574, 0.0
1575, 0.0
1576, 0.0
1577, 0.0
1578, 0.0
1579, 0.0
1580, 0.0
1581, 0.0
1582, 0.0
1583, 0.0
1584, 0.0
1585, 0.0
1586, 0.0
1587, 0.0
1588, 0.0
1589, 0.0
1590, 0.0
1591, 0.0
1592, 0.0
1593, 0.0
1594, 0.0
1595, 0.0
1596, 0.0
1597, 0.0
1598, 0.0
1599, 0.0
