30, 0.0
31, 0.0
32, 0.0
33, 0.0
34, 0.0
35, 0.0
36, 0.0
37, 0.0
38, 0.0
39, 0.0
40, 0.0
41, 0.0
42, 0.0
43, 0.0
44, 0.0
45, 0.0
46, 0.0
47, 0.0
48, 0.0
49, 0.0
50, 0.0
51, 0.0
52, 0.0
53, 0.0
54, 0.0
55, 0.0
56, 0.0
57, 0.0
58, 0.0
59, 0.0
60, 0.0
61, 0.0
62, 0.0
63, 0.0
64, 0.0
65, 0.0
66, 0.0
67, 0.0
68, 0.0
69, 0.0
70, 0.0
71, 0.0
72, 0.0
73, 0.0
74, 0.0
75, 0.0
76, 0.0
77, 0.0
78, 0.0
79, 0.0
80, 0.0
81, 0.0
82, 0.0
83, 0.0
84, 0.0
85, 0.0
86, 0.0
87, 0.0
88, 0.0
89, 0.0
90, 0.0
91, 0.0
92, 0.0
93, 0.0
94, 0.0
95, 0.0
96, 0.0
97, 0.0
98, 0.0
99, 0.0
100, 0.0
101, 0.0
102, 0.0
103, 0.0
104, 0.0
105, 0.0
106, 0.0
107, 0.0
108, 0.0
109, 0.0
110, 0.0
111, 0.0
112, 0.0
113, 0.0
114, 0.0
115, 0.0
116, 0.0
117, 0.0
118, 0.0
119, 0.0
120.0, 8.934844273376961e-05
121.0, 0.0008702272573733173
122.0, 0.001666581931641791
123.0, 0.001536000811551823
124.0, 0.002610055883976937
125.0, 0.004256465514375267
126.0, 0.003349052100268312
127.0, 0.002954514493504528
128.0, 0.005373078646491697
129.0, 0.009627319660713398
130.0, 0.01328514661034601
131.0, 0.017440109529330557
132.0, 0.022388390296257898
133.0, 0.02799804324928395
134.0, 0.03224079511702172
135.0, 0.033284859336176094
136.0, 0.03544782483397119
137.0, 0.03829736719020522
138.0, 0.04097109557136735
139.0, 0.0440791820672103
140.0, 0.044974722056153695
141.0, 0.04420441713348115
142.0, 0.043049790600299544
143.0, 0.04269385444186869
144.0, 0.03935781984775711
145.0, 0.03578362548569192
146.0, 0.033219596555740874
147.0, 0.031472355062163386
148.0, 0.02766930072754994
149.0, 0.02503152273752873
150.0, 0.023563140160779147
151.0, 0.0221474267258993
152.0, 0.01960722302215403
153.0, 0.018037505591576068
154.0, 0.016836926941292997
155.0, 0.015272858883375833
156.0, 0.01272634370405454
157.0, 0.010966954263190597
158.0, 0.010539614254392485
159.0, 0.010110083143310546
160.0, 0.0082859727784261
161.0, 0.008562740906474905
162.0, 0.008214305758745372
163.0, 0.00828830657353925
164.0, 0.009334223264226267
165.0, 0.00851114994487276
166.0, 0.008756388520754535
167.0, 0.009210576533483115
168.0, 0.00926851184725815
169.0, 0.009384348483556244
170.0, 0.009430256357743971
171.0, 0.00977422898587192
172.0, 0.010220544037649184
173.0, 0.010384244796093397
174.0, 0.010371602214768851
175.0, 0.01138869836434159
176.0, 0.011908858243739434
177.0, 0.011734555025105389
178.0, 0.013422301474963462
179.0, 0.014195335575410204
180.0, 0.014326456164211814
181.0, 0.014579319882783642
182.0, 0.01520980301077623
183.0, 0.01590947956375317
184.0, 0.016520310765400625
185.0, 0.01708848552106373
186.0, 0.017731907516764733
187.0, 0.01855615150923415
188.0, 0.01987406954407919
189.0, 0.021235663459096405
190.0, 0.022289298608511015
191.0, 0.023223498247344192
192.0, 0.025176114056196634
193.0, 0.026948219705778206
194.0, 0.028043675097454493
195.0, 0.02880724250448896
196.0, 0.031170781722878415
197.0, 0.032257808538060484
198.0, 0.033131405029254865
199.0, 0.035097190614362214
200.0, 0.03727826905473681
201.0, 0.03911508459404126
202.0, 0.03913190699301502
203.0, 0.038212734283642434
204.0, 0.038755481795377675
205.0, 0.040401849969333214
206.0, 0.040698118167224955
207.0, 0.040664811413871994
208.0, 0.04102349967558937
209.0, 0.03934884759334338
210.0, 0.03889093046809761
211.0, 0.037922638674601605
212.0, 0.03594855815001945
213.0, 0.03410461240396652
214.0, 0.03313722497325737
215.0, 0.03321550603544606
216.0, 0.03287027757010347
217.0, 0.030937583180886134
218.0, 0.028845836627502303
219.0, 0.026668668890510065
220.0, 0.024826546607442053
221.0, 0.02335043104555928
222.0, 0.021887815473713344
223.0, 0.020973531362672253
224.0, 0.01956370412935878
225.0, 0.01830766784863495
226.0, 0.01784685753994083
227.0, 0.01627384143326072
228.0, 0.014293757558626153
229.0, 0.013211224445803584
230.0, 0.013009507441359595
231.0, 0.012247082480245437
232.0, 0.01124335168896253
233.0, 0.010229391880744428
234.0, 0.009311064019326666
235.0, 0.00848088488366707
236.0, 0.007573880362208802
237.0, 0.006103117767666956
238.0, 0.004995984759518113
239.0, 0.004543098430880094
240.0, 0.004311951980061434
241.0, 0.0038162896825756076
242.0, 0.003339975811592541
243.0, 0.002856271132727689
244.0, 0.002524781111159485
245.0, 0.003194117066479317
246.0, 0.0020994457909266264
247.0, 0.001437242107118583
248.0, 0.0013922142392373033
249.0, 0.0003189489561758257
250.0, 0.00024129435966326737
251.0, 0.0008209382456679105
252.0, 0.0005422749423204225
253.0, 0.000980348612699987
254.0, 9.271333502478465e-05
255.0, 8.703554747920324e-05
256.0, 0.0005099406979386418
257.0, 0.0016830188507201773
258.0, 0.001630476293343601
259.0, 0.0013013498398286635
260.0, 0.0013141610798772258
261.0, 0.0010862558235075718
262.0, 0.0006807294300617424
263.0, 0.0011200418134188347
264.0, 0.0018180496483756966
265.0, 0.0016254132479923084
266.0, 0.0007521873202376441
267.0, 0.00017032887504341368
268.0, 0.0003458646068532189
269.0, 0.00015585755662118368
270.0, 1.9837061265999184e-05
271.0, 8.796665776145964e-05
272.0, 0.00018742829774583022
273.0, 0.00012125151931195282
274.0, 0.0007695939632421682
275.0, 0.002038408593191108
276.0, 0.003384140513203214
277.0, 0.0043010371641091115
278.0, 0.005250285939040639
279.0, 0.006733659625823905
280.0, 0.008902030029225901
281.0, 0.011405621563678081
282.0, 0.013070290496494913
283.0, 0.015270945113264494
284.0, 0.017949855199149944
285.0, 0.021095215897036702
286.0, 0.025023277896278055
287.0, 0.028520781951878346
288.0, 0.03204691985616965
289.0, 0.03683651115905348
290.0, 0.04359660430992802
291.0, 0.05151389381772301
292.0, 0.05795667496405762
293.0, 0.0651083178495941
294.0, 0.07332887266970615
295.0, 0.08030407169337878
296.0, 0.08276783501076825
297.0, 0.0812082310067741
298.0, 0.07603553091268425
299.0, 0.06801185455359876
300.0, 0.058237618192539066
301.0, 0.04792771687848861
302.0, 0.039277884255574505
303.0, 0.03256643378569891
304.0, 0.026937228111697797
305.0, 0.021338590712263364
306.0, 0.01686257943608823
307.0, 0.013615966137985071
308.0, 0.011579919768389499
309.0, 0.010192044301374775
310.0, 0.00803250741644125
311.0, 0.005986018059717462
312.0, 0.004939057037903947
313.0, 0.0045046574385358175
314.0, 0.003744328007443011
315.0, 0.0033482957418463017
316.0, 0.0028470561814274886
317.0, 0.002115741783673373
318.0, 0.0015404485478508973
319.0, 0.0018866111904618469
320.0, 0.0015560952232091649
321.0, 0.00250734263425408
322.0, 0.0020126509337300793
323.0, 0.0007736751770587519
324.0, 0.0004241233339819568
325.0, 0.0006437048852276498
326.0, 0.000539000305523078
327.0, 0.0010701906502405868
328.0, 0.00029666931378786066
329.0, 0.0003381237973605888
330.0, 5.6340436404168464e-05
331.0, 0.00014195766688587463
332.0, 0.000310494947864684
333.0, 0.0010133755744236685
334.0, 0.0011498589145805761
335.0, 0.0013681642631686076
336.0, 0.0017795289255750908
337.0, 0.0020855465432461496
338.0, 0.0019121868111902057
339.0, 0.001365467727360309
340.0, 0.0016503906874571882
341.0, 0.00259024240514956
342.0, 0.0033463342524887433
343.0, 0.003326362207777752
344.0, 0.003495415420671853
345.0, 0.004522506677574014
346.0, 0.00491105562981046
347.0, 0.004132210673333935
348.0, 0.00489209255885896
349.0, 0.006325327509326861
350.0, 0.0069331866634319535
351.0, 0.007049144029178297
352.0, 0.007743395248899209
353.0, 0.008904214452461912
354.0, 0.009577506016363483
355.0, 0.009942544674386123
356.0, 0.010417281828972844
357.0, 0.011254874070127376
358.0, 0.012640598643449307
359.0, 0.013141133297085973
360.0, 0.014257533853190231
361.0, 0.01597191728935016
362.0, 0.01733931712012578
363.0, 0.019439343526722358
364.0, 0.021116250875978335
365.0, 0.02360394079814567
366.0, 0.026723545827585782
367.0, 0.02898744130229192
368.0, 0.031732036470869654
369.0, 0.034826037720961434
370.0, 0.038268965688707544
371.0, 0.042418406530495764
372.0, 0.04743442949806584
373.0, 0.05040943001462145
374.0, 0.05399631678340417
375.0, 0.058800007309553155
376.0, 0.06469041852523319
377.0, 0.07102603248682486
378.0, 0.07728691106008508
379.0, 0.08211850565328263
380.0, 0.08670863424883928
381.0, 0.09198660313163032
382.0, 0.09738193589830917
383.0, 0.10206723722809646
384.0, 0.10831840364210746
385.0, 0.11334275692264642
386.0, 0.11563789887280006
387.0, 0.11784130205677493
388.0, 0.12001372761770797
389.0, 0.1203983194657912
390.0, 0.12012092229765843
391.0, 0.11857152855522432
392.0, 0.11240633418901676
393.0, 0.10836159220735819
394.0, 0.10192275135785528
395.0, 0.09441067849693796
396.0, 0.08747808985752364
397.0, 0.07910299125360444
398.0, 0.0732002497468755
399.0, 0.06574141110208849
400.0, 0.05862706752849195
401.0, 0.053189812479627535
402.0, 0.04636895862807518
403.0, 0.040769598947306765
404.0, 0.036063813715005284
405.0, 0.03156783403369788
406.0, 0.02744003526821778
407.0, 0.024798584799361967
408.0, 0.02288186198699178
409.0, 0.020089646722319752
410.0, 0.017237828729160302
411.0, 0.015030169022213513
412.0, 0.012614409871396365
413.0, 0.011842220800731187
414.0, 0.009581674193021052
415.0, 0.007755790957939475
416.0, 0.007376472021596503
417.0, 0.005946295892025454
418.0, 0.005062481648116152
419.0, 0.003830988523400129
420.0, 0.0023533025236219295
421.0, 0.00117751733156884
422.0, 0.00051560876476258
423.0, 0.0003885665830299638
424.0, 0.0005553598468692373
425.0, 0.0010357854035273704
426.0, 0.001865661108845722
427.0, 0.0015507874848238582
428.0, 0.003055885192271855
429.0, 0.002239733927953074
430.0, 0.0012716191866361144
431.0, 0.0012168232575245023
432.0, 0.0004147530666884829
433.0, 0.001062529198020647
434.0, 0.000530576394970159
435.0, 0.00040711135784594703
436.0, 0.001057582812610813
437.0, 0.0017778161239211541
438.0, 0.0019850200895479794
439.0, 0.0037526958656936543
440.0, 0.00566150099310259
441.0, 0.00705704580291978
442.0, 0.00889633392805691
443.0, 0.01292690561267415
444.0, 0.016943768461296336
445.0, 0.02134990570219374
446.0, 0.026720360153911285
447.0, 0.03310577689532962
448.0, 0.04037491311855609
449.0, 0.04765907184319244
450.0, 0.05620045037447071
451.0, 0.0674225770257316
452.0, 0.08156943817867929
453.0, 0.09648619531649716
454.0, 0.11203804870907978
455.0, 0.12931020599241222
456.0, 0.1498248774424609
457.0, 0.17306958370066558
458.0, 0.19699919145255967
459.0, 0.2276889716667078
460.0, 0.26036374211980606
461.0, 0.29475001658726735
462.0, 0.3323926671070695
463.0, 0.3734512307002562
464.0, 0.4167541967132579
465.0, 0.46527514041959767
466.0, 0.5208922672857242
467.0, 0.5793786133381983
468.0, 0.6361001536048553
469.0, 0.700220429884167
470.0, 0.7671641155777474
471.0, 0.8323389905930165
472.0, 0.8910824844758546
473.0, 0.939732908092567
474.0, 0.977720738338243
475.0, 0.9961435035149091
476.0, 0.9993550123357839
477.0, 0.9792507511557007
478.0, 0.933266526973918
479.0, 0.8765721972673113
480.0, 0.8098798804230327
481.0, 0.7380086562045893
482.0, 0.664672530645952
483.0, 0.5943713270920019
484.0, 0.5302277273293989
485.0, 0.47323726318265824
486.0, 0.42139641979727877
487.0, 0.3747622635319421
488.0, 0.3346443145355876
489.0, 0.3012636059265183
490.0, 0.2716336023975196
491.0, 0.24695928563170186
492.0, 0.2233226328957968
493.0, 0.20199010165924283
494.0, 0.18415936328681692
495.0, 0.16607533724593918
496.0, 0.1507210340722806
497.0, 0.13691071172488425
498.0, 0.12447342486536615
499.0, 0.11242195864461563
500.0, 0.10000157185397474
501.0, 0.0912833102668557
502.0, 0.08293147075701664
503.0, 0.07486312041516457
504.0, 0.06741937311173021
505.0, 0.06068728939198628
506.0, 0.055601731421783755
507.0, 0.05234359610965569
508.0, 0.04787134870814033
509.0, 0.04331417145810517
510.0, 0.040049311556103216
511.0, 0.03695503818255792
512.0, 0.035493650698607646
513.0, 0.03288771120779646
514.0, 0.029670637600691826
515.0, 0.027240645912944856
516.0, 0.025596471953980814
517.0, 0.0235787554011064
518.0, 0.021964355015395506
519.0, 0.020581948827236712
520.0, 0.01863284011940874
521.0, 0.015847115257933746
522.0, 0.013516151694292615
523.0, 0.012193725258235564
524.0, 0.011357951474261517
525.0, 0.010818443003813514
526.0, 0.009754486952025784
527.0, 0.007799687457393192
528.0, 0.008266691322195837
529.0, 0.008916712279627774
530.0, 0.008532365605374593
531.0, 0.007427102595227732
532.0, 0.006384460883533185
533.0, 0.006014214561170332
534.0, 0.005489953281077527
535.0, 0.005700445389748439
536.0, 0.005955985806299659
537.0, 0.005477853990269484
538.0, 0.004371890546142851
539.0, 0.004206542465335959
540.0, 0.003961441179834122
541.0, 0.0034341352677122045
542.0, 0.002748308851567695
543.0, 0.002321171573186637
544.0, 0.002671020513218621
545.0, 0.0018125386933987404
546.0, 0.0008007579434253524
547.0, 0.0005505641862169289
548.0, 0.000739692743047521
549.0, 0.0003704171028954542
550.0, 0.0006618824759890243
551.0, 0.00036159950231827063
552.0, 0.0004461394517900676
553.0, 0.0004022380747877467
554.0, 0.0002690713717884014
555.0, 0.00034784981829248885
556.0, 0.001076596034493605
557.0, 0.0015087737396102094
558.0, 0.0019508118345039128
559.0, 0.001772579031855171
560.0, 0.00042378046666395743
561.0, 8.396100505697211e-05
562.0, 0.000984079792025135
563.0, 0.0012742585032691433
564.0, 0.000939832092892
565.0, 0.0006825219296557933
566.0, 0.0007233100173966215
567.0, 0.0003310660203775327
568.0, 0.0002916281055051604
569.0, 0.00034833510540560787
570.0, 0.0006265484906478897
571.0, 0.001670511860080111
572.0, 0.001572744014150922
573.0, 0.002219112443421877
574.0, 0.0021294031339500136
575.0, 0.002152115650825109
576.0, 0.002651299400453135
577.0, 0.002851957888670841
578.0, 0.0032270375530460754
579.0, 0.0036283585135964747
580.0, 0.0037753639963108874
581.0, 0.0042072254696295455
582.0, 0.004777397150476727
583.0, 0.00431330971392572
584.0, 0.0039000079611870445
585.0, 0.004428070326737151
586.0, 0.0048365519021233835
587.0, 0.004639233628379039
588.0, 0.0042228556199288775
589.0, 0.004253039703897712
590.0, 0.004211680814404976
591.0, 0.004017877624547159
592.0, 0.0041983519404398305
593.0, 0.004359807182991226
594.0, 0.003855488214091934
595.0, 0.004086754381112871
596.0, 0.003979867993116639
597.0, 0.004276765358199752
598.0, 0.0045749279276059126
599.0, 0.004638441717074027
600.0, 0.00493584280049644
601.0, 0.0048359194732542354
602.0, 0.004918964031997438
603.0, 0.00525647238445849
604.0, 0.005456933808621594
605.0, 0.005099982865096281
606.0, 0.004446421938871978
607.0, 0.0048104240789429336
608.0, 0.0049711345148889564
609.0, 0.005416409515208696
610.0, 0.005810607116947715
611.0, 0.005691081001721373
612.0, 0.0057214670602595595
613.0, 0.005401686204385871
614.0, 0.005624844569840121
615.0, 0.005387891531846535
616.0, 0.004470315368539524
617.0, 0.0039285560753454735
618.0, 0.005013170221069538
619.0, 0.004507304722585355
620.0, 0.00435421069610961
621.0, 0.0038420513010892017
622.0, 0.0030546466197620865
623.0, 0.0031263363521074846
624.0, 0.0034662042537171654
625.0, 0.0035320844848640565
626.0, 0.0033319492604920427
627.0, 0.003072197508740345
628.0, 0.002974645861259488
629.0, 0.003003667637755849
630.0, 0.002572557637987867
631.0, 0.0027247285618116606
632.0, 0.00263501603405037
633.0, 0.0026917501459419813
634.0, 0.0027754309145763016
635.0, 0.0021317499067864754
636.0, 0.0015646732613515417
637.0, 0.0018354365531207972
638.0, 0.0021074741524059254
639.0, 0.0023012528017593795
640.0, 0.002484182073054327
641.0, 0.0025917260750146533
642.0, 0.0030583621712662744
643.0, 0.0024328248538386037
644.0, 0.0026044667529247743
645.0, 0.0034727394980922552
646.0, 0.003711422251459281
647.0, 0.002940086818714381
648.0, 0.0038140682852030343
649.0, 0.003871711739315534
650.0, 0.0035949968460193688
651.0, 0.004323737189789299
652.0, 0.005287231584734384
653.0, 0.00521238485833341
654.0, 0.0064920792182118926
655.0, 0.005560856393545963
656.0, 0.005292104936848058
657.0, 0.006380338602887894
658.0, 0.0076676002612656585
659.0, 0.007966060866060077
660.0, 0.008414623952839219
661.0, 0.009192804680068372
662.0, 0.009770402164225015
663.0, 0.01063272823330977
664.0, 0.011052594980922629
665.0, 0.010495068169490952
666.0, 0.011492929569186116
667.0, 0.01052469249125048
668.0, 0.010978457287779199
669.0, 0.011632005490681083
670.0, 0.011700273305175852
671.0, 0.01181865933999833
672.0, 0.011947141886742656
673.0, 0.011587084239748746
674.0, 0.011262005301035922
675.0, 0.011035083804713791
676.0, 0.010727105239982417
677.0, 0.010160008952042849
678.0, 0.009197032111123266
679.0, 0.007370665545918004
680.0, 0.007202025218458056
681.0, 0.006535550509012586
682.0, 0.00554763424574518
683.0, 0.005224905832443503
684.0, 0.00422485532077569
685.0, 0.003632058363826743
686.0, 0.0030011654732718216
687.0, 0.002631678366752991
688.0, 0.0023733685803945755
689.0, 0.001831691086173855
690.0, 0.0011623859009747438
691.0, 0.0012477749146093558
692.0, 0.0014959149082971889
693.0, 0.0011482685399394606
694.0, 0.001098134776158421
695.0, 0.0011932856237364259
696.0, 0.0004200780272417836
697.0, 0.0005775845049003141
698.0, 0.000736514699602377
699.0, 0.0002133638479453088
700.0, 0.00020653437263595302
701.0, 0.000408805507354749
702.0, 0.0010801156330536126
703.0, 0.00068883484640749
704.0, 0.00021116810329884565
705.0, 0.00011410707085446879
706.0, 0.0003420971989365051
707.0, 0.0004631302858746455
708.0, 0.00046603850973488375
709.0, 0.0011846567502067384
710.0, 0.0010608957781024365
711.0, 0.0008479625652443797
712.0, 0.0008091583319655473
713.0, 0.0012368304175747829
714.0, 0.0013787955176900824
715.0, 0.0004970356281439003
716.0, 0.0008150607333047249
717.0, 0.00018777067801134276
718.0, 0.0003073705218493267
719.0, 0.0008862031675181562
720.0, 0.0006974801601301883
721.0, 8.698996528551076e-05
722.0, 0.00024981970155591354
723.0, 0.00019208448491478153
724.0, 0.0003728006131654336
725.0, 0.000436421572819417
726.0, 0.000181380722875907
727.0, 0.00020471660318080996
728.0, 0.0007042077319175515
729.0, 0.0005320300004359268
730.0, 0.00023482390911902485
731.0, 0.00012706865181282703
732.0, 8.238085082079631e-05
733.0, 0.0003148744575970508
734.0, 0.0002790024604627112
735.0, 0.00036644477784901974
736.0, 3.061080911197026e-05
737.0, 0.00032754302666687175
738.0, 0.000679722173259937
739.0, 0.0004508518074984139
740.0, 0.0001803414471263429
741.0, 0.0005823234270067867
742.0, 8.343801148972713e-05
743.0, 0.0002460332097255337
744.0, 0.0001209358925984696
745.0, 0.0003373609163244941
746.0, 0.0001900382010108759
747.0, 0.00017961195238698876
748.0, 0.00011155089727718644
749.0, 7.407332367698146e-05
750.0, 6.080235989554898e-05
751.0, 0.0004831808671948208
752.0, 0.0010177408666766745
753.0, 0.0010593645947083179
754.0, 0.0008682858182307026
755.0, 0.001257802908396283
756.0, 0.001868315149561593
757.0, 0.0020186018531103875
758.0, 0.0018990011247155708
759.0, 0.0018096714967630939
760.0, 0.0019317271299332426
761.0, 0.0023246589449260635
762.0, 0.0020625756483745677
763.0, 0.0026421081200723247
764.0, 0.0034213680990442703
765.0, 0.003550486803296949
766.0, 0.003281544159987064
767.0, 0.0034600384799896603
768.0, 0.004030992959782343
769.0, 0.003768635416374594
770.0, 0.004256404950119767
771.0, 0.004514273627189266
772.0, 0.004001561019324201
773.0, 0.003909053963253452
774.0, 0.005115355356125983
775.0, 0.005565592744226842
776.0, 0.005408405048554296
777.0, 0.004985040339387997
778.0, 0.005306419786941317
779.0, 0.0055255951899316254
780.0, 0.005125392062427029
781.0, 0.005443584711588132
782.0, 0.005717302098522977
783.0, 0.005638121830284905
784.0, 0.005954351043244016
785.0, 0.005479131031358901
786.0, 0.004935704186110118
787.0, 0.005166675970413554
788.0, 0.004832826726845477
789.0, 0.005048992672486316
790.0, 0.004727483526739076
791.0, 0.0043348227547665265
792.0, 0.0036644985587634157
793.0, 0.0032344890747046592
794.0, 0.0036994867140880154
795.0, 0.00402275285346644
796.0, 0.002818550591891039
797.0, 0.0029417895585186985
798.0, 0.003157011198603982
799.0, 0.002903286482113613
800.0, 0.002647750599324376
801.0, 0.002526697138119917
802.0, 0.002460479014945739
803.0, 0.0017585323926981068
804.0, 0.0017337963161918265
805.0, 0.0018411720767241141
806.0, 0.0022118869533117283
807.0, 0.0024778331560687573
808.0, 0.0022369559371539192
809.0, 0.0024182679046965408
810.0, 0.0019397673992732733
811.0, 0.0014903644492159415
812.0, 0.0015817639521280035
813.0, 0.0010747338836578555
814.0, 0.0005758993355948583
815.0, 0.0013280102467945294
816.0, 0.0016143172486976817
817.0, 0.0012087360375116244
818.0, 0.0014551567961856346
819.0, 0.0012473711934296713
820.0, 0.0012519899329613258
821.0, 0.001498421667143936
822.0, 0.0012520998667532568
823.0, 0.0013055033793349458
824.0, 0.0008248396485319077
825.0, 0.0007586900196911607
826.0, 0.0013465134567961345
827.0, 0.0017884183335098842
828.0, 0.0016223630830980392
829.0, 0.0011392915950424935
830.0, 0.0008013935900796703
831.0, 0.00029797883983474527
832.0, 0.0005544112085404183
833.0, 0.0007137016999782892
834.0, 0.0012168741872228
835.0, 0.0015758738007679719
836.0, 0.0011736187059674533
837.0, 0.0010956037467688292
838.0, 0.001017180494950124
839.0, 0.0005900633111679179
840.0, 0.001016968642669804
841.0, 0.0010929747855891398
842.0, 0.0007056397853336303
843.0, 0.0007813587616031625
844.0, 0.0014784546201595191
845.0, 0.0015179344708825058
846.0, 0.0013869199763944092
847.0, 0.0013134677048669179
848.0, 0.0008911716651286452
849.0, 0.0009010970180352844
850.0, 0.0012095781066420674
851.0, 0.0008156895140904576
852.0, 0.0012175584252112526
853.0, 0.0009145789750558489
854.0, 0.0010384179219100212
855.0, 0.0014316185721402952
856.0, 0.0013376568720201982
857.0, 0.0010397765806534982
858.0, 0.0010410433447187884
859.0, 0.0007089530648174292
860.0, 0.0008341606254318897
861.0, 0.0017206284434704703
862.0, 0.001628671817616669
863.0, 0.001165521075049095
864.0, 0.0012522934576926948
865.0, 0.001487960490133361
866.0, 0.001083529527980439
867.0, 0.0007144365320055635
868.0, 0.0010840227197902752
869.0, 0.0009769302048882572
870.0, 0.001241599627311196
871.0, 0.0010281536447330453
872.0, 0.0004199069203166825
873.0, 0.0005716187138839886
874.0, 0.0005465771738983635
875.0, 0.0003096575202189188
876.0, 0.0004114811108149705
877.0, 0.0005535265948407008
878.0, 0.0007514357634725851
879.0, 0.0011419899169226452
880.0, 0.001208339633435239
881.0, 0.0005188789877500942
882.0, 0.00047545857291642237
883.0, 0.0007271885971726734
884.0, 0.0005651785279579406
885.0, 0.00038802869765888987
886.0, 0.0002269949413518477
887.0, 9.454529438983792e-05
888.0, 0.0002632719242786632
889.0, 0.0006122786770212141
890.0, 0.00030272836614355823
891.0, 0.00011290212759951296
892.0, 0.00032045562172617015
893.0, 0.0002943019346817311
894.0, 6.195551992891162e-05
895.0, 3.3899589269578725e-05
896.0, 0.0003340405657828395
897.0, 0.00022000843595254614
898.0, 0.00044193255823106724
899.0, 0.0002584417256230472
900.0, 0.0006263560850993376
901.0, 0.0004437655667821055
902.0, 0.00017551667909267827
903.0, 0.0008493757211592716
904.0, 0.0008919730989786633
905.0, 0.0002517620926603739
906.0, 0.00023717645521771654
907.0, 0.0008506544260943191
908.0, 0.0010459543295165614
909.0, 0.0007904006013687729
910.0, 0.0005264744097731663
911.0, 0.0005572248513469236
912.0, 0.0009988501696708832
913.0, 0.0012790336719158348
914.0, 0.0013871746216546992
915.0, 0.0015031521607142277
916.0, 0.0011846743652566157
917.0, 0.0010228548351236806
918.0, 0.0009539709076865745
919.0, 0.0007272806142991866
920.0, 0.0015330513680066728
921.0, 0.0022273824029073776
922.0, 0.0023186270867424975
923.0, 0.0018180073666957698
924.0, 0.0013491821634602221
925.0, 0.001599453241084072
926.0, 0.0020387780998335383
927.0, 0.0018720594417491678
928.0, 0.0020159851553017334
929.0, 0.0018604078679953422
930.0, 0.0020415758686102873
931.0, 0.0021201467822599992
932.0, 0.002226527037724494
933.0, 0.0022026948269051865
934.0, 0.0020051153445435187
935.0, 0.002042246319864084
936.0, 0.002198941945698107
937.0, 0.0012607708296000358
938.0, 0.001486434569783725
939.0, 0.0011133410772206163
940.0, 0.0013948763705692565
941.0, 0.0015469797718593301
942.0, 0.0014301072988953134
943.0, 0.0019611425831807445
944.0, 0.001476716372024414
945.0, 0.0005561595274082076
946.0, 0.0007025581485355698
947.0, 0.0010732213361392554
948.0, 0.0010190002166147764
949.0, 0.0012270355784982962
950.0, 0.0013961731796766053
951.0, 0.0009572072512022431
952.0, 0.0009386509000931627
953.0, 0.00024357544408972932
954.0, 0.0004909142289686748
955.0, 0.0010652018814093051
956.0, 0.0004670890176393187
957.0, 0.00047919046326220274
958.0, 0.001018967576487266
959.0, 0.0008474333438089312
960.0, 0.0008251902091922523
961.0, 0.0001620755902159193
962.0, 0.00010773430029371392
963.0, 0.00022012860506586565
964.0, 0.000113519313470885
965.0, 0.00017233601067440362
966.0, 0.0003341094370381476
967.0, 0.00018072612221335107
968.0, 0.00045245989517612767
969.0, 0.0004070302291106207
970.0, 0.00011952190338512194
971.0, 0.00034566715558604564
972.0, 0.0001901821353217419
973.0, 5.0274786824867264e-05
974.0, 9.355702424726132e-05
975.0, 0.00015861496432230854
976.0, 0.0003252644492256632
977.0, 0.000604552904838596
978.0, 0.0004965211843091668
979.0, 0.00016917702808872298
980.0, 0.00028599161222907633
981.0, 0.00014882162127474052
982.0, 4.6925683711350396e-05
983.0, 0.00010301939632434324
984.0, 0.0003447655579659958
985.0, 0.0007724775284712085
986.0, 0.00030879071129815203
987.0, 0.000628867845672089
988.0, 0.0014236884785089128
989.0, 0.0017071706159857243
990.0, 0.0012159313784215098
991.0, 0.0013794456511572982
992.0, 0.0016769080601789761
993.0, 0.0014348338819223777
994.0, 0.0022916772385010685
995.0, 0.002672160850180802
996.0, 0.002176848547010756
997.0, 0.001660334772425162
998.0, 0.002263324090500674
999.0, 0.0020346893436731326
1000.0, 0.0015732242751349782
1001.0, 0.0018493343015756852
1002.0, 0.002260075599287027
1003.0, 0.003023158472774868
1004.0, 0.002587273197816764
1005.0, 0.0022402401597428163
1006.0, 0.0019483247808368025
1007.0, 0.0020549721433823134
1008.0, 0.0018697848103070554
1009.0, 0.0016557611998615225
1010.0, 0.0018073028575759003
1011.0, 0.0019485508423377977
1012.0, 0.002295226407455153
1013.0, 0.0022193012378493243
1014.0, 0.0015923822754196426
1015.0, 0.0014287234608775716
1016.0, 0.0017206877678371236
1017.0, 0.001933404829095464
1018.0, 0.001837310438294658
1019.0, 0.001281011740512193
1020.0, 0.00038381872698244605
1021.0, 1.9707550268367137e-05
1022.0, 0.0003165930973447165
1023.0, 0.0006726836240052563
1024.0, 0.0010037834475024902
1025.0, 0.0012134131483866157
1026.0, 0.0008611261642740901
1027.0, 0.0006750012368607504
1028.0, 0.0009156940289069043
1029.0, 0.0007942044055159733
1030.0, 0.000639776341933035
1031.0, 0.0004396700698651176
1032.0, 0.0002289783439564459
1033.0, 0.00010164770342616672
1034.0, 0.0001056233814928732
1035.0, 0.00041026070261751015
1036.0, 0.0005638330326133181
1037.0, 0.00022631131622835853
1038.0, 0.0006533429082767485
1039.0, 0.00012368128465735
1040.0, 0.00013898727844363805
1041.0, 0.0008023894840566085
1042.0, 0.0001604819693108111
1043.0, 3.624518123769391e-05
1044.0, 3.2619757352910604e-05
1045.0, 0.00044643350298368637
1046.0, 0.0007177491917534127
1047.0, 3.202550930535322e-05
1048.0, 0.0002751666772565594
1049.0, 0.0008801215982528652
1050.0, 0.0011163214362607098
1051.0, 0.001128098352794946
1052.0, 0.0008102583528065222
1053.0, 0.0007010733328803867
1054.0, 0.0009050006597696647
1055.0, 0.0007323866557289786
1056.0, 0.0007548075246982953
1057.0, 0.001553975667977901
1058.0, 0.0012061332768878938
1059.0, 0.00163811290931387
1060.0, 0.0024453113442847495
1061.0, 0.0021641440248947115
1062.0, 0.001837889305120106
1063.0, 0.002842066866842291
1064.0, 0.0034169409878851177
1065.0, 0.00324193266080813
1066.0, 0.0037797687271558917
1067.0, 0.004197913233151147
1068.0, 0.005086012801868989
1069.0, 0.006032971197439855
1070.0, 0.007898621275982176
1071.0, 0.008064980404640409
1072.0, 0.00822029376214739
1073.0, 0.0094399245966281
1074.0, 0.010520751660959515
1075.0, 0.011152987942800001
1076.0, 0.012264370473152488
1077.0, 0.013370698021770922
1078.0, 0.01483659878038761
1079.0, 0.0150565253466265
1080.0, 0.016890465835462616
1081.0, 0.018122782624381783
1082.0, 0.018637426806030127
1083.0, 0.01979386640699389
1084.0, 0.022001849631176452
1085.0, 0.024168126458970426
1086.0, 0.025129013114603364
1087.0, 0.025361857085054323
1088.0, 0.026711546886775732
1089.0, 0.027811528482069085
1090.0, 0.029099130156618986
1091.0, 0.030571468464749414
1092.0, 0.031118374135337544
1093.0, 0.031619366133378124
1094.0, 0.03354381438898376
1095.0, 0.03555085742950212
1096.0, 0.03604676739039408
1097.0, 0.03684126831076397
1098.0, 0.03797493398488628
1099.0, 0.03887281146820506
1100.0, 0.04034357102021314
1101.0, 0.04075716192140454
1102.0, 0.04132529846259022
1103.0, 0.04217172912400809
1104.0, 0.04312491215771348
1105.0, 0.04364620839726801
1106.0, 0.04322657185801586
1107.0, 0.04344254159184076
1108.0, 0.0444823782397366
1109.0, 0.04359310419144839
1110.0, 0.04428137254051399
1111.0, 0.04450769901479928
1112.0, 0.0448844671358944
1113.0, 0.04521644639890754
1114.0, 0.044615953104062786
1115.0, 0.04421168642753942
1116.0, 0.04466988561899598
1117.0, 0.04401668609368368
1118.0, 0.04343107833078525
1119.0, 0.04336144142100401
1120.0, 0.044340990751286564
1121.0, 0.043214510987442965
1122.0, 0.04280793533179514
1123.0, 0.04325981750839021
1124.0, 0.04295042592598476
1125.0, 0.041875890567555266
1126.0, 0.04104806737720406
1127.0, 0.040673454439886084
1128.0, 0.04000441792575427
1129.0, 0.03925795486457503
1130.0, 0.03814557426944651
1131.0, 0.0375430544430769
1132.0, 0.036748725709491815
1133.0, 0.03643362252712681
1134.0, 0.03524059769195896
1135.0, 0.0335468682066933
1136.0, 0.03260013532819762
1137.0, 0.03202999893038906
1138.0, 0.03101397317340879
1139.0, 0.02960939678586515
1140.0, 0.028857703970633093
1141.0, 0.02848735291967385
1142.0, 0.027576158708665338
1143.0, 0.025401800945761988
1144.0, 0.024344515584931472
1145.0, 0.023543638572695112
1146.0, 0.02220970395936215
1147.0, 0.020988929812260256
1148.0, 0.020067370167544507
1149.0, 0.018851751925800152
1150.0, 0.01764702789354495
1151.0, 0.017593894201188152
1152.0, 0.015775056312045076
1153.0, 0.01471057622085123
1154.0, 0.014355576501558874
1155.0, 0.01308909006695388
1156.0, 0.012150050702412617
1157.0, 0.012124616017518006
1158.0, 0.011518687004033376
1159.0, 0.009860184525771172
1160.0, 0.008693584109257826
1161.0, 0.0083068622299541
1162.0, 0.007919661568357269
1163.0, 0.007616000036313366
1164.0, 0.007000666343734446
1165.0, 0.006374755340706667
1166.0, 0.005414304664588838
1167.0, 0.005146715473268432
1168.0, 0.0048638423475592905
1169.0, 0.004125993593754027
1170.0, 0.0037661965058110726
1171.0, 0.003875305998884135
1172.0, 0.00337427503246079
1173.0, 0.002577949013151407
1174.0, 0.001209723336229451
1175.0, 0.0009933872639369206
1176.0, 0.0006487324275863686
1177.0, 0.0012893126168122232
1178.0, 0.0013872891414856813
1179.0, 0.0007519858157116785
1180.0, 0.00045289215726621544
1181.0, 0.000618782754052623
1182.0, 0.0006194703479467302
1183.0, 0.0002239550004276828
1184.0, 0.00013719763603466743
1185.0, 0.0003467719128338817
1186.0, 8.925125204908716e-05
1187.0, 7.040206703132036e-05
1188.0, 0.000447499078467037
1189.0, 0.00022270102630544985
1190.0, 0.0005004692802130388
1191.0, 0.0006767029931608923
1192.0, 0.0006278961078778244
1193.0, 0.0006293803033124907
1194.0, 0.00027854370521117095
1195.0, 8.945381543964106e-05
1196.0, 0.0004936891260247711
1197.0, 0.0005989878429924669
1198.0, 0.00021365921899110706
1199.0, 0.0004399759580103816
1200.0, 0.00018882359541549083
1201.0, 0.0004605178297444959
1202.0, 0.00021434714656541775
1203.0, 0.00024000256383469498
1204.0, 3.875842840379034e-05
1205.0, 9.551425770584133e-05
1206.0, 0.0001415709296239362
1207.0, 0.0008538668230599956
1208.0, 0.0009454642077572943
1209.0, 0.00013818451569436706
1210.0, 0.00011075331720547131
1211.0, 0.0008469262740716673
1212.0, 0.0002407404590408146
1213.0, 0.0003085353473223936
1214.0, 0.00021241514995653678
1215.0, 0.00032470482406216794
1216.0, 0.0006194189104620608
1217.0, 0.0007634075248021182
1218.0, 0.001081988091878848
1219.0, 0.0013181969812058282
1220.0, 0.0010448928375132811
1221.0, 0.0012693725919437216
1222.0, 0.001043872082484305
1223.0, 0.0010859745184086866
1224.0, 0.001680657184427797
1225.0, 0.0021107299514139407
1226.0, 0.0021900925967999084
1227.0, 0.0021058628745579165
1228.0, 0.0019441839833125017
1229.0, 0.001447330472402259
1230.0, 0.0022851919269346673
1231.0, 0.0035706107515215946
1232.0, 0.0030682229302070345
1233.0, 0.0029817604882544403
1234.0, 0.00302624575997358
1235.0, 0.0036154556922677805
1236.0, 0.0032931026325458508
1237.0, 0.00239787053256309
1238.0, 0.0022661829946902705
1239.0, 0.0023748978055625537
1240.0, 0.002260498384775159
1241.0, 0.0020703460337825456
1242.0, 0.0020930840861714583
1243.0, 0.0023793056282220694
1244.0, 0.002070016343187561
1245.0, 0.0017383676421161259
1246.0, 0.001683302228290178
1247.0, 0.0015540125698850743
1248.0, 0.0019067034532102506
1249.0, 0.001962010695414155
1250.0, 0.0015712534556730383
1251.0, 0.0013835478333034813
1252.0, 0.0013287516662203352
1253.0, 0.0014008290641489426
1254.0, 0.0015215989393637477
1255.0, 0.0018118617251603726
1256.0, 0.001899697198494081
1257.0, 0.0016515874753221355
1258.0, 0.0014842877295189413
1259.0, 0.001563064100757306
1260.0, 0.0015085043978015212
1261.0, 0.001532791246248641
1262.0, 0.0010705650363595214
1263.0, 0.0006040668223817489
1264.0, 0.0008456421614626193
1265.0, 0.0012822011006302684
1266.0, 0.0007102772859320858
1267.0, 0.0011511886240703165
1268.0, 0.0015793389111626605
1269.0, 0.0007247218433131586
1270.0, 0.00015596139517838481
1271.0, 0.00024701909433972257
1272.0, 0.00042314355336751453
1273.0, 0.0006944740723836045
1274.0, 0.00011769140322232647
1275.0, 2.778093232258191e-05
1276.0, 0.0007812261017416538
1277.0, 0.000539893738430287
1278, 0.0
1279, 0.0
1280, 0.0
1281, 0.0
1282, 0.0
1283, 0.0
1284, 0.0
1285, 0.0
1286, 0.0
1287, 0.0
1288, 0.0
1289, 0.0
1290, 0.0
1291, 0.0
1292, 0.0
1293, 0.0
1294, 0.0
1295, 0.0
1296, 0.0
1297, 0.0
1298, 0.0
1299, 0.0
1300, 0.0
1301, 0.0
1302, 0.0
1303, 0.0
1304, 0.0
1305, 0.0
1306, 0.0
1307, 0.0
1308, 0.0
1309, 0.0
1310, 0.0
1311, 0.0
1312, 0.0
1313, 0.0
1314, 0.0
1315, 0.0
1316, 0.0
1317, 0.0
1318, 0.0
1319, 0.0
1320, 0.0
1321, 0.0
1322, 0.0
1323, 0.0
1324, 0.0
1325, 0.0
1326, 0.0
1327, 0.0
1328, 0.0
1329, 0.0
1330, 0.0
1331, 0.0
1332, 0.0
1333, 0.0
1334, 0.0
1335, 0.0
1336, 0.0
1337, 0.0
1338, 0.0
1339, 0.0
1340, 0.0
1341, 0.0
1342, 0.0
1343, 0.0
1344, 0.0
1345, 0.0
1346, 0.0
1347, 0.0
1348, 0.0
1349, 0.0
1350, 0.0
1351, 0.0
1352, 0.0
1353, 0.0
1354, 0.0
1355, 0.0
1356, 0.0
1357, 0.0
1358, 0.0
1359, 0.0
1360, 0.0
1361, 0.0
1362, 0.0
1363, 0.0
1364, 0.0
1365, 0.0
1366, 0.0
1367, 0.0
1368, 0.0
1369, 0.0
1370, 0.0
1371, 0.0
1372, 0.0
1373, 0.0
1374, 0.0
1375, 0.0
1376, 0.0
1377, 0.0
1378, 0.0
1379, 0.0
1380, 0.0
1381, 0.0
1382, 0.0
1383, 0.0
1384, 0.0
1385, 0.0
1386, 0.0
1387, 0.0
1388, 0.0
1389, 0.0
1390, 0.0
1391, 0.0
1392, 0.0
1393, 0.0
1394, 0.0
1395, 0.0
1396, 0.0
1397, 0.0
1398, 0.0
1399, 0.0
1400, 0.0
1401, 0.0
1402, 0.0
1403, 0.0
1404, 0.0
1405, 0.0
1406, 0.0
1407, 0.0
1408, 0.0
1409, 0.0
1410, 0.0
1411, 0.0
1412, 0.0
1413, 0.0
1414, 0.0
1415, 0.0
1416, 0.0
1417, 0.0
1418, 0.0
1419, 0.0
1420, 0.0
1421, 0.0
1422, 0.0
1423, 0.0
1424, 0.0
1425, 0.0
1426, 0.0
1427, 0.0
1428, 0.0
1429, 0.0
1430, 0.0
1431, 0.0
1432, 0.0
1433, 0.0
1434, 0.0
1435, 0.0
1436, 0.0
1437, 0.0
1438, 0.0
1439, 0.0
1440, 0.0
1441, 0.0
1442, 0.0
1443, 0.0
1444, 0.0
1445, 0.0
1446, 0.0
1447, 0.0
1448, 0.0
1449, 0.0
1450, 0.0
1451, 0.0
1452, 0.0
1453, 0.0
1454, 0.0
1455, 0.0
1456, 0.0
1457, 0.0
1458, 0.0
1459, 0.0
1460, 0.0
1461, 0.0
1462, 0.0
1463, 0.0
1464, 0.0
1465, 0.0
1466, 0.0
1467, 0.0
1468, 0.0
1469, 0.0
1470, 0.0
1471, 0.0
1472, 0.0
1473, 0.0
1474, 0.0
1475, 0.0
1476, 0.0
1477, 0.0
1478, 0.0
1479, 0.0
1480, 0.0
1481, 0.0
1482, 0.0
1483, 0.0
1484, 0.0
1485, 0.0
1486, 0.0
1487, 0.0
1488, 0.0
1489, 0.0
1490, 0.0
1491, 0.0
1492, 0.0
1493, 0.0
1494, 0.0
1495, 0.0
1496, 0.0
1497, 0.0
1498, 0.0
1499, 0.0
1500, 0.0
1501, 0.0
1502, 0.0
1503, 0.0
1504, 0.0
1505, 0.0
1506, 0.0
1507, 0.0
1508, 0.0
1509, 0.0
1510, 0.0
1511, 0.0
1512, 0.0
1513, 0.0
1514, 0.0
1515, 0.0
1516, 0.0
1517, 0.0
1518, 0.0
1519, 0.0
1520, 0.0
1521, 0.0
1522, 0.0
1523, 0.0
1524, 0.0
1525, 0.0
1526, 0.0
1527, 0.0
1528, 0.0
1529, 0.0
1530, 0.0
1531, 0.0
1532, 0.0
1533, 0.0
1534, 0.0
1535, 0.0
1536, 0.0
1537, 0.0
1538, 0.0
1539, 0.0
1540, 0.0
1541, 0.0
1542, 0.0
1543, 0.0
1544, 0.0
1545, 0.0
1546, 0.0
1547, 0.0
1548, 0.0
1549, 0.0
1550, 0.0
1551, 0.0
1552, 0.0
1553, 0.0
1554, 0.0
1555, 0.0
1556, 0.0
1557, 0.0
1558, 0.0
1559, 0.0
1560, 0.0
1561, 0.0
1562, 0.0
1563, 0.0
1564, 0.0
1565, 0.0
1566, 0.0
1567, 0.0
1568, 0.0
1569, 0.0
1570, 0.0
1571, 0.0
1572, 0.0
1573, 0.0
1574, 0.0
1575, 0.0
1576, 0.0
1577, 0.0
1578, 0.0
1579, 0.0
1580, 0.0
1581, 0.0
1582, 0.0
1583, 0.0
1584, 0.0
1585, 0.0
1586, 0.0
1587, 0.0
1588, 0.0
1589, 0.0
1590, 0.0
1591, 0.0
1592, 0.0
1593, 0.0
1594, 0.0
1595, 0.0
1596, 0.0
1597, 0.0
1598, 0.0
1599, 0.0
