30, 0.0
31, 0.0
32, 0.0
33, 0.0
34, 0.0
35, 0.0
36, 0.0
37, 0.0
38, 0.0
39, 0.0
40, 0.0
41, 0.0
42, 0.0
43, 0.0
44, 0.0
45, 0.0
46, 0.0
47, 0.0
48, 0.0
49, 0.0
50, 0.0
51, 0.0
52, 0.0
53, 0.0
54, 0.0
55, 0.0
56, 0.0
57, 0.0
58, 0.0
59, 0.0
60, 0.0
61, 0.0
62, 0.0
63, 0.0
64, 0.0
65, 0.0
66, 0.0
67, 0.0
68, 0.0
69, 0.0
70, 0.0
71, 0.0
72, 0.0
73, 0.0
74, 0.0
75, 0.0
76, 0.0
77, 0.0
78, 0.0
79, 0.0
80, 0.0
81, 0.0
82, 0.0
83, 0.0
84, 0.0
85, 0.0
86, 0.0
87, 0.0
88, 0.0
89, 0.0
90, 0.0
91, 0.0
92, 0.0
93, 0.0
94, 0.0
95, 0.0
96, 0.0
97, 0.0
98, 0.0
99, 0.0
100, 0.0
101, 0.0
102, 0.0
103, 0.0
104, 0.0
105, 0.0
106.0, 0.003604630687828179
107.0, 0.02308912089230459
108.0, 0.0399348206824553
109.0, 0.03635370622941704
110.0, 0.018492214456867884
111.0, 0.0013066987307448529
112.0, 0.0055620246166170634
113.0, 0.009836952199846333
114.0, 0.027246500006907252
115.0, 0.04066027118733967
116.0, 0.04692975897668642
117.0, 0.05029871105300115
118.0, 0.05124226222537796
119.0, 0.05299866025991858
120.0, 0.05560980004242546
121.0, 0.06088491717924826
122.0, 0.07093982904491011
123.0, 0.08801188557177335
124.0, 0.0934924676596268
125.0, 0.10357977889896516
126.0, 0.11682880188349397
127.0, 0.12844859512036652
128.0, 0.13216232667644284
129.0, 0.14550172813884588
130.0, 0.15597609612826577
131.0, 0.1716208324146041
132.0, 0.18734985524990203
133.0, 0.1951146150680109
134.0, 0.21343301648842328
135.0, 0.22713181637324625
136.0, 0.24576653624975897
137.0, 0.27125927991879806
138.0, 0.3007417857652163
139.0, 0.32450169428512343
140.0, 0.3612609116636338
141.0, 0.3897639960281554
142.0, 0.4187869208271706
143.0, 0.44608824155552684
144.0, 0.45766168680811303
145.0, 0.44896187202720683
146.0, 0.41944595866335455
147.0, 0.38528986346989025
148.0, 0.3510962814109807
149.0, 0.31747388684515443
150.0, 0.28844121681545354
151.0, 0.2673075871985519
152.0, 0.2514572812320371
153.0, 0.24125770965132293
154.0, 0.23362188283228283
155.0, 0.21997189600058054
156.0, 0.21131737963577205
157.0, 0.20426585983680634
158.0, 0.19571776975724708
159.0, 0.18748218787409154
160.0, 0.1840283213021402
161.0, 0.1865359645629806
162.0, 0.18998365122700153
163.0, 0.1889535862424253
164.0, 0.18646826806206918
165.0, 0.18539901863403502
166.0, 0.1835466318476067
167.0, 0.18842624002560737
168.0, 0.19003334629000054
169.0, 0.19088196796051596
170.0, 0.1910834550969833
171.0, 0.18908908034659577
172.0, 0.19480142662386543
173.0, 0.19602908995480064
174.0, 0.19877446262948267
175.0, 0.20382097451313877
176.0, 0.20876011597524602
177.0, 0.20677671109273013
178.0, 0.21381057646238666
179.0, 0.21606971324369648
180.0, 0.21670027871519978
181.0, 0.21644450843046179
182.0, 0.21241379289832615
183.0, 0.20610065524797005
184.0, 0.20147204456659834
185.0, 0.20240627658737217
186.0, 0.20367615882034465
187.0, 0.19915514755023767
188.0, 0.19104040823336
189.0, 0.1923703032740892
190.0, 0.18364832063516326
191.0, 0.18146380190249592
192.0, 0.18470706456717378
193.0, 0.1716883989506368
194.0, 0.16683395453081515
195.0, 0.16484928405509833
196.0, 0.16269840178426329
197.0, 0.1594587204006638
198.0, 0.15598520319564538
199.0, 0.15623664965764594
200.0, 0.1452315318778592
201.0, 0.13794528666301273
202.0, 0.1335910024758373
203.0, 0.12584543981971746
204.0, 0.10674806984985809
205.0, 0.10195915768721182
206.0, 0.09465267389088165
207.0, 0.08214868084912488
208.0, 0.07336682296624332
209.0, 0.0744427021206671
210.0, 0.07267796363713677
211.0, 0.06529221251872673
212.0, 0.05843024566058631
213.0, 0.058203738012309575
214.0, 0.05954375588781056
215.0, 0.05041149737862322
216.0, 0.04683401687705153
217.0, 0.043857099902854024
218.0, 0.03870802687240423
219.0, 0.032392996013328644
220.0, 0.02825817705057023
221.0, 0.03216127304686271
222.0, 0.02034317144299118
223.0, 0.020440208076666334
224.0, 0.022705423391271136
225.0, 0.021296601999057904
226.0, 0.015173536058338965
227.0, 0.008644562984494307
228.0, 0.008993841614966316
229.0, 0.004382300665161999
230.0, 0.002294409028299007
231.0, 0.0052694568040001465
232.0, 0.0035037285195877402
233.0, 0.005426531379793521
234.0, 0.0070856533224025004
235.0, 0.010534030145425392
236.0, 0.01111226227488708
237.0, 0.007111373321351319
238.0, 0.018010684751701003
239.0, 0.00945979664876726
240.0, 0.010217024947206162
241.0, 0.012835892069282213
242.0, 0.01007173498485268
243.0, 0.0012382974962978008
244.0, 0.013516130550588968
245.0, 0.014373021508137792
246.0, 0.016669648655477185
247.0, 0.017980082772386892
248.0, 0.015357402237615263
249.0, 0.012834759027876839
250.0, 0.016175424893828453
251.0, 0.01300307913616325
252.0, 0.013791747444617124
253.0, 0.017381248104633873
254.0, 0.017136478549905066
255.0, 0.012911769963010187
256.0, 0.01116977326854867
257.0, 0.007693572053754772
258.0, 0.011175550193885888
259.0, 0.017248537376987026
260.0, 0.0095778120323439
261.0, 0.007226191391655116
262.0, 0.006646312816508325
263.0, 0.004721152556253768
264.0, 0.002210130625230308
265.0, 0.0010393060600264019
266.0, 0.003063703703296108
267.0, 0.012997773373304843
268.0, 0.016949293386673614
269.0, 0.015879841144283095
270.0, 0.01507906372350518
271.0, 0.019219255213221983
272.0, 0.023290458448062025
273.0, 0.024415074359223646
274.0, 0.02646816635724918
275.0, 0.028268700352161655
276.0, 0.029679566895254094
277.0, 0.03187838651434992
278.0, 0.035916927312113676
279.0, 0.039883010036498884
280.0, 0.045118553536345814
281.0, 0.049732818470121676
282.0, 0.05326478686189541
283.0, 0.05805563394420557
284.0, 0.060646007073815796
285.0, 0.059509909969993204
286.0, 0.06330643349533899
287.0, 0.06887899060855318
288.0, 0.07040113694402254
289.0, 0.06650420185422995
290.0, 0.07570998136668818
291.0, 0.07628085905380763
292.0, 0.0802399481165004
293.0, 0.08477306403251443
294.0, 0.08281347208401287
295.0, 0.08744342911985072
296.0, 0.09237774309398539
297.0, 0.09420727989798637
298.0, 0.09347631888313973
299.0, 0.09499440582973913
300.0, 0.10317193601219052
301.0, 0.09913781184413338
302.0, 0.09993951184828093
303.0, 0.10126717194236581
304.0, 0.10343996033187938
305.0, 0.1068807501750845
306.0, 0.111111200708352
307.0, 0.11529313195512313
308.0, 0.11708597079350161
309.0, 0.11737100461619412
310.0, 0.1227416862783042
311.0, 0.1327814329934025
312.0, 0.13355867844809466
313.0, 0.1394833630651235
314.0, 0.14704045749094158
315.0, 0.15249794547138307
316.0, 0.15594291459394186
317.0, 0.15992588736041086
318.0, 0.1686985620036367
319.0, 0.1694906385661456
320.0, 0.17805124253872603
321.0, 0.18493253644466862
322.0, 0.18729143329218612
323.0, 0.18792197131819327
324.0, 0.19397203212585587
325.0, 0.19177301939442745
326.0, 0.1948315725236736
327.0, 0.19758855878633197
328.0, 0.1971415979362086
329.0, 0.1959588715381819
330.0, 0.2074109233328417
331.0, 0.19757316348053963
332.0, 0.19788511752095783
333.0, 0.19596173861419675
334.0, 0.19116857083479677
335.0, 0.19207666875222726
336.0, 0.18393381128810404
337.0, 0.18458082594630598
338.0, 0.1782632939326972
339.0, 0.17430900194484295
340.0, 0.1730320059581058
341.0, 0.16536596612888393
342.0, 0.16168085386657738
343.0, 0.16361257998653622
344.0, 0.15670642171878058
345.0, 0.1506942487750748
346.0, 0.14968765328217642
347.0, 0.1477327112105517
348.0, 0.14896290314620617
349.0, 0.14635112417562704
350.0, 0.14038325221116782
351.0, 0.13645114449352785
352.0, 0.13491553208385076
353.0, 0.12940930241827314
354.0, 0.12037279470957626
355.0, 0.12223061696755186
356.0, 0.12366084772087935
357.0, 0.12149211996806025
358.0, 0.11818581706049894
359.0, 0.11945885303847487
360.0, 0.11367880224992877
361.0, 0.11394746873956631
362.0, 0.11294220125559586
363.0, 0.10854320410590114
364.0, 0.10494985453770939
365.0, 0.11043689907135443
366.0, 0.10429708209533967
367.0, 0.1071457545741775
368.0, 0.10738240054809864
369.0, 0.10594205525607746
370.0, 0.10427250698856279
371.0, 0.10071526870547726
372.0, 0.10100006257122218
373.0, 0.09841474651844725
374.0, 0.09966375825266811
375.0, 0.10216960015875727
376.0, 0.10394847535097021
377.0, 0.10625190018358152
378.0, 0.10071665507387714
379.0, 0.09938689268091466
380.0, 0.09667281775724633
381.0, 0.09443663704320629
382.0, 0.09481013302815294
383.0, 0.09737843685146992
384.0, 0.09634533269915248
385.0, 0.09882806598913385
386.0, 0.10403119069857686
387.0, 0.10452598288415003
388.0, 0.10254879402318107
389.0, 0.1094255699012529
390.0, 0.10740613879083395
391.0, 0.10087879009226984
392.0, 0.10224865511982105
393.0, 0.1028708206433988
394.0, 0.10036533410587672
395.0, 0.10122552628615646
396.0, 0.09964041402376392
397.0, 0.09785740953833881
398.0, 0.10159725121900537
399.0, 0.10452520849448448
400.0, 0.10222263939188776
401.0, 0.09700648483640344
402.0, 0.10657455847442565
403.0, 0.09764265834385925
404.0, 0.09824094642531682
405.0, 0.09728791507253319
406.0, 0.09439577154041694
407.0, 0.09707652903158337
408.0, 0.09819502036999911
409.0, 0.10167498607297226
410.0, 0.10369006464114199
411.0, 0.10727124276715369
412.0, 0.109607009752926
413.0, 0.10807292206048094
414.0, 0.11194042132172537
415.0, 0.11371467261620817
416.0, 0.1174805385030368
417.0, 0.12294839241650127
418.0, 0.12913851724713432
419.0, 0.13564887661451644
420.0, 0.14383472683503767
421.0, 0.15201280416777588
422.0, 0.1596739741957197
423.0, 0.16613192141140323
424.0, 0.17427335446052686
425.0, 0.18586817906110994
426.0, 0.19859840379628774
427.0, 0.210718571694843
428.0, 0.21359323902992028
429.0, 0.22479345935646633
430.0, 0.2395373059183408
431.0, 0.2547711051924307
432.0, 0.275048202376134
433.0, 0.288270769028499
434.0, 0.31094670103252386
435.0, 0.32568858260856975
436.0, 0.34180563493441257
437.0, 0.3628892502788378
438.0, 0.38406765636818346
439.0, 0.4056758461816122
440.0, 0.42745608912716954
441.0, 0.44921114879495067
442.0, 0.4711973396124863
443.0, 0.4936551356258725
444.0, 0.516406773236808
445.0, 0.538303673612699
446.0, 0.5633962792605111
447.0, 0.5919219673502156
448.0, 0.6110019704915898
449.0, 0.6263032026200669
450.0, 0.6466243717921797
451.0, 0.6701213738984455
452.0, 0.6826139304195094
453.0, 0.6995633724447204
454.0, 0.7130262206176009
455.0, 0.7260702318616928
456.0, 0.7395778828905363
457.0, 0.7504175120820199
458.0, 0.7709470783634744
459.0, 0.7727172771656416
460.0, 0.7750080312194729
461.0, 0.7846550340501792
462.0, 0.7983124577771138
463.0, 0.8075849930999218
464.0, 0.8098037627915529
465.0, 0.8264576274559227
466.0, 0.8421706488739891
467.0, 0.8505098316632215
468.0, 0.8636974268531737
469.0, 0.8868770068638767
470.0, 0.8966506253025726
471.0, 0.9200778940552428
472.0, 0.9371814550766489
473.0, 0.9507459651461504
474.0, 0.9664830787977862
475.0, 0.984315299653116
476.0, 0.996931463102624
477.0, 0.9997674491445612
478.0, 0.9961125227730359
479.0, 0.989142636669319
480.0, 0.9811091455965617
481.0, 0.9721137002871102
482.0, 0.9588544344479567
483.0, 0.9331759921108901
484.0, 0.9111826739429778
485.0, 0.8778373493364656
486.0, 0.8360968134015024
487.0, 0.7911961800371358
488.0, 0.7467741131597319
489.0, 0.7031291529983228
490.0, 0.6651796555077557
491.0, 0.6271296456249881
492.0, 0.5981754850933012
493.0, 0.5615689689758963
494.0, 0.5190841931095658
495.0, 0.4850801169154312
496.0, 0.44331248091411146
497.0, 0.4252296547292583
498.0, 0.3890545392163207
499.0, 0.3624351666707843
500.0, 0.33837268989052016
501.0, 0.3097738185513766
502.0, 0.2987372538325061
503.0, 0.27303232972564323
504.0, 0.2578778434378319
505.0, 0.24368161628008586
506.0, 0.2271349531839859
507.0, 0.21105716000012043
508.0, 0.19999322080070364
509.0, 0.18783555831989418
510.0, 0.1707375449909722
511.0, 0.16758589328336376
512.0, 0.15813539244635028
513.0, 0.14540245817965183
514.0, 0.1354472117835218
515.0, 0.11877825623355771
516.0, 0.11608695452364066
517.0, 0.10476276033535047
518.0, 0.1014604055122965
519.0, 0.1031838268912987
520.0, 0.09987576871092511
521.0, 0.08562709466968065
522.0, 0.07617916149484567
523.0, 0.07244694633635534
524.0, 0.07201204552395025
525.0, 0.0703631494580327
526.0, 0.06600334744700637
527.0, 0.06116609107559093
528.0, 0.06002386313664234
529.0, 0.05464203362753761
530.0, 0.050645236575499464
531.0, 0.05054074010279451
532.0, 0.04758141290444901
533.0, 0.04215546499877645
534.0, 0.04003523045993226
535.0, 0.04320995623423567
536.0, 0.040886512307729196
537.0, 0.03719505510225543
538.0, 0.034237234220977165
539.0, 0.031649192670757983
540.0, 0.029538774213277642
541.0, 0.028627215274547414
542.0, 0.024596797956972543
543.0, 0.023595244656708633
544.0, 0.024411341564909112
545.0, 0.022542473103480495
546.0, 0.022153175596583544
547.0, 0.025782496951265863
548.0, 0.024492877115730418
549.0, 0.014287976420491136
550.0, 0.010932305244684701
551.0, 0.012573979296780773
552.0, 0.009430255665033692
553.0, 0.005741831975814627
554.0, 0.010884531639310671
555.0, 0.012501604046159649
556.0, 0.007404393338920276
557.0, 0.0064203482195421225
558.0, 0.008507446867007287
559.0, 0.007650069542003295
560.0, 0.004337785621794768
561.0, 0.005106409826879262
562.0, 0.001083359972428585
563.0, 0.00044271163370071775
564.0, 0.008347542650383018
565.0, 0.007149694428683428
566.0, 0.004749827424266451
567.0, 0.007585102732938496
568.0, 0.001787999776654548
569.0, 0.0020945483749469293
570.0, 0.0030506631199004423
571.0, 0.003415433137842652
572.0, 0.0063925921081600875
573.0, 0.0071753280528161125
574.0, 0.0034836080734363777
575.0, 0.008534440565483107
576.0, 0.009564481048720846
577.0, 0.004540318846389358
578.0, 0.001758140957671859
579.0, 0.0012657996519683636
580.0, 0.0012099881240221278
581.0, 0.0014234471544354059
582.0, 0.006143688667186793
583.0, 0.00982842439585998
584.0, 0.009554444357418966
585.0, 0.004789758452202949
586.0, 0.002527519366453271
587.0, 0.004415655406899937
588.0, 0.0050201526936983565
589.0, 0.0017797033654498597
590.0, 0.003451615458498378
591.0, 0.0033440484313274257
592.0, 0.0035419450292771162
593.0, 0.0030456148209056957
594.0, 0.001419925399739971
595.0, 0.00021795248842801075
596.0, 5.9374614814646125e-05
597.0, 0.0009278679298604781
598.0, 0.0012995947948586852
599.0, 0.002494734755630212
600.0, 0.003247669861521974
601.0, 0.003048210201987933
602.0, 0.003659866706995901
603.0, 0.004571850096155393
604.0, 0.005239209668808155
605.0, 0.008206380022756733
606.0, 0.009664384165537948
607.0, 0.007046391157359125
608.0, 0.0030425955571291895
609.0, 0.004526141907272148
610.0, 0.006128714542941627
611.0, 0.00885375214801236
612.0, 0.007029377059639218
613.0, 0.006037101384107099
614.0, 0.005321751146809698
615.0, 0.0035631827516439075
616.0, 0.0034755290094953396
617.0, 0.0033254922816615905
618.0, 0.0032387705298002126
619.0, 0.0020197226126783016
620.0, 0.002722358550847686
621.0, 0.003177010511820747
622.0, 0.0035060697061366393
623.0, 0.009481544915770728
624.0, 0.007546673215868189
625.0, 0.019057198396960615
626.0, 0.01707883687789708
627.0, 0.01954272116947201
628.0, 0.02322640538777525
629.0, 0.021460969511410126
630.0, 0.022573109313764328
631.0, 0.026791837050637975
632.0, 0.02958046575758733
633.0, 0.030565549385299387
634.0, 0.03184507428865808
635.0, 0.030244458460797746
636.0, 0.02781395594430939
637.0, 0.03331215840554847
638.0, 0.028708211794940562
639.0, 0.02867161345183931
640.0, 0.03054908727039607
641.0, 0.030244621629447733
642.0, 0.029218650110309437
643.0, 0.029371177591769524
644.0, 0.029383191673508995
645.0, 0.026865320737216963
646.0, 0.02013134253363043
647.0, 0.025012676759402677
648.0, 0.023548497323299476
649.0, 0.02165416413847532
650.0, 0.02400889978953936
651.0, 0.024106409482221595
652.0, 0.024231806261236253
653.0, 0.019101756214261623
654.0, 0.020215919512436988
655.0, 0.017479968676467138
656.0, 0.013368544031886018
657.0, 0.015466908065210562
658.0, 0.022651774876790647
659.0, 0.009222561267671714
660.0, 0.01581714313616109
661.0, 0.009186739165405019
662.0, 0.01125066609248725
663.0, 0.012472580397271392
664.0, 0.01049614449467071
665.0, 0.011982425311035744
666.0, 0.015691880380299773
667.0, 0.021220610149837105
668.0, 0.01713657036866224
669.0, 0.007494729927371062
670.0, 0.005987765462660027
671.0, 0.011849869944047499
672.0, 0.014262614755195652
673.0, 0.007137781252576378
674.0, 0.010089387414004591
675.0, 0.010888090892265775
676.0, 0.007871060367379184
677.0, 0.014102483491840368
678.0, 0.0196394899820613
679.0, 0.015808482486546645
680.0, 0.011160347904371485
681.0, 0.013682053064947733
682.0, 0.004352852112855774
683.0, 0.005053959073980077
684.0, 0.00804094702433847
685.0, 0.007286893959259357
686.0, 0.005569113390789981
687.0, 0.00928111699184117
688.0, 0.014349603266478413
689.0, 0.01751185821021818
690.0, 0.021835203847859745
691.0, 0.013400763371532176
692.0, 0.010871480556601075
693.0, 0.011797776106243803
694.0, 0.008757700654483955
695.0, 0.01644475335959274
696.0, 0.02523886405344171
697.0, 0.021860961167585753
698.0, 0.019687487204211263
699.0, 0.020876699401294416
700.0, 0.020116157814390107
701.0, 0.01931716667559709
702.0, 0.0263944879604325
703.0, 0.027068246104630052
704.0, 0.015482951736684472
705.0, 0.022618773489295172
706.0, 0.02099596448860287
707.0, 0.019414730118120577
708.0, 0.02196515409868713
709.0, 0.02392733822554434
710.0, 0.02721054801221055
711.0, 0.02567903018502987
712.0, 0.02430742351177436
713.0, 0.02608394690028843
714.0, 0.022179979168754613
715.0, 0.018264527561774848
716.0, 0.018871731120683105
717.0, 0.019698877056481528
718.0, 0.02951751199520625
719.0, 0.026256742362464065
720.0, 0.026186200044481155
721.0, 0.027378936000022967
722.0, 0.024755536586612573
723.0, 0.023132220938618935
724.0, 0.025254256456107037
725.0, 0.017223601600337715
726.0, 0.031575365450436474
727.0, 0.026270859562683973
728.0, 0.01977614001685649
729.0, 0.017826154832752596
730.0, 0.022048852950789764
731.0, 0.026101455059404834
732.0, 0.022169613818235092
733.0, 0.021929206982168353
734.0, 0.018000472900918957
735.0, 0.025733337219537702
736.0, 0.02315185689018044
737.0, 0.018992016475114965
738.0, 0.022882704310085523
739.0, 0.0289225417502157
740.0, 0.020228779543608383
741.0, 0.02211820872001997
742.0, 0.02029795075207882
743.0, 0.020618677610315203
744.0, 0.020158634348039627
745.0, 0.020349016480138683
746.0, 0.020112082308605294
747.0, 0.018131125756190754
748.0, 0.020802615421969258
749.0, 0.025085442884290373
750.0, 0.0240065384080544
751.0, 0.02131391602941997
752.0, 0.021309313285428327
753.0, 0.020942459494523225
754.0, 0.019313658345125797
755.0, 0.021200052644127117
756.0, 0.026751529663559013
757.0, 0.024373664662500318
758.0, 0.03256378309612791
759.0, 0.03428996851623267
760.0, 0.03231961609202343
761.0, 0.03022860532151164
762.0, 0.028903697781026718
763.0, 0.028827729698330896
764.0, 0.03274904807343628
765.0, 0.030302167757187536
766.0, 0.02607803901806261
767.0, 0.03088265870692161
768.0, 0.03330329166699819
769.0, 0.031235858136912934
770.0, 0.028827331947699437
771.0, 0.0246530460012785
772.0, 0.03830944273799499
773.0, 0.03251589109414613
774.0, 0.03241626411405204
775.0, 0.036782715213644054
776.0, 0.03618352858985316
777.0, 0.03294340203022042
778.0, 0.036525983241924624
779.0, 0.0449336045972866
780.0, 0.04044732165899658
781.0, 0.04000774098007928
782.0, 0.043167063956580196
783.0, 0.03844013094901104
784.0, 0.03596367944085337
785.0, 0.0378830716694279
786.0, 0.038475736235156634
787.0, 0.04381693696378301
788.0, 0.03769052946431643
789.0, 0.0423452427723855
790.0, 0.04342936194975164
791.0, 0.045797051857475735
792.0, 0.045955996530469834
793.0, 0.03930492846018604
794.0, 0.031381105130208434
795.0, 0.038152101737891395
796.0, 0.02855108276738733
797.0, 0.031094353733697976
798.0, 0.02791258622275719
799.0, 0.02646914333700879
800.0, 0.025121745670087493
801.0, 0.024691804334452092
802.0, 0.024595771606873047
803.0, 0.013147846427075876
804.0, 0.016224518880913554
805.0, 0.013692955915335965
806.0, 0.017436179233699892
807.0, 0.01850484156069348
808.0, 0.014531920088394944
809.0, 0.010644385510181504
810.0, 0.011714899564680113
811.0, 0.013997010269830482
812.0, 0.010739131975814026
813.0, 0.014814803872150626
814.0, 0.017240987576801495
815.0, 0.00933440654755114
816.0, 0.00652355366633278
817.0, 0.008316596625817733
818.0, 0.006563521993611485
819.0, 0.009554024636960515
820.0, 0.012498209809982671
821.0, 0.005800334239564367
822.0, 0.0012364323012130334
823.0, 0.0013213134955218414
824.0, 0.001686934370372337
825.0, 0.002696469666798186
826.0, 0.0038095213761628146
827.0, 0.00023380431627867027
828.0, 0.0003241813732890973
829.0, 0.005124172946485013
830.0, 0.0031165704257032586
831.0, 0.0011829514266670767
832.0, 0.0035428584650510353
833.0, 0.0037012795624990816
834.0, 0.0011441417510722183
835.0, 0.004246391930056343
836.0, 0.007021233607029058
837.0, 0.00455222430989187
838.0, 0.0025201179997095214
839.0, 0.002899788751021493
840.0, 0.002821048307520545
841.0, 0.0015324261450272733
842.0, 0.00193002220066629
843.0, 0.004564496431584361
844.0, 0.0024067029388365095
845.0, 0.002196891723130534
846.0, 0.003185901971100456
847.0, 0.0030615183678850905
848.0, 0.003747749705388569
849.0, 0.0038501103982387435
850.0, 0.004795150683799102
851.0, 0.007481806370959862
852.0, 0.009501586043912663
853.0, 0.014777177590976373
854.0, 0.015076446674094746
855.0, 0.005620264415464854
856.0, 0.007130765875337608
857.0, 0.010417634526698147
858.0, 0.006952340043488838
859.0, 0.0029477474218607856
860.0, 0.006155185022963598
861.0, 0.0017902609888366264
862.0, 0.009295994462605303
863.0, 0.0038902140621772975
864.0, 0.004994878188420128
865.0, 0.004776805891131152
866.0, 0.0035966304594410078
867.0, 0.002312802225820308
868.0, 0.0011074809270609554
869.0, 0.0016973664322658998
870.0, 0.003191467239684204
871.0, 0.009639684273746684
872.0, 0.007269154569073315
873.0, 0.007472994065542645
874.0, 0.006746540192978691
875.0, 0.004948094176182338
876.0, 0.0061178819159644175
877.0, 0.008911065457685005
878.0, 0.002779169739882805
879.0, 0.012358938021964715
880.0, 0.0053649729620670675
881.0, 0.006019349822284667
882.0, 0.0039019903135585217
883.0, 0.0036656342051451496
884.0, 0.00387416690629358
885.0, 0.002476413016847947
886.0, 0.0029710619859991396
887.0, 0.0018329401401756653
888.0, 0.0010543581111515717
889.0, 0.0014664839508674672
890.0, 0.0007060514564522695
891.0, 0.0025912289155475238
892.0, 0.002631918908703748
893.0, 0.004118484656515448
894.0, 0.007666478688767089
895.0, 0.0028313953366407205
896.0, 0.005182478430407222
897.0, 0.003549869167835243
898.0, 0.004243374383309403
899.0, 0.0038880215066959206
900.0, 0.002008318830443554
901.0, 0.0005888890005479589
902.0, 0.0014817772420982838
903.0, 0.0028826493504676633
904.0, 0.0011723107865615218
905.0, 0.0071117819397262545
906.0, 0.011779075915800855
907.0, 0.008356788161070716
908.0, 0.00474577892871343
909.0, 0.005334438115009493
910.0, 0.0038851694271181503
911.0, 0.0011651557904379369
912.0, 0.0029948700751629594
913.0, 0.0034547632611459248
914.0, 0.00756616641357909
915.0, 0.004191420028732265
916.0, 0.00682997222129391
917.0, 0.0032571449042059597
918.0, 0.002206087789742163
919.0, 0.003599118875841634
920.0, 0.003531603146763639
921.0, 0.0032926626052255355
922.0, 0.006075017571460724
923.0, 0.001940484895865081
924.0, 0.001164213496043807
925.0, 0.011947294042617962
926.0, 0.008057034124473953
927.0, 0.008369110250918776
928.0, 0.00974915429827888
929.0, 0.006743438124830584
930.0, 0.004178190064679226
931.0, 0.0010626195029256927
932.0, 0.0010772759274075058
933.0, 0.01427216133250805
934.0, 0.00783838350891988
935.0, 0.009336306798269581
936.0, 0.013908437465173744
937.0, 0.012729271594235274
938.0, 0.010744402533025455
939.0, 0.014706598003056345
940.0, 0.014864464030535757
941.0, 0.009386549223257516
942.0, 0.009462595920106882
943.0, 0.015216203687123958
944.0, 0.01623920110626381
945.0, 0.01438887063145515
946.0, 0.019598385782559853
947.0, 0.023248079148643058
948.0, 0.019332213662586615
949.0, 0.020423155594994823
950.0, 0.004025834245716663
951.0, 0.019908960006017898
952.0, 0.020394635451624493
953.0, 0.020395366756749356
954.0, 0.02403264788952121
955.0, 0.026953162311646343
956.0, 0.02786183950842941
957.0, 0.028058237555572577
958.0, 0.027909802580973895
959.0, 0.028217131250323838
960.0, 0.02344538040896113
961.0, 0.0286947453920508
962.0, 0.02868993954534129
963.0, 0.032402532992603136
964.0, 0.0323497034083911
965.0, 0.032377981498639026
966.0, 0.0340381697412455
967.0, 0.03396497613235367
968.0, 0.03650646059316699
969.0, 0.036784374897701054
970.0, 0.03393686362540919
971.0, 0.03820180179748087
972.0, 0.03678750031596666
973.0, 0.03594060643378046
974.0, 0.03216775899233523
975.0, 0.03539554025239384
976.0, 0.04505992837269628
977.0, 0.044134063996228455
978.0, 0.052215416319057226
979.0, 0.04903785569814814
980.0, 0.04751050402414098
981.0, 0.057224577147012526
982.0, 0.050741430720931825
983.0, 0.05097357357701016
984.0, 0.05224350748133881
985.0, 0.05303259467519473
986.0, 0.061888304068493265
987.0, 0.06568949965868978
988.0, 0.057957833662360084
989.0, 0.05992991125234207
990.0, 0.06620555291835463
991.0, 0.06389105052908553
992.0, 0.06801069878620954
993.0, 0.0649358693651768
994.0, 0.06156155180610228
995.0, 0.06512109883739833
996.0, 0.06687655060390647
997.0, 0.0681203656943949
998.0, 0.06912338092196872
999.0, 0.06609929241074201
1000.0, 0.07009135301331744
1001.0, 0.07581381610439251
1002.0, 0.0813694237614632
1003.0, 0.08156895854905179
1004.0, 0.07948743571000282
1005.0, 0.07917382872405541
1006.0, 0.07761634158436383
1007.0, 0.07472826063010644
1008.0, 0.08261344785290178
1009.0, 0.07117513652346294
1010.0, 0.07287265572250927
1011.0, 0.0783336931599205
1012.0, 0.08101017411891927
1013.0, 0.08124589497207281
1014.0, 0.08251795052789077
1015.0, 0.08510810141611538
1016.0, 0.08446407896692723
1017.0, 0.07877938640945703
1018.0, 0.08261126136694114
1019.0, 0.08059501496405894
1020.0, 0.08411920311491594
1021.0, 0.08424760315466208
1022.0, 0.08885764913717545
1023.0, 0.08747111188481037
1024.0, 0.08213156847297991
1025.0, 0.079954810846898
1026.0, 0.07955737872461256
1027.0, 0.08724521446540723
1028.0, 0.08712393937636584
1029.0, 0.08897151469944746
1030.0, 0.09119970059233339
1031.0, 0.08682010311656062
1032.0, 0.08311686541733684
1033.0, 0.08684172663086928
1034.0, 0.08932267406852107
1035.0, 0.08261436400199662
1036.0, 0.07959480283880478
1037.0, 0.09640177625879383
1038.0, 0.08688733087898777
1039.0, 0.08221241393350354
1040.0, 0.0902185823072332
1041.0, 0.08762721524132007
1042.0, 0.09026407075064527
1043.0, 0.09086943734902253
1044.0, 0.08918271958682374
1045.0, 0.08904946873144186
1046.0, 0.0890709362208882
1047.0, 0.08809083282838444
1048.0, 0.08831301734936395
1049.0, 0.08477925315242055
1050.0, 0.09042225487586535
1051.0, 0.09102501965298349
1052.0, 0.09536848455271095
1053.0, 0.10030628697255366
1054.0, 0.09829116202549919
1055.0, 0.09847288206810564
1056.0, 0.10319784142753585
1057.0, 0.10143366928379778
1058.0, 0.11293292046679476
1059.0, 0.11012310444851649
1060.0, 0.10380975194481186
1061.0, 0.10812432250651022
1062.0, 0.11075612203899968
1063.0, 0.11373896316599494
1064.0, 0.11245817366611141
1065.0, 0.1110764346225121
1066.0, 0.11572507005019352
1067.0, 0.12034916747985883
1068.0, 0.1150782146035869
1069.0, 0.11597003029099372
1070.0, 0.11330122558714742
1071.0, 0.11423729753435437
1072.0, 0.12270248428002233
1073.0, 0.12031162473036507
1074.0, 0.11734887050176901
1075.0, 0.12183936760442997
1076.0, 0.12324089732301244
1077.0, 0.12063041062086716
1078.0, 0.12566071977607712
1079.0, 0.12706170613019974
1080.0, 0.1251942775139427
1081.0, 0.12596156847049939
1082.0, 0.11658059134701697
1083.0, 0.12729099027667182
1084.0, 0.13654686785946957
1085.0, 0.1399944762421971
1086.0, 0.1272477060924542
1087.0, 0.1178515875260054
1088.0, 0.122025790858017
1089.0, 0.11746083032106525
1090.0, 0.11530067647592601
1091.0, 0.12699799799668626
1092.0, 0.10673626412571408
1093.0, 0.1179996490442304
1094.0, 0.11963922446848503
1095.0, 0.1238664770042232
1096.0, 0.12293508709724543
1097.0, 0.12225616137316782
1098.0, 0.11972900309995683
1099.0, 0.11479137595649619
1100.0, 0.11605935830025606
1101.0, 0.11543414060032602
1102.0, 0.1162222719766532
1103.0, 0.1159571636798276
1104.0, 0.11538000962077874
1105.0, 0.11518112856083901
1106.0, 0.11319109503026904
1107.0, 0.11383037797074841
1108.0, 0.11154210184136573
1109.0, 0.10707209118619417
1110.0, 0.10550733862986636
1111.0, 0.10744078652563757
1112.0, 0.11214906159336262
1113.0, 0.11524622249515323
1114.0, 0.10826816834926588
1115.0, 0.1310001056970621
1116.0, 0.11221941473211237
1117.0, 0.11712493697378311
1118.0, 0.1177436945307536
1119.0, 0.10847543009688022
1120.0, 0.11154407333080463
1121.0, 0.11815502270798449
1122.0, 0.109720941301484
1123.0, 0.10854568297917508
1124.0, 0.11594366016853229
1125.0, 0.11584840098492742
1126.0, 0.10169409269740792
1127.0, 0.10246468887405664
1128.0, 0.10608050420197312
1129.0, 0.10753428613360602
1130.0, 0.10604466017775825
1131.0, 0.09639500512003428
1132.0, 0.08861595652546912
1133.0, 0.0873170225306281
1134.0, 0.08177445026192146
1135.0, 0.07784219325628268
1136.0, 0.0818134494688342
1137.0, 0.08721984315553163
1138.0, 0.08751145121108221
1139.0, 0.08018732355265308
1140.0, 0.07605335259319808
1141.0, 0.07763392128959729
1142.0, 0.07474987886442822
1143.0, 0.07319017216198477
1144.0, 0.07052360132117587
1145.0, 0.06681494685019569
1146.0, 0.07433910766602905
1147.0, 0.07616840672786876
1148.0, 0.06734183578242824
1149.0, 0.06297626196184924
1150.0, 0.057792997507723015
1151.0, 0.054544896045873065
1152.0, 0.0520576892173927
1153.0, 0.05310202823722495
1154.0, 0.05217887401411197
1155.0, 0.054008924531504264
1156.0, 0.057574344970890645
1157.0, 0.057106131044932076
1158.0, 0.0565924718087933
1159.0, 0.054901625948954896
1160.0, 0.03807145437699443
1161.0, 0.03784464282921705
1162.0, 0.032127289453674296
1163.0, 0.03215184997811046
1164.0, 0.03412302232162568
1165.0, 0.03858363171407067
1166.0, 0.03781308930734258
1167.0, 0.03552359522029477
1168.0, 0.03613905188233458
1169.0, 0.034807551457023064
1170.0, 0.02766470954070611
1171.0, 0.0230560566558996
1172.0, 0.028829685580723463
1173.0, 0.019661726184428758
1174.0, 0.027872059013138415
1175.0, 0.026767492567297397
1176.0, 0.03252186334807505
1177.0, 0.02169431778069424
1178.0, 0.019489114066483036
1179.0, 0.016141534541614898
1180.0, 0.013168337608672904
1181.0, 0.019801353252917833
1182.0, 0.02085212793779164
1183.0, 0.0088726223917669
1184.0, 0.014990938696031457
1185.0, 0.003517501192489612
1186.0, 0.012528766341572
1187.0, 0.0039847224561942104
1188.0, 0.008095710545333423
1189.0, 0.002886600031387581
1190.0, 0.004828936924363941
1191.0, 0.008579795625664412
1192.0, 0.011205776561949146
1193.0, 0.0102168747386614
1194.0, 0.00664740481945904
1195.0, 0.006855769281831437
1196.0, 0.008158003665375448
1197.0, 0.011364484498733476
1198.0, 0.0068822396724931
1199.0, 0.00833391231712642
1200.0, 0.0038240002762593155
1201.0, 0.004508311313470999
1202.0, 0.0032858705084675027
1203.0, 0.002853394671234158
1204.0, 0.004208368170100762
1205.0, 0.002876711352646015
1206.0, 0.001040454114369636
1207.0, 0.0017804842849972946
1208.0, 0.003323542633047194
1209.0, 0.007489655289063019
1210.0, 0.004586535942428644
1211.0, 0.004399521945067654
1212.0, 0.00247763036609695
1213.0, 0.00040077157645492857
1214.0, 0.002226311905839943
1215.0, 0.003934175746771734
1216.0, 0.0028486986649519912
1217.0, 0.0030522306451444227
1218.0, 0.0025827011989586783
1219.0, 0.0030222760826598984
1220.0, 0.0037958117599094674
1221.0, 0.0023971778180730905
1222.0, 0.004454551397075877
1223.0, 0.0016859521686197958
1224.0, 0.005732794508381797
1225.0, 0.0025283301535073844
1226.0, 0.003860345965135907
1227.0, 0.002172817668275901
1228.0, 0.00250177648548185
1229.0, 0.004763259573969412
1230.0, 0.008582882283306304
1231.0, 0.01106753097252212
1232.0, 0.006737751390228213
1233.0, 0.0023283772090531216
1234.0, 0.0034860597075594387
1235.0, 0.0016454469636670895
1236.0, 0.001450032894972743
1237.0, 0.007224464614052784
1238.0, 0.0031045251305950984
1239.0, 0.004536795427045756
1240.0, 0.004867411052555756
1241.0, 0.007926158926259771
1242.0, 0.005921057596407385
1243.0, 0.004069648956429901
1244.0, 0.007191651195117072
1245.0, 0.010568733438271442
1246.0, 0.009416150984005377
1247.0, 0.008485809073075166
1248.0, 0.007496417932899114
1249.0, 0.0005807773410353568
1250.0, 0.003216369446547051
1251.0, 0.009157893971503052
1252.0, 0.005531097957331339
1253.0, 0.006937530145045033
1254.0, 0.0021840332968854166
1255.0, 0.003413635030921341
1256.0, 0.0068337979140014994
1257.0, 0.010112876749199496
1258.0, 0.010883295047300345
1259.0, 0.008234610486204505
1260.0, 0.003688904346968948
1261.0, 0.001375462537983109
1262.0, 0.004513650575750049
1263.0, 0.00761997258864193
1264.0, 0.00321482789031679
1265.0, 0.007859587493965207
1266.0, 0.017389637754292
1267.0, 0.01579207034896163
1268.0, 0.017166683387281858
1269.0, 0.011709813289745064
1270.0, 0.0033639953807525027
1271.0, 0.007646791062110468
1272.0, 0.005714651797298144
1273.0, 0.005188300398279266
1274.0, 0.003226576368530336
1275.0, 0.0029565014620611635
1276.0, 0.005745701631546758
1277.0, 0.004464236223711561
1278.0, 0.0065624634629764655
1279.0, 0.011417961507972394
1280.0, 0.003576041756453729
1281.0, 0.0010679183731664814
1282.0, 0.008238809663294027
1283.0, 0.0118785873443725
1284.0, 0.011073497529971572
1285.0, 0.005724766258563407
1286.0, 0.0013982918615608846
1287.0, 0.00012831758195804433
1288.0, 0.0017126801845551566
1289.0, 0.0015543589310000859
1290.0, 0.00023145211971577494
1291.0, 0.00010714502221296177
1292.0, 0.000598764512877395
1293.0, 0.002000100105086894
1294.0, 0.002758063332957262
1295.0, 0.004109191965822387
1296.0, 0.003490333146324541
1297.0, 0.004800524910066018
1298.0, 0.002547111137471728
1299.0, 0.009483453423777944
1300.0, 0.003545766674408124
1301.0, 0.004981296715327655
1302.0, 0.008653532618450685
1303.0, 0.005031685062754716
1304.0, 0.0036682791947393245
1305.0, 0.007400929441498849
1306.0, 0.00578164754821382
1307.0, 0.0039741466484539975
1308.0, 0.008718144602955594
1309.0, 0.004470889472891693
1310.0, 0.008579563938165847
1311.0, 0.011047101426383116
1312.0, 0.003411563673768066
1313.0, 0.013127314197932949
1314.0, 0.006479707386392766
1315.0, 0.01238637784828334
1316.0, 0.018423108909496957
1317.0, 0.019456039369276545
1318.0, 0.015214883454366779
1319.0, 0.011390543285118375
1320.0, 0.012254965314984899
1321.0, 0.016733139965201146
1322.0, 0.014835825787510377
1323.0, 0.013533838658486905
1324.0, 0.01863601804112948
1325.0, 0.00910914427017758
1326.0, 0.011056217384728007
1327.0, 0.016454221481055846
1328.0, 0.011142920241564972
1329.0, 0.009130597517249749
1330.0, 0.015139298866146
1331.0, 0.014436529407398003
1332.0, 0.01122089082851814
1333.0, 0.00696215900911517
1334.0, 0.013859490103455477
1335.0, 0.008142296492139574
1336.0, 0.015822058518934833
1337.0, 0.01599683130155493
1338.0, 0.009258771118265034
1339.0, 0.013385605454933421
1340.0, 0.017107944899431096
1341.0, 0.01447688070470297
1342.0, 0.008665159836799411
1343.0, 0.013760750692408605
1344.0, 0.015156107672104884
1345.0, 0.011636047007209865
1346.0, 0.01762551593807764
1347.0, 0.010782313992522516
1348.0, 0.002604540847187476
1349.0, 0.002167769706964444
1350.0, 0.014580434402545583
1351.0, 0.014663565250194653
1352.0, 0.007946827383241472
1353.0, 0.013073418682292478
1354.0, 0.011428770966361874
1355.0, 0.004024862294477792
1356.0, 0.008990727005750914
1357.0, 0.015397652623964371
1358.0, 0.009007238928020833
1359.0, 0.008500242802099016
1360.0, 0.02052063329424905
1361.0, 0.013741770745104475
1362.0, 0.01290724248978452
1363.0, 0.023420633587585685
1364.0, 0.015202774362899813
1365.0, 0.022848582976136775
1366.0, 0.018029824655305414
1367.0, 0.018012433507950888
1368.0, 0.006109782109313125
1369.0, 0.010751796103938244
1370.0, 0.01828544661079856
1371.0, 0.009893131756904674
1372.0, 0.011196271760913363
1373.0, 0.021663733609309947
1374.0, 0.02189846500814427
1375.0, 0.017027943031317497
1376.0, 0.01566026739099315
1377.0, 0.014808048253901869
1378.0, 0.013123730900191845
1379.0, 0.010296895687394671
1380.0, 0.01662603766098065
1381.0, 0.018828836335574983
1382.0, 0.009379509868239981
1383.0, 0.00709159154959833
1384.0, 0.002308983058482442
1385.0, 0.009107189972241903
1386.0, 0.01304429771324626
1387.0, 0.015030623779550117
1388.0, 0.012116342265178359
1389.0, 0.006928750590542648
1390.0, 0.004081985250065762
1391.0, 0.004855118605894886
1392.0, 0.004795898545075469
1393.0, 0.0029882357611261783
1394.0, 0.005191117861202799
1395.0, 0.007783264250285266
1396.0, 0.0027919150335403214
1397.0, 0.0034530303804343626
1398.0, 0.00994012892449263
1399.0, 0.0018296053214057755
1400.0, 0.0073740859168513065
1401.0, 0.00891189023869967
1402.0, 0.0061691850003504755
1403.0, 0.014962676639614557
1404.0, 0.017444912047997068
1405.0, 0.003130064875990413
1406.0, 0.0035441136083815845
1407.0, 0.003128091960115676
1408.0, 0.01281860189841739
1409.0, 0.02032795666850251
1410.0, 0.01679323441475518
1411.0, 0.009143045111415789
1412.0, 0.010631196212335615
1413.0, 0.012279732425226448
1414.0, 0.005667546566503046
1415.0, 0.004614966915468633
1416.0, 0.010081677656358722
1417.0, 0.01412367556902568
1418.0, 0.014659477368675003
1419.0, 0.014989515789933901
1420.0, 0.006476950468241478
1421.0, 0.013057344475525035
1422.0, 0.007598885290522878
1423.0, 0.006972605504824114
1424.0, 0.008872578531253367
1425.0, 0.01207714928483363
1426.0, 0.014573977155956522
1427.0, 0.014508505533417546
1428.0, 0.004896988180123068
1429.0, 0.009407510934151136
1430.0, 0.005506043418262135
1431.0, 0.009565325859070932
1432.0, 0.012820893788151065
1433.0, 0.01465938021793229
1434.0, 0.015810167950973668
1435.0, 0.012515296773155285
1436.0, 0.01777247986224865
1437.0, 0.02163972456253443
1438.0, 0.013412117139289472
1439.0, 0.01668524288631916
1440.0, 0.01981384487142883
1441.0, 0.019830273404554767
1442.0, 0.0210774870617006
1443.0, 0.018680348271589355
1444.0, 0.01926834043314358
1445.0, 0.016744137789060552
1446.0, 0.016064445777529548
1447.0, 0.015504219783445499
1448.0, 0.015353711769020418
1449.0, 0.017045142922260587
1450.0, 0.019171874840753885
1451.0, 0.018878040127431925
1452.0, 0.01601364328439304
1453.0, 0.0248916446234415
1454.0, 0.021769643877753608
1455.0, 0.018399154452329106
1456.0, 0.01753224296240625
1457.0, 0.015439970954399147
1458.0, 0.014562939112331454
1459.0, 0.011624233548841085
1460.0, 0.015436904052353003
1461.0, 0.012103964257789415
1462.0, 0.012838487226983821
1463.0, 0.011174999862792117
1464.0, 0.016644423909426158
1465.0, 0.01738326284186988
1466.0, 0.01550033556474373
1467.0, 0.011657956464790223
1468.0, 0.00858527018767219
1469.0, 0.011761457785957026
1470.0, 0.015087791959322493
1471.0, 0.006094349731293077
1472.0, 0.01979407658660065
1473.0, 0.021276564971373035
1474.0, 0.008948681414265419
1475.0, 0.009770259434815222
1476.0, 0.020636027510128843
1477.0, 0.021992403233750683
1478.0, 0.015419501554397915
1479.0, 0.010617477431369966
1480.0, 0.005833967154046786
1481.0, 0.012259353214840426
1482.0, 0.018483696710722593
1483.0, 0.021350839322207427
1484.0, 0.034511917265383676
1485.0, 0.026755055903755535
1486.0, 0.016007043769370934
1487.0, 0.022184050632151224
1488.0, 0.015004271608697979
1489.0, 0.020172275705203857
1490.0, 0.01473255372155209
1491.0, 0.007373908441999342
1492.0, 0.019033571504752458
1493.0, 0.003904192586440077
1494.0, 0.005865594168810624
1495.0, 0.006553078836769702
1496.0, 0.0063427504794579
1497.0, 0.007252601002993187
1498.0, 0.0071804673463069105
1499.0, 0.002066796041901783
1500.0, 0.0077235747230136095
1501.0, 0.012360658805836035
1502.0, 0.01897697439545768
1503.0, 0.018625319248583835
1504.0, 0.01472858775917021
1505.0, 0.01429109580614608
1506.0, 0.012502003322237117
1507.0, 0.005996995680140473
1508.0, 0.007545774498453946
1509.0, 0.01155185067236317
1510.0, 0.008439661015517198
1511.0, 0.010449081742353804
1512.0, 0.0120828340610549
1513.0, 0.007636189117438398
1514.0, 0.01013846581133972
1515.0, 0.010840050686079192
1516.0, 0.010048742701775944
1517.0, 0.010372510907448408
1518.0, 0.008571397305465056
1519.0, 0.011080097248757557
1520.0, 0.007597358454320717
1521.0, 0.0012713961865104314
1522.0, 0.016046186163230766
1523.0, 0.02141194425178512
1524.0, 0.013677817773376854
1525.0, 0.01298924443293481
1526.0, 0.018814856059748745
1527.0, 0.00956878082538781
1528.0, 0.0027982694755514887
1529.0, 0.013646818168835827
1530.0, 0.007430375767254223
1531.0, 0.010383807864105084
1532.0, 0.012543276620758914
1533.0, 0.010261476700539148
1534.0, 0.01623104957212326
1535.0, 0.01233187172499716
1536.0, 0.008269908885004704
1537.0, 0.00889913250005281
1538.0, 0.012038652062605378
1539.0, 0.013397598520428903
1540.0, 0.013386304464645
1541.0, 0.015139005976494329
1542.0, 0.009084180014258498
1543.0, 0.00631793610180032
1544.0, 0.015637320267661996
1545.0, 0.012233407476886362
1546.0, 0.0065439035503159
1547.0, 0.014023471645433917
1548.0, 0.013523913868146182
1549.0, 0.0035942770375741156
1550.0, 0.008255698053957686
1551.0, 0.008491389661219456
1552.0, 0.018368723248192585
1553.0, 0.018645200762844805
1554.0, 0.013841665128086399
1555.0, 0.001317162877537993
1556.0, 0.006925472175161882
1557.0, 0.00603526770386562
1558.0, 0.0062074555252776085
1559.0, 0.011529931244416638
1560.0, 0.012185848740116535
1561.0, 0.010987422128289919
1562.0, 0.012392068990980826
1563.0, 0.008261781236994599
1564.0, 0.010259601858303054
1565.0, 0.007728141645013696
1566.0, 0.0068061826807217915
1567.0, 0.009837856562963142
1568.0, 0.007841524011428621
1569.0, 0.005328527076941469
1570.0, 0.0018309158199287328
1571.0, 0.0036810401778923974
1572.0, 0.002583725102034249
1573, 0.0
1574, 0.0
1575, 0.0
1576, 0.0
1577, 0.0
1578, 0.0
1579, 0.0
1580, 0.0
1581, 0.0
1582, 0.0
1583, 0.0
1584, 0.0
1585, 0.0
1586, 0.0
1587, 0.0
1588, 0.0
1589, 0.0
1590, 0.0
1591, 0.0
1592, 0.0
1593, 0.0
1594, 0.0
1595, 0.0
1596, 0.0
1597, 0.0
1598, 0.0
1599, 0.0
