30, 0.0
31, 0.0
32, 0.0
33, 0.0
34, 0.0
35, 0.0
36, 0.0
37, 0.0
38, 0.0
39, 0.0
40, 0.0
41, 0.0
42, 0.0
43, 0.0
44, 0.0
45, 0.0
46, 0.0
47, 0.0
48, 0.0
49, 0.0
50, 0.0
51, 0.0
52, 0.0
53, 0.0
54, 0.0
55, 0.0
56, 0.0
57, 0.0
58, 0.0
59, 0.0
60, 0.0
61, 0.0
62, 0.0
63, 0.0
64, 0.0
65, 0.0
66, 0.0
67, 0.0
68, 0.0
69, 0.0
70, 0.0
71, 0.0
72, 0.0
73, 0.0
74, 0.0
75, 0.0
76, 0.0
77, 0.0
78, 0.0
79, 0.0
80, 0.0
81, 0.0
82, 0.0
83, 0.0
84, 0.0
85, 0.0
86, 0.0
87, 0.0
88, 0.0
89, 0.0
90, 0.0
91, 0.0
92, 0.0
93, 0.0
94, 0.0
95, 0.0
96, 0.0
97, 0.0
98, 0.0
99, 0.0
100, 0.0
101, 0.0
102, 0.0
103, 0.0
104, 0.0
105, 0.0
106, 0.0
107, 0.0
108, 0.0
109, 0.0
110, 0.0
111, 0.0
112, 0.0
113, 0.0
114, 0.0
115, 0.0
116, 0.0
117, 0.0
118, 0.0
119, 0.0
120, 0.0
121, 0.0
122, 0.0
123, 0.0
124, 0.0
125, 0.0
126, 0.0
127, 0.0
128, 0.0
129, 0.0
130, 0.0
131, 0.0
132, 0.0
133, 0.0
134, 0.0
135, 0.0
136, 0.0
137, 0.0
138, 0.0
139, 0.0
140, 0.0
141, 0.0
142, 0.0
143, 0.0
144, 0.0
145, 0.0
146, 0.0
147, 0.0
148, 0.0
149, 0.0
150, 0.0
151, 0.0
152, 0.0
153, 0.0
154, 0.0
155, 0.0
156, 0.0
157, 0.0
158.0, 0.0004604369610668361
159.0, 0.001701174507439861
160.0, 0.0011729876684952855
161.0, 0.00019828988820865562
162.0, 0.00044163048488350903
163.0, 0.001139247945540896
164.0, 0.0014279143503105442
165.0, 0.00041640377146346866
166.0, 0.0005458118469365057
167.0, 2.2967014641015138e-05
168.0, 0.002408438183766625
169.0, 0.0011397380910282673
170.0, 0.0020776854631318017
171.0, 0.007156502354272939
172.0, 0.009892370894295954
173.0, 0.008254690838604112
174.0, 0.007522891096574288
175.0, 0.008203741340036576
176.0, 0.006905635697734504
177.0, 0.005791806476405446
178.0, 0.0060609859099772885
179.0, 0.007751465972804713
180.0, 0.009534201977750163
181.0, 0.0073853640942336835
182.0, 0.0031704017938473886
183.0, 0.0013819662994527643
184.0, 0.0027536188309636505
185.0, 0.0021862304537166337
186.0, 0.0022338276995043324
187.0, 0.0025831706374568864
188.0, 0.003792336219190508
189.0, 0.006786443842025519
190.0, 0.007217630848136733
191.0, 0.005842285646550485
192.0, 0.005311966190162327
193.0, 0.0067314222869441845
194.0, 0.00534569920558197
195.0, 0.006771313709828516
196.0, 0.0077749427729756826
197.0, 0.007199403625983732
198.0, 0.010327387228695717
199.0, 0.011364392128230209
200.0, 0.010882158090524351
201.0, 0.011112171681854363
202.0, 0.013171378453328652
203.0, 0.01233125568760375
204.0, 0.013258743682868383
205.0, 0.01650608334084765
206.0, 0.01939639583866326
207.0, 0.017470318295566434
208.0, 0.017177759826127962
209.0, 0.01785984083344265
210.0, 0.0177809201674502
211.0, 0.01980799120633212
212.0, 0.01779376271947552
213.0, 0.01780514527582355
214.0, 0.01795022710105245
215.0, 0.018124207978386684
216.0, 0.018159317731447636
217.0, 0.018117743333873403
218.0, 0.017967587626275486
219.0, 0.016597234666489595
220.0, 0.01787290163274778
221.0, 0.01842397494850301
222.0, 0.017558375562441886
223.0, 0.016977315610130342
224.0, 0.017479049051535286
225.0, 0.014886446902662812
226.0, 0.015420827612388855
227.0, 0.015302301317128104
228.0, 0.012790120104588737
229.0, 0.015804928309680204
230.0, 0.014854559371455234
231.0, 0.013315718989535688
232.0, 0.012072734707801607
233.0, 0.008855970322729226
234.0, 0.008333128722996488
235.0, 0.009839109493756859
236.0, 0.01101978669977048
237.0, 0.010358344551602757
238.0, 0.008841159631084998
239.0, 0.007713461835284687
240.0, 0.006516827102873054
241.0, 0.005774834547660458
242.0, 0.006973806423113607
243.0, 0.009051039979314529
244.0, 0.00835044844633058
245.0, 0.006089063231644805
246.0, 0.004984218048131112
247.0, 0.006143794608985558
248.0, 0.0050989067157321075
249.0, 0.004957835053565281
250.0, 0.004815747127216434
251.0, 0.0005176478949804813
252.0, 0.000656250538370812
253.0, 0.0028942322043195566
254.0, 0.004906722275603474
255.0, 0.0055143754522552916
256.0, 0.004604812625906697
257.0, 0.005338331417620915
258.0, 0.005788118585834593
259.0, 0.005016079353000172
260.0, 0.003895344055915707
261.0, 0.0047808514947564875
262.0, 0.0032722618402688994
263.0, 0.0013817461611870016
264.0, 0.001814137615147175
265.0, 0.0037237989197696146
266.0, 0.004497029213877758
267.0, 0.005909125848713335
268.0, 0.00694739412168072
269.0, 0.004835833637087404
270.0, 0.0036378706501602504
271.0, 0.005486929780461197
272.0, 0.006795026480286459
273.0, 0.005564865601619999
274.0, 0.005056914542879882
275.0, 0.004197982141700337
276.0, 0.004402358087532379
277.0, 0.005520541426204615
278.0, 0.006366289853357975
279.0, 0.006369617718985566
280.0, 0.006962491225865779
281.0, 0.0080593342329253
282.0, 0.008012067066067295
283.0, 0.005133508515852703
284.0, 0.005624381686164472
285.0, 0.004678966399906871
286.0, 0.003153016817491769
287.0, 0.0040631261727073174
288.0, 0.005811377974874675
289.0, 0.003593092397432604
290.0, 0.0028435972242489356
291.0, 0.003848457597490133
292.0, 0.002222145286659489
293.0, 0.0038499364231077246
294.0, 0.0034805594318826536
295.0, 0.003112260329491143
296.0, 0.0038627630573080476
297.0, 0.0013073138298861629
298.0, 0.0009137880044077492
299.0, 0.0030928448587504522
300.0, 0.004062587170911535
301.0, 0.002136985119956262
302.0, 0.004430163529328646
303.0, 0.004790730294982719
304.0, 0.003054588187385811
305.0, 0.0023790540363606044
306.0, 0.00559963610855557
307.0, 0.005955054499173467
308.0, 0.007202757940739098
309.0, 0.009289748267824494
310.0, 0.009525873085132763
311.0, 0.0065948773584483394
312.0, 0.013145630144676505
313.0, 0.015228345221521281
314.0, 0.011682359011927573
315.0, 0.009794829175569343
316.0, 0.011053224140316922
317.0, 0.009863645371467345
318.0, 0.009853253135702626
319.0, 0.011277958239328688
320.0, 0.010209447985753937
321.0, 0.008045093603442131
322.0, 0.009496413855636323
323.0, 0.010610554767900382
324.0, 0.009030695722209619
325.0, 0.009759605131071656
326.0, 0.009614594712464187
327.0, 0.011212990810797716
328.0, 0.011292228527397264
329.0, 0.006995632509068426
330.0, 0.00931656061496991
331.0, 0.007191645116930499
332.0, 0.006529941516665622
333.0, 0.008048276894364414
334.0, 0.007132692362983141
335.0, 0.0073795928774415
336.0, 0.007796964047981136
337.0, 0.007443130295951303
338.0, 0.006921788570077198
339.0, 0.0077985187026605885
340.0, 0.00523693399626757
341.0, 0.004734415921371061
342.0, 0.005488574783359266
343.0, 0.0047174817428604476
344.0, 0.002739944577850274
345.0, 0.002694404834485642
346.0, 0.0035890191728329746
347.0, 0.004112631067631643
348.0, 0.003292004894746598
349.0, 0.0012193222876229351
350.0, 0.003994502183155297
351.0, 0.0044812149901559736
352.0, 0.0022223889116479755
353.0, 0.0025884440744495317
354.0, 0.0025918202811512627
355.0, 0.0023997227261595773
356.0, 0.002874640545341039
357.0, 0.0029919426894146964
358.0, 0.000662556694672522
359.0, 0.0015535117576243615
360.0, 0.0007476001752989484
361.0, 0.0020798746119374497
362.0, 0.005156437763373012
363.0, 0.0008860917335048576
364.0, 0.0008870838591639349
365.0, 0.002815782611902839
366.0, 0.002635341862629707
367.0, 0.0003904158233870625
368.0, 0.0028532294552031444
369.0, 0.0020763610878120407
370.0, 0.0028625140599056317
371.0, 0.003605345388811986
372.0, 0.0010647214733969478
373.0, 0.0010195899105047547
374.0, 0.0025440329206492984
375.0, 0.0015453838601133228
376.0, 0.00030801425122812013
377.0, 0.0013910325006694214
378.0, 0.0007255204923714883
379.0, 9.696756218230906e-05
380.0, 0.0005534606001803811
381.0, 0.001665205018053977
382.0, 0.0039540506426186395
383.0, 0.007890103745270861
384.0, 0.0075558372361217525
385.0, 0.008192386763742026
386.0, 0.011754925166602342
387.0, 0.014424850159767919
388.0, 0.014673254020538547
389.0, 0.01735946916791063
390.0, 0.02042245054869592
391.0, 0.021854668796069638
392.0, 0.022804225381548034
393.0, 0.023301221903202194
394.0, 0.029592322038242365
395.0, 0.033060275868510854
396.0, 0.032046818423172196
397.0, 0.03787049226159955
398.0, 0.04181314560502213
399.0, 0.04518148951615643
400.0, 0.04863893793416944
401.0, 0.052504296467065184
402.0, 0.057103802704505574
403.0, 0.06198687023652871
404.0, 0.06630808817856138
405.0, 0.07145485241609642
406.0, 0.07728604488844842
407.0, 0.08118158186265687
408.0, 0.0913431241789223
409.0, 0.09726606311050737
410.0, 0.1011433407986096
411.0, 0.1077199052976938
412.0, 0.11370713668317771
413.0, 0.11663484218617845
414.0, 0.1241073748130827
415.0, 0.13136089308971075
416.0, 0.13349663589050703
417.0, 0.13582476097252028
418.0, 0.13769250441823855
419.0, 0.13982448367802952
420.0, 0.1395104461553474
421.0, 0.1368361121189602
422.0, 0.13497862807004368
423.0, 0.1305906956579134
424.0, 0.12718163025543575
425.0, 0.12459263104765926
426.0, 0.12140222381282781
427.0, 0.11941943611963861
428.0, 0.1185838818303554
429.0, 0.11745884991557279
430.0, 0.11534079578925584
431.0, 0.11146399237607196
432.0, 0.1065198844006142
433.0, 0.10881989246863895
434.0, 0.11200185194136093
435.0, 0.11053067062737677
436.0, 0.1069977043104426
437.0, 0.1093968039145718
438.0, 0.10532115544935221
439.0, 0.10151617478055722
440.0, 0.098715736733274
441.0, 0.09594040743109516
442.0, 0.09405096917580445
443.0, 0.09243779240218489
444.0, 0.09013130503109476
445.0, 0.08856089110938092
446.0, 0.08825128415140432
447.0, 0.08781710113362673
448.0, 0.08781391035854702
449.0, 0.08893747278952265
450.0, 0.08771816595593664
451.0, 0.08495519813817813
452.0, 0.08649212540701572
453.0, 0.09020244356908397
454.0, 0.09276218294604598
455.0, 0.09038442087102
456.0, 0.08721015033457341
457.0, 0.09012587738101065
458.0, 0.0893813837707974
459.0, 0.08828098827393766
460.0, 0.08999836425417548
461.0, 0.09297339883265573
462.0, 0.09388196731842541
463.0, 0.0932286196700985
464.0, 0.09499722457854672
465.0, 0.09525031043322407
466.0, 0.0938266559205616
467.0, 0.09290192665474337
468.0, 0.09118311984289906
469.0, 0.0885667133677896
470.0, 0.08620064216216448
471.0, 0.08348448819553168
472.0, 0.08020926901552647
473.0, 0.07823257321640614
474.0, 0.08344388851334904
475.0, 0.08026722290874064
476.0, 0.07046028413060926
477.0, 0.06229469844864362
478.0, 0.05873102475622816
479.0, 0.06551624132396162
480.0, 0.061259609544865354
481.0, 0.05268313805966665
482.0, 0.04712780854187974
483.0, 0.0409233687176809
484.0, 0.03744582108109531
485.0, 0.03338096336528483
486.0, 0.03207480375384428
487.0, 0.03239029573231217
488.0, 0.029547471051518087
489.0, 0.025959208165157902
490.0, 0.02386316875228029
491.0, 0.017579464391518772
492.0, 0.013827259700184334
493.0, 0.019128574656315622
494.0, 0.01845985233902623
495.0, 0.01488878800382366
496.0, 0.0139358074640173
497.0, 0.015073094212505645
498.0, 0.015330353481852793
499.0, 0.014367194223327351
500.0, 0.01632825504179372
501.0, 0.017784892375363615
502.0, 0.019486517226020718
503.0, 0.021071528075775676
504.0, 0.01979426590002559
505.0, 0.02168696765515475
506.0, 0.022982113277693856
507.0, 0.023098501133920583
508.0, 0.022298991342813074
509.0, 0.02015717441058705
510.0, 0.015461695822282632
511.0, 0.01576684883911377
512.0, 0.016116009337542442
513.0, 0.012935472200967081
514.0, 0.0075299606639825795
515.0, 0.0035414130835803447
516.0, 0.002945695382627503
517.0, 0.0011005916279512023
518.0, 0.005189765071563191
519.0, 0.006905786073265804
520.0, 0.0064513123011198815
521.0, 0.008532541412249421
522.0, 0.009282336879659512
523.0, 0.0077070495894391265
524.0, 0.006389735998416502
525.0, 0.00681123303654382
526.0, 0.0038958899847161815
527.0, 0.0036389561660956473
528.0, 0.0009020811466584738
529.0, 0.001696823785432891
530.0, 0.003097332844875663
531.0, 0.01032860284919014
532.0, 0.012870456620364836
533.0, 0.017959304855099483
534.0, 0.02177922248664293
535.0, 0.02508940835651848
536.0, 0.03309549052856533
537.0, 0.03750726204060196
538.0, 0.04401800194604041
539.0, 0.052678945552196876
540.0, 0.06128093971413695
541.0, 0.07051656937771011
542.0, 0.08469157718893029
543.0, 0.0983046896897279
544.0, 0.11028064621703439
545.0, 0.12011960002535202
546.0, 0.12882979846690779
547.0, 0.13852764565194578
548.0, 0.15239483393695072
549.0, 0.15605428996060555
550.0, 0.15715558067637916
551.0, 0.1613914217870768
552.0, 0.16690048742082325
553.0, 0.16762572930549569
554.0, 0.1632656663676871
555.0, 0.1617024182882817
556.0, 0.15929562220461282
557.0, 0.15424025482914014
558.0, 0.15097967631919493
559.0, 0.14500434510599064
560.0, 0.13543140419219862
561.0, 0.13036446748676553
562.0, 0.12937758489238665
563.0, 0.1266125156607348
564.0, 0.11939890384734518
565.0, 0.11924767749214604
566.0, 0.11967956199976354
567.0, 0.12042011397714915
568.0, 0.1220134147052739
569.0, 0.12279977567822696
570.0, 0.12597803491007215
571.0, 0.13150164695715494
572.0, 0.132413844778535
573.0, 0.12917576309023818
574.0, 0.12625789966562362
575.0, 0.126318409753802
576.0, 0.12715536717677287
577.0, 0.12324497619147805
578.0, 0.11860434632903842
579.0, 0.11770680673566453
580.0, 0.1188780988716229
581.0, 0.11426817264772945
582.0, 0.11015890896890464
583.0, 0.10615698680540843
584.0, 0.1038149900997071
585.0, 0.10255623339528792
586.0, 0.099076742641221
587.0, 0.0944175775537086
588.0, 0.09224077651681312
589.0, 0.08903381818735633
590.0, 0.0856273394223271
591.0, 0.08489268409679925
592.0, 0.08460400475425264
593.0, 0.08381173203064426
594.0, 0.08445781462042706
595.0, 0.08493933273599431
596.0, 0.08303929055302851
597.0, 0.08064938329739192
598.0, 0.08814556888964846
599.0, 0.08667176217722994
600.0, 0.08559288908220218
601.0, 0.08291723126970238
602.0, 0.07778406522023619
603.0, 0.07871320692367959
604.0, 0.07715330020206271
605.0, 0.07221781526499046
606.0, 0.0683814909783644
607.0, 0.06386005376451205
608.0, 0.058526766954437696
609.0, 0.06014963289977812
610.0, 0.051887109522426735
611.0, 0.0488589952593172
612.0, 0.04670709794143056
613.0, 0.043685096419104924
614.0, 0.04222270378796451
615.0, 0.0369723085850949
616.0, 0.03386475554162776
617.0, 0.03241798572332245
618.0, 0.032309922523520926
619.0, 0.03160317509666226
620.0, 0.029033585357021316
621.0, 0.032573787045475214
622.0, 0.033111639369356446
623.0, 0.03602428057874837
624.0, 0.03840411624992965
625.0, 0.039632475860246236
626.0, 0.04751719035887601
627.0, 0.05010462098023496
628.0, 0.05397926722589282
629.0, 0.059184851311213905
630.0, 0.06408474680987448
631.0, 0.06842720619090842
632.0, 0.07232087474587871
633.0, 0.07672331025896811
634.0, 0.07667262171257859
635.0, 0.07794560206278242
636.0, 0.07907047226819146
637.0, 0.07615642301774425
638.0, 0.0730710567535168
639.0, 0.06991701495802244
640.0, 0.0697096784395386
641.0, 0.06652752713749818
642.0, 0.059267169138635015
643.0, 0.05249923734161477
644.0, 0.04933194303956012
645.0, 0.04568320328163473
646.0, 0.04203320612147711
647.0, 0.03799161416153129
648.0, 0.03131661557422421
649.0, 0.02333198656572722
650.0, 0.02181592054663894
651.0, 0.017979297486818528
652.0, 0.015508993881967246
653.0, 0.015619417714866435
654.0, 0.0132388245529719
655.0, 0.005582977213398569
656.0, 0.0068360003419228686
657.0, 0.0056497149977223216
658.0, 0.0028569677102316237
659.0, 0.001923494692822263
660.0, 0.001601569538428382
661.0, 0.000814567524350548
662.0, 0.0008015865636575579
663.0, 0.002191017890587812
664.0, 0.0009639380399848451
665.0, 0.0023323717216989083
666.0, 0.00457549185511751
667.0, 0.00028101403036581024
668.0, 0.002940625093567015
669.0, 0.0021949452786039613
670.0, 0.003290216128636497
671.0, 0.002811260428012565
672.0, 0.001623563566976042
673.0, 0.0034313023253742577
674.0, 0.002370424540797473
675.0, 0.0003867323359043127
676.0, 0.001051910945780131
677.0, 0.0008573164800572263
678.0, 0.0003528792610905045
679.0, 0.0028553469045512377
680.0, 0.0023293782401717796
681.0, 0.0030811696761726937
682.0, 0.000648238339702354
683.0, 0.0006097387411742378
684.0, 0.0009019405832607053
685.0, 0.0003857721591155684
686.0, 0.001744904639528328
687.0, 0.0019076261031032195
688.0, 0.0019993566661526724
689.0, 0.0004302677234913673
690.0, 0.0011111956595643245
691.0, 0.0027803677510945023
692.0, 0.0010690049597893657
693.0, 0.0022609015411132307
694.0, 0.0018784487724923572
695.0, 0.003045138749745143
696.0, 0.003925559678851962
697.0, 0.00247515356388685
698.0, 0.002611348291022524
699.0, 0.004052040115430528
700.0, 0.0020706925977777013
701.0, 0.001911858574972781
702.0, 0.0033001391684684563
703.0, 0.0037239479639917866
704.0, 0.0038802942624395994
705.0, 0.004102283662978501
706.0, 0.003762465740163643
707.0, 0.00644702039381681
708.0, 0.00982082840184695
709.0, 0.010173486872979327
710.0, 0.007165168079681913
711.0, 0.00529815871795604
712.0, 0.008972738071884964
713.0, 0.009723262264093832
714.0, 0.007748990706639351
715.0, 0.007551487153034615
716.0, 0.01053083826749876
717.0, 0.011585252590837114
718.0, 0.0072613202086877415
719.0, 0.009555029652982435
720.0, 0.011298979979899704
721.0, 0.008615327000643075
722.0, 0.005491126320487034
723.0, 0.007454111977911307
724.0, 0.010557827094129689
725.0, 0.009499712316375161
726.0, 0.00982137895760428
727.0, 0.009127905349501607
728.0, 0.0067203996481977335
729.0, 0.00773267114582546
730.0, 0.008807034716556089
731.0, 0.010319724583423201
732.0, 0.009153323183158773
733.0, 0.007808904431417277
734.0, 0.006961969564684534
735.0, 0.007053060225199871
736.0, 0.01083285571798129
737.0, 0.007363678691591717
738.0, 0.005202755628124957
739.0, 0.00566097541027829
740.0, 0.0070140827883222664
741.0, 0.0072800374745713575
742.0, 0.005956161025563455
743.0, 0.004669015333416582
744.0, 0.004751496352806593
745.0, 0.006249436566291817
746.0, 0.007063964837441876
747.0, 0.007240982825437657
748.0, 0.008199582457962078
749.0, 0.008505550046746427
750.0, 0.008642780726826893
751.0, 0.00689552207981008
752.0, 0.005896160731605278
753.0, 0.006111978803387372
754.0, 0.0068854478485526
755.0, 0.00862654583741083
756.0, 0.008228485086059485
757.0, 0.007658955320088737
758.0, 0.0075831479389993
759.0, 0.008300135603994148
760.0, 0.0067203105969055234
761.0, 0.002370411374681572
762.0, 0.005120657623507031
763.0, 0.006203257214172115
764.0, 0.004401269020730807
765.0, 0.0034220137410993423
766.0, 0.005321329755682377
767.0, 0.008201094465630552
768.0, 0.007883554605679808
769.0, 0.00509266620572404
770.0, 0.0035950492787640725
771.0, 0.0044023055501177105
772.0, 0.004067141766131828
773.0, 0.0011677467453790006
774.0, 0.0001883361733616422
775.0, 0.00678212153484595
776.0, 0.004254262305253082
777.0, 0.003018816986551746
778.0, 0.003315186289835198
779.0, 0.0036349495637791667
780.0, 0.002951946568334714
781.0, 0.0017009294651355266
782.0, 0.0031063754556701208
783.0, 0.002845469523057392
784.0, 0.004645885655836939
785.0, 0.0032859134925587426
786.0, 0.0022249375915551883
787.0, 0.0034394810845851677
788.0, 0.0014402537740085884
789.0, 0.004767565292493613
790.0, 0.003309681924923261
791.0, 0.0013949045992291036
792.0, 0.0026855166973335474
793.0, 0.004741442401745956
794.0, 0.004316653056030929
795.0, 0.003993623276087914
796.0, 0.005397132602897607
797.0, 0.0007491576464369251
798.0, 0.004223225847927696
799.0, 0.007681520629208557
800.0, 0.005358991380800009
801.0, 0.0034855125049664017
802.0, 0.004944243716543064
803.0, 0.0015880481620592145
804.0, 0.0035560271024530914
805.0, 0.004249652151374434
806.0, 0.0038135103477232347
807.0, 0.004029826141348505
808.0, 0.004788221230134175
809.0, 0.006988311283410467
810.0, 0.0034249930582226575
811.0, 0.0040600754724889575
812.0, 0.0074644693922454415
813.0, 0.008829114828025973
814.0, 0.007340502810762907
815.0, 0.005907736951115111
816.0, 0.0064317822615734075
817.0, 0.006565119254751864
818.0, 0.009447687341232353
819.0, 0.010218911099356588
820.0, 0.011954511805194369
821.0, 0.016541679104211855
822.0, 0.018122411398749438
823.0, 0.016823211838843447
824.0, 0.018843043634819832
825.0, 0.020505342790554472
826.0, 0.021347213712786042
827.0, 0.021959140804189384
828.0, 0.023389315920647434
829.0, 0.02664996154344406
830.0, 0.028897588241739807
831.0, 0.033485031001973954
832.0, 0.035803536544528544
833.0, 0.037662824074364984
834.0, 0.03744922856559015
835.0, 0.03670901553333803
836.0, 0.03976289216082527
837.0, 0.03920927776890145
838.0, 0.0387000077797722
839.0, 0.04194755815820424
840.0, 0.04407309152261442
841.0, 0.0445643728155669
842.0, 0.043667234564784004
843.0, 0.042021895580484914
844.0, 0.04669752873194839
845.0, 0.04719013206099049
846.0, 0.0474693521426615
847.0, 0.046821956957726375
848.0, 0.04473661073018138
849.0, 0.042601808197328825
850.0, 0.04236148718461786
851.0, 0.04344026331292933
852.0, 0.04099927620784166
853.0, 0.03947469274509154
854.0, 0.0392386557184345
855.0, 0.03787250184595928
856.0, 0.035445979119400235
857.0, 0.03317615178572721
858.0, 0.030424860855884552
859.0, 0.026362312214374302
860.0, 0.024264263084995314
861.0, 0.020993117024364072
862.0, 0.019228158413397624
863.0, 0.017871753693756272
864.0, 0.015394217077608371
865.0, 0.01457394324829588
866.0, 0.012802702628876289
867.0, 0.012390225347470722
868.0, 0.009040960171472216
869.0, 0.005695731791425007
870.0, 0.0047502415830958
871.0, 0.004051259518442479
872.0, 0.001060457664246862
873.0, 0.000774856035123149
874.0, 0.0009833406682170165
875.0, 0.0007246240691781035
876.0, 0.003957315294711925
877.0, 0.0050374322352188085
878.0, 0.0045095449493161455
879.0, 0.007120829953043386
880.0, 0.007164988463824459
881.0, 0.007234296395600196
882.0, 0.005159265428367829
883.0, 0.00542742893485279
884.0, 0.007138555750481959
885.0, 0.006887994561532062
886.0, 0.005217343399079037
887.0, 0.005537560121021469
888.0, 0.0034486535555068552
889.0, 0.0015953459179619052
890.0, 0.0012412959853082635
891.0, 0.0038773782455878807
892.0, 0.0048103903316123195
893.0, 0.004536635454759382
894.0, 0.004399519027065146
895.0, 0.0032099151680404355
896.0, 0.0018689059641941608
897.0, 0.001854359558752401
898.0, 0.0009573833853477926
899.0, 0.0038828208153789756
900.0, 0.006287516480728764
901.0, 0.0065379709376998125
902.0, 0.010848714413858382
903.0, 0.01075243330270662
904.0, 0.014172499908681151
905.0, 0.02082818622763124
906.0, 0.019562508861250445
907.0, 0.020086011632816866
908.0, 0.022899971937339225
909.0, 0.023167834082983438
910.0, 0.02933186769470948
911.0, 0.03487174945494289
912.0, 0.03929455423348857
913.0, 0.04457571781072052
914.0, 0.048655017985455795
915.0, 0.052271219345383334
916.0, 0.05670989093673769
917.0, 0.061716212392704
918.0, 0.06770588405001117
919.0, 0.07489039248383411
920.0, 0.07934479441406775
921.0, 0.0873281400673638
922.0, 0.09242497973359393
923.0, 0.10016487643929235
924.0, 0.1139467599057787
925.0, 0.12554038726831895
926.0, 0.13673798101223025
927.0, 0.14637193415823113
928.0, 0.15973259634642661
929.0, 0.17350238566213935
930.0, 0.18550655679258765
931.0, 0.20167546382691331
932.0, 0.21650359958803034
933.0, 0.22144831178899724
934.0, 0.2389973065100517
935.0, 0.24776960871965537
936.0, 0.2631006427493064
937.0, 0.27450094804230324
938.0, 0.288885142395403
939.0, 0.2996415606118351
940.0, 0.303150393487543
941.0, 0.3184997543407503
942.0, 0.33554322507026674
943.0, 0.3492964241213213
944.0, 0.3619361611369976
945.0, 0.379247339206564
946.0, 0.4001509207540585
947.0, 0.41995477512242513
948.0, 0.43956452665426715
949.0, 0.4633189940023294
950.0, 0.48472763629360816
951.0, 0.5075617021554567
952.0, 0.5280669000055757
953.0, 0.5483777901427394
954.0, 0.5685822564128572
955.0, 0.5829505237531455
956.0, 0.5915784771728285
957.0, 0.601287077915468
958.0, 0.6045227684135321
959.0, 0.6068701457438842
960.0, 0.603300087129985
961.0, 0.5984979891057504
962.0, 0.593378535492801
963.0, 0.5904538660535804
964.0, 0.5878682492937005
965.0, 0.5837048604407691
966.0, 0.5918998382126337
967.0, 0.6041989622262665
968.0, 0.6194449279096491
969.0, 0.6411552501044689
970.0, 0.6704828278743615
971.0, 0.7004569496466982
972.0, 0.7284214680354956
973.0, 0.7606879129212274
974.0, 0.7998338901967923
975.0, 0.8362590870325948
976.0, 0.8705937371859636
977.0, 0.8992564595976351
978.0, 0.9222330261860322
979.0, 0.9413905921103627
980.0, 0.9597929574659984
981.0, 0.9780374793462114
982.0, 0.991560519060857
983.0, 0.999171578054243
984.0, 0.9984240889048376
985.0, 0.9943478569499645
986.0, 0.9853534288288311
987.0, 0.9698540219486259
988.0, 0.9475088885616357
989.0, 0.9232358872818907
990.0, 0.9005924173742891
991.0, 0.8654383517171051
992.0, 0.8249110527877416
993.0, 0.7877480975248438
994.0, 0.747941426848622
995.0, 0.7060316521255302
996.0, 0.6636502474830324
997.0, 0.6204896026739345
998.0, 0.5758308944518311
999.0, 0.5338511438751539
1000.0, 0.49741570933880513
1001.0, 0.454144505935762
1002.0, 0.4150255032205404
1003.0, 0.3803071038938598
1004.0, 0.3498792673146285
1005.0, 0.3234467511504727
1006.0, 0.29681781864981255
1007.0, 0.2696682159012795
1008.0, 0.251522177335932
1009.0, 0.23093558062665565
1010.0, 0.2106335903588676
1011.0, 0.19397678340870028
1012.0, 0.1789508449993815
1013.0, 0.1653773529086676
1014.0, 0.15512886574944912
1015.0, 0.14424893257142282
1016.0, 0.1285469601576034
1017.0, 0.11771559211690354
1018.0, 0.10803503780656845
1019.0, 0.09900179398852525
1020.0, 0.09063766405923805
1021.0, 0.08232482393507931
1022.0, 0.07392138803615111
1023.0, 0.06814000277776784
1024.0, 0.06236627903536526
1025.0, 0.05199231071967697
1026.0, 0.048978746706717806
1027.0, 0.04218788647999406
1028.0, 0.033681618366198644
1029.0, 0.0309709264135154
1030.0, 0.02716120789670566
1031.0, 0.021956270368019205
1032.0, 0.021018704192564727
1033.0, 0.019463849145489844
1034.0, 0.00781278375668265
1035.0, 0.01324066518498188
1036.0, 0.008705706468650782
1037.0, 0.0049642456796757965
1038.0, 0.004009288832468453
1039.0, 0.003301167408285593
1040.0, 0.0014954136209273964
1041.0, 0.000988319272091435
1042.0, 0.0034028464445032517
1043.0, 0.004758503850181847
1044.0, 0.0024041585123461564
1045.0, 0.0035853299765210675
1046.0, 0.00256271020977922
1047.0, 0.0020822086199557815
1048.0, 0.0035640940276173306
1049.0, 0.004594394951742783
1050.0, 0.004318874895713488
1051.0, 0.0070457122783506125
1052.0, 0.011608477314896979
1053.0, 0.007481962355201726
1054.0, 0.007384908080654726
1055.0, 0.003673214476071785
1056.0, 0.0033770612676404903
1057.0, 0.005179962369366606
1058.0, 0.007504649886802801
1059.0, 0.007102379753322092
1060.0, 0.0029858928986446374
1061.0, 0.001678911302483356
1062.0, 0.004418240054257065
1063.0, 0.0016959716940303231
1064.0, 0.0036508087872397675
1065.0, 0.0037670249710408253
1066.0, 0.00388062020423287
1067.0, 0.007943160453491369
1068.0, 0.008861999332771552
1069.0, 0.007282240941298183
1070.0, 0.008526321198208963
1071.0, 0.007858756835947016
1072.0, 0.008372149045726035
1073.0, 0.006924734044731814
1074.0, 0.008804215686324621
1075.0, 0.0077086582260306345
1076.0, 0.008360177719589818
1077.0, 0.009030963788580551
1078.0, 0.009213127870978013
1079.0, 0.008498239466611872
1080.0, 0.0069454810028903805
1081.0, 0.009960340158710012
1082.0, 0.008347303478030864
1083.0, 0.008959422868506295
1084.0, 0.009550161434330002
1085.0, 0.0048167384302906496
1086.0, 0.004758470535428021
1087.0, 0.006346625473217753
1088.0, 0.006915168121601991
1089.0, 0.009375902126156141
1090.0, 0.009526150139187452
1091.0, 0.0038269220275565933
1092.0, 0.007006908530597604
1093.0, 0.008178751982834496
1094.0, 0.01160996201054693
1095.0, 0.011414706195036673
1096.0, 0.012346364963600025
1097.0, 0.01484445917123612
1098.0, 0.01659400041801976
1099.0, 0.01683267780800959
1100.0, 0.015630933706858283
1101.0, 0.019839347886743377
1102.0, 0.020669315821612914
1103.0, 0.022629218892858825
1104.0, 0.022797782009856132
1105.0, 0.028153478186025004
1106.0, 0.03179921138739662
1107.0, 0.031485920074253854
1108.0, 0.03268588646434412
1109.0, 0.03515239293217197
1110.0, 0.034214401710645645
1111.0, 0.03277105582988401
1112.0, 0.039622968727425274
1113.0, 0.04245640995030744
1114.0, 0.040794833047862314
1115.0, 0.040988520235951835
1116.0, 0.04168064676689235
1117.0, 0.0456586247499681
1118.0, 0.047477691644169234
1119.0, 0.04372427310471098
1120.0, 0.04410667129024327
1121.0, 0.0428871286173548
1122.0, 0.03837432352281848
1123.0, 0.04074573998092422
1124.0, 0.0319657883150955
1125.0, 0.03495958008747177
1126.0, 0.037066505194550264
1127.0, 0.034199113993902984
1128.0, 0.03148789751590658
1129.0, 0.030312529197569636
1130.0, 0.0304904702642211
1131.0, 0.031243280781784843
1132.0, 0.028567032941663514
1133.0, 0.028956165989394725
1134.0, 0.028964680328638304
1135.0, 0.024951499746161773
1136.0, 0.025637436541491695
1137.0, 0.028996762214796006
1138.0, 0.02774788340498065
1139.0, 0.025843443915106137
1140.0, 0.026531353449242193
1141.0, 0.025018875172619918
1142.0, 0.026467607909748638
1143.0, 0.0223446356672902
1144.0, 0.026211061098054666
1145.0, 0.023630233486359814
1146.0, 0.02231108342970231
1147.0, 0.022744824098064748
1148.0, 0.021188258987215016
1149.0, 0.018313591245950105
1150.0, 0.018574128431465983
1151.0, 0.02103199118835726
1152.0, 0.020039197014514967
1153.0, 0.017365169444365527
1154.0, 0.017695091110596153
1155.0, 0.015539356265531037
1156.0, 0.013646428343581018
1157.0, 0.011937178004613058
1158.0, 0.014156101909251028
1159.0, 0.011559049371948717
1160.0, 0.008079608718119925
1161.0, 0.009966684798713413
1162.0, 0.011409020708100022
1163.0, 0.010381297548665696
1164.0, 0.008128281178614052
1165.0, 0.005571032007158941
1166.0, 0.007163767675341133
1167.0, 0.0017924541131287886
1168.0, 0.0008201214606263203
1169.0, 7.948879009512054e-05
1170.0, 0.0033560503635971612
1171.0, 0.004618948524386236
1172.0, 0.0006937618949113001
1173.0, 0.000564783016559893
1174.0, 0.0004498372565940468
1175.0, 0.0030397370635191893
1176.0, 0.0027509814252725346
1177.0, 0.0009885914314321231
1178.0, 0.0009613547408050852
1179.0, 0.00250905997828203
1180.0, 0.0003552163028962144
1181.0, 0.00118039885493703
1182.0, 0.00017855056625816116
1183.0, 0.0008355575346272875
1184.0, 0.0017460683282249127
1185.0, 0.0016036965652494117
1186.0, 0.0017571056053093785
1187.0, 0.002722151626101616
1188.0, 0.005054380821163079
1189.0, 0.004970897961294297
1190.0, 0.006107660077751886
1191.0, 0.004035617811431874
1192.0, 0.004756095247002178
1193.0, 0.006941191392732517
1194.0, 0.007536280626752379
1195.0, 0.006329181641752487
1196.0, 0.0037205817950414204
1197.0, 0.001635728316741976
1198.0, 0.00315732833615388
1199.0, 0.005679153307804263
1200.0, 0.0037077142766992976
1201.0, 0.0064869590786867095
1202.0, 0.00504661741310064
1203.0, 0.003328526227272885
1204.0, 0.006354879118154789
1205.0, 0.007890180273371428
1206.0, 0.008584880788001063
1207.0, 0.007757325773102639
1208.0, 0.004847676586895648
1209.0, 0.007287516683961961
1210.0, 0.008201657937282811
1211.0, 0.007576821233975178
1212.0, 0.008568301323923626
1213.0, 0.005681066717043749
1214.0, 0.006998935415942938
1215.0, 0.00529819621130419
1216.0, 0.006988142839541569
1217.0, 0.007208278099161873
1218.0, 0.006394124494551947
1219.0, 0.007632883559648141
1220.0, 0.008167859737870792
1221.0, 0.006755535490701052
1222.0, 0.006807321919926879
1223.0, 0.011054502101958352
1224.0, 0.007641861767352511
1225.0, 0.00698709347893909
1226.0, 0.00901809696734555
1227.0, 0.0057778253001193195
1228.0, 0.00566080141459391
1229.0, 0.006441603485064071
1230.0, 0.0072552627466634795
1231.0, 0.007287504812784236
1232.0, 0.005975947439134688
1233.0, 0.005016429534524457
1234.0, 0.0055836171138521455
1235.0, 0.00933984765718447
1236.0, 0.0056023615455854225
1237.0, 0.005096922863841895
1238.0, 0.0044829167838547415
1239.0, 0.006382214062073891
1240.0, 0.004092916822530542
1241.0, 0.002100080858252917
1242.0, 0.0025847601582344804
1243.0, 0.0035667767514699976
1244.0, 0.0040201794404060515
1245.0, 0.0051028707761183595
1246.0, 0.006238488879547658
1247.0, 0.005041743395303079
1248.0, 0.005984510796117563
1249.0, 0.005365212879013145
1250.0, 0.0048726293872214665
1251.0, 0.004084913479803231
1252.0, 0.00542246097127028
1253.0, 0.006267528754694887
1254.0, 0.0030646910522219
1255.0, 0.002279688234479843
1256.0, 0.004382281905898804
1257.0, 0.004011006554160757
1258.0, 0.001997065758968606
1259.0, 0.0021243398045858444
1260.0, 0.00357277233848732
1261.0, 0.0034390920754097244
1262.0, 0.0008576918851382353
1263.0, 0.004856610140955685
1264.0, 0.00535833824751532
1265.0, 0.009139260823016833
1266.0, 0.008255052534512433
1267.0, 0.004560886060741566
1268.0, 0.004580663001539514
1269.0, 0.0025541830980551896
1270.0, 0.0021692504792407666
1271.0, 0.003948675658780502
1272.0, 0.0037257371868017358
1273.0, 0.0036139580560423626
1274.0, 0.0039000617220980123
1275.0, 0.004395641490684695
1276.0, 0.005488431501310865
1277.0, 0.0039549063960179895
1278.0, 0.0037800023012712265
1279.0, 0.004139863334860467
1280.0, 0.004699829154712676
1281.0, 0.006290669207261189
1282.0, 0.008487107539477807
1283.0, 0.004003380485007272
1284.0, 0.003482024286249783
1285.0, 0.006304597845244187
1286.0, 0.004849180863115323
1287.0, 0.00515889505611398
1288.0, 0.006819382194219096
1289.0, 0.0026052311294968546
1290.0, 0.0014940898924818962
1291.0, 0.005241089748427173
1292.0, 0.0032519578432420437
1293.0, 0.006187387425174078
1294.0, 0.0065702452262090035
1295.0, 0.0060667214349069696
1296.0, 0.005571327514377375
1297.0, 0.0029641319146606364
1298.0, 0.0063654401668805085
1299.0, 0.005851412916895633
1300.0, 0.004796306461945211
1301.0, 0.007832396749760905
1302.0, 0.004123816917372717
1303.0, 0.0051671202627265106
1304.0, 0.00555792717451299
1305.0, 2.9229990172657386e-05
1306.0, 0.0010093112569740928
1307, 0.0
1308, 0.0
1309, 0.0
1310, 0.0
1311, 0.0
1312, 0.0
1313, 0.0
1314, 0.0
1315, 0.0
1316, 0.0
1317, 0.0
1318, 0.0
1319, 0.0
1320, 0.0
1321, 0.0
1322, 0.0
1323, 0.0
1324, 0.0
1325, 0.0
1326, 0.0
1327, 0.0
1328, 0.0
1329, 0.0
1330, 0.0
1331, 0.0
1332, 0.0
1333, 0.0
1334, 0.0
1335, 0.0
1336, 0.0
1337, 0.0
1338, 0.0
1339, 0.0
1340, 0.0
1341, 0.0
1342, 0.0
1343, 0.0
1344, 0.0
1345, 0.0
1346, 0.0
1347, 0.0
1348, 0.0
1349, 0.0
1350, 0.0
1351, 0.0
1352, 0.0
1353, 0.0
1354, 0.0
1355, 0.0
1356, 0.0
1357, 0.0
1358, 0.0
1359, 0.0
1360, 0.0
1361, 0.0
1362, 0.0
1363, 0.0
1364, 0.0
1365, 0.0
1366, 0.0
1367, 0.0
1368, 0.0
1369, 0.0
1370, 0.0
1371, 0.0
1372, 0.0
1373, 0.0
1374, 0.0
1375, 0.0
1376, 0.0
1377, 0.0
1378, 0.0
1379, 0.0
1380, 0.0
1381, 0.0
1382, 0.0
1383, 0.0
1384, 0.0
1385, 0.0
1386, 0.0
1387, 0.0
1388, 0.0
1389, 0.0
1390, 0.0
1391, 0.0
1392, 0.0
1393, 0.0
1394, 0.0
1395, 0.0
1396, 0.0
1397, 0.0
1398, 0.0
1399, 0.0
1400, 0.0
1401, 0.0
1402, 0.0
1403, 0.0
1404, 0.0
1405, 0.0
1406, 0.0
1407, 0.0
1408, 0.0
1409, 0.0
1410, 0.0
1411, 0.0
1412, 0.0
1413, 0.0
1414, 0.0
1415, 0.0
1416, 0.0
1417, 0.0
1418, 0.0
1419, 0.0
1420, 0.0
1421, 0.0
1422, 0.0
1423, 0.0
1424, 0.0
1425, 0.0
1426, 0.0
1427, 0.0
1428, 0.0
1429, 0.0
1430, 0.0
1431, 0.0
1432, 0.0
1433, 0.0
1434, 0.0
1435, 0.0
1436, 0.0
1437, 0.0
1438, 0.0
1439, 0.0
1440, 0.0
1441, 0.0
1442, 0.0
1443, 0.0
1444, 0.0
1445, 0.0
1446, 0.0
1447, 0.0
1448, 0.0
1449, 0.0
1450, 0.0
1451, 0.0
1452, 0.0
1453, 0.0
1454, 0.0
1455, 0.0
1456, 0.0
1457, 0.0
1458, 0.0
1459, 0.0
1460, 0.0
1461, 0.0
1462, 0.0
1463, 0.0
1464, 0.0
1465, 0.0
1466, 0.0
1467, 0.0
1468, 0.0
1469, 0.0
1470, 0.0
1471, 0.0
1472, 0.0
1473, 0.0
1474, 0.0
1475, 0.0
1476, 0.0
1477, 0.0
1478, 0.0
1479, 0.0
1480, 0.0
1481, 0.0
1482, 0.0
1483, 0.0
1484, 0.0
1485, 0.0
1486, 0.0
1487, 0.0
1488, 0.0
1489, 0.0
1490, 0.0
1491, 0.0
1492, 0.0
1493, 0.0
1494, 0.0
1495, 0.0
1496, 0.0
1497, 0.0
1498, 0.0
1499, 0.0
1500, 0.0
1501, 0.0
1502, 0.0
1503, 0.0
1504, 0.0
1505, 0.0
1506, 0.0
1507, 0.0
1508, 0.0
1509, 0.0
1510, 0.0
1511, 0.0
1512, 0.0
1513, 0.0
1514, 0.0
1515, 0.0
1516, 0.0
1517, 0.0
1518, 0.0
1519, 0.0
1520, 0.0
1521, 0.0
1522, 0.0
1523, 0.0
1524, 0.0
1525, 0.0
1526, 0.0
1527, 0.0
1528, 0.0
1529, 0.0
1530, 0.0
1531, 0.0
1532, 0.0
1533, 0.0
1534, 0.0
1535, 0.0
1536, 0.0
1537, 0.0
1538, 0.0
1539, 0.0
1540, 0.0
1541, 0.0
1542, 0.0
1543, 0.0
1544, 0.0
1545, 0.0
1546, 0.0
1547, 0.0
1548, 0.0
1549, 0.0
1550, 0.0
1551, 0.0
1552, 0.0
1553, 0.0
1554, 0.0
1555, 0.0
1556, 0.0
1557, 0.0
1558, 0.0
1559, 0.0
1560, 0.0
1561, 0.0
1562, 0.0
1563, 0.0
1564, 0.0
1565, 0.0
1566, 0.0
1567, 0.0
1568, 0.0
1569, 0.0
1570, 0.0
1571, 0.0
1572, 0.0
1573, 0.0
1574, 0.0
1575, 0.0
1576, 0.0
1577, 0.0
1578, 0.0
1579, 0.0
1580, 0.0
1581, 0.0
1582, 0.0
1583, 0.0
1584, 0.0
1585, 0.0
1586, 0.0
1587, 0.0
1588, 0.0
1589, 0.0
1590, 0.0
1591, 0.0
1592, 0.0
1593, 0.0
1594, 0.0
1595, 0.0
1596, 0.0
1597, 0.0
1598, 0.0
1599, 0.0
