30, 0.0
31, 0.0
32, 0.0
33, 0.0
34, 0.0
35, 0.0
36, 0.0
37, 0.0
38, 0.0
39, 0.0
40, 0.0
41, 0.0
42, 0.0
43, 0.0
44, 0.0
45, 0.0
46, 0.0
47, 0.0
48, 0.0
49, 0.0
50, 0.0
51, 0.0
52, 0.0
53, 0.0
54, 0.0
55, 0.0
56, 0.0
57, 0.0
58, 0.0
59, 0.0
60, 0.0
61, 0.0
62, 0.0
63, 0.0
64, 0.0
65, 0.0
66, 0.0
67, 0.0
68, 0.0
69, 0.0
70, 0.0
71, 0.0
72, 0.0
73, 0.0
74, 0.0
75, 0.0
76, 0.0
77, 0.0
78, 0.0
79, 0.0
80, 0.0
81, 0.0
82, 0.0
83, 0.0
84, 0.0
85, 0.0
86, 0.0
87, 0.0
88, 0.0
89, 0.0
90, 0.0
91, 0.0
92, 0.0
93, 0.0
94, 0.0
95, 0.0
96, 0.0
97, 0.0
98, 0.0
99, 0.0
100, 0.0
101, 0.0
102, 0.0
103, 0.0
104, 0.0
105, 0.0
106, 0.0
107, 0.0
108, 0.0
109, 0.0
110, 0.0
111, 0.0
112, 0.0
113, 0.0
114, 0.0
115, 0.0
116, 0.0
117, 0.0
118, 0.0
119, 0.0
120, 0.0
121, 0.0
122, 0.0
123, 0.0
124, 0.0
125, 0.0
126, 0.0
127, 0.0
128, 0.0
129, 0.0
130, 0.0
131, 0.0
132, 0.0
133, 0.0
134, 0.0
135, 0.0
136, 0.0
137, 0.0
138.0, 0.0003506935952525415
139.0, 0.0028030963592563175
140.0, 0.017029023600100855
141.0, 0.02767776646361973
142.0, 0.025800521739042577
143.0, 0.02733565460112315
144.0, 0.029299139377581013
145.0, 0.03224597679154624
146.0, 0.03790385469566446
147.0, 0.03067023626969035
148.0, 0.028279058226317443
149.0, 0.03462297536810232
150.0, 0.029264052737767398
151.0, 0.022006565724200268
152.0, 0.02068833668686806
153.0, 0.036251413185409816
154.0, 0.03648262054189017
155.0, 0.04034520805825819
156.0, 0.04699245302726519
157.0, 0.040598284192967925
158.0, 0.040575059833737326
159.0, 0.05325933481811227
160.0, 0.08402238638569579
161.0, 0.07988313734498781
162.0, 0.08983291521513671
163.0, 0.10698124427036511
164.0, 0.11588126011409304
165.0, 0.1261151727469938
166.0, 0.13056586027680694
167.0, 0.12809451486714754
168.0, 0.1291597237593136
169.0, 0.13205426778943483
170.0, 0.13079648497365498
171.0, 0.11853566106119316
172.0, 0.10557301221516349
173.0, 0.10468367115072154
174.0, 0.10957991708543141
175.0, 0.09344535621896245
176.0, 0.08603193026781734
177.0, 0.07536076064787291
178.0, 0.05661884979253254
179.0, 0.043452936034676266
180.0, 0.047115766791935576
181.0, 0.05450876895070588
182.0, 0.046747783194232055
183.0, 0.03408325391707202
184.0, 0.023770956540893062
185.0, 0.018690279786473106
186.0, 0.029488409797081793
187.0, 0.016898969055244736
188.0, 0.006758145073664679
189.0, 0.014131503438805362
190.0, 0.008061064396542155
191.0, 0.005039902484221886
192.0, 0.0040314933617300415
193.0, 0.003085692325885729
194.0, 0.005561964712815808
195.0, 0.008204919923537309
196.0, 0.010155598118669335
197.0, 0.009867837585098932
198.0, 0.005732184473215442
199.0, 0.004073314096284401
200.0, 0.009789403442315981
201.0, 0.01349945880213104
202.0, 0.01449458043318883
203.0, 0.01201498329967337
204.0, 0.003553733990685381
205.0, 0.0009197552310056239
206.0, 0.006788506206397373
207.0, 0.020172944411744064
208.0, 0.02382066905957789
209.0, 0.012805009790142315
210.0, 0.001915802322876553
211.0, 0.0026179363623249747
212.0, 0.009215499456851762
213.0, 0.007190769469780985
214.0, 0.0010064735973564524
215.0, 0.0020116993125201964
216.0, 0.0012619964000601365
217.0, 0.0035026035809177913
218.0, 0.009316508093207207
219.0, 0.01300135286329623
220.0, 0.008322984819169172
221.0, 0.0035116135950816604
222.0, 0.004626904797211056
223.0, 0.005053244460498991
224.0, 0.009476143390101633
225.0, 0.015299866999464139
226.0, 0.016777446076085674
227.0, 0.035729817567559295
228.0, 0.04598486139839665
229.0, 0.045890798520413
230.0, 0.06384921299384319
231.0, 0.068624488497688
232.0, 0.07810224216420644
233.0, 0.10387502404064758
234.0, 0.11343628067680249
235.0, 0.12098196275421569
236.0, 0.12779788013151847
237.0, 0.13589227346893487
238.0, 0.13936605666472013
239.0, 0.14533191568295195
240.0, 0.15586163931912395
241.0, 0.17603484644282105
242.0, 0.19561537398759793
243.0, 0.21612534354542157
244.0, 0.23823014209237797
245.0, 0.2579640749770475
246.0, 0.2867237801712571
247.0, 0.3219777996803146
248.0, 0.36172623118329167
249.0, 0.3923057956922268
250.0, 0.4378929475159367
251.0, 0.48497577444260104
252.0, 0.48184492520653244
253.0, 0.5008341067257915
254.0, 0.5087116894819322
255.0, 0.49494846289758976
256.0, 0.4615709037181816
257.0, 0.43385128289328095
258.0, 0.40560569999623114
259.0, 0.3719475424637682
260.0, 0.3490153273576699
261.0, 0.3215346901741459
262.0, 0.29354584533131983
263.0, 0.2736424874331473
264.0, 0.24119785421183682
265.0, 0.23026342100361116
266.0, 0.23649397555105192
267.0, 0.2100787919155992
268.0, 0.1894405541187571
269.0, 0.1810801462925976
270.0, 0.18686090998449634
271.0, 0.1681496381673771
272.0, 0.1788657580532234
273.0, 0.19229811009249892
274.0, 0.18115718227192412
275.0, 0.17777894337117808
276.0, 0.16217184696421072
277.0, 0.14374152331415654
278.0, 0.1473897858171648
279.0, 0.12655107857085615
280.0, 0.10908853255649392
281.0, 0.10048623584151835
282.0, 0.09874497348264089
283.0, 0.09167588641985587
284.0, 0.08761136287624076
285.0, 0.08960578036879574
286.0, 0.0659079848490913
287.0, 0.05682330070303391
288.0, 0.057704125426308324
289.0, 0.06496239842842874
290.0, 0.07328778786863063
291.0, 0.07288750751750867
292.0, 0.06948458110003045
293.0, 0.0774903643144921
294.0, 0.061820944685831776
295.0, 0.06391295654962213
296.0, 0.08279894604919148
297.0, 0.070218976677901
298.0, 0.07192399621128431
299.0, 0.0748786270012131
300.0, 0.07361296484307447
301.0, 0.07022463905734842
302.0, 0.07596516662032808
303.0, 0.08151632800859357
304.0, 0.07851125962008676
305.0, 0.06536500465886402
306.0, 0.062098011039221065
307.0, 0.06453294010971204
308.0, 0.06463835864958178
309.0, 0.05943139831580061
310.0, 0.05617793463707102
311.0, 0.05358398480250537
312.0, 0.043222923942287814
313.0, 0.04475620530339442
314.0, 0.04448577371344734
315.0, 0.03958203247814684
316.0, 0.04196424000999313
317.0, 0.041400497495714894
318.0, 0.03868883274384762
319.0, 0.03437681814830428
320.0, 0.038856332446311266
321.0, 0.04606097918176635
322.0, 0.05411170305514842
323.0, 0.06095948380118288
324.0, 0.06019581686033178
325.0, 0.07400609681283828
326.0, 0.08950971618374716
327.0, 0.07691089222710848
328.0, 0.10123816394891455
329.0, 0.1120637569311101
330.0, 0.10882104157307164
331.0, 0.12039916202064452
332.0, 0.15258990634266567
333.0, 0.17289816346089681
334.0, 0.17352838105494756
335.0, 0.17809062259028868
336.0, 0.19182497150769365
337.0, 0.20234519889626862
338.0, 0.20296903017198475
339.0, 0.20879365690913837
340.0, 0.21196432743135685
341.0, 0.21728458919837956
342.0, 0.22975217833524508
343.0, 0.2559209676549642
344.0, 0.2743607732275734
345.0, 0.29698077957185637
346.0, 0.3459133453548622
347.0, 0.3593569011872445
348.0, 0.3826569473327344
349.0, 0.4154534302580594
350.0, 0.442811627661139
351.0, 0.4581273876248284
352.0, 0.46420834623949747
353.0, 0.4596473356129031
354.0, 0.4343017682800022
355.0, 0.3946649135029954
356.0, 0.35085891980846695
357.0, 0.3058440217615639
358.0, 0.25294958701422565
359.0, 0.2215265014898296
360.0, 0.19368373092285412
361.0, 0.15955300644484804
362.0, 0.1433255613223956
363.0, 0.1289033253246945
364.0, 0.11395581294341577
365.0, 0.09618365446660401
366.0, 0.08492246964194039
367.0, 0.08384448900341199
368.0, 0.07775348318784339
369.0, 0.042993451494537406
370.0, 0.054273970020544446
371.0, 0.051231569279728405
372.0, 0.03996379886242407
373.0, 0.0454934653624635
374.0, 0.03195156763719288
375.0, 0.018679667655440473
376.0, 0.0140637270745805
377.0, 0.03722456193552072
378.0, 0.019169042689038886
379.0, 0.011597442850728506
380.0, 0.020387073985669246
381.0, 0.0038822744830137434
382.0, 0.00699249545531669
383.0, 0.01255394911891133
384.0, 0.014352712821411904
385.0, 0.01615718373637453
386.0, 0.020091436818285034
387.0, 0.02238090039492816
388.0, 0.0213037290349593
389.0, 0.025915766609420573
390.0, 0.02568938572185952
391.0, 0.026801625312139834
392.0, 0.03417129270299473
393.0, 0.047565683885618305
394.0, 0.05151731129674493
395.0, 0.05123751808155047
396.0, 0.052287252522429606
397.0, 0.04945313186525215
398.0, 0.04767611870105153
399.0, 0.04290285437866838
400.0, 0.028499212383949965
401.0, 0.035513207252545385
402.0, 0.02896947410410381
403.0, 0.014205230940699073
404.0, 0.006782920747691319
405.0, 0.018062975525243618
406.0, 0.020330224066152584
407.0, 0.013591885625847983
408.0, 0.006634431718435738
409.0, 0.010480012787277618
410.0, 0.01012178669579116
411.0, 0.007594707703784719
412.0, 0.019796599697212206
413.0, 0.022058231998454164
414.0, 0.02219237127760892
415.0, 0.02704194234330811
416.0, 0.05978598447634317
417.0, 0.06900517393776996
418.0, 0.06694181715112589
419.0, 0.0619992859620581
420.0, 0.08336039540282708
421.0, 0.10681773819622754
422.0, 0.13574174483582835
423.0, 0.1677116074673939
424.0, 0.16945568367633546
425.0, 0.21530390855751433
426.0, 0.25963958431892287
427.0, 0.279853242080487
428.0, 0.27818588751974305
429.0, 0.2814304926988305
430.0, 0.2779744239030571
431.0, 0.2612500759668188
432.0, 0.24395556091582057
433.0, 0.23429855973945518
434.0, 0.22824503671773871
435.0, 0.2229566992919197
436.0, 0.21513867405486625
437.0, 0.22128804592577908
438.0, 0.23134400973010333
439.0, 0.23744278716544495
440.0, 0.270060780058583
441.0, 0.29969487302719744
442.0, 0.32811913574022994
443.0, 0.35700675664354214
444.0, 0.4077727335989813
445.0, 0.4822512994846037
446.0, 0.5570838425609898
447.0, 0.6065511400738642
448.0, 0.7148480719088577
449.0, 0.7985519912271011
450.0, 0.859181280229975
451.0, 0.8996177810309354
452.0, 0.9700706737601098
453.0, 0.9922324832566491
454.0, 0.9904579814677871
455.0, 0.9996241856293749
456.0, 0.9098352272292911
457.0, 0.8434140743053828
458.0, 0.7958389708248075
459.0, 0.7535933272874289
460.0, 0.696753939861816
461.0, 0.6413189197563104
462.0, 0.5938764924673682
463.0, 0.563600352505781
464.0, 0.5489099780550684
465.0, 0.5286628502625852
466.0, 0.5084449885947627
467.0, 0.4993304644749067
468.0, 0.5094553650764978
469.0, 0.5064390001235745
470.0, 0.49209518343190206
471.0, 0.47252888622040035
472.0, 0.4896262867178915
473.0, 0.46912295751107397
474.0, 0.4417490978361536
475.0, 0.4677622125945205
476.0, 0.4432037728287895
477.0, 0.4295103976101083
478.0, 0.42963135571339006
479.0, 0.4414559357521746
480.0, 0.45846075335669223
481.0, 0.45892462898053055
482.0, 0.4498587125921444
483.0, 0.44507949483168213
484.0, 0.42581668681697227
485.0, 0.40991290804370045
486.0, 0.3964139549339557
487.0, 0.38185643590315277
488.0, 0.3526445375514228
489.0, 0.3237739122073999
490.0, 0.29523958938879696
491.0, 0.2655611848736388
492.0, 0.2247010761834779
493.0, 0.204116202020727
494.0, 0.18795315241428112
495.0, 0.1508202139890185
496.0, 0.1414906762897476
497.0, 0.13188406370589337
498.0, 0.12377944666033083
499.0, 0.12137932975246878
500.0, 0.12035748331227548
501.0, 0.12210212372767884
502.0, 0.12453378206137754
503.0, 0.1250493592216629
504.0, 0.13982531070518292
505.0, 0.13401243232353438
506.0, 0.12896912691834533
507.0, 0.14911547870655317
508.0, 0.1528706170866715
509.0, 0.13836265650301122
510.0, 0.13064309294998483
511.0, 0.15412052541426868
512.0, 0.16176242056551918
513.0, 0.16244052212416596
514.0, 0.15961820520062092
515.0, 0.15692283537438187
516.0, 0.1744785398943527
517.0, 0.17775332624631207
518.0, 0.17748695300575834
519.0, 0.18082635419624696
520.0, 0.16902975988102906
521.0, 0.1595853255884993
522.0, 0.15707782384590727
523.0, 0.16349040197394174
524.0, 0.16459198353954074
525.0, 0.15976030113507184
526.0, 0.15302848868547328
527.0, 0.14688854262331827
528.0, 0.14426730843815394
529.0, 0.15073434399346952
530.0, 0.14963067401515365
531.0, 0.1356497444365901
532.0, 0.12406532615525394
533.0, 0.09691987614232302
534.0, 0.07391398708007632
535.0, 0.06134727797244906
536.0, 0.05472624216994918
537.0, 0.04132796017348246
538.0, 0.031050970138354256
539.0, 0.023144546974232266
540.0, 0.003743283260546449
541.0, 0.012811028487273987
542.0, 0.011876525422065135
543.0, 0.0037080364609829823
544.0, 0.02132823446759699
545.0, 0.027675217685176806
546.0, 0.01782731514732114
547.0, 0.001472510939793766
548.0, 0.002095649599786061
549.0, 0.0068963076594632435
550.0, 0.006816911222621954
551.0, 0.005379382322837051
552.0, 0.01026001856234294
553.0, 0.012148136680683503
554.0, 0.018277709308731963
555.0, 0.02626285338019967
556.0, 0.03243979586376236
557.0, 0.0357658071373075
558.0, 0.048820222952653786
559.0, 0.0647383993116405
560.0, 0.07650777875345484
561.0, 0.08398702968969596
562.0, 0.09868761844015199
563.0, 0.12138628351121554
564.0, 0.151294291393842
565.0, 0.16954332556721355
566.0, 0.21832530995158367
567.0, 0.2921963906320446
568.0, 0.37886359155496996
569.0, 0.4063764406121921
570.0, 0.47088800370842443
571.0, 0.5146069755174556
572.0, 0.5121086275215555
573.0, 0.4468472345424309
574.0, 0.3848555007714592
575.0, 0.3277501715139247
576.0, 0.2693675958963566
577.0, 0.1891207946220028
578.0, 0.1482780010807145
579.0, 0.10807375012719363
580.0, 0.07039706227029963
581.0, 0.05266660712247164
582.0, 0.06752403319009871
583.0, 0.07045175027113115
584.0, 0.06052844209481953
585.0, 0.04213024214263343
586.0, 0.03974703989522771
587.0, 0.0421085203730751
588.0, 0.04727565563377911
589.0, 0.05393965239305862
590.0, 0.07570919049086876
591.0, 0.07514812891530806
592.0, 0.0721762622400445
593.0, 0.07715764767513503
594.0, 0.05857844742383407
595.0, 0.07527587780945678
596.0, 0.09379440459054392
597.0, 0.10467733518691871
598.0, 0.13539627495126058
599.0, 0.12236314708057333
600.0, 0.12312391899554896
601.0, 0.14367293730962086
602.0, 0.1535104390933459
603.0, 0.16426965371931448
604.0, 0.1620436858296153
605.0, 0.15795947027452925
606.0, 0.17770171994619474
607.0, 0.16882893282158273
608.0, 0.1580646622022547
609.0, 0.14062390736486868
610.0, 0.10895674331661871
611.0, 0.13275747588194342
612.0, 0.1118650697398531
613.0, 0.0806526504932946
614.0, 0.06604014282406555
615.0, 0.062043250617269494
616.0, 0.06759759515137205
617.0, 0.07024608043880715
618.0, 0.06606656506716517
619.0, 0.06663895538808143
620.0, 0.04976848256214539
621.0, 0.03915413585783656
622.0, 0.03404487364816107
623.0, 0.012192790591623539
624.0, 0.03277690767013344
625.0, 0.031184049914926768
626.0, 0.024684938896974522
627.0, 0.05914258559401818
628.0, 0.019144597711557885
629.0, 0.01644985816425523
630.0, 0.021789155812630946
631.0, 0.0009684807700524136
632.0, 0.0043735806419807535
633.0, 0.018027321761233398
634.0, 0.0222769705902899
635.0, 0.008885630856768826
636.0, 0.007903646827281162
637.0, 0.013623034916709404
638.0, 0.013551270731614516
639.0, 0.006999386742143249
640.0, 0.0070544605936946995
641.0, 0.003449852257359496
642.0, 0.012886899522207411
643.0, 0.02333890524285772
644.0, 0.006098197218639094
645.0, 0.010197045072377228
646.0, 0.009131628368342703
647.0, 0.005319970667592523
648.0, 0.003457056097256918
649.0, 0.015974522437776667
650.0, 0.016322534265881084
651.0, 0.024210676215016203
652.0, 0.04363438950873359
653.0, 0.01752507717655677
654.0, 0.05216149909537823
655.0, 0.06813710928779754
656.0, 0.0555596326785849
657.0, 0.06466335098516787
658.0, 0.04027823521453348
659.0, 0.04245560740727648
660.0, 0.06131799243550292
661.0, 0.06600879091484296
662.0, 0.07239642115408831
663.0, 0.04970718637893808
664.0, 0.02700233768837457
665.0, 0.030597858453239004
666.0, 0.052216686278274714
667.0, 0.038677554891923
668.0, 0.03145640106284975
669.0, 0.04218206228736869
670.0, 0.033579866742027904
671.0, 0.03642074939584455
672.0, 0.029200476103822044
673.0, 0.019232021857648725
674.0, 0.03292682354431284
675.0, 0.03676945825860355
676.0, 0.03149559281616598
677.0, 0.024529237184047425
678.0, 0.024677123497664693
679.0, 0.048516777874024204
680.0, 0.04899138211598858
681.0, 0.03983251030355404
682.0, 0.03085157003646796
683.0, 0.03189033111200757
684.0, 0.061669816283061916
685.0, 0.07305835251892868
686.0, 0.06355772534089661
687.0, 0.05877894486951241
688.0, 0.06050903206080151
689.0, 0.057962374440272364
690.0, 0.058767562768829947
691.0, 0.07264090332247239
692.0, 0.07954321726832846
693.0, 0.07545063951851728
694.0, 0.05934220223094941
695.0, 0.04172695644147481
696.0, 0.08905861218739464
697.0, 0.07061195431554282
698.0, 0.06675572698627162
699.0, 0.08139251173340212
700.0, 0.07061908072778986
701.0, 0.07829251753501193
702.0, 0.07319829783969424
703.0, 0.065340798978008
704.0, 0.0680182440034906
705.0, 0.04705158361833685
706.0, 0.053348494646916725
707.0, 0.06557737220708866
708.0, 0.0697378409491449
709.0, 0.05505707413375127
710.0, 0.023130158894632265
711.0, 0.024448383210604253
712.0, 0.042107385786102035
713.0, 0.017621926235865632
714.0, 0.025729654496537448
715.0, 0.015281746890950739
716.0, 0.011496197638766432
717.0, 0.0360484809845213
718.0, 0.026914071949071444
719.0, 0.018786383648730004
720.0, 0.011962134383316853
721.0, 0.008179742262963747
722.0, 0.013364068902109207
723.0, 0.011991870726933305
724.0, 0.01112671708649099
725.0, 0.014298966721520503
726.0, 0.024899145691128194
727.0, 0.013091186037333705
728.0, 0.02205427755449316
729.0, 0.02882086128109349
730.0, 0.01989542718837722
731.0, 0.012427972235653
732.0, 0.019888658204865007
733.0, 0.0174974250530633
734.0, 0.007964249538819782
735.0, 0.013406085466615331
736.0, 0.01249636051356929
737.0, 0.008835556197173541
738.0, 0.01349806700306239
739.0, 0.032957474136966765
740.0, 0.013034563574639774
741.0, 0.024022952852578217
742.0, 0.0226826787929663
743.0, 0.0024981800306038736
744.0, 0.0028932741363454214
745.0, 0.010348120590267774
746.0, 0.008236084534172343
747.0, 0.00460019888203668
748.0, 0.012633063478605868
749.0, 0.01428077305973214
750.0, 0.025516392746985368
751.0, 0.02348801105122593
752.0, 0.006894221571014766
753.0, 0.031076039291946946
754.0, 0.018294248991058974
755.0, 0.007057851501431811
756.0, 0.004556259632679004
757.0, 0.00947909860578419
758.0, 0.013067171765157266
759.0, 0.027558443811206756
760.0, 0.028543314947807392
761.0, 0.00608312174025358
762.0, 0.006136286362390887
763.0, 0.006113879776564904
764.0, 0.00855232512610173
765.0, 0.013461312816104742
766.0, 0.019467225419806142
767.0, 0.01268677669114722
768.0, 0.021541306852440566
769.0, 0.024715465842352895
770.0, 0.009144026734716735
771.0, 0.016691718193371115
772.0, 0.013954730079497442
773.0, 0.011269197946150595
774.0, 0.016403920424731273
775.0, 0.039600989707597664
776.0, 0.020717481436940466
777.0, 0.021237379941865055
778.0, 0.02626929985289748
779.0, 0.020005255256272628
780.0, 0.008201400713051291
781.0, 0.01618594055643173
782.0, 0.021458285420990115
783.0, 0.018208410388178532
784.0, 0.009960768697878708
785.0, 0.003094239524659312
786.0, 0.003922813767069763
787.0, 0.013702842742470462
788.0, 0.02904747127567528
789.0, 0.015632357801837804
790.0, 0.02368522795186086
791.0, 0.02006879447676542
792.0, 0.005042214722204581
793.0, 0.003287043902819573
794.0, 0.01243351129408041
795.0, 0.00786373008578091
796.0, 0.007508315244154722
797.0, 0.023357531593899358
798.0, 0.02183812795041413
799.0, 0.01755886517795407
800.0, 0.010719254825706997
801.0, 0.006774735484968664
802.0, 0.016620507544738837
803.0, 0.01021660412258932
804.0, 0.016533449850414102
805.0, 0.026303249050141322
806.0, 0.028893392550701905
807.0, 0.008069095022842622
808.0, 0.015609280564013244
809.0, 0.01915371410683174
810.0, 0.016237968631340704
811.0, 0.016429199722822158
812.0, 0.015224496843915358
813.0, 0.02758393435834314
814.0, 0.030939716907236157
815.0, 0.016729579784354513
816.0, 0.012135748749219452
817.0, 0.020336428952587325
818.0, 0.01646357800160583
819.0, 0.013036525879822727
820.0, 0.03256623991690015
821.0, 0.040744692691288886
822.0, 0.03149670707985797
823.0, 0.027468418955409933
824.0, 0.037344235791295394
825.0, 0.052482638097699846
826.0, 0.049550484131116346
827.0, 0.044384870493653854
828.0, 0.043166685208496064
829.0, 0.04936569757525651
830.0, 0.05092416695753623
831.0, 0.06786600168830485
832.0, 0.06898925815075328
833.0, 0.049724138642387034
834.0, 0.0252420764171506
835.0, 0.039656069064288986
836.0, 0.06644513092371265
837.0, 0.07640829463810045
838.0, 0.057728113655708756
839.0, 0.06603578430069826
840.0, 0.0671810197000703
841.0, 0.06595506431231912
842.0, 0.06618284790284498
843.0, 0.07167483818763785
844.0, 0.06626544702357738
845.0, 0.06783427879330645
846.0, 0.07491685173038466
847.0, 0.08064823297418872
848.0, 0.0652030292076287
849.0, 0.07862866398704793
850.0, 0.0683418477070386
851.0, 0.05540470862845835
852.0, 0.06741968253506138
853.0, 0.11041190565786381
854.0, 0.09186708260020991
855.0, 0.09141923690306246
856.0, 0.11559435974778703
857.0, 0.12997952776015384
858.0, 0.15688824814506117
859.0, 0.16180998251826512
860.0, 0.15399951304645168
861.0, 0.147623746186141
862.0, 0.17323215619417073
863.0, 0.19401553820640083
864.0, 0.20148358778136422
865.0, 0.21622727183055995
866.0, 0.2558320727814734
867.0, 0.2413718811774065
868.0, 0.2679432691212066
869.0, 0.2941785359463649
870.0, 0.3132296227481389
871.0, 0.3399256107801792
872.0, 0.34243965037423363
873.0, 0.3746180607806918
874.0, 0.4007887442692305
875.0, 0.40538601339149594
876.0, 0.4216442909938239
877.0, 0.4411853480780775
878.0, 0.45035721988756255
879.0, 0.46386025333397995
880.0, 0.49618612275229984
881.0, 0.5116802193457788
882.0, 0.48540894055449435
883.0, 0.4625652511280333
884.0, 0.4471499150641454
885.0, 0.4205234225016873
886.0, 0.4051335449201649
887.0, 0.4025449217765414
888.0, 0.3914663488046017
889.0, 0.372612926797705
890.0, 0.3889614608457519
891.0, 0.3738441125208035
892.0, 0.35167368492346646
893.0, 0.3400431797573583
894.0, 0.34441180220307405
895.0, 0.30821664857875614
896.0, 0.30416857199553315
897.0, 0.2969078475993393
898.0, 0.28723415381822626
899.0, 0.28769698793893284
900.0, 0.2843867604887334
901.0, 0.2639085043830478
902.0, 0.23701913653837117
903.0, 0.2122036161450353
904.0, 0.19823108554792043
905.0, 0.20618212963824195
906.0, 0.18678398366818247
907.0, 0.17998309374904295
908.0, 0.19925921715398273
909.0, 0.1861096439643241
910.0, 0.17482513128770258
911.0, 0.17106236903984404
912.0, 0.17197403074233578
913.0, 0.17452999851155102
914.0, 0.1853676752255227
915.0, 0.17819179574897095
916.0, 0.1775305459410584
917.0, 0.17499499177988742
918.0, 0.15045401736460587
919.0, 0.12532138386633618
920.0, 0.13841291482098966
921.0, 0.1486770625776773
922.0, 0.1450886558048937
923.0, 0.1407438229189404
924.0, 0.12089482841194023
925.0, 0.11778776331443035
926.0, 0.11998833922298957
927.0, 0.11863718647743944
928.0, 0.10980600377941749
929.0, 0.1113146942414978
930.0, 0.11492762266236878
931.0, 0.11155964606161417
932.0, 0.09873468315432779
933.0, 0.10005954423871248
934.0, 0.08495835591624808
935.0, 0.08486442058982026
936.0, 0.09529902079213931
937.0, 0.10131771929413327
938.0, 0.07441446986709875
939.0, 0.09894654365507266
940.0, 0.0947534839214466
941.0, 0.06842003854007223
942.0, 0.06529850164592518
943.0, 0.07847441211328476
944.0, 0.08561267616241265
945.0, 0.08948992243141676
946.0, 0.08658052248421529
947.0, 0.06768017654580905
948.0, 0.08357231191520623
949.0, 0.07818140755894809
950.0, 0.059708494575248815
951.0, 0.046194483676787884
952.0, 0.07318590296926675
953.0, 0.06204250636346885
954.0, 0.04581009487381284
955.0, 0.039333392797822164
956.0, 0.045218144119714365
957.0, 0.03943769536617821
958.0, 0.06283291484971178
959.0, 0.0637111373244915
960.0, 0.057865098599990804
961.0, 0.0647182973561285
962.0, 0.08561321294271063
963.0, 0.060313744823108195
964.0, 0.0543046615010864
965.0, 0.06279816884620876
966.0, 0.06754541680202204
967.0, 0.06327669584871153
968.0, 0.06711039441239844
969.0, 0.058338653916525214
970.0, 0.048850177627371066
971.0, 0.05830232836328386
972.0, 0.06880563990040423
973.0, 0.06581082886813337
974.0, 0.08124212160950205
975.0, 0.10243541358238771
976.0, 0.09848011706038444
977.0, 0.11577867864103235
978.0, 0.14086655900772754
979.0, 0.144570333781515
980.0, 0.15011850426188716
981.0, 0.21328654847166334
982.0, 0.22622562579756933
983.0, 0.22526943962844154
984.0, 0.2616572217345187
985.0, 0.29996087312505715
986.0, 0.22712239962271172
987.0, 0.2637269863984808
988.0, 0.27390725618041806
989.0, 0.24132928956531932
990.0, 0.19080932442300613
991.0, 0.19520250307850376
992.0, 0.16223457348607828
993.0, 0.15061788617350214
994.0, 0.14050286968537185
995.0, 0.12209320521227891
996.0, 0.10045379602130382
997.0, 0.10517190496899506
998.0, 0.101833319912907
999.0, 0.0929828045683233
1000.0, 0.07616992903941122
1001.0, 0.03783033817555469
1002.0, 0.07309382446942962
1003.0, 0.055516324542444484
1004.0, 0.03966180644000157
1005.0, 0.05093879961456483
1006.0, 0.04773503245870901
1007.0, 0.05346463869308567
1008.0, 0.047033557543553
1009.0, 0.035698729587749785
1010.0, 0.027206678267568844
1011.0, 0.027358364380770488
1012.0, 0.05017992558159724
1013.0, 0.057183043754004265
1014.0, 0.06011956130350543
1015.0, 0.060883136673119946
1016.0, 0.03276040861388482
1017.0, 0.04576455094309572
1018.0, 0.050309231080815156
1019.0, 0.052721861749448234
1020.0, 0.05190733773239059
1021.0, 0.021882267917146023
1022.0, 0.04826851498239269
1023.0, 0.07313774008936444
1024.0, 0.07539310658782883
1025.0, 0.06028378645224989
1026.0, 0.07985821868866763
1027.0, 0.06889465358066053
1028.0, 0.07270752166196365
1029.0, 0.07713219829145507
1030.0, 0.07319045125275396
1031.0, 0.06877607948406446
1032.0, 0.08732114461311359
1033.0, 0.07376509698714909
1034.0, 0.061210606165937036
1035.0, 0.0640372939037557
1036.0, 0.05666752069626767
1037.0, 0.06101015674611011
1038.0, 0.06390741726490055
1039.0, 0.06709130309732081
1040.0, 0.0716141335546547
1041.0, 0.07656025020603936
1042.0, 0.10454821523448639
1043.0, 0.08543669007612091
1044.0, 0.06671874615861614
1045.0, 0.07289962766278713
1046.0, 0.09529699675781256
1047.0, 0.07866057098407295
1048.0, 0.06897829055938878
1049.0, 0.07301588381681652
1050.0, 0.08962396776744305
1051.0, 0.10973998955094467
1052.0, 0.086243408036755
1053.0, 0.09538632023717837
1054.0, 0.09699214128260904
1055.0, 0.0847131098182659
1056.0, 0.07922524568063109
1057.0, 0.062107140493643916
1058.0, 0.0858096828756252
1059.0, 0.09521386676368652
1060.0, 0.08606209351153891
1061.0, 0.08317012095505431
1062.0, 0.06029739072447132
1063.0, 0.07101692135452572
1064.0, 0.07671152285747934
1065.0, 0.07366963958802597
1066.0, 0.07202371717685728
1067.0, 0.05974257203874938
1068.0, 0.04899355430122407
1069.0, 0.05041231906426917
1070.0, 0.05385196541751803
1071.0, 0.049050498174549394
1072.0, 0.06610053979711145
1073.0, 0.08619823952107654
1074.0, 0.08585499829176466
1075.0, 0.0849300657306283
1076.0, 0.10356985415011266
1077.0, 0.12739551966907195
1078.0, 0.10916465752103398
1079.0, 0.10660345409727177
1080.0, 0.11716134693416208
1081.0, 0.13043474265968208
1082.0, 0.13815828376457706
1083.0, 0.16738198740928806
1084.0, 0.17314895599819743
1085.0, 0.18667790180074065
1086.0, 0.21507894832777869
1087.0, 0.2203095985871646
1088.0, 0.2425357990066409
1089.0, 0.28401005766404974
1090.0, 0.31338645797808945
1091.0, 0.32703405560784227
1092.0, 0.3485181084056372
1093.0, 0.3787325838010426
1094.0, 0.3855132432595529
1095.0, 0.3687174961583496
1096.0, 0.3433964727129559
1097.0, 0.32728388992611224
1098.0, 0.2666306869611107
1099.0, 0.23046024017436553
1100.0, 0.19045935456788027
1101.0, 0.1544099770238038
1102.0, 0.13498054740895138
1103.0, 0.10795125574162495
1104.0, 0.10400220918253138
1105.0, 0.08338838413988393
1106.0, 0.06873587374390369
1107.0, 0.07166205221075646
1108.0, 0.04369969873836311
1109.0, 0.05589055097888414
1110.0, 0.044531412564992094
1111.0, 0.04613175721707527
1112.0, 0.06361307172659916
1113.0, 0.04061444145954018
1114.0, 0.009361857149610074
1115.0, 0.020410825168543145
1116.0, 0.027158239839067826
1117.0, 0.020550371914082134
1118.0, 0.02175393737114748
1119.0, 0.027899842826977
1120.0, 0.03180316798320325
1121.0, 0.027421406403847128
1122.0, 0.026038519215696446
1123.0, 0.03882490302305294
1124.0, 0.036674082558420654
1125.0, 0.021541390191080576
1126.0, 0.027246858781662532
1127.0, 0.026762460379877083
1128.0, 0.007344373378366406
1129.0, 0.02270169209441958
1130.0, 0.014253881487758207
1131.0, 0.005064859333077569
1132.0, 0.008487808394180826
1133.0, 0.020029561028883595
1134.0, 0.015260787895445885
1135.0, 0.003055623165825295
1136.0, 0.01243209353198045
1137.0, 0.029420039800380306
1138.0, 0.03926598609568113
1139.0, 0.03119901772924181
1140.0, 0.025291376078254275
1141.0, 0.009086777591821974
1142.0, 0.005115862622357438
1143.0, 0.005392244919939407
1144.0, 0.001684487299742547
1145.0, 0.011575692525651864
1146.0, 0.003674555246996298
1147.0, 0.007774461153111816
1148.0, 0.014464436443488118
1149.0, 0.015831108082955722
1150.0, 0.011690847779748263
1151.0, 0.010483547653526631
1152.0, 0.016403952251385363
1153.0, 0.01155153724855334
1154.0, 0.0020916020085216544
1155.0, 0.006444318791977892
1156.0, 0.021440573615381806
1157.0, 0.03475140025632364
1158.0, 0.021996958861322514
1159.0, 0.004200654595633371
1160.0, 0.0030857179597314197
1161.0, 0.010316343094725504
1162.0, 0.019840621392533717
1163.0, 0.019514046355299262
1164.0, 0.01633593017397627
1165.0, 0.016648487629702724
1166.0, 0.023951540636401873
1167.0, 0.04198866609722864
1168.0, 0.035208987772939605
1169.0, 0.03193641427847437
1170.0, 0.0292162223102733
1171.0, 0.015697122854236224
1172.0, 0.009890041136890695
1173.0, 0.010491248104727667
1174.0, 0.014176687408506092
1175.0, 0.03118683458068342
1176.0, 0.055767035314822244
1177.0, 0.05245776749719544
1178.0, 0.03663698279230668
1179.0, 0.027616366040746698
1180.0, 0.021522931020775533
1181.0, 0.014155625662187121
1182.0, 0.004164521230590525
1183.0, 0.011380404604989177
1184.0, 0.0357081574001836
1185.0, 0.03637833940535086
1186.0, 0.03157774821016772
1187.0, 0.03724903089127641
1188.0, 0.02995393277096679
1189.0, 0.03955245279922025
1190.0, 0.04682665734473046
1191.0, 0.046121196787338725
1192.0, 0.03935649777048494
1193.0, 0.035490899640979415
1194.0, 0.0563510202443385
1195.0, 0.040119397551656215
1196.0, 0.034889241495729625
1197.0, 0.03393118331425416
1198.0, 0.028048754303351072
1199.0, 0.045646322621959584
1200.0, 0.030861166489019792
1201.0, 0.051162950065164775
1202.0, 0.057540207130933926
1203.0, 0.04881049939306305
1204.0, 0.06761559422569176
1205.0, 0.06611145559125675
1206.0, 0.05902504193429253
1207.0, 0.05375095681041942
1208.0, 0.04908697087132428
1209.0, 0.04311189665241037
1210.0, 0.03911122606589322
1211.0, 0.03176170605825729
1212.0, 0.033712717228512754
1213.0, 0.0357775017958332
1214.0, 0.03802974896682318
1215.0, 0.04695435026008091
1216.0, 0.03939965562434122
1217.0, 0.04906366340373466
1218.0, 0.040463518494305364
1219.0, 0.04012512207565047
1220.0, 0.061258710020956356
1221.0, 0.049919149051179966
1222.0, 0.05227488841647031
1223.0, 0.06280633330481092
1224.0, 0.04777212198562161
1225.0, 0.025762157362557592
1226.0, 0.04365616678580683
1227.0, 0.08129105054500768
1228.0, 0.05161146595081643
1229.0, 0.030841897663733794
1230.0, 0.03891604622459244
1231.0, 0.06184371746364614
1232.0, 0.05111063179943956
1233.0, 0.05334249943880869
1234.0, 0.03196978406272035
1235.0, 0.035141176702458955
1236.0, 0.05012849913510972
1237.0, 0.04212621203182976
1238.0, 0.02018380951581343
1239.0, 0.046029502294227795
1240.0, 0.041057576976820935
1241.0, 0.03864029792105657
1242.0, 0.05173781405564817
1243.0, 0.056575788060807326
1244.0, 0.05097425802126733
1245.0, 0.047912207722171286
1246.0, 0.030289673553937607
1247.0, 0.03438211845978473
1248.0, 0.07284993377598184
1249.0, 0.06535837630625509
1250.0, 0.02329013455745096
1251.0, 0.03923162051878218
1252.0, 0.0502410249530114
1253.0, 0.04667450148078415
1254.0, 0.05264410173282304
1255.0, 0.05279744769195839
1256.0, 0.05026452462418732
1257.0, 0.04391789599786001
1258.0, 0.027834282191409095
1259.0, 0.010612175683734473
1260.0, 0.0171411765633385
1261.0, 0.046598753746582955
1262.0, 0.02714120831207379
1263.0, 0.02905582201156214
1264.0, 0.0442120226493876
1265.0, 0.04803990727028691
1266.0, 0.04174946744884662
1267.0, 0.03235407458435934
1268.0, 0.047867103081651416
1269.0, 0.05111672303206881
1270.0, 0.04491245821924583
1271.0, 0.047716133511546986
1272.0, 0.02676671324073638
1273.0, 0.03296626308351344
1274.0, 0.030794459246682514
1275.0, 0.025935568960120944
1276.0, 0.02513393859972662
1277.0, 0.030318809361646798
1278.0, 0.040790286943162904
1279.0, 0.01842307571294834
1280.0, 0.02662515397496099
1281.0, 0.03477712901871517
1282.0, 0.026093424977109536
1283.0, 0.042855881061722396
1284.0, 0.04195870318242129
1285.0, 0.023163834087342093
1286.0, 0.03340794984988331
1287.0, 0.04354356846364252
1288.0, 0.024225799416729074
1289.0, 0.030178433756242195
1290.0, 0.04375346743158938
1291.0, 0.028806367273739884
1292.0, 0.03014847311536648
1293.0, 0.03638486553376459
1294.0, 0.016164128019874557
1295.0, 0.017694036914170548
1296.0, 0.010714044883601455
1297.0, 0.0198825944430349
1298.0, 0.02493312819592259
1299.0, 0.018667506404152965
1300.0, 0.011352826681431121
1301.0, 0.016493406918684707
1302.0, 0.009655668199238344
1303.0, 0.02567326491512113
1304.0, 0.030904220696203268
1305.0, 0.01660613771528804
1306.0, 0.01665284536043862
1307.0, 0.007677782336248545
1308.0, 0.014510891021562142
1309.0, 0.02493634098274781
1310.0, 0.024645872954296898
1311.0, 0.016847991664729056
1312.0, 0.030392613377700703
1313.0, 0.008548955771690904
1314.0, 0.011878595968365031
1315.0, 0.023547802945705833
1316.0, 0.03903699698551142
1317.0, 0.046657835845498236
1318.0, 0.012365473227387075
1319.0, 0.02120812131500937
1320.0, 0.011486944747083176
1321.0, 0.02396518401350623
1322.0, 0.03158852494406634
1323.0, 0.00935741500496294
1324.0, 0.02196018195631857
1325.0, 0.010951383048957992
1326.0, 0.006771742413774402
1327.0, 0.021429384965842593
1328.0, 0.03733548518237709
1329.0, 0.03408965576362122
1330.0, 0.033723119504231146
1331.0, 0.020319017380348695
1332.0, 0.01978193523083741
1333.0, 0.017977848023299263
1334.0, 0.010400452698469695
1335.0, 0.0037084078407045046
1336.0, 0.015444146805438562
1337.0, 0.02602085924324744
1338.0, 0.015380993319437854
1339.0, 0.01560264994936224
1340.0, 0.02385287762622397
1341.0, 0.01996184507968025
1342.0, 0.030277916371706733
1343.0, 0.01896403939680018
1344.0, 0.022512172874672567
1345.0, 0.025753046470158397
1346.0, 0.03364712248535285
1347.0, 0.05284673795621608
1348.0, 0.013849922075766057
1349.0, 0.046821847496789686
1350.0, 0.052359195955854226
1351.0, 0.056568925848888736
1352.0, 0.06765308496505343
1353.0, 0.06869477621349492
1354.0, 0.03766305564858527
1355.0, 0.051593230262671555
1356.0, 0.05757904240428475
1357.0, 0.039449382989740815
1358.0, 0.02605355559451565
1359.0, 0.0543478557766633
1360.0, 0.06319335014453613
1361.0, 0.04118192551414192
1362.0, 0.053027574552562066
1363.0, 0.05244941134094969
1364.0, 0.04287778594322975
1365.0, 0.05668536790289954
1366.0, 0.06270414479443254
1367.0, 0.03567039700492979
1368.0, 0.04252792357563519
1369.0, 0.05985967065532773
1370.0, 0.06691564995503627
1371.0, 0.057104708716281684
1372.0, 0.044552660417266896
1373.0, 0.07271510040567747
1374.0, 0.07291647605963929
1375.0, 0.0594082325717363
1376.0, 0.05547498841703799
1377.0, 0.06611791336979772
1378.0, 0.03955291589827492
1379.0, 0.03402051404296456
1380.0, 0.019299003739135803
1381.0, 0.02942471240731573
1382.0, 0.04458995513512898
1383.0, 0.03749536920486753
1384.0, 0.034758987697365525
1385.0, 0.06916882949910011
1386.0, 0.07273592799482388
1387.0, 0.07392240758139755
1388.0, 0.06732443214819293
1389.0, 0.054884767296671
1390.0, 0.07827822269749886
1391.0, 0.06431821976807607
1392.0, 0.07554516527516329
1393.0, 0.07160602325399694
1394.0, 0.05831016373554975
1395.0, 0.05381328944576444
1396.0, 0.06498936148352795
1397.0, 0.03970031981118086
1398.0, 0.06214621122919686
1399.0, 0.05969502658951203
1400.0, 0.0534784316222127
1401.0, 0.05993788723134353
1402.0, 0.06322750830927341
1403.0, 0.06665575481116595
1404.0, 0.07048684313639897
1405.0, 0.04186915317011245
1406.0, 0.030325534175674976
1407.0, 0.05207670389384059
1408.0, 0.07213872071298537
1409.0, 0.022807155169004587
1410.0, 0.030155651170391283
1411.0, 0.05639831621584044
1412.0, 0.038175283400164996
1413.0, 0.020979280158926847
1414.0, 0.06563114532774894
1415.0, 0.061827041016609144
1416.0, 0.05827544501536337
1417.0, 0.04065212012325024
1418.0, 0.047499950748278175
1419.0, 0.04795003819868955
1420.0, 0.025080684329949525
1421.0, 0.04521753804058376
1422.0, 0.013646706835056845
1423.0, 0.03736510318463399
1424.0, 0.04247523544601172
1425.0, 0.03274158368622184
1426.0, 0.028705640540104986
1427.0, 0.03833653889357329
1428.0, 0.054653954662036694
1429.0, 0.06259149734990668
1430.0, 0.038034606079758594
1431.0, 0.02908742963393581
1432.0, 0.03481786170155241
1433.0, 0.019744547971697696
1434.0, 0.024089962992270633
1435.0, 0.045571869843266596
1436.0, 0.04493521698215004
1437.0, 0.05995397734175908
1438.0, 0.08169439243263124
1439.0, 0.08002082975040371
1440.0, 0.046127836365757104
1441.0, 0.03881558227551355
1442.0, 0.050640217909678785
1443.0, 0.05998093863739348
1444.0, 0.05439517650973919
1445.0, 0.04887015555604564
1446.0, 0.07374451670644278
1447.0, 0.035638869737770806
1448.0, 0.05851632421984403
1449.0, 0.06244373415197661
1450.0, 0.057950361883298177
1451.0, 0.040066171942882506
1452.0, 0.012987122386425416
1453.0, 0.0907881810828114
1454.0, 0.06677631869588004
1455.0, 0.05081484037291389
1456.0, 0.07070676361976705
1457.0, 0.07149579592643526
1458.0, 0.037490981206079965
1459.0, 0.07328772054970441
1460.0, 0.08221390744289105
1461.0, 0.03838485865820071
1462.0, 0.05941988637814913
1463.0, 0.06888221420993354
1464.0, 0.039588129569207084
1465.0, 0.03241620051555822
1466.0, 0.0699027389745806
1467.0, 0.0358923082481126
1468.0, 0.062438496567946096
1469.0, 0.06239343746059056
1470.0, 0.042342479657751654
1471.0, 0.0439107240192305
1472.0, 0.05255946030109321
1473.0, 0.05946872918482839
1474.0, 0.05819662701656147
1475.0, 0.06434740322436291
1476.0, 0.062302463835986234
1477.0, 0.04610441949240268
1478.0, 0.02910792473354136
1479.0, 0.023847281406444553
1480.0, 0.024079669758790993
1481.0, 0.015339098378911753
1482.0, 0.04022309348441808
1483.0, 0.052884137971482226
1484.0, 0.02363387261890537
1485.0, 0.0445873039635553
1486.0, 0.035077387752944306
1487.0, 0.027349569996431015
1488.0, 0.015921972147336823
1489.0, 0.0384191013382323
1490.0, 0.060411178275401135
1491.0, 0.018579497341946367
1492.0, 0.04856433677738464
1493.0, 0.009821299121859922
1494.0, 0.026394263938609722
1495.0, 0.038940637107052485
1496.0, 0.024830396991563197
1497.0, 0.0003447829551180218
1498, 0.0
1499, 0.0
1500, 0.0
1501, 0.0
1502, 0.0
1503, 0.0
1504, 0.0
1505, 0.0
1506, 0.0
1507, 0.0
1508, 0.0
1509, 0.0
1510, 0.0
1511, 0.0
1512, 0.0
1513, 0.0
1514, 0.0
1515, 0.0
1516, 0.0
1517, 0.0
1518, 0.0
1519, 0.0
1520, 0.0
1521, 0.0
1522, 0.0
1523, 0.0
1524, 0.0
1525, 0.0
1526, 0.0
1527, 0.0
1528, 0.0
1529, 0.0
1530, 0.0
1531, 0.0
1532, 0.0
1533, 0.0
1534, 0.0
1535, 0.0
1536, 0.0
1537, 0.0
1538, 0.0
1539, 0.0
1540, 0.0
1541, 0.0
1542, 0.0
1543, 0.0
1544, 0.0
1545, 0.0
1546, 0.0
1547, 0.0
1548, 0.0
1549, 0.0
1550, 0.0
1551, 0.0
1552, 0.0
1553, 0.0
1554, 0.0
1555, 0.0
1556, 0.0
1557, 0.0
1558, 0.0
1559, 0.0
1560, 0.0
1561, 0.0
1562, 0.0
1563, 0.0
1564, 0.0
1565, 0.0
1566, 0.0
1567, 0.0
1568, 0.0
1569, 0.0
1570, 0.0
1571, 0.0
1572, 0.0
1573, 0.0
1574, 0.0
1575, 0.0
1576, 0.0
1577, 0.0
1578, 0.0
1579, 0.0
1580, 0.0
1581, 0.0
1582, 0.0
1583, 0.0
1584, 0.0
1585, 0.0
1586, 0.0
1587, 0.0
1588, 0.0
1589, 0.0
1590, 0.0
1591, 0.0
1592, 0.0
1593, 0.0
1594, 0.0
1595, 0.0
1596, 0.0
1597, 0.0
1598, 0.0
1599, 0.0
