30, 0.0
31, 0.0
32, 0.0
33, 0.0
34, 0.0
35, 0.0
36, 0.0
37, 0.0
38, 0.0
39, 0.0
40, 0.0
41, 0.0
42, 0.0
43, 0.0
44, 0.0
45, 0.0
46, 0.0
47, 0.0
48, 0.0
49, 0.0
50, 0.0
51, 0.0
52, 0.0
53, 0.0
54, 0.0
55, 0.0
56, 0.0
57, 0.0
58, 0.0
59, 0.0
60, 0.0
61, 0.0
62, 0.0
63, 0.0
64, 0.0
65, 0.0
66, 0.0
67, 0.0
68, 0.0
69, 0.0
70, 0.0
71, 0.0
72, 0.0
73, 0.0
74, 0.0
75, 0.0
76, 0.0
77, 0.0
78, 0.0
79, 0.0
80, 0.0
81, 0.0
82, 0.0
83, 0.0
84, 0.0
85, 0.0
86, 0.0
87, 0.0
88, 0.0
89, 0.0
90, 0.0
91, 0.0
92, 0.0
93, 0.0
94, 0.0
95, 0.0
96, 0.0
97, 0.0
98, 0.0
99, 0.0
100, 0.0
101, 0.0
102, 0.0
103, 0.0
104, 0.0
105, 0.0
106, 0.0
107, 0.0
108, 0.0
109, 0.0
110, 0.0
111, 0.0
112, 0.0
113, 0.0
114, 0.0
115, 0.0
116, 0.0
117, 0.0
118, 0.0
119, 0.0
120, 0.0
121, 0.0
122, 0.0
123, 0.0
124, 0.0
125, 0.0
126, 0.0
127, 0.0
128, 0.0
129, 0.0
130, 0.0
131, 0.0
132, 0.0
133, 0.0
134, 0.0
135, 0.0
136, 0.0
137, 0.0
138, 0.0
139, 0.0
140, 0.0
141, 0.0
142, 0.0
143, 0.0
144, 0.0
145, 0.0
146, 0.0
147, 0.0
148, 0.0
149, 0.0
150.0, 9.494257357842922e-06
151.0, 0.0003593364301018879
152.0, 0.0023508709254667875
153.0, 0.003651711137878333
154.0, 0.002356287883722664
155.0, 0.0011083788853658671
156.0, 0.003427335636769684
157.0, 0.004100103183911262
158.0, 0.0007302049612801502
159.0, 0.00029700930428278917
160.0, 0.002356405222790866
161.0, 0.0033947965548580825
162.0, 0.0017424012369039645
163.0, 0.0008246034997739825
164.0, 0.004560182442232932
165.0, 0.004891386772985816
166.0, 0.00408392247140962
167.0, 0.0062991923317755084
168.0, 0.006151407063800064
169.0, 0.009693796984255605
170.0, 0.010351238863823269
171.0, 0.007107112129378562
172.0, 0.009926276792063033
173.0, 0.00987641823828426
174.0, 0.0080439982477486
175.0, 0.007809284589713178
176.0, 0.011128376428413042
177.0, 0.008426634137405044
178.0, 0.008339580052510967
179.0, 0.010220065819687554
180.0, 0.009740136965562682
181.0, 0.01031785144787199
182.0, 0.009877764332993403
183.0, 0.008282752923194291
184.0, 0.006911842501522749
185.0, 0.010297199065418676
186.0, 0.010004206678045883
187.0, 0.008772566360106078
188.0, 0.007964236815653716
189.0, 0.00749317793836488
190.0, 0.00869417745238192
191.0, 0.006700625688583501
192.0, 0.003884749311965074
193.0, 0.0032164712273521725
194.0, 0.0032296424828941414
195.0, 0.006779077625983773
196.0, 0.006839832846994949
197.0, 0.0035534794241483254
198.0, 0.0032904536624093284
199.0, 0.001632834001264473
200.0, 0.0009306146313656641
201.0, 0.0008690685581850375
202.0, 0.000719406959528832
203.0, 0.0017279552177076182
204.0, 0.004411193833134567
205.0, 0.005097552030202388
206.0, 0.003284746756871387
207.0, 0.0030666663273372073
208.0, 0.004695113573357478
209.0, 0.007740207277445853
210.0, 0.008749348529040595
211.0, 0.0054200556610349265
212.0, 0.006302046564324815
213.0, 0.01159917221293303
214.0, 0.013276210407815998
215.0, 0.010013160416915768
216.0, 0.013128668611578317
217.0, 0.016559622014870795
218.0, 0.01793922343225782
219.0, 0.017508234815465935
220.0, 0.017596250764170603
221.0, 0.018965750646032124
222.0, 0.018696265126705754
223.0, 0.017901905436987112
224.0, 0.017970251737197473
225.0, 0.01925832826135941
226.0, 0.023331216216103276
227.0, 0.025175478352569117
228.0, 0.025038372192854652
229.0, 0.025710122205443532
230.0, 0.025862885830208276
231.0, 0.025215944978883225
232.0, 0.02628918047907577
233.0, 0.029207189051761104
234.0, 0.030316958477055966
235.0, 0.030282826141628156
236.0, 0.027555793999269957
237.0, 0.025567962606951433
238.0, 0.028528724761394463
239.0, 0.026951958109065036
240.0, 0.025704814166972723
241.0, 0.0254161732587777
242.0, 0.025348726723393403
243.0, 0.0241233600988554
244.0, 0.021044276724850274
245.0, 0.019185230720330293
246.0, 0.01756311102725389
247.0, 0.014681898902508804
248.0, 0.014932982838706869
249.0, 0.01437336497523753
250.0, 0.013208522844873226
251.0, 0.011736013858709721
252.0, 0.009101404771094033
253.0, 0.006881078227533055
254.0, 0.0034457976322122275
255.0, 0.0015629319805111402
256.0, 0.0032138656434158703
257.0, 0.0025662487881745986
258.0, 0.002835359797289717
259.0, 0.0017493179472655252
260.0, 0.0005149175816827271
261.0, 0.001036673186736003
262.0, 0.0011496832536220512
263.0, 0.0011247192123502378
264.0, 0.0028171855059538507
265.0, 0.0066196109175669475
266.0, 0.00905788679642875
267.0, 0.006087817562579943
268.0, 0.003219770679464832
269.0, 0.0031102339225012672
270.0, 0.004566497809596456
271.0, 0.004400402803336249
272.0, 0.00280787941093876
273.0, 0.0019497288492744914
274.0, 0.0029151951185019975
275.0, 0.004974796821975842
276.0, 0.0010773240269698566
277.0, 0.0005518231241450194
278.0, 0.0011309449790527528
279.0, 0.0014142204331444473
280.0, 9.457197002309421e-05
281.0, 0.0019995138101337943
282.0, 0.004477106460526201
283.0, 0.006203715764834871
284.0, 0.008793460024794284
285.0, 0.012332145189786273
286.0, 0.012850071541673135
287.0, 0.014902639328764128
288.0, 0.020916321102278673
289.0, 0.02644181398554977
290.0, 0.029421162940170244
291.0, 0.03270321649699705
292.0, 0.03811441245675723
293.0, 0.04473101186361404
294.0, 0.047540007667024015
295.0, 0.05109666100104004
296.0, 0.056627195458095164
297.0, 0.0639356615628013
298.0, 0.07150427619961525
299.0, 0.07586033436052479
300.0, 0.08440578896843444
301.0, 0.09206459351183029
302.0, 0.09755255591436658
303.0, 0.10776966957152911
304.0, 0.11873565188971534
305.0, 0.1300644968257512
306.0, 0.14079946351097675
307.0, 0.15193122314258042
308.0, 0.1686506282927327
309.0, 0.18157352028331947
310.0, 0.19309389931534354
311.0, 0.20532649392280247
312.0, 0.2189026899390737
313.0, 0.23643616702214312
314.0, 0.2548396021532423
315.0, 0.2707962607996416
316.0, 0.28720607016095595
317.0, 0.3092822442205696
318.0, 0.3261938152826207
319.0, 0.35086308273173517
320.0, 0.3754009363162101
321.0, 0.3959964360232916
322.0, 0.42307951088103984
323.0, 0.4517015251173561
324.0, 0.48238981369308526
325.0, 0.5108588934183882
326.0, 0.5362426961080378
327.0, 0.5697440235516497
328.0, 0.6066484615005554
329.0, 0.6429778566214432
330.0, 0.6783985549505135
331.0, 0.7138040193321917
332.0, 0.7474949881154727
333.0, 0.787269175868638
334.0, 0.8281995988641588
335.0, 0.8640675904306222
336.0, 0.8923055834731479
337.0, 0.9227298574408646
338.0, 0.9473985343993008
339.0, 0.9688590753103296
340.0, 0.9877667915944626
341.0, 0.9979704109073011
342.0, 0.9995864298108594
343.0, 0.9964596963805821
344.0, 0.9878112146244427
345.0, 0.97148180135246
346.0, 0.9469501928492358
347.0, 0.9225431296084907
348.0, 0.8902961790464546
349.0, 0.853529950260982
350.0, 0.8193717032531284
351.0, 0.786730320036739
352.0, 0.7466380128293654
353.0, 0.7007247770274575
354.0, 0.6549327660585141
355.0, 0.6138883514634029
356.0, 0.5772558657489325
357.0, 0.5382562386439589
358.0, 0.5024602835988018
359.0, 0.4694270554859379
360.0, 0.43413538533414286
361.0, 0.3998964077335675
362.0, 0.371644376405236
363.0, 0.3482354664269904
364.0, 0.32684102845093654
365.0, 0.3058808490684984
366.0, 0.288965815940169
367.0, 0.2684354821926861
368.0, 0.25267153583002294
369.0, 0.24125396405957264
370.0, 0.22399817452009047
371.0, 0.2120634504877616
372.0, 0.20411227133303078
373.0, 0.19138748214979218
374.0, 0.17587635622405506
375.0, 0.171766104599203
376.0, 0.16482869916630213
377.0, 0.15950397183494616
378.0, 0.15156483219484898
379.0, 0.14098237731585922
380.0, 0.13618477379837002
381.0, 0.127473862552278
382.0, 0.11835144298702881
383.0, 0.10970008714076329
384.0, 0.1017324179271434
385.0, 0.09603543721497795
386.0, 0.08791027344402794
387.0, 0.07949526970919353
388.0, 0.0722655684603166
389.0, 0.066160363932991
390.0, 0.05992138096907544
391.0, 0.05475430243896811
392.0, 0.04914419020731642
393.0, 0.04428165379315892
394.0, 0.04161214618995257
395.0, 0.04011686516573332
396.0, 0.03493112555928551
397.0, 0.030990301463571
398.0, 0.025718320466418986
399.0, 0.01881870067041381
400.0, 0.019333103659738428
401.0, 0.018652030562386252
402.0, 0.016140078767458862
403.0, 0.012355500154368914
404.0, 0.008210461936011094
405.0, 0.005399406876884239
406.0, 0.009157272095420162
407.0, 0.009623905127310688
408.0, 0.006652825119302024
409.0, 0.004591329737069513
410.0, 0.00375661962884591
411.0, 0.0005778411753912577
412.0, 0.0007447385555025278
413.0, 0.0007319767920991539
414.0, 0.001160027054654894
415.0, 0.0012597216782280578
416.0, 0.0010242892940928714
417.0, 0.0006829917894472691
418.0, 0.0006121677308354857
419.0, 0.0007490581394194566
420.0, 0.0009051375035416153
421.0, 0.0036050738727660624
422.0, 0.002818953674416061
423.0, 0.0016683966994551422
424.0, 0.000748149378244632
425.0, 0.005055045968500433
426.0, 0.003070199710712671
427.0, 0.0018232793082331106
428.0, 0.0034445848570839157
429.0, 0.005841908696540564
430.0, 0.005398110732866111
431.0, 0.007251892195291179
432.0, 0.005582440829639112
433.0, 0.0054456101327303155
434.0, 0.010023511090208496
435.0, 0.015070668846572698
436.0, 0.014073298420696913
437.0, 0.011924588263340865
438.0, 0.013065475884437008
439.0, 0.015573809113796716
440.0, 0.015044956727012811
441.0, 0.01381593687797561
442.0, 0.011848504727628899
443.0, 0.012130380360028458
444.0, 0.01330031232941184
445.0, 0.012781331556726772
446.0, 0.014079030679723558
447.0, 0.011494598901157017
448.0, 0.011307823688206516
449.0, 0.0122708372722396
450.0, 0.011539213455528908
451.0, 0.015044759256084499
452.0, 0.01701812905859969
453.0, 0.014901011108235723
454.0, 0.009981125515992813
455.0, 0.005016098023955064
456.0, 0.002987249630145984
457.0, 0.000810839342365211
458.0, 0.0020749755498501456
459.0, 0.0035980284830512575
460.0, 0.004690109808488289
461.0, 0.00807479316919046
462.0, 0.007637088922162854
463.0, 0.005656565697365858
464.0, 0.004003452319741591
465.0, 0.003500040783655272
466.0, 0.0038929316837698425
467.0, 0.0007965493693685086
468.0, 0.0022067608599659312
469.0, 0.0018499260113016896
470.0, 0.0011113998734685131
471.0, 0.004508308731249941
472.0, 0.007255983954977437
473.0, 0.007298685797752607
474.0, 0.008108751652654296
475.0, 0.011739475494728415
476.0, 0.015590729923595798
477.0, 0.014774477285879321
478.0, 0.01680369294416681
479.0, 0.02059819084862538
480.0, 0.02316059353219105
481.0, 0.025342975469083547
482.0, 0.030257466753887106
483.0, 0.0329684168923137
484.0, 0.03509682361393925
485.0, 0.03821666314811408
486.0, 0.04192495951381332
487.0, 0.0443904264430702
488.0, 0.0456584392678065
489.0, 0.04937774661243949
490.0, 0.05396025709735586
491.0, 0.05738959747058046
492.0, 0.059431360220636865
493.0, 0.06376145194655455
494.0, 0.07045184795327557
495.0, 0.07575749437264283
496.0, 0.07747622188845564
497.0, 0.07679069881884747
498.0, 0.07656755006924258
499.0, 0.07038170573482792
500.0, 0.06496607071487606
501.0, 0.060393314878504696
502.0, 0.055281696985689625
503.0, 0.05014604257277723
504.0, 0.04575454519543713
505.0, 0.04080956058386057
506.0, 0.037566357972256305
507.0, 0.03561521655753679
508.0, 0.03352174910357557
509.0, 0.031068076197685285
510.0, 0.028504268253433218
511.0, 0.027867335127946372
512.0, 0.028140357860713096
513.0, 0.02729350892982922
514.0, 0.02513317650897814
515.0, 0.024579491979284787
516.0, 0.023156260304543284
517.0, 0.022034157929297624
518.0, 0.02189177538547264
519.0, 0.020704138698496705
520.0, 0.014055809112676043
521.0, 0.01436672452741852
522.0, 0.011468766017489522
523.0, 0.007698121032157407
524.0, 0.007457244955411514
525.0, 0.008280337318952101
526.0, 0.007582243383087915
527.0, 0.007326295774069982
528.0, 0.005923639863664941
529.0, 0.003997440088819549
530.0, 0.003811645077795336
531.0, 0.004940344620187491
532.0, 0.004422482066490944
533.0, 0.0035361162013374794
534.0, 0.0028718305299147554
535.0, 0.001993046598475834
536.0, 0.00011284269564835525
537.0, 0.001784657615812586
538.0, 0.0005520281279377892
539.0, 0.0010852263939291834
540.0, 0.0031994338710396005
541.0, 0.002169322824732702
542.0, 0.0025744851380927153
543.0, 0.0005110247177882242
544.0, 0.0006192179862838899
545.0, 0.0022881128707085193
546.0, 0.0024299440661808293
547.0, 0.0006941257562924776
548.0, 0.0012959029977041867
549.0, 0.00022980483323095766
550.0, 0.001798674964521909
551.0, 0.0021793605127689943
552.0, 0.0030235215190516137
553.0, 0.004941708200651173
554.0, 0.004503084881521904
555.0, 0.003838080057090118
556.0, 0.003401200048299266
557.0, 0.0026654337598179946
558.0, 0.0023830142466129637
559.0, 0.004740313644700769
560.0, 0.0034866019048623176
561.0, 0.0031442601081413156
562.0, 0.0025859035374602886
563.0, 0.00034867673614623145
564.0, 0.002836830076351387
565.0, 0.004877344176912157
566.0, 0.0038363520847196878
567.0, 0.004406557139290776
568.0, 0.006397597397206587
569.0, 0.0050386472903009676
570.0, 0.005456451622093213
571.0, 0.007303758893066039
572.0, 0.008088699370902248
573.0, 0.008007096215912267
574.0, 0.00860817427362119
575.0, 0.010628392248058168
576.0, 0.011094776549170867
577.0, 0.011668953275810157
578.0, 0.01265728130091247
579.0, 0.012414287685157465
580.0, 0.010154031713354765
581.0, 0.009529926647817802
582.0, 0.011169607464628856
583.0, 0.010848547877105243
584.0, 0.009241569950235578
585.0, 0.009152778464649954
586.0, 0.010506476685061942
587.0, 0.008360683513198252
588.0, 0.005611425275985367
589.0, 0.007353886891933661
590.0, 0.008528383591437469
591.0, 0.006767649669143713
592.0, 0.007038426692514894
593.0, 0.004412521690555516
594.0, 0.0029639289172171137
595.0, 0.0031646317253894536
596.0, 0.00424944334286341
597.0, 0.005409325456706305
598.0, 0.005745437596497735
599.0, 0.006947707776339095
600.0, 0.006150618206598322
601.0, 0.005689578444277634
602.0, 0.005557240435178557
603.0, 0.004397962030935295
604.0, 0.004542383893590216
605.0, 0.003884556064375352
606.0, 0.005425895133446929
607.0, 0.005586518695813698
608.0, 0.003716581113930726
609.0, 0.0032662466384763052
610.0, 0.0030247371969379607
611.0, 0.005435821712813711
612.0, 0.006169381136618344
613.0, 0.004832016080067818
614.0, 0.0033422169409281217
615.0, 0.003413895793420516
616.0, 0.007780853309398327
617.0, 0.006946227833607261
618.0, 0.005275362895170358
619.0, 0.004770420441830161
620.0, 0.004442490670556914
621.0, 0.003989612974392242
622.0, 0.006644842909047293
623.0, 0.006284292259757229
624.0, 0.0062939472282174695
625.0, 0.007591157261151439
626.0, 0.008020491203332534
627.0, 0.005970275335132974
628.0, 0.003773734125261081
629.0, 0.007326924442325154
630.0, 0.009410370945210089
631.0, 0.008802732107406732
632.0, 0.008129261484707929
633.0, 0.008120682783009871
634.0, 0.00998185945559058
635.0, 0.007870709747659903
636.0, 0.008409921880171957
637.0, 0.009624485154429143
638.0, 0.008992909307804865
639.0, 0.012045482787981801
640.0, 0.009422093011689933
641.0, 0.012161698256276738
642.0, 0.012951429934216004
643.0, 0.010042374827065843
644.0, 0.008189357826580364
645.0, 0.008842732698838169
646.0, 0.007846270006785588
647.0, 0.007042248048553167
648.0, 0.007841331300514122
649.0, 0.008143191010801446
650.0, 0.006920889142138381
651.0, 0.007003372536617993
652.0, 0.00610763494571634
653.0, 0.0067908490981771754
654.0, 0.005205940783938267
655.0, 0.0038821108906121264
656.0, 0.005298613749033099
657.0, 0.005411064883390831
658.0, 0.007167834098862783
659.0, 0.004361566579496109
660.0, 0.0037737630094577695
661.0, 0.00519848950148989
662.0, 0.005583633345912406
663.0, 0.006052756315865042
664.0, 0.003832411996781814
665.0, 0.003505759772608007
666.0, 0.005214285709391054
667.0, 0.004163279391801254
668.0, 0.0013268088609503406
669.0, 0.003980252871669729
670.0, 0.002324211281997631
671.0, 0.0010628213053309285
672.0, 0.002190398631693258
673.0, 0.003607028600939138
674.0, 0.004292335760753254
675.0, 0.005116790295905924
676.0, 0.0030344359707135454
677.0, 0.0025837079799624512
678.0, 0.0032290527360813613
679.0, 0.0027755297163185766
680.0, 0.0016062119147552865
681.0, 0.001146220833751075
682.0, 0.0005081758242710303
683.0, 0.0002896844273740027
684.0, 0.00034442684230991105
685.0, 0.00024226008514821937
686.0, 0.00021830462975158126
687.0, 0.0005958901983476867
688.0, 0.0014134741434602032
689.0, 0.0007889429489148154
690.0, 0.0007761230106765559
691.0, 0.0005669307166881689
692.0, 0.00015700641284439166
693.0, 0.0011856948978214525
694.0, 0.0013482773668764359
695.0, 0.0011248375997056279
696.0, 0.000684034427820047
697.0, 0.0034249731410837224
698.0, 0.0019491694886299748
699.0, 0.0021411375129428327
700.0, 0.0028971473663603883
701.0, 0.0034301827735710145
702.0, 0.003593683323741015
703.0, 0.003660823665059529
704.0, 0.003141381401999268
705.0, 0.0024684054765348735
706.0, 0.002312641925232054
707.0, 0.002646482770567937
708.0, 0.002207174644938881
709.0, 0.0007804436156275587
710.0, 0.001690883694779368
711.0, 0.004227971352679329
712.0, 0.004515127782779484
713.0, 0.001193418687335544
714.0, 0.00037092434820892194
715.0, 0.0007234613747879507
716.0, 0.0011539531147182168
717.0, 0.0007221389943534956
718.0, 0.0009890702472347209
719.0, 0.0013854446277473836
720.0, 0.0015135369159547396
721.0, 0.0003942674235335525
722.0, 0.0017611360320700289
723.0, 0.0017594334864034368
724.0, 0.0019405531028903328
725.0, 0.004521204553018047
726.0, 0.0014493306621018573
727.0, 0.0025718509737153797
728.0, 0.002415899218572641
729.0, 0.001665344660745363
730.0, 0.002322358486580688
731.0, 0.0031491395456912656
732.0, 0.002872668499179345
733.0, 0.005663437151382524
734.0, 0.005116225812563015
735.0, 0.0039050897942501817
736.0, 0.003597642911017626
737.0, 0.0029144469678211342
738.0, 0.0015504374935653938
739.0, 0.003259368240990444
740.0, 0.0018351943489008816
741.0, 0.0011568808441850746
742.0, 0.0009814436542390718
743.0, 0.00167060580259325
744.0, 0.0027982075327040237
745.0, 0.001967325194299175
746.0, 0.00025755340960271047
747.0, 0.0007531341481229086
748.0, 0.00017881718310498097
749.0, 0.0007701603816333161
750.0, 0.00013482916374231836
751.0, 0.001470019639057633
752.0, 0.0010690409644536795
753.0, 0.0022008759581152964
754.0, 0.00170275764011159
755.0, 0.0015919471006053774
756.0, 0.002257584698791293
757.0, 0.0021242574089352243
758.0, 0.0009692643112914855
759.0, 0.0012077831476088772
760.0, 0.0029514036711832735
761.0, 0.003359743485726931
762.0, 0.002952061042216787
763.0, 0.0023543047649539866
764.0, 0.0016943166147660028
765.0, 0.001403940762247564
766.0, 0.0015548035191906354
767.0, 0.004570800202456413
768.0, 0.0035483504621091357
769.0, 0.002203479368520069
770.0, 0.001497549015588581
771.0, 0.0004007678628589835
772.0, 0.003020355318445554
773.0, 0.0037706234467975814
774.0, 0.0033217801257756944
775.0, 0.002146284095296073
776.0, 0.0008427189694369646
777.0, 0.0004933463629034306
778.0, 0.0013693937929260083
779.0, 0.0010264539944578508
780.0, 0.0010140073647608846
781.0, 0.0015335778366032148
782.0, 0.003016529689014232
783.0, 0.0013136489198238457
784.0, 0.0011737672939769858
785.0, 0.0011792366008066132
786.0, 0.0032688932144068826
787.0, 0.001642650862220346
788.0, 0.002592277061853398
789.0, 0.003363152102475641
790.0, 0.0035599635628404147
791.0, 0.0043305044493218755
792.0, 0.0036444618963617217
793.0, 0.004754494782815951
794.0, 0.0028373125642025716
795.0, 0.004699205124345286
796.0, 0.00596727725346752
797.0, 0.00681071143529203
798.0, 0.007579387709422209
799.0, 0.004049749720507069
800.0, 0.007493414975455154
801.0, 0.007024048454856126
802.0, 0.008480234809584097
803.0, 0.009611460381809612
804.0, 0.009924434166308166
805.0, 0.010269177813787068
806.0, 0.008194061197667388
807.0, 0.006000807493153289
808.0, 0.008957284893432315
809.0, 0.012326712553400359
810.0, 0.011826822775414525
811.0, 0.011056341546058026
812.0, 0.013280097114410661
813.0, 0.0136937021635323
814.0, 0.01051997111377163
815.0, 0.00861400035867122
816.0, 0.008734556463135406
817.0, 0.007372160488461133
818.0, 0.008193459410431748
819.0, 0.011102504247536142
820.0, 0.0075219169257369845
821.0, 0.007245892573371823
822.0, 0.008451910164809855
823.0, 0.008348562208144164
824.0, 0.007777079302167344
825.0, 0.009867157893977088
826.0, 0.01285110719275558
827.0, 0.011546930021665734
828.0, 0.009355140064663401
829.0, 0.008484926942176578
830.0, 0.010183763945485825
831.0, 0.011462191804884987
832.0, 0.00946168651487357
833.0, 0.007609282077804243
834.0, 0.010593964781547918
835.0, 0.009743007080010605
836.0, 0.007580420775053736
837.0, 0.006803968754565019
838.0, 0.008295129009090522
839.0, 0.009717746289784975
840.0, 0.008167437563555436
841.0, 0.005945889489405546
842.0, 0.008004785484567302
843.0, 0.0050358151294741926
844.0, 0.006597684556988599
845.0, 0.0058313246342725075
846.0, 0.006757046698708994
847.0, 0.009337683077081977
848.0, 0.008312863752421839
849.0, 0.007020052113095218
850.0, 0.008901783684875505
851.0, 0.008147311261936721
852.0, 0.008725510022706728
853.0, 0.011337693636676659
854.0, 0.011004577329975498
855.0, 0.0079669985394575
856.0, 0.00914539982844014
857.0, 0.012814577827364181
858.0, 0.011961416738005473
859.0, 0.012258911225143318
860.0, 0.012901737420012853
861.0, 0.011856519377075025
862.0, 0.010217955100900553
863.0, 0.009550878251769767
864.0, 0.007149306816801001
865.0, 0.006976636471166123
866.0, 0.008361648751523367
867.0, 0.00601579155343241
868.0, 0.0036975833344138082
869.0, 0.004029582066933871
870.0, 0.004434219552056754
871.0, 0.0029471212365809367
872.0, 0.0031111132519228446
873.0, 0.004002400693092717
874.0, 0.003269348698538805
875.0, 0.0008503989695207394
876.0, 0.0005198284702561221
877.0, 0.0006920807578032711
878.0, 0.0013964794058529183
879.0, 0.0007438037791805091
880.0, 0.0018918457825880394
881.0, 0.0031876742157806604
882.0, 0.0018049676297647425
883.0, 0.0008546622798952083
884.0, 0.0011514255166337425
885.0, 0.0010517645903324233
886.0, 7.03107588275883e-05
887.0, 0.0011960541047451474
888.0, 0.0020471131595832157
889.0, 0.00414292637956144
890.0, 0.007942867346395181
891.0, 0.009385691046628175
892.0, 0.010783326674003533
893.0, 0.01274215669066742
894.0, 0.014019556463601156
895.0, 0.016542575725614513
896.0, 0.017582671727160146
897.0, 0.018446940206901415
898.0, 0.022882335835625416
899.0, 0.027735941675844148
900.0, 0.030830153698105805
901.0, 0.03617974952791777
902.0, 0.04441855497492604
903.0, 0.04589459851932098
904.0, 0.04977422261650736
905.0, 0.05603495237017673
906.0, 0.05872238216565123
907.0, 0.061899168801478034
908.0, 0.06722215592494186
909.0, 0.07230965273050581
910.0, 0.07759536192780393
911.0, 0.08273610055116105
912.0, 0.08992164828332855
913.0, 0.09422272908174525
914.0, 0.09808020754363876
915.0, 0.1025998340853645
916.0, 0.10620112701645602
917.0, 0.10933363290974053
918.0, 0.10960223781795052
919.0, 0.10904395002049065
920.0, 0.11067439198236363
921.0, 0.11049962490566881
922.0, 0.10807758167486874
923.0, 0.1042577980563288
924.0, 0.09920972729127611
925.0, 0.09396376572026134
926.0, 0.08853501860761892
927.0, 0.08210037086184988
928.0, 0.07475759274695351
929.0, 0.06625408936218748
930.0, 0.057738738933090394
931.0, 0.04896309542396135
932.0, 0.04162817637951086
933.0, 0.0377567411445969
934.0, 0.027944227877452796
935.0, 0.0236800447775018
936.0, 0.019284071429335314
937.0, 0.013433310407874696
938.0, 0.009479914874997455
939.0, 0.006988335068155117
940.0, 0.003995470506068832
941.0, 0.0018881083682504522
942.0, 0.0003850392108161657
943.0, 8.833831721771521e-05
944.0, 0.0018727383680848854
945.0, 0.0025384649786322324
946.0, 0.0015060028531577346
947.0, 0.0009892110885733154
948.0, 0.0019882507301464875
949.0, 0.0021986238617276947
950.0, 0.002118458120446797
951.0, 0.0020285173072023574
952.0, 0.005157090489300395
953.0, 0.00889187822402546
954.0, 0.011309746328910733
955.0, 0.014039703944720627
956.0, 0.01796161378923637
957.0, 0.02173769474382423
958.0, 0.026336905495130052
959.0, 0.03258234422202297
960.0, 0.03320286590710199
961.0, 0.03864054839282893
962.0, 0.045317810972111815
963.0, 0.05204962317904435
964.0, 0.05740101801678499
965.0, 0.05989425830806228
966.0, 0.06461312609986532
967.0, 0.06315028735768434
968.0, 0.06563815464939532
969.0, 0.06517738458520127
970.0, 0.060789018654420844
971.0, 0.057736087673768796
972.0, 0.05752458551469992
973.0, 0.055621227191723834
974.0, 0.050879358851348436
975.0, 0.050152573158655296
976.0, 0.04644216320327021
977.0, 0.04530066646419969
978.0, 0.04203495670883082
979.0, 0.038939313028701066
980.0, 0.03689720789837801
981.0, 0.034009475362997074
982.0, 0.029678668842088904
983.0, 0.025789724044782074
984.0, 0.023694912281603867
985.0, 0.024437144037659238
986.0, 0.02077082980935855
987.0, 0.019459217456982956
988.0, 0.017789849867058914
989.0, 0.017334938423894202
990.0, 0.02028085460061742
991.0, 0.021568003743832713
992.0, 0.021636692313778405
993.0, 0.02933515894251566
994.0, 0.02618340979174518
995.0, 0.02884300733342306
996.0, 0.032976106045003055
997.0, 0.03551635112515814
998.0, 0.038066345808942574
999.0, 0.0404479769039959
1000.0, 0.04260381252810517
1001.0, 0.04776085298929188
1002.0, 0.05137187504851115
1003.0, 0.05651772655294793
1004.0, 0.06164564719446068
1005.0, 0.06693814824293456
1006.0, 0.07024672653271677
1007.0, 0.07245581807116071
1008.0, 0.0746482602348468
1009.0, 0.07420969926297617
1010.0, 0.08187450515805683
1011.0, 0.08772404071590004
1012.0, 0.09081808995855606
1013.0, 0.09522269831642961
1014.0, 0.10014322660138174
1015.0, 0.10278548727352571
1016.0, 0.10618429297498798
1017.0, 0.11109604954419065
1018.0, 0.11144832930086795
1019.0, 0.11268934325958102
1020.0, 0.11115731807645274
1021.0, 0.10828203566194444
1022.0, 0.10739843228052268
1023.0, 0.1001001759953879
1024.0, 0.09126317928807143
1025.0, 0.08795050161334385
1026.0, 0.0852028153682466
1027.0, 0.07792423367941823
1028.0, 0.07168903362815213
1029.0, 0.06393982450660099
1030.0, 0.05898956957061015
1031.0, 0.0545911646938815
1032.0, 0.046918953999678555
1033.0, 0.039710470206585385
1034.0, 0.03426856200844578
1035.0, 0.028513150151062837
1036.0, 0.023406840736356304
1037.0, 0.019638956307517996
1038.0, 0.018226580967867834
1039.0, 0.0174505636573922
1040.0, 0.013584944443466685
1041.0, 0.010717841303501332
1042.0, 0.0071295724694848085
1043.0, 0.006090798370710046
1044.0, 0.007877876768212467
1045.0, 0.006458698030355438
1046.0, 0.005700110794322033
1047.0, 0.003287931175553957
1048.0, 0.0029636011492640674
1049.0, 0.0042700416917135706
1050.0, 0.0034851067700993497
1051.0, 0.004692573723047264
1052.0, 0.006575024162516888
1053.0, 0.0069389788767215315
1054.0, 0.006149353597768831
1055.0, 0.0034172169553448
1056.0, 0.004854600331087193
1057.0, 0.003422325912810502
1058.0, 0.003966916201906629
1059.0, 0.00614169477431189
1060.0, 0.004494191356022931
1061.0, 0.002392354229819927
1062.0, 0.000831837285843685
1063.0, 0.0014823082252933416
1064.0, 0.001279448506270049
1065.0, 0.0012058251593408287
1066.0, 0.0005378922397905651
1067.0, 0.0009951949869822412
1068.0, 0.0005761874326265019
1069.0, 0.00295933582082461
1070.0, 0.002538677978260064
1071.0, 0.0011799771548459818
1072.0, 0.0017013306275112355
1073.0, 0.0014005625390075712
1074.0, 0.0015745550633369915
1075.0, 0.0005628499440823486
1076.0, 0.002091305879470947
1077.0, 0.002441890853396854
1078.0, 0.0008396100293118627
1079.0, 0.005415748877719797
1080.0, 0.00783662546693369
1081.0, 0.006656925605224618
1082.0, 0.005420959471677139
1083.0, 0.006531281284453494
1084.0, 0.010919452790593382
1085.0, 0.008599025954816418
1086.0, 0.0122467509308491
1087.0, 0.012773386366527226
1088.0, 0.01014727541913606
1089.0, 0.008693166562812068
1090.0, 0.009497661131788048
1091.0, 0.011270131720229164
1092.0, 0.011414552740005055
1093.0, 0.009418514877678079
1094.0, 0.008448564046050655
1095.0, 0.008701153055657222
1096.0, 0.009761288971970483
1097.0, 0.005807462515290717
1098.0, 0.005123899705303373
1099.0, 0.007897234707095295
1100.0, 0.009109570789459582
1101.0, 0.008669524777191283
1102.0, 0.008393124950442324
1103.0, 0.00935099394013682
1104.0, 0.011749812676235672
1105.0, 0.011794354680730704
1106.0, 0.010352127307117149
1107.0, 0.013073369930042315
1108.0, 0.015593291918214371
1109.0, 0.015699017118958263
1110.0, 0.015769049597982733
1111.0, 0.015543148130037581
1112.0, 0.016669008570308938
1113.0, 0.01832318572036436
1114.0, 0.01798929930974193
1115.0, 0.018116855633867248
1116.0, 0.013505335309654429
1117.0, 0.012397102179084527
1118.0, 0.010221940381999502
1119.0, 0.010992632427039278
1120.0, 0.007145797687412136
1121.0, 0.006586811349911988
1122.0, 0.007657875904032586
1123.0, 0.004517825005645548
1124.0, 0.002462200567072652
1125.0, 0.0036479963282138156
1126.0, 0.001650076881016964
1127.0, 0.003929457228991356
1128.0, 0.0010613079421353162
1129.0, 0.0012415489129069925
1130.0, 0.0011952241512202678
1131.0, 0.00042486326595235854
1132.0, 0.0008727239026558477
1133.0, 0.0012342119722977122
1134.0, 0.0005749471439275537
1135.0, 0.0008400295838254311
1136.0, 0.0025446670370332966
1137.0, 0.002673741406889036
1138.0, 0.0010332315335718893
1139.0, 0.000586243300481045
1140.0, 0.0024636811926913044
1141.0, 0.000581698528293539
1142.0, 0.0008101178530038551
1143.0, 0.0027074923096985937
1144.0, 0.0019776138382891525
1145.0, 0.002526199363492232
1146.0, 0.002755445279076499
1147.0, 0.0002988107043614924
1148.0, 0.0004793683161208594
1149.0, 0.002649881680619542
1150.0, 0.0016783291140827885
1151.0, 0.0014193818145578306
1152.0, 0.0037851237702857046
1153.0, 0.0022665743748279403
1154.0, 0.003371561210071491
1155.0, 0.005969353375437176
1156.0, 0.006105218569684634
1157.0, 0.006061934627651848
1158.0, 0.005897563148293232
1159.0, 0.0037387565370455814
1160.0, 0.002925896573306926
1161.0, 0.0024182033089510304
1162.0, 0.004588652490656902
1163.0, 0.0012076530468854943
1164.0, 0.0008218199601757357
1165.0, 0.0004850843231320021
1166.0, 0.0011628063357872723
1167.0, 0.0027641571742133596
1168.0, 0.0012852743026841927
1169.0, 0.0011365145761848812
1170.0, 0.0005399067008086319
1171.0, 0.0020843987459202053
1172.0, 0.001771763814023636
1173.0, 0.0007108159596529207
1174.0, 0.0025688659403090047
1175.0, 0.004787033645678399
1176.0, 0.0030617999766116366
1177.0, 0.002912346613824397
1178.0, 0.002390336666686587
1179.0, 0.0012172821401936083
1180.0, 0.0036708183899109145
1181.0, 0.0060225077184514406
1182.0, 0.0058380894852546215
1183.0, 0.006423526774057643
1184.0, 0.007323252613060323
1185.0, 0.008580741173241827
1186.0, 0.007047548099107707
1187.0, 0.008248968160686184
1188.0, 0.007783209199572463
1189.0, 0.008819835082455683
1190.0, 0.009333391245567884
1191.0, 0.007752555629101609
1192.0, 0.007086682052114549
1193.0, 0.0047893480056344475
1194.0, 0.003293848873133057
1195.0, 0.0031788040536571724
1196.0, 0.0020753486233765304
1197.0, 0.0012414937305692047
1198.0, 0.00011997025934973732
1199.0, 0.0004995936757451625
1200.0, 0.0002395957485370476
1201.0, 0.0001232606554478015
1202.0, 0.0006963221970119772
1203.0, 0.0016695060220391863
1204.0, 0.002764389430931179
1205.0, 0.0023753381324866404
1206.0, 0.000794866335836972
1207.0, 0.0012057601371026163
1208.0, 0.0019278710260607205
1209.0, 0.0011806966721271202
1210.0, 0.002715065351398409
1211.0, 0.0022411501975058193
1212.0, 0.003574609598265771
1213.0, 0.0037097697952300644
1214.0, 0.0018745827321949267
1215.0, 0.0036527846737281692
1216.0, 0.006575683123644109
1217.0, 0.006696712415911248
1218.0, 0.008162436798211796
1219.0, 0.006124039921695152
1220.0, 0.0068572879718353085
1221.0, 0.012759116909772548
1222.0, 0.007670846870834971
1223.0, 0.010076153176601496
1224.0, 0.009444392679602757
1225.0, 0.00955254805337626
1226.0, 0.011172514794797302
1227.0, 0.011461020296200752
1228.0, 0.010246299559926215
1229.0, 0.009581811879340929
1230.0, 0.01087593712328523
1231.0, 0.010731251466266743
1232.0, 0.005904954595614356
1233.0, 0.008315540753155257
1234.0, 0.011029354366199109
1235.0, 0.007106731934340119
1236.0, 0.00739962196927201
1237.0, 0.006899249659038919
1238.0, 0.006659111158910003
1239.0, 0.006556114097995174
1240.0, 0.006505088099177503
1241.0, 0.00551503659227725
1242.0, 0.006380449124773193
1243.0, 0.009180947440568835
1244.0, 0.007831270736583677
1245.0, 0.006802193387994422
1246.0, 0.006940957578822186
1247.0, 0.007950787741404116
1248.0, 0.011308722331020284
1249.0, 0.012570021535148431
1250.0, 0.011160234664622615
1251.0, 0.009794504951791308
1252.0, 0.009424802059140982
1253.0, 0.00899687528017403
1254.0, 0.009708967967153759
1255.0, 0.010996146608369249
1256.0, 0.010403173325420848
1257.0, 0.009272633267309831
1258.0, 0.00869665387617279
1259.0, 0.0069412590600076785
1260.0, 0.008017744555692279
1261.0, 0.007789330012203971
1262.0, 0.0065269357082277475
1263.0, 0.009425991892686848
1264.0, 0.005213590738747808
1265.0, 0.005352339274935799
1266.0, 0.004742099268517867
1267.0, 0.003972418607468062
1268.0, 0.0043847710260669324
1269.0, 0.0033784754149432552
1270.0, 0.0034112501735440374
1271.0, 0.0042689216798230374
1272.0, 0.002805737936840495
1273.0, 0.004669948718021214
1274.0, 0.004021174148083954
1275.0, 0.0018492812632544694
1276.0, 0.0005289099418295856
1277.0, 0.002982368858475666
1278.0, 0.0041941563236755465
1279.0, 0.0009252691908887266
1280.0, 0.0013056186970784726
1281.0, 0.0019431295177231348
1282.0, 0.0034581952816895023
1283.0, 0.00479819327635066
1284.0, 0.004669451687987617
1285.0, 0.003833225916062269
1286.0, 0.0009129829902184302
1287.0, 0.0003640023745246716
1288.0, 0.0005896528808187602
1289.0, 0.0021816477927530625
1290.0, 0.0026891699983229555
1291.0, 0.002417527106162049
1292.0, 0.002295120485237917
1293.0, 0.0035392718162597487
1294.0, 0.004448752640297376
1295.0, 0.003020000555614668
1296.0, 0.004010958840817068
1297.0, 0.004132945200464103
1298.0, 0.0036958931411868157
1299.0, 0.0035884103982829693
1300.0, 0.003285623877753441
1301.0, 0.003641779889999469
1302.0, 0.004597361858882235
1303.0, 0.0051336152045533875
1304.0, 0.0002769303539496954
1305.0, 0.0004157136376881285
1306, 0.0
1307, 0.0
1308, 0.0
1309, 0.0
1310, 0.0
1311, 0.0
1312, 0.0
1313, 0.0
1314, 0.0
1315, 0.0
1316, 0.0
1317, 0.0
1318, 0.0
1319, 0.0
1320, 0.0
1321, 0.0
1322, 0.0
1323, 0.0
1324, 0.0
1325, 0.0
1326, 0.0
1327, 0.0
1328, 0.0
1329, 0.0
1330, 0.0
1331, 0.0
1332, 0.0
1333, 0.0
1334, 0.0
1335, 0.0
1336, 0.0
1337, 0.0
1338, 0.0
1339, 0.0
1340, 0.0
1341, 0.0
1342, 0.0
1343, 0.0
1344, 0.0
1345, 0.0
1346, 0.0
1347, 0.0
1348, 0.0
1349, 0.0
1350, 0.0
1351, 0.0
1352, 0.0
1353, 0.0
1354, 0.0
1355, 0.0
1356, 0.0
1357, 0.0
1358, 0.0
1359, 0.0
1360, 0.0
1361, 0.0
1362, 0.0
1363, 0.0
1364, 0.0
1365, 0.0
1366, 0.0
1367, 0.0
1368, 0.0
1369, 0.0
1370, 0.0
1371, 0.0
1372, 0.0
1373, 0.0
1374, 0.0
1375, 0.0
1376, 0.0
1377, 0.0
1378, 0.0
1379, 0.0
1380, 0.0
1381, 0.0
1382, 0.0
1383, 0.0
1384, 0.0
1385, 0.0
1386, 0.0
1387, 0.0
1388, 0.0
1389, 0.0
1390, 0.0
1391, 0.0
1392, 0.0
1393, 0.0
1394, 0.0
1395, 0.0
1396, 0.0
1397, 0.0
1398, 0.0
1399, 0.0
1400, 0.0
1401, 0.0
1402, 0.0
1403, 0.0
1404, 0.0
1405, 0.0
1406, 0.0
1407, 0.0
1408, 0.0
1409, 0.0
1410, 0.0
1411, 0.0
1412, 0.0
1413, 0.0
1414, 0.0
1415, 0.0
1416, 0.0
1417, 0.0
1418, 0.0
1419, 0.0
1420, 0.0
1421, 0.0
1422, 0.0
1423, 0.0
1424, 0.0
1425, 0.0
1426, 0.0
1427, 0.0
1428, 0.0
1429, 0.0
1430, 0.0
1431, 0.0
1432, 0.0
1433, 0.0
1434, 0.0
1435, 0.0
1436, 0.0
1437, 0.0
1438, 0.0
1439, 0.0
1440, 0.0
1441, 0.0
1442, 0.0
1443, 0.0
1444, 0.0
1445, 0.0
1446, 0.0
1447, 0.0
1448, 0.0
1449, 0.0
1450, 0.0
1451, 0.0
1452, 0.0
1453, 0.0
1454, 0.0
1455, 0.0
1456, 0.0
1457, 0.0
1458, 0.0
1459, 0.0
1460, 0.0
1461, 0.0
1462, 0.0
1463, 0.0
1464, 0.0
1465, 0.0
1466, 0.0
1467, 0.0
1468, 0.0
1469, 0.0
1470, 0.0
1471, 0.0
1472, 0.0
1473, 0.0
1474, 0.0
1475, 0.0
1476, 0.0
1477, 0.0
1478, 0.0
1479, 0.0
1480, 0.0
1481, 0.0
1482, 0.0
1483, 0.0
1484, 0.0
1485, 0.0
1486, 0.0
1487, 0.0
1488, 0.0
1489, 0.0
1490, 0.0
1491, 0.0
1492, 0.0
1493, 0.0
1494, 0.0
1495, 0.0
1496, 0.0
1497, 0.0
1498, 0.0
1499, 0.0
1500, 0.0
1501, 0.0
1502, 0.0
1503, 0.0
1504, 0.0
1505, 0.0
1506, 0.0
1507, 0.0
1508, 0.0
1509, 0.0
1510, 0.0
1511, 0.0
1512, 0.0
1513, 0.0
1514, 0.0
1515, 0.0
1516, 0.0
1517, 0.0
1518, 0.0
1519, 0.0
1520, 0.0
1521, 0.0
1522, 0.0
1523, 0.0
1524, 0.0
1525, 0.0
1526, 0.0
1527, 0.0
1528, 0.0
1529, 0.0
1530, 0.0
1531, 0.0
1532, 0.0
1533, 0.0
1534, 0.0
1535, 0.0
1536, 0.0
1537, 0.0
1538, 0.0
1539, 0.0
1540, 0.0
1541, 0.0
1542, 0.0
1543, 0.0
1544, 0.0
1545, 0.0
1546, 0.0
1547, 0.0
1548, 0.0
1549, 0.0
1550, 0.0
1551, 0.0
1552, 0.0
1553, 0.0
1554, 0.0
1555, 0.0
1556, 0.0
1557, 0.0
1558, 0.0
1559, 0.0
1560, 0.0
1561, 0.0
1562, 0.0
1563, 0.0
1564, 0.0
1565, 0.0
1566, 0.0
1567, 0.0
1568, 0.0
1569, 0.0
1570, 0.0
1571, 0.0
1572, 0.0
1573, 0.0
1574, 0.0
1575, 0.0
1576, 0.0
1577, 0.0
1578, 0.0
1579, 0.0
1580, 0.0
1581, 0.0
1582, 0.0
1583, 0.0
1584, 0.0
1585, 0.0
1586, 0.0
1587, 0.0
1588, 0.0
1589, 0.0
1590, 0.0
1591, 0.0
1592, 0.0
1593, 0.0
1594, 0.0
1595, 0.0
1596, 0.0
1597, 0.0
1598, 0.0
1599, 0.0
