30, 0.0
31, 0.0
32, 0.0
33, 0.0
34, 0.0
35, 0.0
36, 0.0
37, 0.0
38, 0.0
39, 0.0
40, 0.0
41, 0.0
42, 0.0
43, 0.0
44, 0.0
45, 0.0
46, 0.0
47, 0.0
48, 0.0
49, 0.0
50, 0.0
51, 0.0
52, 0.0
53, 0.0
54, 0.0
55, 0.0
56, 0.0
57, 0.0
58, 0.0
59, 0.0
60, 0.0
61, 0.0
62, 0.0
63, 0.0
64, 0.0
65, 0.0
66, 0.0
67, 0.0
68, 0.0
69, 0.0
70, 0.0
71, 0.0
72, 0.0
73, 0.0
74, 0.0
75, 0.0
76, 0.0
77, 0.0
78, 0.0
79, 0.0
80, 0.0
81, 0.0
82, 0.0
83, 0.0
84, 0.0
85, 0.0
86, 0.0
87, 0.0
88, 0.0
89, 0.0
90, 0.0
91, 0.0
92, 0.0
93, 0.0
94, 0.0
95, 0.0
96, 0.0
97, 0.0
98, 0.0
99, 0.0
100, 0.0
101, 0.0
102, 0.0
103, 0.0
104, 0.0
105, 0.0
106, 0.0
107, 0.0
108, 0.0
109, 0.0
110, 0.0
111, 0.0
112, 0.0
113, 0.0
114, 0.0
115, 0.0
116, 0.0
117, 0.0
118, 0.0
119, 0.0
120, 0.0
121, 0.0
122, 0.0
123, 0.0
124, 0.0
125, 0.0
126, 0.0
127, 0.0
128, 0.0
129, 0.0
130, 0.0
131, 0.0
132, 0.0
133, 0.0
134, 0.0
135, 0.0
136, 0.0
137, 0.0
138, 0.0
139, 0.0
140, 0.0
141, 0.0
142, 0.0
143, 0.0
144, 0.0
145, 0.0
146, 0.0
147, 0.0
148, 0.0
149, 0.0
150, 0.0
151, 0.0
152, 0.0
153, 0.0
154, 0.0
155, 0.0
156, 0.0
157, 0.0
158, 0.0
159, 0.0
160, 0.0
161, 0.0
162, 0.0
163, 0.0
164, 0.0
165, 0.0
166, 0.0
167, 0.0
168, 0.0
169, 0.0
170.0, 0.000331670462873885
171.0, 0.000620771323543073
172.0, 0.00011380204000439103
173.0, 0.0004223277400534852
174.0, 0.00339798431099094
175.0, 0.005768523696149987
176.0, 0.007015382361349139
177.0, 0.007731801728567276
178.0, 0.00859061185400015
179.0, 0.009920071815161881
180.0, 0.010930047298674639
181.0, 0.011432105011053708
182.0, 0.010978983115664876
183.0, 0.009489419193952428
184.0, 0.008583684273202656
185.0, 0.00945414661242048
186.0, 0.010567385362060457
187.0, 0.011407267937162078
188.0, 0.013923477773209715
189.0, 0.013934701272700733
190.0, 0.013704746527619958
191.0, 0.017111432326787197
192.0, 0.02460407212916422
193.0, 0.02249126440289287
194.0, 0.02275821701730802
195.0, 0.026192966248891898
196.0, 0.027775961863614872
197.0, 0.025792715709311947
198.0, 0.026971622267302073
199.0, 0.029062397122937948
200.0, 0.030139534372987803
201.0, 0.030352982106599903
202.0, 0.02567147558680188
203.0, 0.0227965994335062
204.0, 0.024252831626534913
205.0, 0.02745119163400353
206.0, 0.02391161319063637
207.0, 0.022961552738754425
208.0, 0.021890778385900287
209.0, 0.01956432617107571
210.0, 0.02063529413656677
211.0, 0.02089931905182134
212.0, 0.01937133533090917
213.0, 0.016755759014302183
214.0, 0.01430271089201508
215.0, 0.015305485412381385
216.0, 0.015553727717752812
217.0, 0.014680406655649495
218.0, 0.014200088329390044
219.0, 0.016276489496724496
220.0, 0.013744672752854709
221.0, 0.011353178264986911
222.0, 0.011200772989757413
223.0, 0.01155067764751739
224.0, 0.00908305694058499
225.0, 0.00867813956576402
226.0, 0.010574975156055013
227.0, 0.01227053030673701
228.0, 0.008869519175469114
229.0, 0.01009924593440226
230.0, 0.00937406532164673
231.0, 0.006835871462073348
232.0, 0.0066108815827649915
233.0, 0.007206448444372028
234.0, 0.008687949808819102
235.0, 0.00894999256825053
236.0, 0.00817158551651944
237.0, 0.010282244976469334
238.0, 0.010128533667330556
239.0, 0.01077502276683822
240.0, 0.01130636355171212
241.0, 0.009024475223608162
242.0, 0.009631793551587668
243.0, 0.011615921382446453
244.0, 0.01173768293303855
245.0, 0.009936253032566934
246.0, 0.011113734068157986
247.0, 0.010485994915564055
248.0, 0.012094916080497668
249.0, 0.014000035960499646
250.0, 0.012922041407442518
251.0, 0.013452549670535954
252.0, 0.014945591547201978
253.0, 0.01595220893541118
254.0, 0.016400141778645162
255.0, 0.017528398254093244
256.0, 0.018083985744871148
257.0, 0.018572837407429484
258.0, 0.01879974425695772
259.0, 0.018904779076645117
260.0, 0.020566228202513435
261.0, 0.02153122158633565
262.0, 0.021803399842424312
263.0, 0.02301333540150157
264.0, 0.026306731648278694
265.0, 0.025688643465404344
266.0, 0.025903350663009906
267.0, 0.027582643980090884
268.0, 0.02932001129760131
269.0, 0.028756642779827236
270.0, 0.02677224894105954
271.0, 0.02627054220972587
272.0, 0.027515010182345208
273.0, 0.028911635494389278
274.0, 0.029072291945882962
275.0, 0.03009295896785312
276.0, 0.03165063296757301
277.0, 0.033311880082012094
278.0, 0.03563583987285556
279.0, 0.03645725736697449
280.0, 0.03729424587895288
281.0, 0.03863533064835576
282.0, 0.040017696817331125
283.0, 0.0394599813801843
284.0, 0.039921075886322974
285.0, 0.03870798620279853
286.0, 0.03594496005354279
287.0, 0.03463345861907042
288.0, 0.03475798418205416
289.0, 0.03225685150673335
290.0, 0.02965425283507448
291.0, 0.028097039502522965
292.0, 0.02519116820930508
293.0, 0.023155410813953812
294.0, 0.022109781598012652
295.0, 0.020559302516884335
296.0, 0.017915576368150773
297.0, 0.01611496091051281
298.0, 0.014709756201469297
299.0, 0.014528811563747749
300.0, 0.013061049141220893
301.0, 0.008627604430966133
302.0, 0.008243850707886677
303.0, 0.0075530979624073985
304.0, 0.0072536847437892245
305.0, 0.00700144310823294
306.0, 0.00478708831251002
307.0, 0.005281551889414165
308.0, 0.005413108278655414
309.0, 0.004264170479409365
310.0, 0.0027384674191457048
311.0, 0.002448230934509206
312.0, 0.002781125335677456
313.0, 0.00295043505761358
314.0, 0.0022599706312899604
315.0, 0.0009412734276395262
316.0, 0.0010335243436530165
317.0, 0.000994747886971648
318.0, 0.00034247161473159083
319.0, 0.0003892430970382992
320.0, 0.001643430621887576
321.0, 0.001746469740604359
322.0, 0.00043549510930241265
323.0, 0.0009581589290891133
324.0, 0.0010055064419965515
325.0, 0.0016580898276892246
326.0, 0.0005582678704133384
327.0, 0.0009754808679462328
328.0, 0.0013559236572012081
329.0, 0.0010198339501468574
330.0, 0.0014163996356220873
331.0, 0.0008195371566860558
332.0, 0.000910811124573381
333.0, 0.0026514823062966544
334.0, 0.00155092711326281
335.0, 0.0006378480176182611
336.0, 0.0014809091467068809
337.0, 0.001309627987917751
338.0, 0.0006606145287531464
339.0, 0.00023240130304815612
340.0, 0.0003308843154687674
341.0, 0.001156989040616738
342.0, 0.002123882880817635
343.0, 0.0018393245459436677
344.0, 0.00021662785877708595
345.0, 0.002199161566110849
346.0, 0.0023681652438441248
347.0, 0.0017901922823789379
348.0, 0.001420242894138025
349.0, 0.0006069866958559851
350.0, 0.0020499916436707787
351.0, 0.0007955795739264507
352.0, 0.0010780484793881772
353.0, 0.003818623825408603
354.0, 0.0030565011238696104
355.0, 0.003959878927067015
356.0, 0.004372904171217328
357.0, 0.003769126029821364
358.0, 0.0032034454254445672
359.0, 0.0033154376087036748
360.0, 0.002010980191564238
361.0, 0.0008127844194437835
362.0, 0.0009534045272808027
363.0, 0.0017702560526423254
364.0, 0.0004270077387398399
365.0, 0.00017788014351905116
366.0, 0.0008411430704121459
367.0, 0.001053046212480262
368.0, 0.0014836312163185907
369.0, 0.0004538690783077691
370.0, 0.0002642751342041784
371.0, 0.001096700447915344
372.0, 0.0027895949539758083
373.0, 0.00229900232884025
374.0, 0.002579468448693387
375.0, 0.004282906829549922
376.0, 0.006415519018261655
377.0, 0.007450860887415496
378.0, 0.006874221473840701
379.0, 0.008593113620243231
380.0, 0.010326538266890528
381.0, 0.010751120112638736
382.0, 0.011233765211912711
383.0, 0.013762312697084216
384.0, 0.015846985629563697
385.0, 0.01787745316972475
386.0, 0.0211624072385623
387.0, 0.025453012830549196
388.0, 0.02946152299295677
389.0, 0.03479813086253376
390.0, 0.041041943306122826
391.0, 0.046775684737110544
392.0, 0.05290307006761558
393.0, 0.06101711246195591
394.0, 0.06824699257315724
395.0, 0.07680189195825968
396.0, 0.0862749995846332
397.0, 0.09594052981018142
398.0, 0.10663808365917866
399.0, 0.11776804124283666
400.0, 0.13233927784202557
401.0, 0.14709863546497237
402.0, 0.16216882500029176
403.0, 0.18117428438291103
404.0, 0.1970302872925499
405.0, 0.21180524757218458
406.0, 0.22520916485901565
407.0, 0.23660196598943997
408.0, 0.24328593586681213
409.0, 0.23795847764850325
410.0, 0.22848152042934086
411.0, 0.21781008202135574
412.0, 0.20539858915785467
413.0, 0.19075026085429608
414.0, 0.17535076630073765
415.0, 0.16316853185030847
416.0, 0.1526062119753076
417.0, 0.14350497970748535
418.0, 0.1370601142227413
419.0, 0.12889671029177865
420.0, 0.1211044512559347
421.0, 0.11518043042465059
422.0, 0.1106879710585863
423.0, 0.10627429312840471
424.0, 0.10150984527681678
425.0, 0.09791954187746153
426.0, 0.0967429948462184
427.0, 0.09596795245467593
428.0, 0.09348362933639487
429.0, 0.09514730347410921
430.0, 0.09638617674244854
431.0, 0.09618402464737173
432.0, 0.09470811515838676
433.0, 0.09267996055970631
434.0, 0.09129733492008607
435.0, 0.08983700027402501
436.0, 0.08694537002163873
437.0, 0.08214745748599198
438.0, 0.0768306087676285
439.0, 0.07378599137885328
440.0, 0.07090279571096984
441.0, 0.06832355347379267
442.0, 0.06616800771350068
443.0, 0.0639965469451562
444.0, 0.06095171991445863
445.0, 0.0594202319537473
446.0, 0.05676289418252528
447.0, 0.054818047404372315
448.0, 0.05579974916938947
449.0, 0.05849612207981281
450.0, 0.05672475472121056
451.0, 0.05627453551280285
452.0, 0.057692629599599865
453.0, 0.059137107314907664
454.0, 0.05972166116906081
455.0, 0.06081068309587042
456.0, 0.062089399151502654
457.0, 0.06423258886558655
458.0, 0.06720907289443202
459.0, 0.07060147189028838
460.0, 0.07588058792570979
461.0, 0.0813848743089799
462.0, 0.0884496164900173
463.0, 0.09644928227610396
464.0, 0.10263435050428613
465.0, 0.10451339334487501
466.0, 0.10207807291038475
467.0, 0.09599374936455239
468.0, 0.08640913409609935
469.0, 0.07447122803998278
470.0, 0.06405936516913768
471.0, 0.05671948646840731
472.0, 0.04920418272783278
473.0, 0.043457322790635584
474.0, 0.04074073913951137
475.0, 0.03832904914507794
476.0, 0.03726187725441741
477.0, 0.035701716408132626
478.0, 0.03326849680170833
479.0, 0.0309945645864507
480.0, 0.030016332999628723
481.0, 0.030653685817382485
482.0, 0.028681084832246993
483.0, 0.02887022947725641
484.0, 0.030882453752556615
485.0, 0.03100827563646751
486.0, 0.028494746357075128
487.0, 0.024894284552848096
488.0, 0.024019190458150687
489.0, 0.023659034831030414
490.0, 0.02115017189385902
491.0, 0.018487924204397904
492.0, 0.015896572372359988
493.0, 0.013943462455912948
494.0, 0.012453850812664577
495.0, 0.010420108206402748
496.0, 0.007120790392452078
497.0, 0.004154940359136716
498.0, 0.004394045156476009
499.0, 0.004467262910295752
500.0, 0.0032986346086160607
501.0, 0.001886197026170999
502.0, 0.00028690388506653794
503.0, 0.00021161050943476628
504.0, 0.0002106913169146691
505.0, 0.0002250965769083801
506.0, 7.008702189518836e-05
507.0, 0.000931098890593276
508.0, 0.0005632346412891295
509.0, 0.0011515356674921566
510.0, 0.001860907550890726
511.0, 0.0016533521990692358
512.0, 0.0011183048019129372
513.0, 0.0023534376612694484
514.0, 0.0025456623535297556
515.0, 0.0015116829965988792
516.0, 0.00032742313184994706
517.0, 0.00035799325475523825
518.0, 0.002117628548837218
519.0, 0.0012814193938044927
520.0, 0.0012565571959906098
521.0, 0.0024169301439214423
522.0, 0.002730401929807244
523.0, 0.0002476428848895714
524.0, 0.0003191576389413141
525.0, 0.0001546581974903967
526.0, 0.0011435391826058999
527.0, 0.0016661993956062257
528.0, 0.00044165423532561943
529.0, 0.0019975442026535666
530.0, 0.0041996491065012615
531.0, 0.0049197220626565645
532.0, 0.004886782176889539
533.0, 0.006062719792902658
534.0, 0.00902908987408769
535.0, 0.00761902887684952
536.0, 0.01023226226163286
537.0, 0.013420813360770287
538.0, 0.015020999838125467
539.0, 0.016275705300196817
540.0, 0.02010994967649759
541.0, 0.023320305211695657
542.0, 0.025470367834390693
543.0, 0.028096589579070803
544.0, 0.03185024388108118
545.0, 0.03539815895426841
546.0, 0.03756321665080676
547.0, 0.03911588815546303
548.0, 0.04068304839601049
549.0, 0.043093498965204105
550.0, 0.046242549212178956
551.0, 0.047462787556078224
552.0, 0.049595444467369555
553.0, 0.05111709014899624
554.0, 0.05141307543720431
555.0, 0.05000987603981692
556.0, 0.04712389342494255
557.0, 0.04556627989472005
558.0, 0.04310531669972397
559.0, 0.042707775765454106
560.0, 0.04251888343833161
561.0, 0.041015186179241346
562.0, 0.041584092287535145
563.0, 0.03855800779013564
564.0, 0.03591279799039345
565.0, 0.03404525118325612
566.0, 0.031630631275903535
567.0, 0.028051582470248113
568.0, 0.02691652414803119
569.0, 0.025099879831021847
570.0, 0.02213621863683807
571.0, 0.019947557963132096
572.0, 0.018224197657346803
573.0, 0.014905759273886456
574.0, 0.01450419012745944
575.0, 0.011213990567781003
576.0, 0.009935424925640198
577.0, 0.008746621578206914
578.0, 0.005085559316312361
579.0, 0.006390861903269197
580.0, 0.007174835355163829
581.0, 0.00593291823031436
582.0, 0.004035685185390278
583.0, 0.00333370655414416
584.0, 0.004413287970735745
585.0, 0.00626396776004678
586.0, 0.008392587179992998
587.0, 0.009346805174000137
588.0, 0.008823563268935245
589.0, 0.00865247241146693
590.0, 0.010952252551393553
591.0, 0.011122261824120362
592.0, 0.011202657632755238
593.0, 0.012359961142303252
594.0, 0.013504707837706312
595.0, 0.013571024608129128
596.0, 0.013479200571162846
597.0, 0.014204125417285527
598.0, 0.015776423945681902
599.0, 0.016690826988881365
600.0, 0.017582546270057686
601.0, 0.019315437295217477
602.0, 0.020324895143180526
603.0, 0.02097326689686235
604.0, 0.023221391645265876
605.0, 0.024014278090625885
606.0, 0.023470334062144483
607.0, 0.024572363269444362
608.0, 0.026906459822052867
609.0, 0.02810521721139016
610.0, 0.028589913016891965
611.0, 0.029838137299781253
612.0, 0.03239826510278831
613.0, 0.035726346904824395
614.0, 0.039637747733183945
615.0, 0.04161757255234987
616.0, 0.04313448142697717
617.0, 0.0469696319422323
618.0, 0.05251220890232505
619.0, 0.05620222087898123
620.0, 0.059583483476149626
621.0, 0.06458843677130315
622.0, 0.0690716782933119
623.0, 0.07341194185737818
624.0, 0.07803952650944115
625.0, 0.08139072926451343
626.0, 0.08373772360197135
627.0, 0.08640012177599049
628.0, 0.08807729521725467
629.0, 0.0895286445941855
630.0, 0.09052715150638543
631.0, 0.0886162547242726
632.0, 0.08727458306493292
633.0, 0.0850466221708631
634.0, 0.07744912704525249
635.0, 0.06688350351656833
636.0, 0.057508253765034746
637.0, 0.048823750515103743
638.0, 0.03657986595014217
639.0, 0.02864400839879565
640.0, 0.02332551426929583
641.0, 0.017468365265868237
642.0, 0.011996279301953
643.0, 0.010189276662889862
644.0, 0.0094805165558882
645.0, 0.007771181702632889
646.0, 0.007707505333789552
647.0, 0.006641591503231235
648.0, 0.0029411401337518417
649.0, 0.0016325539435729185
650.0, 0.0006183301970425609
651.0, 0.0002929838468839091
652.0, 0.0006006952951973786
653.0, 0.00021409339805863304
654.0, 0.0008236401445055263
655.0, 0.0011424725346818898
656.0, 0.0010518771723370302
657.0, 0.0011060788608667014
658.0, 0.0008645894662247656
659.0, 0.0012189588408942466
660.0, 0.0018758517314986709
661.0, 0.0007335942365637703
662.0, 0.0015849571409574006
663.0, 0.00116031865778838
664.0, 0.00034750364915727924
665.0, 0.00015281058209127592
666.0, 0.0008314400770452183
667.0, 0.001624598039349727
668.0, 0.0014410206523956012
669.0, 0.003022371910283371
670.0, 0.0018620519936198476
671.0, 0.00011080451136685705
672.0, 0.000673817214878154
673.0, 2.555976454246779e-05
674.0, 0.00026201134429625116
675.0, 0.0003334839230999819
676.0, 0.0010197858779156528
677.0, 0.0008085282737962504
678.0, 0.0014100014868521963
679.0, 0.002316998463391743
680.0, 0.002389274028548899
681.0, 0.003290615532198377
682.0, 0.004015477828048765
683.0, 0.0018889820262090603
684.0, 0.0008007753131090169
685.0, 0.0037559108087117593
686.0, 0.00205123008110953
687.0, 0.0016257675252573582
688.0, 0.0017822351730825074
689.0, 0.002480164651862661
690.0, 0.0031076833601882178
691.0, 0.0027324371405411446
692.0, 0.0016409251703671927
693.0, 0.002255701829249254
694.0, 0.0022988575398348037
695.0, 0.002824195820819776
696.0, 0.0023258213657192128
697.0, 0.001163201291371056
698.0, 0.0031719204657765293
699.0, 0.0029037288477869808
700.0, 0.0031203815519765077
701.0, 0.002085720117823447
702.0, 0.0014670948452061025
703.0, 0.0023649419215489133
704.0, 0.0032145597585151614
705.0, 0.002965509544219145
706.0, 0.00359280393109344
707.0, 0.0041790703297136375
708.0, 0.0048451946773705335
709.0, 0.004158879139577589
710.0, 0.002418966620491464
711.0, 0.00376704292938235
712.0, 0.003232559350903638
713.0, 0.0042403661880474714
714.0, 0.005084006165943929
715.0, 0.004860322632505572
716.0, 0.0037617624889187636
717.0, 0.002425121387567553
718.0, 0.0026719026852463908
719.0, 0.0032326039994372033
720.0, 0.0031186857582060357
721.0, 0.001965379382643062
722.0, 0.0013114930102256996
723.0, 0.0021275194584135203
724.0, 0.002062345509363604
725.0, 0.0006944995634417724
726.0, 0.0006369359247509438
727.0, 0.0019259692168252978
728.0, 0.002361967399171869
729.0, 0.0015544457676605447
730.0, 0.002330280763487008
731.0, 0.0025013025884908714
732.0, 0.0031474849455263272
733.0, 0.0015239307421479414
734.0, 0.0009976157140743074
735.0, 0.0021551313177149167
736.0, 0.001893384522317314
737.0, 0.0016461224471172697
738.0, 0.001267151579666785
739.0, 0.001939992668438644
740.0, 0.002004784649044415
741.0, 0.0015979861956355993
742.0, 0.0012059281374917012
743.0, 0.00019827508190665082
744.0, 0.0006358468771142243
745.0, 0.000981350202358697
746.0, 0.0005019099734767838
747.0, 0.0004205873493066334
748.0, 0.0011196220805829752
749.0, 0.00033224195694103574
750.0, 2.9743908195125705e-05
751.0, 0.0012440618058930477
752.0, 0.0010111381652805952
753.0, 0.0008535346160985814
754.0, 0.0005452185494780851
755.0, 0.0022607252958323975
756.0, 0.0011950635252344999
757.0, 0.0019163405456518244
758.0, 0.0004916894985136947
759.0, 0.0008752649873956643
760.0, 0.0018773703845202635
761.0, 0.0020469864647579957
762.0, 0.0020336733615233743
763.0, 0.002579805306092362
764.0, 0.0029143454894513202
765.0, 0.0013625620529884347
766.0, 0.0011726751176680188
767.0, 0.0014353530196640138
768.0, 0.0017756538238260099
769.0, 0.0031060922583569486
770.0, 0.0036334255159715567
771.0, 0.0025538761054175007
772.0, 0.0021516698364167364
773.0, 0.0030928935031819486
774.0, 0.0026118593944981484
775.0, 0.0006083720951790419
776.0, 0.0006216823541539416
777.0, 0.002204040087320679
778.0, 0.0011364283082493903
779.0, 0.0003100163445465165
780.0, 0.0004971619916248527
781.0, 0.0008542038199198314
782.0, 0.001203606794207699
783.0, 0.0023594966225785104
784.0, 0.003805412165112077
785.0, 0.004568918769798257
786.0, 0.0048907213956831406
787.0, 0.00533660237566106
788.0, 0.003450118874507826
789.0, 0.0008744963516923872
790.0, 0.0038236533155787513
791.0, 0.0018350400598201534
792.0, 0.001974226116478921
793.0, 0.0029226489654504977
794.0, 0.004082745697965204
795.0, 0.004078301303901336
796.0, 0.0030116642321218455
797.0, 0.004361758683282549
798.0, 0.0040648738511187684
799.0, 0.003636690354513956
800.0, 0.0049973843123523425
801.0, 0.004775506032575085
802.0, 0.00374486931989006
803.0, 0.004967394723552662
804.0, 0.005055384535462733
805.0, 0.001969950882667965
806.0, 0.004348775266362423
807.0, 0.004516939574713136
808.0, 0.004549273612507074
809.0, 0.006121519782189723
810.0, 0.0060805283893147054
811.0, 0.0025508577120603535
812.0, 0.002568195077510263
813.0, 0.0035758068857478335
814.0, 0.004448825030934295
815.0, 0.004856970780545585
816.0, 0.003569586809906568
817.0, 0.001262671712207535
818.0, 0.001294439036337035
819.0, 0.0024264133202930092
820.0, 0.0024964460925861734
821.0, 0.005153514387222128
822.0, 0.0057746970150998915
823.0, 0.003629274717500493
824.0, 0.0024581390011781013
825.0, 0.0030108713255138195
826.0, 0.003700967710154184
827.0, 0.0037091845982770598
828.0, 0.0015275828600102407
829.0, 0.0007481159012542515
830.0, 0.0016794992373550793
831.0, 0.002213042922783555
832.0, 0.0021164582896325283
833.0, 0.0018410333850173478
834.0, 0.0024886583727076264
835.0, 0.002683682542395824
836.0, 0.0017825532924657349
837.0, 0.001311409813675192
838.0, 0.0019128157479470147
839.0, 0.0018285350114981456
840.0, 0.0017719168300989693
841.0, 0.0026527562170755425
842.0, 0.002146910116412078
843.0, 0.002029682592661704
844.0, 0.002431252795639703
845.0, 0.0025799873477381306
846.0, 0.0022221688271434805
847.0, 0.0007280434946182135
848.0, 0.0022198771017976045
849.0, 0.00041497268281414165
850.0, 0.0013067268839580233
851.0, 0.0021403768993513727
852.0, 0.0012014084898079214
853.0, 0.001294912895397872
854.0, 0.001339546012480739
855.0, 0.0007518869686332138
856.0, 0.001721809907977618
857.0, 0.0010439415135575837
858.0, 0.000527050986138729
859.0, 0.00040350332991820256
860.0, 0.0007259974592937321
861.0, 4.5682591764227925e-05
862.0, 4.6032576132701045e-05
863.0, 0.0005672093293298953
864.0, 0.000346246844401584
865.0, 0.0005095983550540977
866.0, 0.00038503105079767415
867.0, 0.0006099062040955122
868.0, 0.000957754824488332
869.0, 0.002269900743297311
870.0, 0.00038309547456477676
871.0, 0.0010482626079867646
872.0, 0.0008737067265504964
873.0, 0.0007043298927788017
874.0, 0.0014133924543043017
875.0, 0.0019089226961964717
876.0, 0.002399617999509362
877.0, 0.001019592420812591
878.0, 0.0012825380222905105
879.0, 0.0015682272272451183
880.0, 0.0028953141220327263
881.0, 0.00242237623014229
882.0, 0.0004754095640125262
883.0, 0.0009235514635923064
884.0, 0.00017175535173660878
885.0, 6.240710491686457e-05
886.0, 0.0009731466410289881
887.0, 0.00017563787649719397
888.0, 6.227209035280959e-05
889.0, 0.0005784673971927455
890.0, 0.000371343219134526
891.0, 0.002109972781177631
892.0, 0.0023949499322449765
893.0, 0.0010568389219445863
894.0, 0.0009305514255720112
895.0, 0.002513414757538419
896.0, 0.0024557038753189866
897.0, 0.0010039485764974
898.0, 0.0006811464688803756
899.0, 0.0004881892110608259
900.0, 0.0007004728123103801
901.0, 0.002167486022815685
902.0, 0.0032760003660041717
903.0, 0.0036448847379526674
904.0, 0.004785269970456618
905.0, 0.005914807094870433
906.0, 0.006017017334695923
907.0, 0.008503297543575764
908.0, 0.011536465798115392
909.0, 0.015351248876060748
910.0, 0.0181288999091191
911.0, 0.0224035848019294
912.0, 0.02810567617960512
913.0, 0.033073416205958765
914.0, 0.03796170963675745
915.0, 0.046508870379813744
916.0, 0.05739183000791208
917.0, 0.0646611194398315
918.0, 0.07494763875675531
919.0, 0.08604691287558364
920.0, 0.09768222469175186
921.0, 0.11144389326670405
922.0, 0.12473769090237957
923.0, 0.13323584362419744
924.0, 0.13731330416609544
925.0, 0.13669610419578557
926.0, 0.13026957140497872
927.0, 0.11841272287206656
928.0, 0.10250280091513857
929.0, 0.08475889996561453
930.0, 0.06729944588917221
931.0, 0.05147637377885066
932.0, 0.040510355149734605
933.0, 0.02972353001588675
934.0, 0.025557818851792445
935.0, 0.021447648711863956
936.0, 0.017793559831385662
937.0, 0.017673774357588202
938.0, 0.01779207737635047
939.0, 0.018165095902045982
940.0, 0.021597622457581997
941.0, 0.023585181118372572
942.0, 0.028623004123455538
943.0, 0.03344780255677127
944.0, 0.03877899003809237
945.0, 0.04605656646646361
946.0, 0.05443505504503947
947.0, 0.06699535499893643
948.0, 0.08373934906056205
949.0, 0.09910009334752297
950.0, 0.12095401044641658
951.0, 0.14780887809631915
952.0, 0.17543342392468933
953.0, 0.2069576165467308
954.0, 0.2449482922893092
955.0, 0.2901189486078613
956.0, 0.34305606523464816
957.0, 0.4040410966124401
958.0, 0.47874975971686756
959.0, 0.5644345295016365
960.0, 0.6656122419300744
961.0, 0.7717447877340271
962.0, 0.8656233596591199
963.0, 0.9370321990823403
964.0, 0.9638353408134961
965.0, 0.9716991495699601
966.0, 0.9733694503974948
967.0, 0.9747314656935502
968.0, 0.9865136140367695
969.0, 0.9980537399327861
970.0, 0.9999111912085759
971.0, 0.9965088241850586
972.0, 0.9790948981605264
973.0, 0.9369149705772011
974.0, 0.8648348617687848
975.0, 0.7581293423693664
976.0, 0.6217398475304134
977.0, 0.48079790087417495
978.0, 0.35492733433926377
979.0, 0.2546260726297886
980.0, 0.18538462847547843
981.0, 0.1359567127959469
982.0, 0.10532683167373284
983.0, 0.08634927694035413
984.0, 0.07616702436855974
985.0, 0.07146205816829411
986.0, 0.07035884513091575
987.0, 0.07126590003245672
988.0, 0.07218389798516332
989.0, 0.07193301854702748
990.0, 0.07084634833668814
991.0, 0.07453903226726726
992.0, 0.0720907743393604
993.0, 0.07126306154943364
994.0, 0.06888663468654373
995.0, 0.0646180890905892
996.0, 0.061709082909852275
997.0, 0.05822624429645238
998.0, 0.05259277299384237
999.0, 0.049884895950181564
1000.0, 0.04368193156822549
1001.0, 0.037903106506597874
1002.0, 0.029621155947151208
1003.0, 0.02351403259113036
1004.0, 0.01975526203384534
1005.0, 0.014859402573758897
1006.0, 0.011293517989022235
1007.0, 0.007864834381665508
1008.0, 0.007788996338601238
1009.0, 0.0054482449532856254
1010.0, 0.006002604442521417
1011.0, 0.005630807552360939
1012.0, 0.004136029400934912
1013.0, 0.0037613080049699273
1014.0, 0.005131121845064617
1015.0, 0.006496759350768621
1016.0, 0.0038474451477997565
1017.0, 0.002705293502763638
1018.0, 0.0051897175876429
1019.0, 0.006212537509595205
1020.0, 0.007285426518212864
1021.0, 0.008364635055163626
1022.0, 0.007634288239517993
1023.0, 0.005910296648669207
1024.0, 0.0056854241843493445
1025.0, 0.005235654190215671
1026.0, 0.005767367374346933
1027.0, 0.004566742858324899
1028.0, 0.00444585988500917
1029.0, 0.005184064593439246
1030.0, 0.0054139229138702736
1031.0, 0.004311628802074654
1032.0, 0.0030624309811529363
1033.0, 0.003305307950685533
1034.0, 0.0029486390909649616
1035.0, 0.001289746097395125
1036.0, 0.0035152940711940233
1037.0, 0.0030057940573279948
1038.0, 0.002446828684200905
1039.0, 0.000851126072339018
1040.0, 0.0014694648273089492
1041.0, 0.0012556159867184772
1042.0, 0.0010712618989198617
1043.0, 0.002687659448981684
1044.0, 0.001212043747277412
1045.0, 0.0017662265098942359
1046.0, 0.0014082922660708173
1047.0, 0.00016714823461163496
1048.0, 0.000633692516172757
1049.0, 0.002618782051349078
1050.0, 0.0027948223334992536
1051.0, 0.0010901567864881174
1052.0, 0.002082566930735106
1053.0, 0.0020317435146516996
1054.0, 0.0005694358246529366
1055.0, 0.000752193165436439
1056.0, 0.0003390230701969184
1057.0, 0.004130933982377342
1058.0, 0.005780379737320506
1059.0, 0.005810612928495602
1060.0, 0.007780171368074223
1061.0, 0.008990401670595166
1062.0, 0.010854304326726839
1063.0, 0.012562956198211569
1064.0, 0.016516464252940663
1065.0, 0.016065988591649795
1066.0, 0.017766977781549925
1067.0, 0.021169971135263754
1068.0, 0.02202213527628248
1069.0, 0.023953368519816
1070.0, 0.029881502933268828
1071.0, 0.033510197412387616
1072.0, 0.03552546101183182
1073.0, 0.03837909292324394
1074.0, 0.03859495360746448
1075.0, 0.040535899348424095
1076.0, 0.04350525878736149
1077.0, 0.04425029078810735
1078.0, 0.044067049531944846
1079.0, 0.04539582706940214
1080.0, 0.047983694916667555
1081.0, 0.049804845777030815
1082.0, 0.05054520566203335
1083.0, 0.05361444710908451
1084.0, 0.05452426243799967
1085.0, 0.05983253043829699
1086.0, 0.06346876015011778
1087.0, 0.06632218899701389
1088.0, 0.07066600151664267
1089.0, 0.0751767183847077
1090.0, 0.07944327278922395
1091.0, 0.08412650390660802
1092.0, 0.08471808966443745
1093.0, 0.08549246539719263
1094.0, 0.0853834272421274
1095.0, 0.08374936433525948
1096.0, 0.07930506158457064
1097.0, 0.07545333816116694
1098.0, 0.07248779454195366
1099.0, 0.06819363199384837
1100.0, 0.06450635976245155
1101.0, 0.06318337005595649
1102.0, 0.05811381501296707
1103.0, 0.05211086117011362
1104.0, 0.04742756434432744
1105.0, 0.04399644903269685
1106.0, 0.03911806346904267
1107.0, 0.03521376066289969
1108.0, 0.03347942854164765
1109.0, 0.030538249903730375
1110.0, 0.026308143118566482
1111.0, 0.024073202803666306
1112.0, 0.02035006857738649
1113.0, 0.01884185414091804
1114.0, 0.0169757513006381
1115.0, 0.01545298240607192
1116.0, 0.014369263420017611
1117.0, 0.011091758515280003
1118.0, 0.009386567031123621
1119.0, 0.00931919430503497
1120.0, 0.009477431465631483
1121.0, 0.009735580568933507
1122.0, 0.0077885320594077885
1123.0, 0.007139389451796031
1124.0, 0.005174560742524267
1125.0, 0.005218195221348128
1126.0, 0.005070901387521747
1127.0, 0.005474255678715567
1128.0, 0.0044926289974570495
1129.0, 0.0027348455461191955
1130.0, 0.002350617347949635
1131.0, 0.003105169959465902
1132.0, 0.0038085991402893767
1133.0, 0.004516229943860731
1134.0, 0.003364651318891688
1135.0, 0.002171745403737832
1136.0, 0.0019283333863951415
1137.0, 0.0018174667007565017
1138.0, 0.0005462973582664177
1139.0, 0.0005720632327123464
1140.0, 0.0007796326646468456
1141.0, 8.07658131032465e-05
1142.0, 0.00019982784248381792
1143.0, 0.001293076418570603
1144.0, 0.0016180286760155336
1145.0, 0.0012556639428947258
1146.0, 0.0024964803105995714
1147.0, 0.002468759906347979
1148.0, 0.0015603571948629262
1149.0, 0.002593634548407147
1150.0, 0.0019122243675148524
1151.0, 0.00040497706885987526
1152.0, 0.0004937272056943181
1153.0, 0.0011211654113757958
1154.0, 0.0009837660993669236
1155.0, 0.00012866891212925306
1156.0, 0.000331777318829301
1157.0, 0.0015299850660457032
1158.0, 0.0018290884100593127
1159.0, 0.0017448201240329528
1160.0, 0.0011039070605128674
1161.0, 0.0019474310253384827
1162.0, 0.0020251024576254904
1163.0, 0.0007814863946945139
1164.0, 0.0012227179129888275
1165.0, 0.001886036244633546
1166.0, 0.0005387696991777733
1167.0, 0.0011839910168173003
1168.0, 0.0010945124138328154
1169.0, 0.0011971718091468076
1170.0, 0.0013535686144721445
1171.0, 0.0010337714954731288
1172.0, 0.0002877947272930332
1173.0, 0.0008179717760416883
1174.0, 0.00031862771621542706
1175.0, 0.0006800113658384877
1176.0, 0.0013582328395437256
1177.0, 0.0020155136194271914
1178.0, 0.0005012802308024036
1179.0, 4.983698841175759e-05
1180.0, 2.5141302308126085e-05
1181.0, 0.0003184972889156083
1182.0, 0.0003758516552774573
1183.0, 0.0008367498329541927
1184.0, 0.0014038297837999395
1185.0, 0.002016881171004377
1186.0, 0.001342158114985385
1187.0, 0.0008616855862112839
1188.0, 0.0011349480156076835
1189.0, 0.001130556954177267
1190.0, 0.0015570006572650707
1191.0, 0.00564492163053744
1192.0, 0.0032128390538141535
1193.0, 0.0027058044331770364
1194.0, 0.0010959153566962527
1195.0, 0.0002909043567094969
1196.0, 0.0014032464891007219
1197.0, 0.003733263460338301
1198.0, 0.003598219725061579
1199.0, 0.0019529013600446095
1200.0, 0.0022703769853823705
1201.0, 0.0041619101207473206
1202.0, 0.003243153059342372
1203.0, 0.0018594730725404241
1204.0, 0.0016295195841923135
1205.0, 0.0003390526184506434
1206.0, 0.003229308252863278
1207.0, 0.0021907063706099604
1208.0, 0.003838703727988442
1209.0, 0.0033553231804388855
1210.0, 0.0034500061894278166
1211.0, 0.003844209230640042
1212.0, 0.004445326438450198
1213.0, 0.006350637048646417
1214.0, 0.003993525456380699
1215.0, 0.0034811259600058
1216.0, 0.0031114057240168315
1217.0, 0.0041497214828196335
1218.0, 0.005000515656943128
1219.0, 0.005898140758706952
1220.0, 0.0037482708135436835
1221.0, 0.0037294605820294463
1222.0, 0.0034135488016040715
1223.0, 0.0030608127904537164
1224.0, 0.004254739256824068
1225.0, 0.0059195225926658174
1226.0, 0.0062809186891698
1227.0, 0.0048580115504959455
1228.0, 0.004365585353725966
1229.0, 0.002737206351853585
1230.0, 0.004565898033016134
1231.0, 0.002958094721973061
1232.0, 0.003844331961615958
1233.0, 0.0037585019582803843
1234.0, 0.0019691314971781587
1235.0, 0.0019163575437181257
1236.0, 0.0007988236674380133
1237.0, 0.0004999799317877182
1238.0, 0.0013455675013257734
1239.0, 0.0005937174357343751
1240.0, 0.0025164128922429896
1241.0, 0.002202772051776235
1242.0, 0.0005366538746863908
1243.0, 0.0026357566066699564
1244.0, 0.0036406792648240433
1245.0, 0.003178156477879224
1246.0, 0.002322869096250678
1247.0, 0.003806924865779887
1248.0, 0.002913562431315151
1249.0, 0.0012821145132701816
1250.0, 0.0017315033555856895
1251.0, 0.0033124114521186007
1252.0, 0.0037297450279340115
1253.0, 0.0023518744783035004
1254.0, 0.0018115085872587224
1255.0, 0.0006818302726160403
1256.0, 0.0017850511723397765
1257.0, 0.0010586341077698702
1258.0, 0.0008278645626620349
1259.0, 0.0027974755551097713
1260.0, 0.003695070346606446
1261.0, 0.0030580057661247296
1262.0, 0.002343930860413366
1263.0, 0.0019713355644897634
1264.0, 0.0026436022272247972
1265.0, 0.001974481909219757
1266.0, 0.000552256858089102
1267.0, 0.002689723275700033
1268.0, 0.003658188397325083
1269.0, 0.0022777456004694644
1270.0, 0.0030416758720018637
1271.0, 0.0032277919449302897
1272.0, 0.0055446959318608624
1273.0, 0.005928490417102281
1274.0, 0.0011860252360997056
1275.0, 0.0034617800055263452
1276.0, 0.0033146939500491327
1277.0, 0.0014339082127625613
1278.0, 0.0005957471545784706
1279.0, 0.001034962964281296
1280.0, 0.0016193119511494203
1281.0, 0.0008563393022547756
1282.0, 0.0007960180292022624
1283.0, 0.00028132213476289136
1284.0, 0.0014589813054270658
1285.0, 0.002223253711901712
1286.0, 0.002240252273645451
1287.0, 0.001984800511502773
1288.0, 0.0014833846934980603
1289.0, 0.0018645755930013373
1290.0, 0.002593463938913188
1291.0, 0.0029666532818417575
1292.0, 0.0029044052787945344
1293.0, 0.00130609914569961
1294.0, 0.00029901782918267245
1295.0, 0.0016475006893614513
1296.0, 0.00227838290786536
1297.0, 0.00073085547583608
1298.0, 0.0005909940177149433
1299.0, 0.0024005454830200138
1300.0, 0.0002851731913858754
1301.0, 0.00011668029758747674
1302.0, 1.9183157097358098e-05
1303, 0.0
1304, 0.0
1305, 0.0
1306, 0.0
1307, 0.0
1308, 0.0
1309, 0.0
1310, 0.0
1311, 0.0
1312, 0.0
1313, 0.0
1314, 0.0
1315, 0.0
1316, 0.0
1317, 0.0
1318, 0.0
1319, 0.0
1320, 0.0
1321, 0.0
1322, 0.0
1323, 0.0
1324, 0.0
1325, 0.0
1326, 0.0
1327, 0.0
1328, 0.0
1329, 0.0
1330, 0.0
1331, 0.0
1332, 0.0
1333, 0.0
1334, 0.0
1335, 0.0
1336, 0.0
1337, 0.0
1338, 0.0
1339, 0.0
1340, 0.0
1341, 0.0
1342, 0.0
1343, 0.0
1344, 0.0
1345, 0.0
1346, 0.0
1347, 0.0
1348, 0.0
1349, 0.0
1350, 0.0
1351, 0.0
1352, 0.0
1353, 0.0
1354, 0.0
1355, 0.0
1356, 0.0
1357, 0.0
1358, 0.0
1359, 0.0
1360, 0.0
1361, 0.0
1362, 0.0
1363, 0.0
1364, 0.0
1365, 0.0
1366, 0.0
1367, 0.0
1368, 0.0
1369, 0.0
1370, 0.0
1371, 0.0
1372, 0.0
1373, 0.0
1374, 0.0
1375, 0.0
1376, 0.0
1377, 0.0
1378, 0.0
1379, 0.0
1380, 0.0
1381, 0.0
1382, 0.0
1383, 0.0
1384, 0.0
1385, 0.0
1386, 0.0
1387, 0.0
1388, 0.0
1389, 0.0
1390, 0.0
1391, 0.0
1392, 0.0
1393, 0.0
1394, 0.0
1395, 0.0
1396, 0.0
1397, 0.0
1398, 0.0
1399, 0.0
1400, 0.0
1401, 0.0
1402, 0.0
1403, 0.0
1404, 0.0
1405, 0.0
1406, 0.0
1407, 0.0
1408, 0.0
1409, 0.0
1410, 0.0
1411, 0.0
1412, 0.0
1413, 0.0
1414, 0.0
1415, 0.0
1416, 0.0
1417, 0.0
1418, 0.0
1419, 0.0
1420, 0.0
1421, 0.0
1422, 0.0
1423, 0.0
1424, 0.0
1425, 0.0
1426, 0.0
1427, 0.0
1428, 0.0
1429, 0.0
1430, 0.0
1431, 0.0
1432, 0.0
1433, 0.0
1434, 0.0
1435, 0.0
1436, 0.0
1437, 0.0
1438, 0.0
1439, 0.0
1440, 0.0
1441, 0.0
1442, 0.0
1443, 0.0
1444, 0.0
1445, 0.0
1446, 0.0
1447, 0.0
1448, 0.0
1449, 0.0
1450, 0.0
1451, 0.0
1452, 0.0
1453, 0.0
1454, 0.0
1455, 0.0
1456, 0.0
1457, 0.0
1458, 0.0
1459, 0.0
1460, 0.0
1461, 0.0
1462, 0.0
1463, 0.0
1464, 0.0
1465, 0.0
1466, 0.0
1467, 0.0
1468, 0.0
1469, 0.0
1470, 0.0
1471, 0.0
1472, 0.0
1473, 0.0
1474, 0.0
1475, 0.0
1476, 0.0
1477, 0.0
1478, 0.0
1479, 0.0
1480, 0.0
1481, 0.0
1482, 0.0
1483, 0.0
1484, 0.0
1485, 0.0
1486, 0.0
1487, 0.0
1488, 0.0
1489, 0.0
1490, 0.0
1491, 0.0
1492, 0.0
1493, 0.0
1494, 0.0
1495, 0.0
1496, 0.0
1497, 0.0
1498, 0.0
1499, 0.0
1500, 0.0
1501, 0.0
1502, 0.0
1503, 0.0
1504, 0.0
1505, 0.0
1506, 0.0
1507, 0.0
1508, 0.0
1509, 0.0
1510, 0.0
1511, 0.0
1512, 0.0
1513, 0.0
1514, 0.0
1515, 0.0
1516, 0.0
1517, 0.0
1518, 0.0
1519, 0.0
1520, 0.0
1521, 0.0
1522, 0.0
1523, 0.0
1524, 0.0
1525, 0.0
1526, 0.0
1527, 0.0
1528, 0.0
1529, 0.0
1530, 0.0
1531, 0.0
1532, 0.0
1533, 0.0
1534, 0.0
1535, 0.0
1536, 0.0
1537, 0.0
1538, 0.0
1539, 0.0
1540, 0.0
1541, 0.0
1542, 0.0
1543, 0.0
1544, 0.0
1545, 0.0
1546, 0.0
1547, 0.0
1548, 0.0
1549, 0.0
1550, 0.0
1551, 0.0
1552, 0.0
1553, 0.0
1554, 0.0
1555, 0.0
1556, 0.0
1557, 0.0
1558, 0.0
1559, 0.0
1560, 0.0
1561, 0.0
1562, 0.0
1563, 0.0
1564, 0.0
1565, 0.0
1566, 0.0
1567, 0.0
1568, 0.0
1569, 0.0
1570, 0.0
1571, 0.0
1572, 0.0
1573, 0.0
1574, 0.0
1575, 0.0
1576, 0.0
1577, 0.0
1578, 0.0
1579, 0.0
1580, 0.0
1581, 0.0
1582, 0.0
1583, 0.0
1584, 0.0
1585, 0.0
1586, 0.0
1587, 0.0
1588, 0.0
1589, 0.0
1590, 0.0
1591, 0.0
1592, 0.0
1593, 0.0
1594, 0.0
1595, 0.0
1596, 0.0
1597, 0.0
1598, 0.0
1599, 0.0
