30, 0.0
31, 0.0
32, 0.0
33, 0.0
34, 0.0
35, 0.0
36, 0.0
37, 0.0
38, 0.0
39, 0.0
40, 0.0
41, 0.0
42, 0.0
43, 0.0
44, 0.0
45, 0.0
46, 0.0
47, 0.0
48, 0.0
49, 0.0
50, 0.0
51, 0.0
52, 0.0
53, 0.0
54, 0.0
55, 0.0
56, 0.0
57, 0.0
58, 0.0
59, 0.0
60, 0.0
61, 0.0
62, 0.0
63, 0.0
64, 0.0
65, 0.0
66, 0.0
67, 0.0
68, 0.0
69, 0.0
70, 0.0
71, 0.0
72, 0.0
73, 0.0
74, 0.0
75, 0.0
76, 0.0
77, 0.0
78, 0.0
79, 0.0
80, 0.0
81, 0.0
82, 0.0
83, 0.0
84, 0.0
85, 0.0
86, 0.0
87, 0.0
88, 0.0
89, 0.0
90, 0.0
91, 0.0
92, 0.0
93, 0.0
94, 0.0
95, 0.0
96, 0.0
97, 0.0
98, 0.0
99, 0.0
100, 0.0
101, 0.0
102, 0.0
103, 0.0
104, 0.0
105, 0.0
106, 0.0
107, 0.0
108, 0.0
109, 0.0
110, 0.0
111, 0.0
112, 0.0
113, 0.0
114, 0.0
115, 0.0
116, 0.0
117, 0.0
118, 0.0
119, 0.0
120, 0.0
121, 0.0
122, 0.0
123, 0.0
124, 0.0
125, 0.0
126, 0.0
127, 0.0
128, 0.0
129, 0.0
130, 0.0
131, 0.0
132, 0.0
133, 0.0
134, 0.0
135, 0.0
136, 0.0
137, 0.0
138, 0.0
139, 0.0
140, 0.0
141, 0.0
142, 0.0
143, 0.0
144, 0.0
145, 0.0
146, 0.0
147, 0.0
148, 0.0
149, 0.0
150, 0.0
151, 0.0
152, 0.0
153, 0.0
154.0, 0.00041116699137179284
155.0, 0.010823340027027343
156.0, 0.020185968762203934
157.0, 0.02328213402153766
158.0, 0.026861524475457664
159.0, 0.027659490985982527
160.0, 0.032132019388487365
161.0, 0.04294711372209156
162.0, 0.056389878950051694
163.0, 0.053510422592882634
164.0, 0.05934886513476422
165.0, 0.06398248287478911
166.0, 0.0584837546598715
167.0, 0.04758889850716008
168.0, 0.05087953907162735
169.0, 0.06192647524271487
170.0, 0.06523895856945425
171.0, 0.054039563571588345
172.0, 0.06256929625356189
173.0, 0.059449788570621324
174.0, 0.05166931149861111
175.0, 0.05237591176539109
176.0, 0.04994730591413468
177.0, 0.0570675470035002
178.0, 0.05709467276189202
179.0, 0.049091471382251346
180.0, 0.05115763121428419
181.0, 0.0453023464400263
182.0, 0.042367595961015976
183.0, 0.04040546250916322
184.0, 0.03213244813689231
185.0, 0.02837451812688865
186.0, 0.026019739331469883
187.0, 0.02261796727743917
188.0, 0.018212832481814392
189.0, 0.01544790764875828
190.0, 0.011548342596647805
191.0, 0.010535280673577051
192.0, 0.011321576695431447
193.0, 0.007158564307772112
194.0, 0.0013342212352105433
195.0, 0.0014548259662345976
196.0, 0.0024442932385028734
197.0, 0.0008245705699017835
198.0, 0.0015448439884470963
199.0, 0.004219777276847083
200.0, 0.006175810584522907
201.0, 0.002813678777495268
202.0, 0.0038274471408081883
203.0, 0.0013777673505144937
204.0, 0.0019386971696139705
205.0, 0.002991852888199107
206.0, 0.005803076570409999
207.0, 0.006358805769261106
208.0, 0.006537969410783432
209.0, 0.004550890121697458
210.0, 0.00891630120102991
211.0, 0.008691726628387906
212.0, 0.012733570951305418
213.0, 0.014346306841876962
214.0, 0.013840055111755907
215.0, 0.01655410323902019
216.0, 0.02220422769754743
217.0, 0.02478521106077803
218.0, 0.024730294335015182
219.0, 0.0239824014975239
220.0, 0.024556221734953594
221.0, 0.025276837098910702
222.0, 0.029243770678628735
223.0, 0.033392309415212124
224.0, 0.031894088343557774
225.0, 0.03152526533078221
226.0, 0.03499494934351077
227.0, 0.038242731103940636
228.0, 0.0375295322833326
229.0, 0.03255264588118772
230.0, 0.030807249865890316
231.0, 0.028423971186471508
232.0, 0.02456597917286405
233.0, 0.02113454912107534
234.0, 0.0201798109766967
235.0, 0.018059399110845017
236.0, 0.018421348072582718
237.0, 0.02021379980502863
238.0, 0.012219487486706886
239.0, 0.011155687242784228
240.0, 0.011181091656379505
241.0, 0.007945389988409483
242.0, 0.0017683825299476298
243.0, 0.005314950975067699
244.0, 0.004363090669841027
245.0, 0.0009353719791609764
246.0, 0.0020095561858177215
247.0, 0.0009633141189984808
248.0, 0.007477984035958911
249.0, 0.004645564950606106
250.0, 0.0015364492344459963
251.0, 0.003160765660761773
252.0, 0.00700483554631647
253.0, 0.007256414850467705
254.0, 0.009871598893856663
255.0, 0.01348722311096834
256.0, 0.008192025589632947
257.0, 0.012666358851616901
258.0, 0.014903369721144994
259.0, 0.015606525390289805
260.0, 0.01805701312095339
261.0, 0.019614418135805
262.0, 0.013851566868237805
263.0, 0.01692958045537369
264.0, 0.025353665731612875
265.0, 0.021306281150732454
266.0, 0.025567378925058504
267.0, 0.026467228382274225
268.0, 0.025349053048505377
269.0, 0.02681248923318753
270.0, 0.03057027731827628
271.0, 0.03054394049353861
272.0, 0.02994056025321687
273.0, 0.027814376880678556
274.0, 0.023598380930914
275.0, 0.028602051593936334
276.0, 0.02644790036218917
277.0, 0.02227177563587999
278.0, 0.02035825896947588
279.0, 0.016901093722184173
280.0, 0.01889214905176437
281.0, 0.020790088896392608
282.0, 0.021535544842871113
283.0, 0.0214194189993032
284.0, 0.016995372845027574
285.0, 0.014998923500686713
286.0, 0.01943347243518429
287.0, 0.02512907963077996
288.0, 0.024018073349734628
289.0, 0.02393111063488906
290.0, 0.023952398359041067
291.0, 0.025117837501476448
292.0, 0.025796121527425976
293.0, 0.02243187574844425
294.0, 0.02203967673947506
295.0, 0.016341625879614265
296.0, 0.013149635991903703
297.0, 0.018005155316779112
298.0, 0.01606830695406048
299.0, 0.00784319414873484
300.0, 0.008503773373049972
301.0, 0.012936648258572056
302.0, 0.008243983817008218
303.0, 0.006823753436135789
304.0, 0.007646015257178215
305.0, 0.00620498379411508
306.0, 0.004868514837044627
307.0, 0.008632276774464789
308.0, 0.0033050673072629287
309.0, 0.0008065185130609541
310.0, 3.086381207525297e-05
311.0, 0.002251058333120443
312.0, 0.004090183533853662
313.0, 0.0008704537723453941
314.0, 0.0027630910611721933
315.0, 0.0008114843380658265
316.0, 0.000368932149928542
317.0, 0.0021616574381183216
318.0, 0.0007266219968714486
319.0, 0.0011006739314916802
320.0, 0.00274792985389627
321.0, 0.0014918881266367055
322.0, 0.00580912709347399
323.0, 0.009152885822665751
324.0, 0.006026882162676243
325.0, 0.0013011997833537986
326.0, 0.007606264876315654
327.0, 0.011795551837841475
328.0, 0.013252701944254501
329.0, 0.011770843929596913
330.0, 0.010155656009126733
331.0, 0.016156054577658348
332.0, 0.01739831085791653
333.0, 0.01571670070265026
334.0, 0.01539069632179274
335.0, 0.017581755209213
336.0, 0.016569510602355883
337.0, 0.012643016150699338
338.0, 0.00882847682141573
339.0, 0.008122963550965211
340.0, 0.010421823172754441
341.0, 0.004912195596690733
342.0, 0.0018028654556587695
343.0, 0.0017178439111925601
344.0, 0.002349915256294553
345.0, 0.0009820196563712484
346.0, 0.0029010453067286265
347.0, 0.00686963022832956
348.0, 0.007802593936335654
349.0, 0.005226460394524403
350.0, 0.0036689329369811226
351.0, 0.004777318800981806
352.0, 0.00975647617298173
353.0, 0.014495249734872538
354.0, 0.015196806596602776
355.0, 0.012747381155336452
356.0, 0.02113858054632756
357.0, 0.022665008131346618
358.0, 0.02502879713980313
359.0, 0.03376553854462362
360.0, 0.03308512376518691
361.0, 0.03642104479505808
362.0, 0.03921452188929673
363.0, 0.04136802079292643
364.0, 0.045679579110814814
365.0, 0.054027396087909296
366.0, 0.05594637764829081
367.0, 0.06220859471746968
368.0, 0.06769894157608701
369.0, 0.06439109419113101
370.0, 0.06579934432708666
371.0, 0.06802719488567799
372.0, 0.06825279340032926
373.0, 0.06871655083163536
374.0, 0.07201095363532038
375.0, 0.07332758265512884
376.0, 0.07329181680823656
377.0, 0.07434528058471036
378.0, 0.07417052397459124
379.0, 0.07064285131667772
380.0, 0.07162572258486559
381.0, 0.07061098999787142
382.0, 0.067874420563921
383.0, 0.06379768497698533
384.0, 0.059564443534797874
385.0, 0.06005308146617042
386.0, 0.06164384785189485
387.0, 0.061518341152092676
388.0, 0.060132405867992164
389.0, 0.05869991415515001
390.0, 0.055969649129535774
391.0, 0.055928402339533986
392.0, 0.05567470629307391
393.0, 0.05315594352717196
394.0, 0.0493668723831712
395.0, 0.05016620061634584
396.0, 0.04698991095633487
397.0, 0.04698448024690548
398.0, 0.04937147793680927
399.0, 0.046438162942512504
400.0, 0.04821905838824388
401.0, 0.04858498655444417
402.0, 0.05124477343292703
403.0, 0.05435653877142296
404.0, 0.05236758413252321
405.0, 0.05337342996221502
406.0, 0.05755577013651713
407.0, 0.05832233348488517
408.0, 0.057477202971276495
409.0, 0.06359309828728882
410.0, 0.07074156967761905
411.0, 0.07341109891930978
412.0, 0.07805230807448327
413.0, 0.08181750702178758
414.0, 0.0778203574280411
415.0, 0.08005965595730703
416.0, 0.08045988125124313
417.0, 0.07899815499310359
418.0, 0.07995549536962782
419.0, 0.08450876216282785
420.0, 0.08150837167524866
421.0, 0.07588736394029152
422.0, 0.07574062757794266
423.0, 0.07516429528277625
424.0, 0.06565478216137537
425.0, 0.060290965170356106
426.0, 0.05179788069899171
427.0, 0.042052933220184795
428.0, 0.03352087498364016
429.0, 0.026135616666911696
430.0, 0.016094441454684895
431.0, 0.011915708336076003
432.0, 0.00988557168679574
433.0, 0.006461092259012533
434.0, 0.002129041609167647
435.0, 0.0024684339230375265
436.0, 0.002977108387673202
437.0, 0.0056870296912007855
438.0, 0.0052377635981822645
439.0, 0.005227059246250408
440.0, 0.004231904323771886
441.0, 0.007478137280553341
442.0, 0.008573721240945732
443.0, 0.005113314160239063
444.0, 0.00016869707311834947
445.0, 0.0014375067478673103
446.0, 0.002420459742350405
447.0, 0.0009860440944033687
448.0, 0.0012649123393664238
449.0, 0.0037368387920422336
450.0, 0.0031340876149445656
451.0, 0.006627850023940593
452.0, 0.0033844282076566827
453.0, 0.00015611267737172018
454.0, 0.0013151836161227849
455.0, 0.00479246797027629
456.0, 0.005882567019590681
457.0, 0.005569500736590548
458.0, 0.007629685782673716
459.0, 0.009100985290103124
460.0, 0.006236622248568985
461.0, 0.008258696379160562
462.0, 0.006086427468388287
463.0, 0.005002855899091705
464.0, 0.006042837462224083
465.0, 0.007080546001367545
466.0, 0.00908686792225175
467.0, 0.0087005533708427
468.0, 0.008764428663027578
469.0, 0.008955233727524539
470.0, 0.008952424787869217
471.0, 0.010936282757238921
472.0, 0.008771858573581544
473.0, 0.010239619210833032
474.0, 0.012341628903030635
475.0, 0.01389851907021275
476.0, 0.01825139256591492
477.0, 0.01726838071113837
478.0, 0.021002215299460263
479.0, 0.025067297391409882
480.0, 0.025398973618406474
481.0, 0.024023470065202307
482.0, 0.023638942118806155
483.0, 0.02465056040141869
484.0, 0.024594705959410205
485.0, 0.022460912606270273
486.0, 0.020214599291604025
487.0, 0.0242077964199946
488.0, 0.01962433045240525
489.0, 0.020468615215521825
490.0, 0.022024498285096308
491.0, 0.02030765282449483
492.0, 0.02230296924553053
493.0, 0.020034719383378242
494.0, 0.016283881042069827
495.0, 0.011694935154848799
496.0, 0.007052390912461955
497.0, 0.0048887011889081206
498.0, 0.010280300316920087
499.0, 0.006636025971517335
500.0, 0.002387804433226116
501.0, 0.0005676663535799063
502.0, 0.0007091888640875849
503.0, 0.0009984640546893272
504.0, 0.0018155451114882511
505.0, 0.0018328754115600038
506.0, 0.0003172692544444462
507.0, 0.00039365478557689044
508.0, 0.0011681011382865232
509.0, 0.0032683486966960064
510.0, 0.002085883122012456
511.0, 0.0014016090265392845
512.0, 0.005687535466355013
513.0, 0.01166404583507168
514.0, 0.013617619657097445
515.0, 0.01164321501125657
516.0, 0.014278570825069918
517.0, 0.015382530357835805
518.0, 0.012140374226111007
519.0, 0.016623114242427583
520.0, 0.02430548108013327
521.0, 0.03150014544510705
522.0, 0.034199783685900244
523.0, 0.03599512379621445
524.0, 0.04231408239872365
525.0, 0.04128805517868816
526.0, 0.048087698925972075
527.0, 0.05252428427980772
528.0, 0.05774578675898262
529.0, 0.06726308279744797
530.0, 0.06974144011765701
531.0, 0.072454289419774
532.0, 0.07531605818794364
533.0, 0.07974274615868003
534.0, 0.08502179529545151
535.0, 0.08826001361974226
536.0, 0.08932293173664867
537.0, 0.09046088439262928
538.0, 0.0898079242474947
539.0, 0.09210552760244085
540.0, 0.0990171360863741
541.0, 0.09714299437256792
542.0, 0.09466597010692154
543.0, 0.09869202193954937
544.0, 0.10278873684572845
545.0, 0.10336620625363457
546.0, 0.10264592032893437
547.0, 0.09635481982103908
548.0, 0.0973447728071659
549.0, 0.09712067081555982
550.0, 0.09762499555751603
551.0, 0.10060887906500725
552.0, 0.09665401739798352
553.0, 0.09930074875719054
554.0, 0.09310886212911658
555.0, 0.09211907903397897
556.0, 0.09671394595003426
557.0, 0.09410186217033631
558.0, 0.09527381947606313
559.0, 0.09780684120495044
560.0, 0.09939542049805636
561.0, 0.10062850592850321
562.0, 0.10306510369781686
563.0, 0.10732617041151102
564.0, 0.11095565087357187
565.0, 0.11244792866422089
566.0, 0.11620550541840732
567.0, 0.11824701613691288
568.0, 0.1158209432817971
569.0, 0.12263401929910958
570.0, 0.12616900785492385
571.0, 0.12783693028188683
572.0, 0.13242847302605382
573.0, 0.13559445842343826
574.0, 0.1324764715606533
575.0, 0.13808376482797838
576.0, 0.15021272472218275
577.0, 0.1562108202396576
578.0, 0.15509646314898354
579.0, 0.1527897436727995
580.0, 0.15541068396563001
581.0, 0.16478018894163904
582.0, 0.16813870951406834
583.0, 0.17173877527994416
584.0, 0.1822386215789237
585.0, 0.19173016386977204
586.0, 0.18532678627278643
587.0, 0.19441329759111384
588.0, 0.19506045662999963
589.0, 0.18889450560063717
590.0, 0.18748773559928542
591.0, 0.19129994706007228
592.0, 0.18635469557972284
593.0, 0.17960757672053007
594.0, 0.1714822827094492
595.0, 0.16569681902456612
596.0, 0.15970379226214904
597.0, 0.1475073253647187
598.0, 0.14391825471434624
599.0, 0.14186333670865792
600.0, 0.13078302206095913
601.0, 0.12146204783900748
602.0, 0.12021339612909947
603.0, 0.11507344612366646
604.0, 0.11588655148216848
605.0, 0.11356274052519898
606.0, 0.10694251803081964
607.0, 0.10047679821426077
608.0, 0.09626033330408074
609.0, 0.08940168711338874
610.0, 0.0852675046502193
611.0, 0.0852153925583813
612.0, 0.08300148532249338
613.0, 0.07568516947769907
614.0, 0.06772018557402502
615.0, 0.06760043805246434
616.0, 0.0641707648291862
617.0, 0.061316509057723234
618.0, 0.05465139897178345
619.0, 0.04687913824233304
620.0, 0.04505043429753786
621.0, 0.04219557505196688
622.0, 0.03875650015509979
623.0, 0.033863633403474244
624.0, 0.033779579225042655
625.0, 0.034699491238372154
626.0, 0.027198688173463895
627.0, 0.02609242214920195
628.0, 0.023379747281656964
629.0, 0.020395030366306507
630.0, 0.016159570067354988
631.0, 0.012940598453877053
632.0, 0.01270658594634851
633.0, 0.0019880612035356204
634.0, 0.0022773600363904536
635.0, 0.0038381548906298345
636.0, 0.00273699317665053
637.0, 0.0016938581470349779
638.0, 0.003217153358166286
639.0, 0.000754521151256799
640.0, 0.002012235951364954
641.0, 0.0040801322845079365
642.0, 0.0031451400937650073
643.0, 0.0017379353425031254
644.0, 0.005754109934022553
645.0, 0.005884505492884344
646.0, 0.00028067148116336926
647.0, 0.002411884311738368
648.0, 0.00471014624221272
649.0, 0.0018909064526208999
650.0, 0.0007718950177592978
651.0, 0.0012364503453823708
652.0, 0.0013973930901716577
653.0, 0.0011558193313975249
654.0, 0.0011413314732116148
655.0, 0.001236466027937573
656.0, 0.0006649285884428173
657.0, 0.0007881015176708635
658.0, 0.0007186316559327142
659.0, 0.0005377838054645992
660.0, 0.0017159866200097535
661.0, 0.003357528028405242
662.0, 0.0012114915185208873
663.0, 0.003934994690130937
664.0, 0.006064789684952464
665.0, 0.0067455996392080724
666.0, 0.0053158771387986645
667.0, 0.0035688070058338506
668.0, 0.004850293459828782
669.0, 0.01014857795940308
670.0, 0.009142883602297851
671.0, 0.006603347567481816
672.0, 0.00706833777862779
673.0, 0.009638961078942014
674.0, 0.01212046073912593
675.0, 0.016665670895236108
676.0, 0.010872940132521339
677.0, 0.01153897957517111
678.0, 0.014349925398564167
679.0, 0.014355705638934851
680.0, 0.012866672025184666
681.0, 0.011748972014114763
682.0, 0.00945637795559589
683.0, 0.013725682508508773
684.0, 0.0148116883769144
685.0, 0.011757314003676873
686.0, 0.011141693829874464
687.0, 0.014654478458760986
688.0, 0.017494874660143593
689.0, 0.013362456734749294
690.0, 0.01457276922539151
691.0, 0.017937335722004413
692.0, 0.016883538961787133
693.0, 0.015443246171364385
694.0, 0.016519945003242695
695.0, 0.01773014916404772
696.0, 0.017407544234317097
697.0, 0.01633999231694181
698.0, 0.016180551474566884
699.0, 0.016589937242952744
700.0, 0.01315560277184357
701.0, 0.017447499792400713
702.0, 0.01836365850984095
703.0, 0.015353985355890803
704.0, 0.01506175778460158
705.0, 0.01815828809807428
706.0, 0.014784717520940184
707.0, 0.008501647338558129
708.0, 0.006635248061704037
709.0, 0.01275284228493534
710.0, 0.01625389122593102
711.0, 0.011395528997677037
712.0, 0.008694630355646186
713.0, 0.011171462934728312
714.0, 0.010051740849640443
715.0, 0.007760885877593567
716.0, 0.006036026541750718
717.0, 0.005821888474465543
718.0, 0.00675174168323297
719.0, 0.004880240935949384
720.0, 0.004694234167998155
721.0, 0.002839633601297052
722.0, 0.0065370328815393
723.0, 0.009343799254671513
724.0, 0.006583749821952213
725.0, 0.01124163520959579
726.0, 0.007230261087109492
727.0, 0.006919401553466086
728.0, 0.0037536583206169427
729.0, 0.0017935696655308167
730.0, 0.004400917974411548
731.0, 0.0058506362708081894
732.0, 0.004558699641005124
733.0, 0.007598574434922739
734.0, 0.006537147937939097
735.0, 0.005538330696558557
736.0, 0.006182680443261988
737.0, 0.007135825174976739
738.0, 0.011028362229180836
739.0, 0.01064422260615731
740.0, 0.009053963410739144
741.0, 0.009017003000532148
742.0, 0.00977643154163714
743.0, 0.008784074536176481
744.0, 0.0059831901660751885
745.0, 0.009946126327382563
746.0, 0.0079269886612667
747.0, 0.010703039815665233
748.0, 0.013730878479357438
749.0, 0.013230201066404232
750.0, 0.012737823634752319
751.0, 0.015015225843719686
752.0, 0.019854748785489363
753.0, 0.016713619024455367
754.0, 0.018890424952054122
755.0, 0.02091780468654481
756.0, 0.01898921529075805
757.0, 0.018504804209536607
758.0, 0.015091473648680277
759.0, 0.015688212985965122
760.0, 0.015607157201128952
761.0, 0.016600215325256715
762.0, 0.01729983494165889
763.0, 0.016842942600050616
764.0, 0.017545812504936142
765.0, 0.01633022075207711
766.0, 0.017870013201563457
767.0, 0.015805736367292027
768.0, 0.011560484788955043
769.0, 0.008376967608521291
770.0, 0.00749718722000325
771.0, 0.008877905055669105
772.0, 0.013321248584510314
773.0, 0.010572347617277423
774.0, 0.008976330659031008
775.0, 0.006768015361655941
776.0, 0.0030836718873925575
777.0, 0.002569822911734275
778.0, 0.003691008614626228
779.0, 0.003403139340907184
780.0, 0.007254731319481166
781.0, 0.004085893385535999
782.0, 0.0008860068950139831
783.0, 0.0023050610473681356
784.0, 0.001824802529268788
785.0, 0.004807300271270469
786.0, 0.0030227707970745857
787.0, 0.004046609524710973
788.0, 0.003237181853462085
789.0, 0.0020987952771908294
790.0, 0.001998521619271861
791.0, 0.0002289190895874496
792.0, 0.005698778403400508
793.0, 0.0030090967216464142
794.0, 0.001367133085962134
795.0, 0.0009163363034816828
796.0, 0.0023454804520150452
797.0, 0.0012989404596441703
798.0, 0.0016440044417384192
799.0, 0.0012258207856063455
800.0, 0.0013441543542289422
801.0, 0.0038446577122370528
802.0, 0.006245505669663541
803.0, 0.0060757319804602425
804.0, 0.001686738708919092
805.0, 0.0010584949326082227
806.0, 0.010943744318473125
807.0, 0.009846546506541173
808.0, 0.00652526780685591
809.0, 0.004770219622474098
810.0, 0.005472623293556673
811.0, 0.006068505450175802
812.0, 0.0025525813706868644
813.0, 0.006684521604017423
814.0, 0.00875352135011555
815.0, 0.007689493630383814
816.0, 0.008516393884410549
817.0, 0.008996188545277251
818.0, 0.009164685586775035
819.0, 0.014194502519839152
820.0, 0.012358209472933855
821.0, 0.010774430359653706
822.0, 0.009587473295843807
823.0, 0.011330479791611552
824.0, 0.01274260807536216
825.0, 0.010823540568594598
826.0, 0.009311941669615817
827.0, 0.008875651038802623
828.0, 0.013627151024384812
829.0, 0.014228878040762625
830.0, 0.015786004698475003
831.0, 0.016751828147497903
832.0, 0.015457641141846763
833.0, 0.015916022497126918
834.0, 0.015173744605335342
835.0, 0.0123283003357253
836.0, 0.014967325586908003
837.0, 0.013086769361464225
838.0, 0.012617485221596749
839.0, 0.014424466177800669
840.0, 0.01026934296208458
841.0, 0.009797113806289465
842.0, 0.013870343970437989
843.0, 0.01563043679224141
844.0, 0.013740268377282016
845.0, 0.012811858375880017
846.0, 0.014563580189535215
847.0, 0.016825798132422246
848.0, 0.017969378869745235
849.0, 0.017050942158940003
850.0, 0.011358623340993971
851.0, 0.010376071989453504
852.0, 0.0075330966032417495
853.0, 0.00876324903094733
854.0, 0.016364101900405027
855.0, 0.01373745592818393
856.0, 0.013735274371318041
857.0, 0.013301482855798678
858.0, 0.013100671141517613
859.0, 0.012921763826311937
860.0, 0.011478689558297216
861.0, 0.010852341708742552
862.0, 0.013394487655159227
863.0, 0.012474594100760539
864.0, 0.012376020160755966
865.0, 0.013384631922455275
866.0, 0.01012022355620134
867.0, 0.007771819949099161
868.0, 0.009796009162287254
869.0, 0.010908895220566232
870.0, 0.0069341221172459
871.0, 0.0028738887067020083
872.0, 0.004187076606280348
873.0, 0.004015778410433304
874.0, 0.0037350508028324934
875.0, 0.006562080572814423
876.0, 0.00913983883666099
877.0, 0.006014553006686363
878.0, 0.002799348481451
879.0, 0.0036783433139987855
880.0, 0.004380233386474509
881.0, 0.0017671911407666464
882.0, 0.0025166976701968386
883.0, 0.005386309543142957
884.0, 0.004489724196922109
885.0, 0.0042028009464149165
886.0, 0.003865287861488557
887.0, 0.0018437355124902959
888.0, 0.0009370053238840759
889.0, 0.0028248929943527432
890.0, 0.006591011069395455
891.0, 0.006246516222743663
892.0, 0.0004303384078609926
893.0, 0.000631433595529471
894.0, 0.004086163351222194
895.0, 0.0012269131953264224
896.0, 0.0018565975716559734
897.0, 0.005888202347893086
898.0, 0.0036259926627399204
899.0, 0.002174038127150835
900.0, 0.0011140801003109643
901.0, 0.0018608695783429718
902.0, 0.0008244819854117511
903.0, 0.0002647859227149438
904.0, 0.0010060443507375787
905.0, 0.0007968550946128327
906.0, 0.000610166477944523
907.0, 0.001470859573909667
908.0, 0.0025811751841820145
909.0, 0.000762156587255337
910.0, 0.0024057238801750334
911.0, 0.003680389314043964
912.0, 0.00391126543044616
913.0, 0.0037902846659936835
914.0, 0.004120340907994485
915.0, 0.0037404457740767517
916.0, 0.0010971510566360277
917.0, 0.002163154678602569
918.0, 0.002571188839742959
919.0, 0.0040699287652990615
920.0, 0.0029757469595158774
921.0, 0.003967487299119157
922.0, 0.008493147980103826
923.0, 0.010683761458705036
924.0, 0.009952554274622116
925.0, 0.0066846567604728286
926.0, 0.015171040209371059
927.0, 0.013675839306977335
928.0, 0.014679448765085024
929.0, 0.016786104073452573
930.0, 0.019862172314912063
931.0, 0.030135231193819802
932.0, 0.031571809066160535
933.0, 0.032544288343922805
934.0, 0.04235607890234008
935.0, 0.0465784304338475
936.0, 0.051693728639884494
937.0, 0.05884920060661873
938.0, 0.06498418191232826
939.0, 0.07064192166151305
940.0, 0.07591003460477307
941.0, 0.08745134531721652
942.0, 0.10098220704585059
943.0, 0.10978818620187691
944.0, 0.12229801271734482
945.0, 0.136976247695265
946.0, 0.15358738233077576
947.0, 0.1753359391328378
948.0, 0.19528283751811393
949.0, 0.2155777176951994
950.0, 0.2493703622134927
951.0, 0.2796896806595017
952.0, 0.31419508396327306
953.0, 0.356727026554147
954.0, 0.39839391874182756
955.0, 0.4397390436863294
956.0, 0.49556743762670485
957.0, 0.5612720064324616
958.0, 0.612746969222964
959.0, 0.6835537205458742
960.0, 0.7493127219622947
961.0, 0.8167890120151339
962.0, 0.8757996925185676
963.0, 0.9160217892527565
964.0, 0.9552796391335595
965.0, 0.9861405035784409
966.0, 0.999110828079243
967.0, 0.9955314617385053
968.0, 0.9688748583790692
969.0, 0.9306375999241994
970.0, 0.877963574751463
971.0, 0.8132984808006508
972.0, 0.7496234503923755
973.0, 0.6841259093216112
974.0, 0.610264004841942
975.0, 0.5284110647075667
976.0, 0.46628127683020015
977.0, 0.4097698756986765
978.0, 0.35436718154108054
979.0, 0.3085436423142119
980.0, 0.2719295065301273
981.0, 0.239670303543694
982.0, 0.22410289237562211
983.0, 0.2025509004645794
984.0, 0.1914407100109102
985.0, 0.17667316999150143
986.0, 0.16333521518329885
987.0, 0.15272320369815204
988.0, 0.14379080216537393
989.0, 0.13911728985428695
990.0, 0.1332034707499358
991.0, 0.13058250622546164
992.0, 0.13183509610852084
993.0, 0.12610990155196922
994.0, 0.12151309136707664
995.0, 0.12360756549264085
996.0, 0.12419480149823013
997.0, 0.12071011701180868
998.0, 0.11934984147836565
999.0, 0.114872789297141
1000.0, 0.12035914312174381
1001.0, 0.122562382458444
1002.0, 0.12199327605967221
1003.0, 0.12133648577400624
1004.0, 0.11806148655017995
1005.0, 0.1154957765174725
1006.0, 0.11688150081510891
1007.0, 0.11527178307624657
1008.0, 0.10753525280138566
1009.0, 0.10680725589995643
1010.0, 0.09693527223033571
1011.0, 0.09254695598284773
1012.0, 0.08489016628864092
1013.0, 0.07256100849085277
1014.0, 0.06199535208593931
1015.0, 0.056343523815884186
1016.0, 0.050576668609222934
1017.0, 0.038474430556059994
1018.0, 0.034504184129157796
1019.0, 0.025038203598466684
1020.0, 0.020921144642630403
1021.0, 0.013457547212368783
1022.0, 0.007690093754869634
1023.0, 0.00565075051817904
1024.0, 0.0012849907562652984
1025.0, 0.002807899132597982
1026.0, 0.0003301622492280367
1027.0, 0.002992242489661012
1028.0, 0.0012697615753620402
1029.0, 0.0007477087352036054
1030.0, 0.005274293485733956
1031.0, 0.003428958927459272
1032.0, 0.003767816796100128
1033.0, 0.006475813976621265
1034.0, 0.005947019913938534
1035.0, 0.00570493224215684
1036.0, 0.0016289319082876108
1037.0, 0.001026740629937907
1038.0, 0.0032974816427638587
1039.0, 0.005781227578950357
1040.0, 0.005479310090544051
1041.0, 0.007857035849786326
1042.0, 0.011425029042378736
1043.0, 0.011320108356874027
1044.0, 0.013427215942684962
1045.0, 0.010717124986169467
1046.0, 0.020388603985001166
1047.0, 0.026597316814257456
1048.0, 0.02308539988396208
1049.0, 0.01864333399481438
1050.0, 0.01684874645689336
1051.0, 0.015616597732529618
1052.0, 0.014720253964341967
1053.0, 0.014163377770067941
1054.0, 0.010913900233585681
1055.0, 0.015491613844515466
1056.0, 0.022372101197009185
1057.0, 0.022824251889105772
1058.0, 0.018931661808021763
1059.0, 0.020264694301165304
1060.0, 0.024471288475116527
1061.0, 0.023079995698332433
1062.0, 0.01769296413661216
1063.0, 0.014686547927847812
1064.0, 0.01786819407159594
1065.0, 0.016598427674196416
1066.0, 0.014992404482276274
1067.0, 0.017797084867400715
1068.0, 0.013306564314355772
1069.0, 0.007871032569401911
1070.0, 0.00910492728218174
1071.0, 0.010260469968550581
1072.0, 0.008471990896495613
1073.0, 0.008852749891517535
1074.0, 0.009200561239686865
1075.0, 0.017631587807364547
1076.0, 0.014502273813220336
1077.0, 0.015059585852935478
1078.0, 0.019119414740130746
1079.0, 0.02119590238931627
1080.0, 0.022558831247536895
1081.0, 0.02520025271618744
1082.0, 0.026756215146141796
1083.0, 0.026402413096039794
1084.0, 0.02821062147902416
1085.0, 0.03207660555061115
1086.0, 0.03587708890792173
1087.0, 0.041244430183382155
1088.0, 0.041663632286103106
1089.0, 0.045876689276265356
1090.0, 0.05145251305269211
1091.0, 0.051426790468378517
1092.0, 0.06037184536610242
1093.0, 0.056695142320690894
1094.0, 0.05928902991722097
1095.0, 0.06612400907750753
1096.0, 0.06827039752479999
1097.0, 0.06807809760098141
1098.0, 0.06838665714931716
1099.0, 0.07160891866042189
1100.0, 0.07606611950974596
1101.0, 0.0758465764449858
1102.0, 0.07167979110614768
1103.0, 0.07422597712190548
1104.0, 0.07859030097665747
1105.0, 0.07987026830701305
1106.0, 0.07397611361535479
1107.0, 0.07454512900375648
1108.0, 0.07393488722017894
1109.0, 0.07310139237027918
1110.0, 0.07305867741575854
1111.0, 0.06791792405896775
1112.0, 0.06104763011332574
1113.0, 0.06101453089173778
1114.0, 0.0626708920080515
1115.0, 0.059573721057421064
1116.0, 0.055382077468922035
1117.0, 0.05631060503947104
1118.0, 0.050007948065883254
1119.0, 0.049516444550858074
1120.0, 0.047606678371120745
1121.0, 0.0408384994832153
1122.0, 0.044670006069849125
1123.0, 0.04140629614698337
1124.0, 0.039206839267992726
1125.0, 0.0369258855448951
1126.0, 0.036019509161015845
1127.0, 0.03011735657702959
1128.0, 0.028106574494900952
1129.0, 0.029070643005045024
1130.0, 0.023376771519368456
1131.0, 0.022029917991295254
1132.0, 0.027765619269903525
1133.0, 0.02224956356523621
1134.0, 0.017046174650708266
1135.0, 0.01552984132476495
1136.0, 0.015038144251046286
1137.0, 0.01710911880143056
1138.0, 0.012735945678476204
1139.0, 0.012463514835789915
1140.0, 0.011386562540280335
1141.0, 0.0076852590936547106
1142.0, 0.006551317088824552
1143.0, 0.004833141735015106
1144.0, 0.00029977338232837326
1145.0, 0.0017518896418168757
1146.0, 0.003981909963207447
1147.0, 0.00035879165387564874
1148.0, 0.0026770790683684482
1149.0, 0.003875015239229584
1150.0, 0.0010297246474640562
1151.0, 0.0015713907530734963
1152.0, 0.0007084229920068374
1153.0, 0.0018280019363576012
1154.0, 0.004677693555672646
1155.0, 0.002754308955960981
1156.0, 0.002445977004302741
1157.0, 0.0032209508286267534
1158.0, 0.0001984788512135108
1159.0, 0.0005794506904317928
1160.0, 0.0003203405995386538
1161.0, 0.0017608996592895366
1162.0, 0.0012431076099646212
1163.0, 2.1482383245291766e-05
1164.0, 0.0007533684342834476
1165.0, 0.0011396128004020022
1166.0, 0.0011390064642672103
1167.0, 0.003926853578851189
1168.0, 0.003325867935622559
1169.0, 0.0011897452189782063
1170.0, 0.0012244362676146216
1171.0, 0.005120731411845866
1172.0, 0.006447316311006052
1173.0, 0.0036021217612817683
1174.0, 0.0006555643919285496
1175.0, 0.005245888649640053
1176.0, 0.010758508794729955
1177.0, 0.008026508957441374
1178.0, 0.007711659140787958
1179.0, 0.009638476086548579
1180.0, 0.008109744771634914
1181.0, 0.005952199075821486
1182.0, 0.0076912508828540374
1183.0, 0.009222647469839071
1184.0, 0.010910034048372465
1185.0, 0.00873557351030407
1186.0, 0.007923539954841418
1187.0, 0.010290149006003425
1188.0, 0.011462686986878698
1189.0, 0.011384408782039862
1190.0, 0.013767831440268403
1191.0, 0.012554560228133565
1192.0, 0.014085075615369166
1193.0, 0.008609283673007739
1194.0, 0.012753510711533638
1195.0, 0.013308755805132176
1196.0, 0.017500907337730437
1197.0, 0.017819141637719305
1198.0, 0.015164138654707055
1199.0, 0.015335322310672054
1200.0, 0.014993906779030402
1201.0, 0.012302737901887809
1202.0, 0.012617029482626944
1203.0, 0.013018060408419973
1204.0, 0.014174738085869635
1205.0, 0.018693187822888434
1206.0, 0.016199731587019123
1207.0, 0.015016664293223268
1208.0, 0.019045001621059415
1209.0, 0.01677828118807861
1210.0, 0.013313438187394673
1211.0, 0.013803246152018094
1212.0, 0.016732890215749963
1213.0, 0.017461917555960025
1214.0, 0.013303151815008891
1215.0, 0.01776193317262799
1216.0, 0.019203443093418034
1217.0, 0.015153519150152166
1218.0, 0.01469415139105323
1219.0, 0.014232528271293003
1220.0, 0.017549766790480138
1221.0, 0.014472605883573256
1222.0, 0.012803034106268813
1223.0, 0.01344633569374151
1224.0, 0.013590417903316861
1225.0, 0.013856663647610332
1226.0, 0.0116123333324722
1227.0, 0.008229872832589037
1228.0, 0.011438360699113555
1229.0, 0.011196725693094425
1230.0, 0.009884026288141569
1231.0, 0.012722063008177662
1232.0, 0.008422717281266081
1233.0, 0.011985660479890397
1234.0, 0.010944603127386914
1235.0, 0.007342566695991485
1236.0, 0.006015393174847226
1237.0, 0.007297189530135662
1238.0, 0.010154693279247031
1239.0, 0.011057251071461214
1240.0, 0.007939863313234001
1241.0, 0.003242932499767355
1242.0, 0.007715462555563623
1243.0, 0.009745865073888874
1244.0, 0.009480241389398833
1245.0, 0.009316314667096157
1246.0, 0.011078191915321715
1247.0, 0.007738957605403932
1248.0, 0.008012563472610368
1249.0, 0.011679345569783376
1250.0, 0.009188562192447493
1251.0, 0.005057819394419664
1252.0, 0.006474809874609926
1253.0, 0.007617334769459335
1254.0, 0.006551306287049776
1255.0, 0.008240354888053327
1256.0, 0.0015686379822137774
1257.0, 0.003832324903233865
1258.0, 0.005235714488763682
1259.0, 0.005778876339788472
1260.0, 0.008602311549037992
1261.0, 0.005602812140569117
1262.0, 0.0034045620711225287
1263.0, 0.006781996363803557
1264.0, 0.006276593908925207
1265.0, 0.002462013842502436
1266.0, 0.0068127602711961655
1267.0, 0.012720474805660893
1268.0, 0.003968030236099907
1269.0, 0.002679663026343852
1270.0, 0.001375573599166381
1271.0, 0.003653037978132676
1272.0, 0.0017569283352921543
1273.0, 0.0011036948597744406
1274.0, 0.0028120706577963953
1275.0, 0.004086864629531309
1276.0, 0.0038973524476458256
1277.0, 0.007734567007068479
1278.0, 0.009737694874554613
1279.0, 0.0050053481705510305
1280.0, 0.0002981624439433001
1281.0, 0.0006764762194793072
1282.0, 0.0033914413040183377
1283.0, 0.0027778221409946115
1284.0, 0.0017829584811521488
1285.0, 0.002269285807827836
1286.0, 0.005022262332736376
1287.0, 0.006933972140987855
1288.0, 0.0022987777423691576
1289.0, 0.0013842157669094288
1290.0, 0.003050406951473658
1291.0, 0.005969566062451727
1292.0, 0.002293675904417132
1293.0, 0.0019698103211784595
1294.0, 0.003890308455157155
1295.0, 0.0013371215598840455
1296.0, 0.0017963139289937273
1297.0, 0.0006492017550058849
1298.0, 0.0029764004007696615
1299.0, 0.0018726745071455501
1300.0, 0.00029756937819994225
1301.0, 0.000648313060068581
1302.0, 0.005047857913929765
1303.0, 0.0042140621445926705
1304.0, 0.000521220069166378
1305, 0.0
1306, 0.0
1307, 0.0
1308, 0.0
1309, 0.0
1310, 0.0
1311, 0.0
1312, 0.0
1313, 0.0
1314, 0.0
1315, 0.0
1316, 0.0
1317, 0.0
1318, 0.0
1319, 0.0
1320, 0.0
1321, 0.0
1322, 0.0
1323, 0.0
1324, 0.0
1325, 0.0
1326, 0.0
1327, 0.0
1328, 0.0
1329, 0.0
1330, 0.0
1331, 0.0
1332, 0.0
1333, 0.0
1334, 0.0
1335, 0.0
1336, 0.0
1337, 0.0
1338, 0.0
1339, 0.0
1340, 0.0
1341, 0.0
1342, 0.0
1343, 0.0
1344, 0.0
1345, 0.0
1346, 0.0
1347, 0.0
1348, 0.0
1349, 0.0
1350, 0.0
1351, 0.0
1352, 0.0
1353, 0.0
1354, 0.0
1355, 0.0
1356, 0.0
1357, 0.0
1358, 0.0
1359, 0.0
1360, 0.0
1361, 0.0
1362, 0.0
1363, 0.0
1364, 0.0
1365, 0.0
1366, 0.0
1367, 0.0
1368, 0.0
1369, 0.0
1370, 0.0
1371, 0.0
1372, 0.0
1373, 0.0
1374, 0.0
1375, 0.0
1376, 0.0
1377, 0.0
1378, 0.0
1379, 0.0
1380, 0.0
1381, 0.0
1382, 0.0
1383, 0.0
1384, 0.0
1385, 0.0
1386, 0.0
1387, 0.0
1388, 0.0
1389, 0.0
1390, 0.0
1391, 0.0
1392, 0.0
1393, 0.0
1394, 0.0
1395, 0.0
1396, 0.0
1397, 0.0
1398, 0.0
1399, 0.0
1400, 0.0
1401, 0.0
1402, 0.0
1403, 0.0
1404, 0.0
1405, 0.0
1406, 0.0
1407, 0.0
1408, 0.0
1409, 0.0
1410, 0.0
1411, 0.0
1412, 0.0
1413, 0.0
1414, 0.0
1415, 0.0
1416, 0.0
1417, 0.0
1418, 0.0
1419, 0.0
1420, 0.0
1421, 0.0
1422, 0.0
1423, 0.0
1424, 0.0
1425, 0.0
1426, 0.0
1427, 0.0
1428, 0.0
1429, 0.0
1430, 0.0
1431, 0.0
1432, 0.0
1433, 0.0
1434, 0.0
1435, 0.0
1436, 0.0
1437, 0.0
1438, 0.0
1439, 0.0
1440, 0.0
1441, 0.0
1442, 0.0
1443, 0.0
1444, 0.0
1445, 0.0
1446, 0.0
1447, 0.0
1448, 0.0
1449, 0.0
1450, 0.0
1451, 0.0
1452, 0.0
1453, 0.0
1454, 0.0
1455, 0.0
1456, 0.0
1457, 0.0
1458, 0.0
1459, 0.0
1460, 0.0
1461, 0.0
1462, 0.0
1463, 0.0
1464, 0.0
1465, 0.0
1466, 0.0
1467, 0.0
1468, 0.0
1469, 0.0
1470, 0.0
1471, 0.0
1472, 0.0
1473, 0.0
1474, 0.0
1475, 0.0
1476, 0.0
1477, 0.0
1478, 0.0
1479, 0.0
1480, 0.0
1481, 0.0
1482, 0.0
1483, 0.0
1484, 0.0
1485, 0.0
1486, 0.0
1487, 0.0
1488, 0.0
1489, 0.0
1490, 0.0
1491, 0.0
1492, 0.0
1493, 0.0
1494, 0.0
1495, 0.0
1496, 0.0
1497, 0.0
1498, 0.0
1499, 0.0
1500, 0.0
1501, 0.0
1502, 0.0
1503, 0.0
1504, 0.0
1505, 0.0
1506, 0.0
1507, 0.0
1508, 0.0
1509, 0.0
1510, 0.0
1511, 0.0
1512, 0.0
1513, 0.0
1514, 0.0
1515, 0.0
1516, 0.0
1517, 0.0
1518, 0.0
1519, 0.0
1520, 0.0
1521, 0.0
1522, 0.0
1523, 0.0
1524, 0.0
1525, 0.0
1526, 0.0
1527, 0.0
1528, 0.0
1529, 0.0
1530, 0.0
1531, 0.0
1532, 0.0
1533, 0.0
1534, 0.0
1535, 0.0
1536, 0.0
1537, 0.0
1538, 0.0
1539, 0.0
1540, 0.0
1541, 0.0
1542, 0.0
1543, 0.0
1544, 0.0
1545, 0.0
1546, 0.0
1547, 0.0
1548, 0.0
1549, 0.0
1550, 0.0
1551, 0.0
1552, 0.0
1553, 0.0
1554, 0.0
1555, 0.0
1556, 0.0
1557, 0.0
1558, 0.0
1559, 0.0
1560, 0.0
1561, 0.0
1562, 0.0
1563, 0.0
1564, 0.0
1565, 0.0
1566, 0.0
1567, 0.0
1568, 0.0
1569, 0.0
1570, 0.0
1571, 0.0
1572, 0.0
1573, 0.0
1574, 0.0
1575, 0.0
1576, 0.0
1577, 0.0
1578, 0.0
1579, 0.0
1580, 0.0
1581, 0.0
1582, 0.0
1583, 0.0
1584, 0.0
1585, 0.0
1586, 0.0
1587, 0.0
1588, 0.0
1589, 0.0
1590, 0.0
1591, 0.0
1592, 0.0
1593, 0.0
1594, 0.0
1595, 0.0
1596, 0.0
1597, 0.0
1598, 0.0
1599, 0.0
