30, 0.0
31, 0.0
32, 0.0
33, 0.0
34, 0.0
35, 0.0
36, 0.0
37, 0.0
38, 0.0
39, 0.0
40, 0.0
41, 0.0
42, 0.0
43, 0.0
44, 0.0
45, 0.0
46, 0.0
47, 0.0
48, 0.0
49, 0.0
50, 0.0
51, 0.0
52, 0.0
53, 0.0
54, 0.0
55, 0.0
56, 0.0
57, 0.0
58, 0.0
59, 0.0
60, 0.0
61, 0.0
62, 0.0
63, 0.0
64, 0.0
65, 0.0
66, 0.0
67, 0.0
68, 0.0
69, 0.0
70, 0.0
71, 0.0
72, 0.0
73, 0.0
74, 0.0
75, 0.0
76, 0.0
77, 0.0
78, 0.0
79, 0.0
80, 0.0
81, 0.0
82, 0.0
83, 0.0
84, 0.0
85, 0.0
86, 0.0
87, 0.0
88, 0.0
89, 0.0
90, 0.0
91, 0.0
92, 0.0
93, 0.0
94, 0.0
95, 0.0
96, 0.0
97, 0.0
98, 0.0
99, 0.0
100, 0.0
101, 0.0
102, 0.0
103, 0.0
104, 0.0
105, 0.0
106, 0.0
107, 0.0
108, 0.0
109, 0.0
110, 0.0
111, 0.0
112, 0.0
113, 0.0
114, 0.0
115, 0.0
116, 0.0
117, 0.0
118, 0.0
119, 0.0
120, 0.0
121, 0.0
122, 0.0
123, 0.0
124, 0.0
125, 0.0
126, 0.0
127, 0.0
128, 0.0
129, 0.0
130, 0.0
131, 0.0
132, 0.0
133, 0.0
134, 0.0
135, 0.0
136, 0.0
137, 0.0
138, 0.0
139, 0.0
140, 0.0
141, 0.0
142, 0.0
143, 0.0
144.0, 0.0012189261766242586
145.0, 0.0049791703283034285
146.0, 0.005251475228539715
147.0, 0.0017876307903905023
148.0, 0.0014929498060820476
149.0, 0.004719575042478795
150.0, 0.01281879085599989
151.0, 0.021346470160190135
152.0, 0.03701974257789889
153.0, 0.053531355050558005
154.0, 0.07212395445664523
155.0, 0.09380766808785584
156.0, 0.11163101970998619
157.0, 0.13576392005164864
158.0, 0.16302640073762306
159.0, 0.18967774602479934
160.0, 0.21644497224148837
161.0, 0.24365087093490864
162.0, 0.26808049191515493
163.0, 0.2912411881047697
164.0, 0.315157803712139
165.0, 0.3249215154913178
166.0, 0.33303191222693623
167.0, 0.3425221321190288
168.0, 0.34671190084319564
169.0, 0.3336876961175534
170.0, 0.3168220547539006
171.0, 0.2973385561023838
172.0, 0.27444213829065184
173.0, 0.25237000688649563
174.0, 0.22350185153239924
175.0, 0.19732367346207222
176.0, 0.17800895018402185
177.0, 0.15968295441959823
178.0, 0.13553089951765293
179.0, 0.11359658617007085
180.0, 0.09644390451504394
181.0, 0.08165664487559626
182.0, 0.07442957383442005
183.0, 0.06408404160754683
184.0, 0.052341118159002054
185.0, 0.044523370861904984
186.0, 0.03935049764653631
187.0, 0.035386987157259804
188.0, 0.031075051280528763
189.0, 0.02633015200693293
190.0, 0.022593343849005226
191.0, 0.02624804592907743
192.0, 0.0314991439200102
193.0, 0.03671898874189857
194.0, 0.044396239837088354
195.0, 0.05481822197299475
196.0, 0.06774001753036543
197.0, 0.08324708849860772
198.0, 0.10120679661753734
199.0, 0.1200138984956276
200.0, 0.14508995017140966
201.0, 0.17368990285468416
202.0, 0.20181699283342006
203.0, 0.2347569450085763
204.0, 0.26438208042748934
205.0, 0.3021358519182048
206.0, 0.3443340246379366
207.0, 0.3790081727912504
208.0, 0.41618296852830605
209.0, 0.45522769679343306
210.0, 0.49459499917507205
211.0, 0.5324529630239906
212.0, 0.5657675118489622
213.0, 0.5986793542925715
214.0, 0.6268902610694631
215.0, 0.6495001018324768
216.0, 0.670539099818843
217.0, 0.6846699875773358
218.0, 0.6897254750351763
219.0, 0.6867378198299275
220.0, 0.6774041626724212
221.0, 0.6602236791791067
222.0, 0.6381386772008689
223.0, 0.6135995392373348
224.0, 0.5902484465005203
225.0, 0.5731487228663944
226.0, 0.5590229579042284
227.0, 0.5499175407455014
228.0, 0.5453327526081376
229.0, 0.5439203980833683
230.0, 0.5528420923934496
231.0, 0.5688102841211802
232.0, 0.5869117394269526
233.0, 0.6067072235159668
234.0, 0.6379706294234353
235.0, 0.6638484469736591
236.0, 0.6929005094046464
237.0, 0.7279972286912445
238.0, 0.762349973518885
239.0, 0.8021684799961702
240.0, 0.838763454727367
241.0, 0.8707283135689063
242.0, 0.9029996343158883
243.0, 0.9385625511610816
244.0, 0.9665328652484851
245.0, 0.9844973914551717
246.0, 0.9948779825434497
247.0, 0.9999715993003975
248.0, 0.9919469968314055
249.0, 0.9749160483096312
250.0, 0.9473228500368636
251.0, 0.909912958832306
252.0, 0.872756356337611
253.0, 0.8303053470985658
254.0, 0.7808039411602065
255.0, 0.7282756309144177
256.0, 0.6794047650556276
257.0, 0.6274250723992714
258.0, 0.573545743058978
259.0, 0.5202685928718304
260.0, 0.46935800573850567
261.0, 0.41649337402878217
262.0, 0.36896243905550724
263.0, 0.33006799672110576
264.0, 0.2972913086465044
265.0, 0.2629654481627024
266.0, 0.23542292140520416
267.0, 0.20937311290872215
268.0, 0.18560815575895692
269.0, 0.16673815479444332
270.0, 0.14846490436969836
271.0, 0.12905710026381959
272.0, 0.11837809824538627
273.0, 0.1133017648097619
274.0, 0.10335102555220134
275.0, 0.0976389683240832
276.0, 0.09517462962037834
277.0, 0.09474490328463844
278.0, 0.09652930987041601
279.0, 0.10073503711846454
280.0, 0.10059071838032563
281.0, 0.10182854891839986
282.0, 0.10562752983646335
283.0, 0.10911023937195144
284.0, 0.1089882616717968
285.0, 0.11395960979251381
286.0, 0.11831869956052155
287.0, 0.11834698220992232
288.0, 0.11741598094567025
289.0, 0.11760256058012737
290.0, 0.1189338919734955
291.0, 0.11825997123185204
292.0, 0.11281733705508028
293.0, 0.11007606339818644
294.0, 0.10572068188552577
295.0, 0.09994999183877493
296.0, 0.09477175587854346
297.0, 0.09090852377638932
298.0, 0.08556833132951977
299.0, 0.07973959559502335
300.0, 0.07614517367226903
301.0, 0.07334058890724254
302.0, 0.06657157645099969
303.0, 0.06023665006494614
304.0, 0.05695303810035157
305.0, 0.0527613338709588
306.0, 0.04566147622731742
307.0, 0.042451548366236144
308.0, 0.039016223894957486
309.0, 0.033023252078423146
310.0, 0.026035156735245802
311.0, 0.021005433847266875
312.0, 0.01651662465028763
313.0, 0.012418062107863566
314.0, 0.00786725684228675
315.0, 0.00304659801379265
316.0, 0.0010902305462246287
317.0, 0.001336904110939066
318.0, 0.0030111032134275254
319.0, 0.00592315004400085
320.0, 0.010724618831977438
321.0, 0.009579105005819762
322.0, 0.012290773187993959
323.0, 0.01454546575738444
324.0, 0.01404493875424682
325.0, 0.013637935926778942
326.0, 0.012911274725927666
327.0, 0.012522960877496573
328.0, 0.013392153823788612
329.0, 0.013693513141980893
330.0, 0.01068284338151887
331.0, 0.00895884413824309
332.0, 0.009112620087619034
333.0, 0.008307107045637769
334.0, 0.005815980399541434
335.0, 0.004478652222224377
336.0, 0.0011146868712467932
337.0, 0.002106812828610364
338.0, 0.0029634805297471508
339.0, 0.00194857453673069
340.0, 0.003967980379253945
341.0, 0.00641401602258761
342.0, 0.010432839111899824
343.0, 0.01340157918255792
344.0, 0.011941785392344395
345.0, 0.012211785857725949
346.0, 0.015947867013916026
347.0, 0.01848386883505367
348.0, 0.01943606705800287
349.0, 0.02257248819939489
350.0, 0.026374697460633284
351.0, 0.030124996448700054
352.0, 0.03234973662820607
353.0, 0.033858183699716354
354.0, 0.03779783285330796
355.0, 0.04180660372602347
356.0, 0.04711829500429245
357.0, 0.051651645568947045
358.0, 0.05490950287900136
359.0, 0.061665700844068895
360.0, 0.06709066573408243
361.0, 0.07363194513062114
362.0, 0.07975480530922749
363.0, 0.0847506687385891
364.0, 0.09397332130318865
365.0, 0.10256005433812637
366.0, 0.108274936324258
367.0, 0.11410395498907783
368.0, 0.12126872103518484
369.0, 0.12521613085905386
370.0, 0.12839849575000575
371.0, 0.13430027179014317
372.0, 0.13856811764622853
373.0, 0.13843902134702318
374.0, 0.14041796830112677
375.0, 0.14096784942486074
376.0, 0.13813163784196975
377.0, 0.1340342148741527
378.0, 0.12984604994711924
379.0, 0.1205793904091852
380.0, 0.11557225010478477
381.0, 0.10875928169679723
382.0, 0.10019662184261585
383.0, 0.09418947100931853
384.0, 0.0871559867440695
385.0, 0.07763704666848908
386.0, 0.07043485801553181
387.0, 0.0655543120653593
388.0, 0.05929893095188187
389.0, 0.05258690552596124
390.0, 0.04751822050150329
391.0, 0.044920949277711716
392.0, 0.04202688691182582
393.0, 0.03587068602496769
394.0, 0.03309408206193424
395.0, 0.03025172879395554
396.0, 0.026765903391937778
397.0, 0.023397194521563115
398.0, 0.021540790900360457
399.0, 0.01718087648846681
400.0, 0.014733319632580837
401.0, 0.013526836221532309
402.0, 0.01209740382991148
403.0, 0.010334555503958839
404.0, 0.008138878069728364
405.0, 0.007493701110031704
406.0, 0.0068759853553409965
407.0, 0.0062766383504106685
408.0, 0.006652755295742785
409.0, 0.006568031159538577
410.0, 0.005090021221662173
411.0, 0.004337766366895044
412.0, 0.003933017727110461
413.0, 0.0024949010394832946
414.0, 0.0011920180629865075
415.0, 0.0007124278601669382
416.0, 0.0003270544553154104
417.0, 0.0006490270274285471
418.0, 8.187512506582884e-05
419.0, 0.0007114808177209766
420.0, 0.0005779724504773337
421.0, 0.0021255002306541254
422.0, 0.001482057170288324
423.0, 0.0010064772979461536
424.0, 0.0004723431243411751
425.0, 0.0006506458636814637
426.0, 0.0003312447425372694
427.0, 0.001084286621642808
428.0, 0.0006788494042031316
429.0, 0.003497576830659188
430.0, 0.002417355210979561
431.0, 0.002804260503543706
432.0, 0.003103287542042786
433.0, 0.0014313250051785859
434.0, 0.0005371515272255342
435.0, 0.0021513409337070234
436.0, 0.004800362174018863
437.0, 0.005334678596931708
438.0, 0.004418597424700211
439.0, 0.0076172864462744645
440.0, 0.006419330210080862
441.0, 0.006475075542884095
442.0, 0.006951675143933845
443.0, 0.006881541970020596
444.0, 0.007841829372504544
445.0, 0.010179045461720158
446.0, 0.010918120101757512
447.0, 0.012916487753159112
448.0, 0.015434659276194458
449.0, 0.01550727286244328
450.0, 0.016640810176878705
451.0, 0.018620216927829055
452.0, 0.021145104838951982
453.0, 0.022498997324399563
454.0, 0.021479046488258012
455.0, 0.021823124408228155
456.0, 0.023994654896291212
457.0, 0.025420559662423174
458.0, 0.026501927648306164
459.0, 0.028030961358358933
460.0, 0.028539842274234145
461.0, 0.028223447060073008
462.0, 0.02964525785398388
463.0, 0.030595895238784757
464.0, 0.03100871775784291
465.0, 0.0339152629198481
466.0, 0.036785295652291855
467.0, 0.04002907303035992
468.0, 0.04158754720470745
469.0, 0.041967678704170175
470.0, 0.043234355803622
471.0, 0.043762786989523905
472.0, 0.04647028351486406
473.0, 0.04748933691645269
474.0, 0.04942123674503684
475.0, 0.052998263536006014
476.0, 0.05262913783531543
477.0, 0.05611540775593259
478.0, 0.059570375985144815
479.0, 0.060752993854679714
480.0, 0.06189525592133022
481.0, 0.06542630189564988
482.0, 0.06479415494277509
483.0, 0.06442216279897998
484.0, 0.06542341419827644
485.0, 0.06635417443626399
486.0, 0.0656527076440337
487.0, 0.06328041262898478
488.0, 0.06157546037672368
489.0, 0.06038907341741184
490.0, 0.056031260934677876
491.0, 0.049150321345819745
492.0, 0.04486779254470002
493.0, 0.04281660680894094
494.0, 0.03673949768850971
495.0, 0.03311596760139227
496.0, 0.030988011097931218
497.0, 0.025644809859544673
498.0, 0.02433488560916426
499.0, 0.024638739952588792
500.0, 0.02267782980395001
501.0, 0.02147734869524595
502.0, 0.02332948480934459
503.0, 0.02508407050703362
504.0, 0.027686944604962505
505.0, 0.02870641170901317
506.0, 0.030625372189731916
507.0, 0.03367294742046191
508.0, 0.036143510571191
509.0, 0.03898732592726891
510.0, 0.040906515516644155
511.0, 0.04085377495353925
512.0, 0.040852919946650704
513.0, 0.04222324837335465
514.0, 0.04331399869734002
515.0, 0.04304247928596142
516.0, 0.04197996392817238
517.0, 0.04290458727904901
518.0, 0.043002013568986724
519.0, 0.03852098855583018
520.0, 0.03621912944011787
521.0, 0.03660961895999049
522.0, 0.034722275404065486
523.0, 0.032013401810436895
524.0, 0.030414493184189286
525.0, 0.028948953756107388
526.0, 0.030589593483641903
527.0, 0.02790720031770551
528.0, 0.02592026499684991
529.0, 0.02655568195075025
530.0, 0.027053791444514946
531.0, 0.02588204830144974
532.0, 0.02712610615502824
533.0, 0.025842147697847664
534.0, 0.023270759139617063
535.0, 0.022927043312043725
536.0, 0.024907368536897647
537.0, 0.022777334938325313
538.0, 0.02249599780101106
539.0, 0.02323836223281422
540.0, 0.022936807619037134
541.0, 0.022138159431873968
542.0, 0.024066490563631252
543.0, 0.025314247026823278
544.0, 0.026010952650193257
545.0, 0.025999806182334714
546.0, 0.02552115366120051
547.0, 0.025890801050668287
548.0, 0.02767602902508904
549.0, 0.028983215898737744
550.0, 0.027974079370612023
551.0, 0.02836424271218644
552.0, 0.031521571772969714
553.0, 0.034306914096684425
554.0, 0.03217879436764065
555.0, 0.03147848744795747
556.0, 0.03459117820056727
557.0, 0.0362486971524179
558.0, 0.03450326661031566
559.0, 0.03594425114232045
560.0, 0.03680447930683158
561.0, 0.03798287782157259
562.0, 0.03944488566497961
563.0, 0.04053534623604109
564.0, 0.04087138783576211
565.0, 0.04042094293701725
566.0, 0.04030054500312524
567.0, 0.04091555614070821
568.0, 0.04118453152653341
569.0, 0.041477630893219083
570.0, 0.04246208275411654
571.0, 0.0433746641875114
572.0, 0.041803241959175834
573.0, 0.04082464474837503
574.0, 0.039055045117402924
575.0, 0.03786481701090731
576.0, 0.039173115108749094
577.0, 0.037448172016936905
578.0, 0.0333310873520259
579.0, 0.03202745977046808
580.0, 0.031488513410867086
581.0, 0.0302712946021774
582.0, 0.029926338700724777
583.0, 0.02883190842662366
584.0, 0.028809623846782758
585.0, 0.026959500034502207
586.0, 0.024343644306250065
587.0, 0.02220837193309216
588.0, 0.020099620361776448
589.0, 0.018853923920442796
590.0, 0.017911482174626743
591.0, 0.017377693065945134
592.0, 0.015396391793836459
593.0, 0.012064865623178775
594.0, 0.010360964055771924
595.0, 0.010188323549845045
596.0, 0.008547991598182687
597.0, 0.007874040166352592
598.0, 0.007637332649739699
599.0, 0.006915343628203961
600.0, 0.006639693052649607
601.0, 0.006276146885902922
602.0, 0.0029039173145985753
603.0, 0.0017293310525918963
604.0, 0.00218165823461973
605.0, 0.001600822820965331
606.0, 0.0004389949394574563
607.0, 0.00036455173434432
608.0, 0.002001107077844266
609.0, 0.0035451826520505013
610.0, 0.0049891759206130955
611.0, 0.0063712288392116815
612.0, 0.007291812808491091
613.0, 0.009138671685214633
614.0, 0.008742520487688435
615.0, 0.008584543460605039
616.0, 0.010074463392614414
617.0, 0.011180296402525134
618.0, 0.009995727841658595
619.0, 0.011507802152899073
620.0, 0.01319325579760478
621.0, 0.01402867176051879
622.0, 0.013116224073290663
623.0, 0.01227489037123947
624.0, 0.013099218205119724
625.0, 0.010986184476416125
626.0, 0.012089189401393939
627.0, 0.012430804170965535
628.0, 0.009148658691694386
629.0, 0.004681418460151614
630.0, 0.0036580508084062074
631.0, 0.0027845275085352037
632.0, 0.0005811368471527065
633.0, 0.000733320187333654
634.0, 0.0026778192425251012
635.0, 0.0077083312486796954
636.0, 0.013298150500400795
637.0, 0.015383830687710456
638.0, 0.021521686661379068
639.0, 0.025890392588387212
640.0, 0.030753805373596635
641.0, 0.03712438305595025
642.0, 0.04466643539551201
643.0, 0.05362026302379974
644.0, 0.05562573080746148
645.0, 0.0647348286934457
646.0, 0.07219010680911377
647.0, 0.07757743058107638
648.0, 0.08558727408020439
649.0, 0.09501752817955078
650.0, 0.10442682483959256
651.0, 0.11434840072306307
652.0, 0.12264354192458475
653.0, 0.1338244545046035
654.0, 0.14696321664868459
655.0, 0.15618196487327016
656.0, 0.16576861908395413
657.0, 0.1771257540884035
658.0, 0.18691877817822466
659.0, 0.2004262205091197
660.0, 0.21230624856378089
661.0, 0.22113624973384594
662.0, 0.23747477825966393
663.0, 0.24522827637710312
664.0, 0.25696098229048764
665.0, 0.27059682052573153
666.0, 0.2823523943027564
667.0, 0.2940810015398214
668.0, 0.30910547564016155
669.0, 0.3230805191906844
670.0, 0.337284020518711
671.0, 0.3510080142398299
672.0, 0.3657000978496201
673.0, 0.38116998399571583
674.0, 0.39737209070654633
675.0, 0.4157903134095878
676.0, 0.4326630607365879
677.0, 0.4517807616179037
678.0, 0.46674219001342926
679.0, 0.48009988251871777
680.0, 0.49458718122449025
681.0, 0.5108705120789437
682.0, 0.5357994448794475
683.0, 0.5558855798566996
684.0, 0.5790194612112021
685.0, 0.6032541020365572
686.0, 0.62340331586591
687.0, 0.6453790343175004
688.0, 0.6776896168303672
689.0, 0.7015707805420135
690.0, 0.727176318099429
691.0, 0.7511031270869389
692.0, 0.7766701577773718
693.0, 0.8053996610200916
694.0, 0.8321944800435419
695.0, 0.8553312432262622
696.0, 0.8788928461017141
697.0, 0.9059981988777758
698.0, 0.9253133151199396
699.0, 0.9393716869008746
700.0, 0.9544952894846634
701.0, 0.9642399624504163
702.0, 0.9724478579116169
703.0, 0.9794660850357748
704.0, 0.9897482417212109
705.0, 0.9941535836946981
706.0, 0.9928861829289087
707.0, 0.9913842534576306
708.0, 0.9846357373583937
709.0, 0.9824560441304975
710.0, 0.9743818152878452
711.0, 0.9633444149010617
712.0, 0.9475126783012198
713.0, 0.9300211905303553
714.0, 0.9155426453123133
715.0, 0.8997246383638805
716.0, 0.8804428669968295
717.0, 0.8687298790785336
718.0, 0.8485698481479905
719.0, 0.8292026974518845
720.0, 0.8110659157040275
721.0, 0.7843230690440791
722.0, 0.7617228076771165
723.0, 0.7419995239613353
724.0, 0.717925645678778
725.0, 0.693306576301034
726.0, 0.6719566814782687
727.0, 0.6516462809366863
728.0, 0.6290709099974349
729.0, 0.6067944884551688
730.0, 0.5835266191917385
731.0, 0.563627903431346
732.0, 0.5418659056307662
733.0, 0.5237242581763832
734.0, 0.5081401087306592
735.0, 0.4812546138888099
736.0, 0.4623451519026269
737.0, 0.44058085132360475
738.0, 0.42018500144321225
739.0, 0.40159059049818563
740.0, 0.38316660603066127
741.0, 0.36485141905479096
742.0, 0.3479316619185182
743.0, 0.33405942319739107
744.0, 0.3193409773075011
745.0, 0.29883060194007544
746.0, 0.27952660519755573
747.0, 0.26782859790742136
748.0, 0.25714349260344715
749.0, 0.23798025868052888
750.0, 0.22683404876632568
751.0, 0.2163730066041633
752.0, 0.2027960856426311
753.0, 0.1957018854531025
754.0, 0.18860204126147048
755.0, 0.17468304836033322
756.0, 0.16057834059601167
757.0, 0.15288705413774403
758.0, 0.1403640721478741
759.0, 0.1314332166880186
760.0, 0.12721349532090767
761.0, 0.12249777728760679
762.0, 0.11618187592946809
763.0, 0.1100812173757576
764.0, 0.10286616648298705
765.0, 0.09458331331375572
766.0, 0.09210287349636419
767.0, 0.08857763907331116
768.0, 0.08260898135181217
769.0, 0.07768131811652086
770.0, 0.07366034476324078
771.0, 0.06884796256114849
772.0, 0.06595024928650126
773.0, 0.05925111786167981
774.0, 0.05549203855959939
775.0, 0.05431416478514725
776.0, 0.05156688890124556
777.0, 0.04719565420545206
778.0, 0.045368975119524674
779.0, 0.04173102675558037
780.0, 0.038425871297563086
781.0, 0.035033368334123266
782.0, 0.031235581036794385
783.0, 0.02791506342588061
784.0, 0.02482086688746355
785.0, 0.022214777150058578
786.0, 0.0215350520943596
787.0, 0.016753205517177686
788.0, 0.016114538003962054
789.0, 0.013944945034455798
790.0, 0.011612429216251838
791.0, 0.008322215695480202
792.0, 0.005393323744354447
793.0, 0.008412372451011731
794.0, 0.004348263616186083
795.0, 0.0023786453672429314
796.0, 0.0029876586709613392
797.0, 0.002159159318188897
798.0, 0.0009096296718896494
799.0, 0.00020926019252878142
800.0, 0.001979104968360228
801.0, 0.00046147758380113185
802.0, 0.0008332895713859267
803.0, 0.0017216428225613983
804.0, 0.003662396343135915
805.0, 0.004017745391175762
806.0, 0.004181432092156973
807.0, 0.005160661566058314
808.0, 0.006967757768703209
809.0, 0.009817753780927075
810.0, 0.007445402760404854
811.0, 0.009468781917897384
812.0, 0.008582080720621147
813.0, 0.008315166648370098
814.0, 0.008939854347633657
815.0, 0.00882123143508061
816.0, 0.011465955095058654
817.0, 0.008397465676181999
818.0, 0.006251616943041722
819.0, 0.0075240696448812
820.0, 0.008726380961314775
821.0, 0.007807055344627656
822.0, 0.006289859535078591
823.0, 0.006352035148929275
824.0, 0.007572433812602648
825.0, 0.006254465255408985
826.0, 0.004598893701222617
827.0, 0.003001319534372086
828.0, 0.004768293510473585
829.0, 0.0036915018475449264
830.0, 0.0011306926771978462
831.0, 0.0008825957750904497
832.0, 0.001598358802582782
833.0, 0.0034194222709027205
834.0, 0.005711734592288445
835.0, 0.007226904238661696
836.0, 0.009026462022030442
837.0, 0.011062742958280398
838.0, 0.012427625755098497
839.0, 0.012352579942401843
840.0, 0.011506658142614876
841.0, 0.014679683087434605
842.0, 0.01691857035806166
843.0, 0.017406853583169023
844.0, 0.01733656404413924
845.0, 0.01817465624371572
846.0, 0.020994754870279218
847.0, 0.024142172863487764
848.0, 0.02379766867824669
849.0, 0.024909029227024607
850.0, 0.027254816487165903
851.0, 0.02943114449251296
852.0, 0.031549838742046955
853.0, 0.03403390297174695
854.0, 0.03633354890948223
855.0, 0.03809185044034554
856.0, 0.04103896747069786
857.0, 0.044084171388147894
858.0, 0.04630447633217764
859.0, 0.04771858677946939
860.0, 0.04824528975263229
861.0, 0.05071671883245264
862.0, 0.05300653644169414
863.0, 0.05344703624617683
864.0, 0.05647422335879613
865.0, 0.05773624136409327
866.0, 0.06021445732489785
867.0, 0.06206976646227204
868.0, 0.061409463201863725
869.0, 0.06092898043888769
870.0, 0.06112221946204277
871.0, 0.06105627739115998
872.0, 0.06279157544480979
873.0, 0.06433495806815209
874.0, 0.06460050993949701
875.0, 0.06255224321190872
876.0, 0.060813496917623465
877.0, 0.059099751234080636
878.0, 0.057996390887662036
879.0, 0.057033667560733636
880.0, 0.05393636275707506
881.0, 0.04953257256489532
882.0, 0.04833175622943642
883.0, 0.04615080038700868
884.0, 0.042962290648314236
885.0, 0.04013583511699818
886.0, 0.037588462075757244
887.0, 0.034239932074395775
888.0, 0.03107524048135953
889.0, 0.03030946178619433
890.0, 0.030045946918746416
891.0, 0.0290038270673999
892.0, 0.026666827822470783
893.0, 0.026540383163756516
894.0, 0.028680420450911535
895.0, 0.02995540865553616
896.0, 0.029900976172308625
897.0, 0.02997832604799263
898.0, 0.030015100487386343
899.0, 0.03291339368125094
900.0, 0.035099734072775106
901.0, 0.03630997048706473
902.0, 0.038028156139538666
903.0, 0.04047097600561939
904.0, 0.04189954583517246
905.0, 0.04235242248065953
906.0, 0.04401303730011098
907.0, 0.046919226234919134
908.0, 0.04772707720176847
909.0, 0.04949980110960893
910.0, 0.04906356098328353
911.0, 0.04885333733012044
912.0, 0.04984619361151308
913.0, 0.05194825381104776
914.0, 0.05260004070987961
915.0, 0.05139245561363396
916.0, 0.05267894479737946
917.0, 0.0530174732481504
918.0, 0.05333739839890332
919.0, 0.05361321091539355
920.0, 0.05191446350251611
921.0, 0.05315409272118595
922.0, 0.05325561324223897
923.0, 0.05197211039871376
924.0, 0.05310878453550751
925.0, 0.0517437755750681
926.0, 0.05265792179831887
927.0, 0.05239171292227539
928.0, 0.05269845961290319
929.0, 0.05117946302396013
930.0, 0.05008197373813233
931.0, 0.04991319248987203
932.0, 0.04918693235700018
933.0, 0.04895885922444908
934.0, 0.05030270532927864
935.0, 0.04783486690718184
936.0, 0.047473691273575924
937.0, 0.047861566258643885
938.0, 0.04657741694685953
939.0, 0.044654131245997625
940.0, 0.04318793578755242
941.0, 0.043452613109597686
942.0, 0.044464730427832236
943.0, 0.042847769675391056
944.0, 0.04104394700989968
945.0, 0.040613299517325376
946.0, 0.04058814279654422
947.0, 0.040353410264967485
948.0, 0.03904546738814555
949.0, 0.03803790154187004
950.0, 0.037535472063122334
951.0, 0.03558827627354304
952.0, 0.032708703976148036
953.0, 0.03168589996380008
954.0, 0.02993051859986303
955.0, 0.027759062703511812
956.0, 0.027060060224699416
957.0, 0.026142786698739172
958.0, 0.024601332652609015
959.0, 0.022190076319030007
960.0, 0.01895187397207006
961.0, 0.016391527290731695
962.0, 0.015582793651842723
963.0, 0.014695930497450547
964.0, 0.012874577677483127
965.0, 0.011959941930178268
966.0, 0.008569566001697726
967.0, 0.007780778079309846
968.0, 0.006612307482444701
969.0, 0.004285748480190667
970.0, 0.0029008238677215477
971.0, 0.0035115335016690074
972.0, 0.004463823776805409
973.0, 0.0032852371355662656
974.0, 0.0017480354574251024
975.0, 0.0011822169326237203
976.0, 0.0017093646689293645
977.0, 0.0006299801151470614
978.0, 0.00035202246833989677
979.0, 0.0005499847416276647
980.0, 0.000287597216024067
981.0, 0.0006935682414702373
982.0, 0.0013274149962697946
983.0, 0.0005504847753333336
984.0, 0.00041233100406992093
985.0, 0.00014048867538302045
986.0, 0.0010709508114209135
987.0, 0.0012592627692350363
988.0, 5.957986576441581e-05
989.0, 0.00036146978881639806
990.0, 0.0002472941101748076
991.0, 0.00047052208876771553
992.0, 9.451199510833905e-05
993.0, 0.00032116814305157735
994.0, 0.0013058425441968562
995.0, 0.0005919325165977159
996.0, 0.0013458963102235574
997.0, 0.003416542419175824
998.0, 0.0037441535386823327
999.0, 0.0037784925064435417
1000.0, 0.0036150246499194825
1001.0, 0.004151012184700574
1002.0, 0.004928018350884379
1003.0, 0.004243311473251393
1004.0, 0.006085115122644919
1005.0, 0.0085380207368803
1006.0, 0.007627731266032398
1007.0, 0.006325669930317003
1008.0, 0.005447262652545206
1009.0, 0.006853383640734991
1010.0, 0.007771268318245383
1011.0, 0.00788531812965735
1012.0, 0.0077112923662028075
1013.0, 0.007007918533168998
1014.0, 0.007520527686360767
1015.0, 0.007189020968037597
1016.0, 0.006261939183830383
1017.0, 0.005963916733232916
1018.0, 0.00694111274269235
1019.0, 0.00624776140286519
1020.0, 0.006223856533971692
1021.0, 0.006621927791490646
1022.0, 0.006862103339854544
1023.0, 0.007218515011408136
1024.0, 0.0060999545227971895
1025.0, 0.00466770131971406
1026.0, 0.0066239821567450055
1027.0, 0.005602131410071114
1028.0, 0.005795304572690849
1029.0, 0.006274096025893955
1030.0, 0.00588539032858993
1031.0, 0.006568238575776013
1032.0, 0.00522167728818921
1033.0, 0.004382519030118601
1034.0, 0.006096511153822376
1035.0, 0.006535931573964368
1036.0, 0.0065019902495039765
1037.0, 0.007394516025660564
1038.0, 0.006943997111092962
1039.0, 0.007017435077273829
1040.0, 0.007378668853628029
1041.0, 0.008332346605347532
1042.0, 0.00921397240478198
1043.0, 0.009052139777977924
1044.0, 0.009805355051360171
1045.0, 0.010599681109617043
1046.0, 0.011177375227469272
1047.0, 0.013175841819199336
1048.0, 0.012679128698155332
1049.0, 0.011573923476693197
1050.0, 0.0120884247838995
1051.0, 0.01246930841118674
1052.0, 0.010624034884122151
1053.0, 0.01258072383693794
1054.0, 0.010562865006499843
1055.0, 0.00969649864988936
1056.0, 0.011613591786305652
1057.0, 0.01096144299140476
1058.0, 0.009039984897783937
1059.0, 0.009795453922144185
1060.0, 0.010204897956222597
1061.0, 0.010136406594619006
1062.0, 0.009585769196097778
1063.0, 0.008840064791083605
1064.0, 0.007447554380417589
1065.0, 0.007095316586369723
1066.0, 0.007909656998218774
1067.0, 0.007708236528918559
1068.0, 0.005549344835683761
1069.0, 0.004804062290203256
1070.0, 0.006037673064804539
1071.0, 0.005436540908366502
1072.0, 0.003953193666800998
1073.0, 0.0028311879784923446
1074.0, 0.0025008197064236995
1075.0, 0.0036552282463160595
1076.0, 0.003220364064946029
1077.0, 0.0020262584406478424
1078.0, 0.001856589091735213
1079.0, 0.001836996062273024
1080.0, 0.000991095557034721
1081.0, 0.0011419395156848115
1082.0, 0.0016296736363227682
1083.0, 0.000478378611338836
1084.0, 0.0001680509511004025
1085.0, 0.00010005863964157309
1086.0, 0.0010863932316216415
1087.0, 0.000621196621807346
1088.0, 0.0009258300517137
1089.0, 0.0003609054524707817
1090.0, 0.0011058173034426818
1091.0, 0.0006795383304879794
1092.0, 0.001437729427184669
1093.0, 0.0004973580438680741
1094.0, 0.0009227565825835738
1095.0, 0.0006918904208585062
1096.0, 0.0017888445984190662
1097.0, 0.000992906150038968
1098.0, 0.0005330819493539036
1099.0, 0.001065471274517978
1100.0, 0.00044278129207494474
1101.0, 0.00011564707860953698
1102.0, 0.0009497566568424897
1103.0, 0.00029254992890346095
1104.0, 0.00021690891899624982
1105.0, 0.0018657261847090819
1106.0, 0.002981030765247408
1107.0, 0.0017049011762475797
1108.0, 0.001066665089567546
1109.0, 0.0023107575400868586
1110.0, 0.002114245422602709
1111.0, 0.0019969517366289435
1112.0, 0.0021141619369996366
1113.0, 0.0013702417335287637
1114.0, 0.0015930063452768801
1115.0, 0.0014311832761895813
1116.0, 0.0017482605444946197
1117.0, 0.0024962972963917013
1118.0, 0.0027427569177648076
1119.0, 0.0036391717570125417
1120.0, 0.001481949965599746
1121.0, 0.00016035107952323547
1122.0, 0.0018772847813035669
1123.0, 0.0022666698857676595
1124.0, 0.0012225902893653916
1125.0, 0.0010507111147040867
1126.0, 0.0024029270040514983
1127.0, 0.0025345430565127266
1128.0, 0.003122316131776814
1129.0, 0.0019411996801702242
1130.0, 0.00029968538809210153
1131.0, 8.742144692908829e-05
1132.0, 0.0003426867181266346
1133.0, 0.001135204403597012
1134.0, 0.0018138881049525836
1135.0, 0.001852371379239357
1136.0, 0.0023289708526338187
1137.0, 0.002829381276813794
1138.0, 0.0009613956122543413
1139.0, 0.00043083529096118133
1140.0, 0.002652774846672347
1141.0, 0.0020161972263497514
1142.0, 0.0004908306150794886
1143.0, 0.0004006343146542112
1144.0, 0.0007892270440964407
1145.0, 0.000882518627665327
1146.0, 0.0001503567427370707
1147.0, 0.0008399092851982988
1148.0, 0.0006908522474637151
1149.0, 0.0004095226162187248
1150.0, 0.0006134351011659527
1151.0, 0.0011115124082140594
1152.0, 0.00035662556033166297
1153.0, 0.0018174293392316239
1154.0, 0.0004037527853403117
1155.0, 0.0011062311939474543
1156.0, 0.0001834357894836616
1157.0, 0.00016643360416776439
1158.0, 0.00010494817901729725
1159.0, 0.0008419124606506085
1160.0, 0.00013593862581927948
1161.0, 0.0015368282038009844
1162.0, 0.0005826475484623312
1163.0, 0.0007394907397313571
1164.0, 0.0004463912329456498
1165.0, 0.0005079164093054598
1166.0, 0.0004503281317482954
1167.0, 0.0013514829220820695
1168.0, 0.0015949248980442767
1169.0, 0.0013012335312485297
1170.0, 0.0020791577436254437
1171.0, 0.0023026947306365227
1172.0, 0.0015127837756099215
1173.0, 0.0022665599517667713
1174.0, 0.004284799428764434
1175.0, 0.004601867756125824
1176.0, 0.0043740673248083665
1177.0, 0.006314295394406309
1178.0, 0.006719155061758594
1179.0, 0.00656749478197606
1180.0, 0.006226452087410095
1181.0, 0.006316998690735611
1182.0, 0.007257427710506015
1183.0, 0.007880462182606645
1184.0, 0.008715512366835692
1185.0, 0.009848103314934555
1186.0, 0.010102620684347845
1187.0, 0.011107941229834342
1188.0, 0.010236209842345304
1189.0, 0.008533486952269777
1190.0, 0.010156701783442522
1191.0, 0.01112726304346895
1192.0, 0.011947376107249049
1193.0, 0.012405588039151762
1194.0, 0.01664799763669795
1195.0, 0.014590083549862262
1196.0, 0.014676224156657376
1197.0, 0.017139924808917895
1198.0, 0.016617339522284027
1199.0, 0.01733537924027907
1200.0, 0.019868916554609685
1201.0, 0.01961706534461435
1202.0, 0.01830150920377738
1203.0, 0.018987050509597526
1204.0, 0.019989213694427122
1205.0, 0.019820744340095415
1206.0, 0.019370485763447128
1207.0, 0.021167394002442434
1208.0, 0.022291717994701175
1209.0, 0.021449543238486815
1210.0, 0.02203372242246597
1211.0, 0.022837112685900048
1212.0, 0.022479133187424727
1213.0, 0.022248587550405197
1214.0, 0.024528796365234175
1215.0, 0.02484958372678337
1216.0, 0.023213903570882242
1217.0, 0.02499311310211548
1218.0, 0.02690197700603132
1219.0, 0.02520662592615644
1220.0, 0.023714421460732552
1221.0, 0.024604728490355887
1222.0, 0.024885843511930412
1223.0, 0.024226227916089867
1224.0, 0.02538696059299862
1225.0, 0.024613371133555745
1226.0, 0.022920111598562165
1227.0, 0.021338636448746024
1228.0, 0.024496466094808905
1229.0, 0.023891421834283322
1230.0, 0.021471238605091102
1231.0, 0.019858749922599415
1232.0, 0.021703878751120807
1233.0, 0.02286475849361099
1234.0, 0.02090538672681063
1235.0, 0.01995576751812352
1236.0, 0.018591570894360934
1237.0, 0.016367358229883246
1238.0, 0.016660824659803224
1239.0, 0.016527626351005544
1240.0, 0.014873938042661307
1241.0, 0.015655398877074105
1242.0, 0.016042460453043594
1243.0, 0.014222356198484613
1244.0, 0.01296664409528627
1245.0, 0.00841080204659078
1246.0, 0.008983538956846959
1247.0, 0.010068274351107492
1248.0, 0.006279803370517689
1249.0, 0.005480834559098434
1250.0, 0.006265981584088134
1251.0, 0.0060703592618842036
1252.0, 0.002820934035822623
1253.0, 0.0007147867320578467
1254.0, 0.0026580608174063412
1255.0, 0.0028604855662152737
1256.0, 0.0019196987572308356
1257.0, 0.0009773750599915672
1258.0, 4.679759733501127e-05
1259.0, 9.663153840405776e-05
1260.0, 0.0002745619059423604
1261, 0.0
1262, 0.0
1263, 0.0
1264, 0.0
1265, 0.0
1266, 0.0
1267, 0.0
1268, 0.0
1269, 0.0
1270, 0.0
1271, 0.0
1272, 0.0
1273, 0.0
1274, 0.0
1275, 0.0
1276, 0.0
1277, 0.0
1278, 0.0
1279, 0.0
1280, 0.0
1281, 0.0
1282, 0.0
1283, 0.0
1284, 0.0
1285, 0.0
1286, 0.0
1287, 0.0
1288, 0.0
1289, 0.0
1290, 0.0
1291, 0.0
1292, 0.0
1293, 0.0
1294, 0.0
1295, 0.0
1296, 0.0
1297, 0.0
1298, 0.0
1299, 0.0
1300, 0.0
1301, 0.0
1302, 0.0
1303, 0.0
1304, 0.0
1305, 0.0
1306, 0.0
1307, 0.0
1308, 0.0
1309, 0.0
1310, 0.0
1311, 0.0
1312, 0.0
1313, 0.0
1314, 0.0
1315, 0.0
1316, 0.0
1317, 0.0
1318, 0.0
1319, 0.0
1320, 0.0
1321, 0.0
1322, 0.0
1323, 0.0
1324, 0.0
1325, 0.0
1326, 0.0
1327, 0.0
1328, 0.0
1329, 0.0
1330, 0.0
1331, 0.0
1332, 0.0
1333, 0.0
1334, 0.0
1335, 0.0
1336, 0.0
1337, 0.0
1338, 0.0
1339, 0.0
1340, 0.0
1341, 0.0
1342, 0.0
1343, 0.0
1344, 0.0
1345, 0.0
1346, 0.0
1347, 0.0
1348, 0.0
1349, 0.0
1350, 0.0
1351, 0.0
1352, 0.0
1353, 0.0
1354, 0.0
1355, 0.0
1356, 0.0
1357, 0.0
1358, 0.0
1359, 0.0
1360, 0.0
1361, 0.0
1362, 0.0
1363, 0.0
1364, 0.0
1365, 0.0
1366, 0.0
1367, 0.0
1368, 0.0
1369, 0.0
1370, 0.0
1371, 0.0
1372, 0.0
1373, 0.0
1374, 0.0
1375, 0.0
1376, 0.0
1377, 0.0
1378, 0.0
1379, 0.0
1380, 0.0
1381, 0.0
1382, 0.0
1383, 0.0
1384, 0.0
1385, 0.0
1386, 0.0
1387, 0.0
1388, 0.0
1389, 0.0
1390, 0.0
1391, 0.0
1392, 0.0
1393, 0.0
1394, 0.0
1395, 0.0
1396, 0.0
1397, 0.0
1398, 0.0
1399, 0.0
1400, 0.0
1401, 0.0
1402, 0.0
1403, 0.0
1404, 0.0
1405, 0.0
1406, 0.0
1407, 0.0
1408, 0.0
1409, 0.0
1410, 0.0
1411, 0.0
1412, 0.0
1413, 0.0
1414, 0.0
1415, 0.0
1416, 0.0
1417, 0.0
1418, 0.0
1419, 0.0
1420, 0.0
1421, 0.0
1422, 0.0
1423, 0.0
1424, 0.0
1425, 0.0
1426, 0.0
1427, 0.0
1428, 0.0
1429, 0.0
1430, 0.0
1431, 0.0
1432, 0.0
1433, 0.0
1434, 0.0
1435, 0.0
1436, 0.0
1437, 0.0
1438, 0.0
1439, 0.0
1440, 0.0
1441, 0.0
1442, 0.0
1443, 0.0
1444, 0.0
1445, 0.0
1446, 0.0
1447, 0.0
1448, 0.0
1449, 0.0
1450, 0.0
1451, 0.0
1452, 0.0
1453, 0.0
1454, 0.0
1455, 0.0
1456, 0.0
1457, 0.0
1458, 0.0
1459, 0.0
1460, 0.0
1461, 0.0
1462, 0.0
1463, 0.0
1464, 0.0
1465, 0.0
1466, 0.0
1467, 0.0
1468, 0.0
1469, 0.0
1470, 0.0
1471, 0.0
1472, 0.0
1473, 0.0
1474, 0.0
1475, 0.0
1476, 0.0
1477, 0.0
1478, 0.0
1479, 0.0
1480, 0.0
1481, 0.0
1482, 0.0
1483, 0.0
1484, 0.0
1485, 0.0
1486, 0.0
1487, 0.0
1488, 0.0
1489, 0.0
1490, 0.0
1491, 0.0
1492, 0.0
1493, 0.0
1494, 0.0
1495, 0.0
1496, 0.0
1497, 0.0
1498, 0.0
1499, 0.0
1500, 0.0
1501, 0.0
1502, 0.0
1503, 0.0
1504, 0.0
1505, 0.0
1506, 0.0
1507, 0.0
1508, 0.0
1509, 0.0
1510, 0.0
1511, 0.0
1512, 0.0
1513, 0.0
1514, 0.0
1515, 0.0
1516, 0.0
1517, 0.0
1518, 0.0
1519, 0.0
1520, 0.0
1521, 0.0
1522, 0.0
1523, 0.0
1524, 0.0
1525, 0.0
1526, 0.0
1527, 0.0
1528, 0.0
1529, 0.0
1530, 0.0
1531, 0.0
1532, 0.0
1533, 0.0
1534, 0.0
1535, 0.0
1536, 0.0
1537, 0.0
1538, 0.0
1539, 0.0
1540, 0.0
1541, 0.0
1542, 0.0
1543, 0.0
1544, 0.0
1545, 0.0
1546, 0.0
1547, 0.0
1548, 0.0
1549, 0.0
1550, 0.0
1551, 0.0
1552, 0.0
1553, 0.0
1554, 0.0
1555, 0.0
1556, 0.0
1557, 0.0
1558, 0.0
1559, 0.0
1560, 0.0
1561, 0.0
1562, 0.0
1563, 0.0
1564, 0.0
1565, 0.0
1566, 0.0
1567, 0.0
1568, 0.0
1569, 0.0
1570, 0.0
1571, 0.0
1572, 0.0
1573, 0.0
1574, 0.0
1575, 0.0
1576, 0.0
1577, 0.0
1578, 0.0
1579, 0.0
1580, 0.0
1581, 0.0
1582, 0.0
1583, 0.0
1584, 0.0
1585, 0.0
1586, 0.0
1587, 0.0
1588, 0.0
1589, 0.0
1590, 0.0
1591, 0.0
1592, 0.0
1593, 0.0
1594, 0.0
1595, 0.0
1596, 0.0
1597, 0.0
1598, 0.0
1599, 0.0
