30, 0.0
31, 0.0
32, 0.0
33, 0.0
34, 0.0
35, 0.0
36, 0.0
37, 0.0
38, 0.0
39, 0.0
40, 0.0
41, 0.0
42, 0.0
43, 0.0
44, 0.0
45, 0.0
46, 0.0
47, 0.0
48, 0.0
49, 0.0
50.0, 0.0004254526582696372
51.0, 0.0009454183311607607
52.0, 0.00146257715642538
53.0, 0.0017904970835383655
54.0, 0.0020451020513337667
55.0, 0.002338584673113384
56.0, 0.0029998514241609386
57.0, 0.0034504884531092583
58.0, 0.003925291468824311
59.0, 0.004530313488500566
60.0, 0.004566540638261643
61.0, 0.004435318559648668
62.0, 0.004326086743630847
63.0, 0.004886759629585939
64.0, 0.005265156222089342
65.0, 0.005302029954935161
66.0, 0.004837304714049894
67.0, 0.003831497099337703
68.0, 0.0027148867692830246
69.0, 0.0016596415658495505
70.0, 0.0013316809213103438
71.0, 0.0007434478130725691
72.0, 0.00023176728611765124
73.0, 2.6058497975698925e-05
74.0, 9.764771850290043e-05
75.0, 0.00020661605206933296
76.0, 0.00030749489821814164
77.0, 0.00025034659036334353
78.0, 0.0005256167504865464
79.0, 0.0007036276499153125
80.0, 0.0004642629905352678
81.0, 0.0007703630297670058
82.0, 0.0014115370665306586
83.0, 0.0026138565500556793
84.0, 0.005726942008498762
85.0, 0.009787855273173605
86.0, 0.015343406191635912
87.0, 0.02318077718335195
88.0, 0.032522013634355425
89.0, 0.040403441099187545
90.0, 0.04646773498400157
91.0, 0.04957243214491771
92.0, 0.04969682658404617
93.0, 0.048533056054071363
94.0, 0.04692059108191691
95.0, 0.04572551654656293
96.0, 0.04517149318862352
97.0, 0.04578116844424162
98.0, 0.05021973605733712
99.0, 0.05664182671796108
100.0, 0.06695672623114846
101.0, 0.08329972887891156
102.0, 0.10839446251799445
103.0, 0.137830233707672
104.0, 0.16944204093461995
105.0, 0.19592222866196682
106.0, 0.21224843385824652
107.0, 0.22074711963217977
108.0, 0.22113678027418293
109.0, 0.2065238824720977
110.0, 0.1927679426361224
111.0, 0.1789345106035403
112.0, 0.15988710887869842
113.0, 0.14570161597415024
114.0, 0.1325013521221429
115.0, 0.1186817539079515
116.0, 0.11064356935229035
117.0, 0.10306509322927358
118.0, 0.09599808968319744
119.0, 0.08989593500660857
120.0, 0.08471729221566625
121.0, 0.08072376162676244
122.0, 0.07810482232948811
123.0, 0.07530155911885039
124.0, 0.07245042723318255
125.0, 0.06974486428290563
126.0, 0.06762361755616744
127.0, 0.06612693887386388
128.0, 0.0655209819997658
129.0, 0.06577820250644438
130.0, 0.06417614319069677
131.0, 0.06364717576834934
132.0, 0.06330932387931264
133.0, 0.061959790085310225
134.0, 0.06272358008972896
135.0, 0.06345745954864912
136.0, 0.06373167616651525
137.0, 0.06300602977083126
138.0, 0.0637138615662002
139.0, 0.0649843913067056
140.0, 0.06613229437401973
141.0, 0.06764072204621407
142.0, 0.06943439462488996
143.0, 0.07156169182100633
144.0, 0.07436809392967432
145.0, 0.07828875257877753
146.0, 0.08204711527836821
147.0, 0.08482558334475848
148.0, 0.0884126538064364
149.0, 0.09221070795001189
150.0, 0.09602102464878207
151.0, 0.09930636661052585
152.0, 0.10394914185236415
153.0, 0.10781594477950049
154.0, 0.11007021167817903
155.0, 0.1121150627236506
156.0, 0.11390304330562105
157.0, 0.11496710288625277
158.0, 0.11425924543444681
159.0, 0.11352936392312256
160.0, 0.1119196055134077
161.0, 0.10939244085193622
162.0, 0.10765622558953736
163.0, 0.10510836676399833
164.0, 0.10160893224371507
165.0, 0.09677181051333217
166.0, 0.09577751174404839
167.0, 0.09402062159102594
168.0, 0.09150959114307296
169.0, 0.09009077884073044
170.0, 0.08824557763231894
171.0, 0.0868043270115182
172.0, 0.08624947781550023
173.0, 0.08423204288393481
174.0, 0.08252850082749766
175.0, 0.08121365119178839
176.0, 0.08052199683194931
177.0, 0.07809875965450103
178.0, 0.07599952964545303
179.0, 0.07466150750098244
180.0, 0.07276908945749735
181.0, 0.07131268269905858
182.0, 0.06971299423563088
183.0, 0.06730897352755924
184.0, 0.06597898763316211
185.0, 0.06437081399485968
186.0, 0.06235036285814951
187.0, 0.05985753211851777
188.0, 0.05830977878566095
189.0, 0.057230375247970956
190.0, 0.056438459090797706
191.0, 0.05401328030446664
192.0, 0.05328951889326096
193.0, 0.053544162309054365
194.0, 0.05359261950450451
195.0, 0.052826920089853964
196.0, 0.051619506278654755
197.0, 0.05019567467362511
198.0, 0.049946212921620346
199.0, 0.049393602453546896
200.0, 0.04900549294728091
201.0, 0.04919770135556663
202.0, 0.048382943655687266
203.0, 0.04767565997335921
204.0, 0.04724571871552158
205.0, 0.04748771453191714
206.0, 0.046437203442909476
207.0, 0.04598132371112547
208.0, 0.04659267328240215
209.0, 0.04505571700267096
210.0, 0.04489134842829431
211.0, 0.044842435818868
212.0, 0.04345553763457412
213.0, 0.04223317272909704
214.0, 0.04136124576400852
215.0, 0.0407083829474272
216.0, 0.03967678709257011
217.0, 0.03946848515978617
218.0, 0.038365040283576894
219.0, 0.03563533785627429
220.0, 0.034969538174019765
221.0, 0.03381159857181253
222.0, 0.03264920867214787
223.0, 0.032200755551809415
224.0, 0.030980627873096207
225.0, 0.029705151137711227
226.0, 0.02849377765104113
227.0, 0.027463190672930272
228.0, 0.026562630802809257
229.0, 0.02565524393222831
230.0, 0.024671179450595666
231.0, 0.02347671118822069
232.0, 0.02265907936825162
233.0, 0.022123147204236426
234.0, 0.02177581664698941
235.0, 0.020981931038956052
236.0, 0.02006426139743505
237.0, 0.019174396042941636
238.0, 0.01886131343026925
239.0, 0.018123222433272298
240.0, 0.017385420450397846
241.0, 0.016860152309553636
242.0, 0.016645201980856544
243.0, 0.016353892806170042
244.0, 0.016068302994123415
245.0, 0.015915142583448533
246.0, 0.015410412723180233
247.0, 0.014921457205278623
248.0, 0.014573910605562039
249.0, 0.014735794736048621
250.0, 0.01495671645464092
251.0, 0.014638499267627648
252.0, 0.013541447671790207
253.0, 0.013561623827591754
254.0, 0.013166257923650566
255.0, 0.01253915257059065
256.0, 0.011866226250431253
257.0, 0.011877346257688175
258.0, 0.011710813934772133
259.0, 0.011414402272421815
260.0, 0.01143563351397059
261.0, 0.010805170150264158
262.0, 0.010262924841310703
263.0, 0.01004616324698497
264.0, 0.009913695678849303
265.0, 0.0093704018504052
266.0, 0.0088766188413124
267.0, 0.00886011582986958
268.0, 0.00918782042335488
269.0, 0.009019039109745419
270.0, 0.008518978421781289
271.0, 0.008129593370969013
272.0, 0.0073583400006396685
273.0, 0.006800096747992198
274.0, 0.00661683188218508
275.0, 0.0069936407612736
276.0, 0.0064560049662904136
277.0, 0.005782838767870645
278.0, 0.005412082229422196
279.0, 0.00568008494716886
280.0, 0.005403339544081381
281.0, 0.004917064360546586
282.0, 0.0046839966762307885
283.0, 0.004205875989039196
284.0, 0.003890895183748667
285.0, 0.0037295706551679015
286.0, 0.0035361271133031334
287.0, 0.0036966490935723523
288.0, 0.0036408226357971286
289.0, 0.0032052393512027725
290.0, 0.0027916743622080184
291.0, 0.0027734815571209613
292.0, 0.002663018264912944
293.0, 0.0020686395356427374
294.0, 0.002221327657336656
295.0, 0.0019542099882354567
296.0, 0.0014968019688486704
297.0, 0.0012904967937284475
298.0, 0.001278928253634086
299.0, 0.0012991484348063651
300.0, 0.0013111174852785267
301.0, 0.0012467741371395137
302.0, 0.0011788587850955028
303.0, 0.0009371947263952193
304.0, 0.0005110315078418437
305.0, 0.0007057018302986172
306.0, 0.000591968885508211
307.0, 0.00033966720734254264
308.0, 7.016741132128589e-05
309.0, 0.00023614042458088087
310.0, 0.00034504966909690575
311.0, 0.0003356951421773545
312.0, 0.0001014098393317066
313.0, 0.0002847204731290948
314.0, 0.00024109668816913864
315.0, 8.84750435650285e-05
316.0, 0.0006099120806528392
317.0, 0.0003277706410607842
318.0, 0.00012008707657308207
319.0, 0.000247533923621598
320.0, 0.0004166781307216239
321.0, 0.00022324489999096063
322.0, 0.00010493823157178995
323.0, 0.0003563319146945857
324.0, 0.000555445522132189
325.0, 0.0003515609180434885
326.0, 8.933216894316736e-05
327.0, 0.0002371899693596628
328.0, 0.0006300426621659414
329.0, 0.0005583407957769118
330.0, 0.00023679003674991752
331.0, 0.00037740460603567766
332.0, 0.0006724278109854904
333.0, 0.0006071216145621555
334.0, 0.0002545375700335309
335.0, 0.0006669925820091363
336.0, 0.0008272811734573081
337.0, 0.0007972344548414826
338.0, 0.000597141481820637
339.0, 0.0002980052685640587
340.0, 0.0003902859276568341
341.0, 0.0004440526611539036
342.0, 0.0001059998562057909
343.0, 0.0004208031901189172
344.0, 0.00048794643500367594
345.0, 0.0004203049475201579
346.0, 0.0003943066819232051
347.0, 0.00039216290286162877
348.0, 0.0003843116344296953
349.0, 0.0003666357486929103
350.0, 0.0003346378833428146
351.0, 0.00039450365905413753
352.0, 0.0003391632249990677
353.0, 0.00023063743888170185
354.0, 0.0006189888541271863
355.0, 0.0005993253391647388
356.0, 0.0006024380833544256
357.0, 0.0007451339007849072
358.0, 0.0004168143814809878
359.0, 0.0002772401810415998
360.0, 0.00027217059992926666
361.0, 0.00037254375125092505
362.0, 0.00042056888268694493
363.0, 0.0005111921259967212
364.0, 0.0006879167852027009
365.0, 0.001009685165824034
366.0, 0.0011969234398463825
367.0, 0.001139031940254621
368.0, 0.0011469948342781515
369.0, 0.0018314245394156618
370.0, 0.002083723818324078
371.0, 0.0021724709269286407
372.0, 0.0022912845259879682
373.0, 0.002936634227055389
374.0, 0.0030776921797004064
375.0, 0.0033273587479218754
376.0, 0.003772160528946868
377.0, 0.004104584966982566
378.0, 0.005093516388039812
379.0, 0.006123907867771299
380.0, 0.007040783421365579
381.0, 0.008624009551183733
382.0, 0.010121649523792733
383.0, 0.011844457755576056
384.0, 0.014014588111434894
385.0, 0.017241965879363975
386.0, 0.02087325922653158
387.0, 0.025203420142052044
388.0, 0.030547614522275657
389.0, 0.034551851283654324
390.0, 0.03778053555060772
391.0, 0.04008877684966714
392.0, 0.041190508016003866
393.0, 0.04175288475946188
394.0, 0.04036302287240439
395.0, 0.03746975221597686
396.0, 0.03401359109290078
397.0, 0.029992973111573736
398.0, 0.02654681962112001
399.0, 0.023691688986168996
400.0, 0.021096061955413317
401.0, 0.019873762740749066
402.0, 0.019416558197324966
403.0, 0.019609035173823404
404.0, 0.020505090407242785
405.0, 0.022847955692405466
406.0, 0.024752605735192786
407.0, 0.026014108209842516
408.0, 0.02897782018304173
409.0, 0.03192311921583371
410.0, 0.03468215016053325
411.0, 0.03732139235951137
412.0, 0.041269627085803104
413.0, 0.04543077533956747
414.0, 0.049388567483589954
415.0, 0.05284871849922034
416.0, 0.05496568940025023
417.0, 0.055808022196933545
418.0, 0.05514737056166125
419.0, 0.05271427433181503
420.0, 0.04703569560233732
421.0, 0.04160403919266933
422.0, 0.03628675633169598
423.0, 0.030958047950525345
424.0, 0.025551756935105367
425.0, 0.02108861891599669
426.0, 0.01762964595469317
427.0, 0.01529045253797979
428.0, 0.012022653919463715
429.0, 0.010298773874471139
430.0, 0.009311195358971375
431.0, 0.007626300542803705
432.0, 0.0062465078120546025
433.0, 0.005499041701543951
434.0, 0.005032755661746058
435.0, 0.004122023340002957
436.0, 0.0031868134773476945
437.0, 0.0028488626257936016
438.0, 0.0027842370304917473
439.0, 0.0020562975631113504
440.0, 0.0017798174088053352
441.0, 0.0016277681462687783
442.0, 0.0015085613572839878
443.0, 0.0013053457613189897
444.0, 0.0012265991396695332
445.0, 0.0011059388282689082
446.0, 0.0009668889920482291
447.0, 0.00099970078523373
448.0, 0.0009547310325057516
449.0, 0.0008487724282370743
450.0, 0.0007924907999451434
451.0, 0.0012192019235884102
452.0, 0.0008527482180936802
453.0, 0.0008765201876370087
454.0, 0.0013265240155631345
455.0, 0.0008579583379427415
456.0, 0.0007627818871924758
457.0, 0.0008790022074194384
458.0, 0.0010763555197310702
459.0, 0.0009087521182060387
460.0, 0.0009724309985564023
461.0, 0.0010580123754565182
462.0, 0.0010680135380230064
463.0, 0.000846738463870639
464.0, 0.0006565840208542753
465.0, 0.000670074674816462
466.0, 0.0008592187971943246
467.0, 0.0005708415427638
468.0, 0.0005583662707713311
469.0, 0.0004132536474562771
470.0, 7.078234300175634e-05
471.0, 0.0002943732052412447
472.0, 0.00028320503227399627
473.0, 0.00016957693695693392
474.0, 3.967435250468086e-05
475.0, 0.00014222989223166427
476.0, 9.498962268415478e-05
477.0, 5.262077917389376e-05
478.0, 9.488468021179118e-05
479.0, 0.00030895412352706624
480.0, 0.0001738997353471293
481.0, 0.00013855214271343377
482.0, 0.0003349771374097268
483.0, 0.00012781145674191355
484.0, 6.037877446236589e-05
485.0, 9.401105382335516e-05
486.0, 0.00019418937138454345
487.0, 0.00020230653198811905
488.0, 0.0003180459477599227
489.0, 0.0003673096609126596
490.0, 0.0002952784536412576
491.0, 0.00030943721423804774
492.0, 0.00038351933979511124
493.0, 0.0003555474457136202
494.0, 0.00018877206661403455
495.0, 0.0001652490132550135
496.0, 0.00011249765322301072
497.0, 0.00036691484863490267
498.0, 0.0008981841068436729
499.0, 0.0004542228573675001
500.0, 0.00046854837040300444
501.0, 0.000492508661532888
502.0, 0.0003725652951563752
503.0, 0.000274072852041639
504.0, 0.0004976001740294598
505.0, 0.0006084115306323927
506.0, 0.000496801894035817
507.0, 0.00046505234724335194
508.0, 0.0006153913252038423
509.0, 0.0007471038931143981
510.0, 0.0007689805534583584
511.0, 0.0005625327154360137
512.0, 0.0004116928487230469
513.0, 0.00046218184119152224
514.0, 0.000664732479417148
515.0, 0.0006068395335751211
516.0, 0.00038054701403793093
517.0, 0.0005197277359543467
518.0, 0.0009030757882359737
519.0, 0.0005393155538602701
520.0, 0.0006713801123098306
521.0, 0.0009129403758301548
522.0, 0.001147068210415326
523.0, 0.0012766226675946409
524.0, 0.001090775803074815
525.0, 0.0011609297942166835
526.0, 0.0013965462337267864
527.0, 0.0012694172640031274
528.0, 0.001472376214016009
529.0, 0.0017305896731961527
530.0, 0.0019601024227759493
531.0, 0.002063739159402235
532.0, 0.00246867075725604
533.0, 0.0028567274306082915
534.0, 0.003300195797823571
535.0, 0.004000537530254327
536.0, 0.004788557786416448
537.0, 0.005853911753367396
538.0, 0.007540163871712058
539.0, 0.010353063045431128
540.0, 0.012460287031652422
541.0, 0.014289461249236215
542.0, 0.015373195918433205
543.0, 0.015126946421741944
544.0, 0.01443286943514284
545.0, 0.012648255688921013
546.0, 0.010748217345971091
547.0, 0.009683209901635617
548.0, 0.009271569547915788
549.0, 0.010000239951793128
550.0, 0.010882345731122074
551.0, 0.011236725612361748
552.0, 0.012354817515037865
553.0, 0.013247468270318646
554.0, 0.013568392295020973
555.0, 0.013125893613425168
556.0, 0.01208353740148889
557.0, 0.01080019267236144
558.0, 0.009528145847527389
559.0, 0.008397512202069107
560.0, 0.0075177179698574
561.0, 0.007186874540865409
562.0, 0.007040228974926032
563.0, 0.006981608819139195
564.0, 0.007102792234129415
565.0, 0.007278158322782733
566.0, 0.008032079127730558
567.0, 0.009336304348903505
568.0, 0.010765534445055042
569.0, 0.01344864450556144
570.0, 0.017145314940066988
571.0, 0.022044117797394583
572.0, 0.028623969812704066
573.0, 0.033641593375999645
574.0, 0.037529291835691925
575.0, 0.03906958036088312
576.0, 0.036465647774733934
577.0, 0.032043274017251426
578.0, 0.027117112059265105
579.0, 0.022153056189200312
580.0, 0.017622715966580563
581.0, 0.014979314761560105
582.0, 0.012354740962710583
583.0, 0.010278213971233468
584.0, 0.009078846563218706
585.0, 0.008123001800953962
586.0, 0.00708740962444669
587.0, 0.0062976064718965495
588.0, 0.005856906699748277
589.0, 0.005395200044170815
590.0, 0.005430381662497154
591.0, 0.0053393680614708
592.0, 0.005044626649231367
593.0, 0.005011497221426555
594.0, 0.0052927552703128464
595.0, 0.00528302692230538
596.0, 0.004991977623242842
597.0, 0.004725882820915849
598.0, 0.00423508607501762
599.0, 0.004249329972852205
600.0, 0.004520862457843982
601.0, 0.004554151110592786
602.0, 0.004122760055708877
603.0, 0.004002387850466703
604.0, 0.004047141059812754
605.0, 0.004078149385100218
606.0, 0.003947374477180466
607.0, 0.0038195750571717903
608.0, 0.0037675477400078237
609.0, 0.0038326630087199237
610.0, 0.003972194561832156
611.0, 0.00384788907404435
612.0, 0.003857469668033979
613.0, 0.00404273696918756
614.0, 0.003897434103278252
615.0, 0.003672439608101347
616.0, 0.003397232256239949
617.0, 0.0031083688017813325
618.0, 0.002881396633434922
619.0, 0.0031434310185576696
620.0, 0.0031157642422018185
621.0, 0.002907782012753177
622.0, 0.002813525665732237
623.0, 0.0027049528657244267
624.0, 0.002623427093865355
625.0, 0.002612659475685148
626.0, 0.002701800708727319
627.0, 0.0027396134731554316
628.0, 0.0026237142674128346
629.0, 0.0025996288568526037
630.0, 0.002696019734942559
631.0, 0.002247099101566798
632.0, 0.002237793324312882
633.0, 0.0022059377299870845
634.0, 0.0020960267699372645
635.0, 0.002178243494057487
636.0, 0.002172281065064204
637.0, 0.0021077319973953745
638.0, 0.0020525397098992027
639.0, 0.00211666256186983
640.0, 0.0018940441997404066
641.0, 0.0016504402614813372
642.0, 0.0015815322510519495
643.0, 0.0018309347811600665
644.0, 0.0016063937139415068
645.0, 0.0016285380359064485
646.0, 0.0015742956560726546
647.0, 0.0013671794686872605
648.0, 0.0016816509221151547
649.0, 0.0015678614161560211
650.0, 0.0012261070056834222
651.0, 0.000935219423520417
652.0, 0.0013430785257078299
653.0, 0.0009758693432858583
654.0, 0.0010445359585625196
655.0, 0.0012693800753476967
656.0, 0.0009772965007447476
657.0, 0.0007358368015095187
658.0, 0.0007330980756666248
659.0, 0.0008334546184211578
660.0, 0.0009172323486768877
661.0, 0.001012840662486635
662.0, 0.000994992318810242
663.0, 0.0009736464105904638
664.0, 0.000965771595774164
665.0, 0.0008313662924763766
666.0, 0.0009392900891088825
667.0, 0.0010220121801434484
668.0, 0.0010095726820958774
669.0, 0.0008740506509256416
670.0, 0.0006608942019534169
671.0, 0.0006953180259961835
672.0, 0.000888482071464274
673.0, 0.0010977347272671915
674.0, 0.0008105867693485016
675.0, 0.0007141147673549419
676.0, 0.0006382283833812806
677.0, 0.0004875358150229252
678.0, 0.0002549344642412559
679.0, 0.00040519356979724274
680.0, 0.00041814913342489633
681.0, 0.0002988553589074503
682.0, 0.000376715179687874
683.0, 0.0002793238629736785
684.0, 0.00020183113159292113
685.0, 0.00020197753189615504
686.0, 0.00032041993056187366
687.0, 0.00042617011156409067
688.0, 0.00044976268650364764
689.0, 0.0004565826625607108
690.0, 0.0004729581479021889
691.0, 0.0004306363859371945
692.0, 0.0003973604329109918
693.0, 0.0002863709750268509
694.0, 0.00013054652485263913
695.0, 5.750491252169784e-05
696.0, 9.810778175302795e-05
697.0, 0.00017222620691666584
698.0, 0.0002608581335538702
699.0, 0.0003441792322988468
700.0, 0.0003069378472867899
701.0, 0.00018310162002813953
702.0, 9.41478912668554e-05
703.0, 0.00010477142061908294
704.0, 0.00022313467054073215
705.0, 0.00012503511939825388
706.0, 0.0001952957582954336
707.0, 0.0004608993504869243
708.0, 0.0008107466222554583
709.0, 0.000599483738933827
710.0, 0.00028505002154771263
711.0, 0.00012556961143459915
712.0, 0.00028020877826017906
713.0, 0.0001766051800298192
714.0, 0.00021189616969913592
715.0, 0.00020462478776845142
716.0, 0.00011581908321507637
717.0, 5.485992474649114e-05
718.0, 0.000516639583126491
719.0, 0.0004204395735978797
720.0, 7.083923135987955e-05
721.0, 9.794490255500324e-05
722.0, 0.00029189121645216583
723.0, 0.00030987814488827513
724.0, 0.0003099509223852416
725.0, 0.00038986769014444145
726.0, 0.0005296382795542531
727.0, 0.0007494888504189014
728.0, 0.0006902605490436692
729.0, 0.0004769134302984963
730.0, 0.0005503328249694789
731.0, 0.0008848962479837461
732.0, 0.0007434434149312644
733.0, 0.0006837769346182811
734.0, 0.001124460702509528
735.0, 0.000900529278246564
736.0, 0.0008701683683278046
737.0, 0.0007843228255835285
738.0, 0.0006174259263202955
739.0, 0.0005619794054795587
740.0, 0.0008870435339956481
741.0, 0.0007841608436780661
742.0, 0.0005799056953267556
743.0, 0.0007436940663432994
744.0, 0.0009735966994208244
745.0, 0.0009991812505457235
746.0, 0.0008815787233789908
747.0, 0.0007385655531472903
748.0, 0.0009018125302862358
749.0, 0.0006090534635025372
750.0, 0.0004475764741897163
751.0, 0.00037951560193103526
752.0, 0.00022077572939224938
753.0, 0.0004401737050707445
754.0, 0.0004227506779450391
755.0, 0.00039180177675553646
756.0, 0.0004176937731839623
757.0, 0.00018710732041451523
758.0, 0.00013227011352737146
759.0, 0.00016132211885650337
760.0, 0.0001725951391349062
761.0, 3.262445691538586e-05
762.0, 0.0006681912280834011
763.0, 0.0008450353126433294
764.0, 0.0007715230524009868
765.0, 0.0007159563608093932
766.0, 0.0013016029992299338
767.0, 0.0011009795177170467
768.0, 0.0010233351206322206
769.0, 0.0010828288526262548
770.0, 0.0009428725656256602
771.0, 0.0015048899376410175
772.0, 0.001511295529174004
773.0, 0.0014678545820116433
774.0, 0.0016952597248784868
775.0, 0.0019111336250244623
776.0, 0.001526189514500754
777.0, 0.001671430620145712
778.0, 0.0022016902335342246
779.0, 0.0024028463930113432
780.0, 0.002346459412220936
781.0, 0.002200411104741094
782.0, 0.002310935369237766
783.0, 0.0027463728525654444
784.0, 0.0026592730678496644
785.0, 0.002852905228739602
786.0, 0.0032970657774735544
787.0, 0.003641790630085986
788.0, 0.0033486371974096054
789.0, 0.0035760197871083817
790.0, 0.004148637608424847
791.0, 0.004659850272095854
792.0, 0.004888058329785464
793.0, 0.004964896042676362
794.0, 0.005053980652391672
795.0, 0.004781671997230543
796.0, 0.0046766730702647655
797.0, 0.005508106789992701
798.0, 0.005186425886842121
799.0, 0.004721592048333091
800.0, 0.004535878764822814
801.0, 0.004652351431785922
802.0, 0.004383965552844318
803.0, 0.0041786931000703945
804.0, 0.0036658742251511212
805.0, 0.0033731119113677484
806.0, 0.0037812059634530675
807.0, 0.0022902374528117196
808.0, 0.002094552054062961
809.0, 0.002304217573230402
810.0, 0.002398661172384727
811.0, 0.0019620214298553874
812.0, 0.001377285726718738
813.0, 0.0013467343034230378
814.0, 0.001573796565372901
815.0, 0.0018294867708839964
816.0, 0.002867852193492945
817.0, 0.0037479124147297093
818.0, 0.004279473218205088
819.0, 0.004538845153630127
820.0, 0.004776101077473764
821.0, 0.0042696552906637845
822.0, 0.004485143115371866
823.0, 0.004674971315197315
824.0, 0.004464962624194007
825.0, 0.004436914743986503
826.0, 0.004220376504125143
827.0, 0.003971226356870778
828.0, 0.0038321208706890257
829.0, 0.003871538261120388
830.0, 0.0026345495226670216
831.0, 0.0021155434726150084
832.0, 0.0019232532338014387
833.0, 0.0017755161302262636
834.0, 0.001376493529553523
835.0, 0.001373797247076793
836.0, 0.0012423660720113875
837.0, 0.0011668157871951982
838.0, 0.001254398497448646
839.0, 0.0009976630503661325
840.0, 0.0005142833349996065
841.0, 0.00091170606942227
842.0, 0.0015057691873798969
843.0, 0.0008612436894223697
844.0, 0.0011147058942132604
845.0, 0.002003577434295705
846.0, 0.00224606292194452
847.0, 0.0018327791215687556
848.0, 0.002782474210899278
849.0, 0.003271042228469116
850.0, 0.0036327322371389106
851.0, 0.003974915385598216
852.0, 0.004321771878586298
853.0, 0.0042999713109357395
854.0, 0.00371592545311039
855.0, 0.003335545937271715
856.0, 0.003036047048671398
857.0, 0.002304471023132887
858.0, 0.0018031002384364717
859.0, 0.0018471832152225371
860.0, 0.0018385382951301705
861.0, 0.0015391430676388877
862.0, 0.001177800870345111
863.0, 0.0012160166627553886
864.0, 0.0014014757083081317
865.0, 0.0013243396328853202
866.0, 0.0009079878251117343
867.0, 0.0018864145462911955
868.0, 0.0018915701716113555
869.0, 0.001989652153425065
870.0, 0.002160547379021908
871.0, 0.0020469181147127185
872.0, 0.002460630590545881
873.0, 0.003084783534780915
874.0, 0.0035697674146292304
875.0, 0.003828495209730755
876.0, 0.004028246705324046
877.0, 0.00447096290404706
878.0, 0.004941832240749292
879.0, 0.005398991136517399
880.0, 0.005860380189239544
881.0, 0.006512725973146192
882.0, 0.007255994275935958
883.0, 0.0077451011658589575
884.0, 0.008469017817960285
885.0, 0.00989385023755523
886.0, 0.010665403476490585
887.0, 0.011513765581144177
888.0, 0.0122899323092876
889.0, 0.013199601972598342
890.0, 0.014644789150155355
891.0, 0.015523427770600392
892.0, 0.01702158438030014
893.0, 0.01836129494037453
894.0, 0.019355006525145053
895.0, 0.02056653719870334
896.0, 0.022758311749048847
897.0, 0.02450320023649219
898.0, 0.02652315957531531
899.0, 0.02942170942297234
900.0, 0.03322016323169072
901.0, 0.03698606894720046
902.0, 0.04162502018620693
903.0, 0.04799094545417297
904.0, 0.056375946503590076
905.0, 0.06334504733037044
906.0, 0.07399385380357869
907.0, 0.0877846977813648
908.0, 0.10556529142947058
909.0, 0.12857767633120895
910.0, 0.1571779668452269
911.0, 0.19669669232840137
912.0, 0.24746139549766763
913.0, 0.3148593072474527
914.0, 0.40962906218636486
915.0, 0.5451688543467372
916.0, 0.6986448693895809
917.0, 0.843304484229467
918.0, 0.9534383661666095
919.0, 0.9970762610432639
920.0, 0.9180799258306671
921.0, 0.8036195266044774
922.0, 0.6712102332055602
923.0, 0.5376961436178986
924.0, 0.4382348992767424
925.0, 0.3548764859074268
926.0, 0.2881685702288889
927.0, 0.23506321031856936
928.0, 0.19237303978983586
929.0, 0.1660876069698272
930.0, 0.14587146617546007
931.0, 0.13136429183515153
932.0, 0.1222394711190049
933.0, 0.11780070123726201
934.0, 0.11736490463948286
935.0, 0.11889988521281682
936.0, 0.1242844285698547
937.0, 0.13236295599782186
938.0, 0.14037723337902047
939.0, 0.15597075304888078
940.0, 0.1712755397103226
941.0, 0.1863573142812514
942.0, 0.20176683747669139
943.0, 0.2185378509096792
944.0, 0.22779588576781612
945.0, 0.23515461786687228
946.0, 0.23816862160862368
947.0, 0.23491429401307243
948.0, 0.22368308914511076
949.0, 0.21177779987598352
950.0, 0.19331938977731847
951.0, 0.17421877337783762
952.0, 0.15708990553997984
953.0, 0.1375379989149314
954.0, 0.12219896739961154
955.0, 0.10859495499945089
956.0, 0.09623910661144415
957.0, 0.08485885452663217
958.0, 0.07447819432658515
959.0, 0.06702604638067367
960.0, 0.06094845762893186
961.0, 0.055696890750452616
962.0, 0.05081368397990991
963.0, 0.0458710790405516
964.0, 0.043254304096790534
965.0, 0.04021563986361272
966.0, 0.03754532341974207
967.0, 0.03617011072878945
968.0, 0.03510220655845467
969.0, 0.03395966754372752
970.0, 0.033312120686139306
971.0, 0.032625312747860236
972.0, 0.0315096683751783
973.0, 0.031791289330148007
974.0, 0.032447567271189796
975.0, 0.03225439182316494
976.0, 0.03191066454464147
977.0, 0.032331623081209786
978.0, 0.03234830401477513
979.0, 0.032174570263259226
980.0, 0.03223526928314069
981.0, 0.032400785663599524
982.0, 0.03224309863261666
983.0, 0.030349067234940807
984.0, 0.02989680417383346
985.0, 0.029934976266092338
986.0, 0.02968756571166294
987.0, 0.028717670342324253
988.0, 0.02918922006079411
989.0, 0.028297075977546028
990.0, 0.028437403458073364
991.0, 0.029346533707937654
992.0, 0.029893788548442313
993.0, 0.029860852272968405
994.0, 0.031390950170165674
995.0, 0.0328628250560559
996.0, 0.03437822779769887
997.0, 0.03654700635062249
998.0, 0.03919725663096212
999.0, 0.04176163067575643
1000.0, 0.04509705773388056
1001.0, 0.04908710556389198
1002.0, 0.05329523945936228
1003.0, 0.0577254385411399
1004.0, 0.06330713576066783
1005.0, 0.0678099882618057
1006.0, 0.07202679053893249
1007.0, 0.0772613792045668
1008.0, 0.0812987714494185
1009.0, 0.08260597088529953
1010.0, 0.08346151701667541
1011.0, 0.08345514851212368
1012.0, 0.08172603714631936
1013.0, 0.07908776408850128
1014.0, 0.07498070463962456
1015.0, 0.07044612951199451
1016.0, 0.06597743729654984
1017.0, 0.061993053614889285
1018.0, 0.0592016821424829
1019.0, 0.055471012395970944
1020.0, 0.05199033233934919
1021.0, 0.048753787120529385
1022.0, 0.045525383524419226
1023.0, 0.04217209397693047
1024.0, 0.039106439837035135
1025.0, 0.03585559535518883
1026.0, 0.03266806042781939
1027.0, 0.030051439592839364
1028.0, 0.029035526617535192
1029.0, 0.026721431662343524
1030.0, 0.024958566226616127
1031.0, 0.02350507102828593
1032.0, 0.02204651921084859
1033.0, 0.020700249437795408
1034.0, 0.02000378821755101
1035.0, 0.01914278643614628
1036.0, 0.018194415493961374
1037.0, 0.017477929592236912
1038.0, 0.0176221324868939
1039.0, 0.017537945791490296
1040.0, 0.017651686925017337
1041.0, 0.017778848379130043
1042.0, 0.01790791217358063
1043.0, 0.018269312243450363
1044.0, 0.01795657082945312
1045.0, 0.01793818889225932
1046.0, 0.017820692725733736
1047.0, 0.017323439495133507
1048.0, 0.016286325133453107
1049.0, 0.014637600312974968
1050.0, 0.014107243198676091
1051.0, 0.013337396335879916
1052.0, 0.012336565384663198
1053.0, 0.01179526663213931
1054.0, 0.010981536292876699
1055.0, 0.011037770070845488
1056.0, 0.011387910307423206
1057.0, 0.011452698173338615
1058.0, 0.010922935716828452
1059.0, 0.011149482032297691
1060.0, 0.011231433413788409
1061.0, 0.010968138841410142
1062.0, 0.010832183764241195
1063.0, 0.011136341521678885
1064.0, 0.011118448057991573
1065.0, 0.011461052279762135
1066.0, 0.011575201216904944
1067.0, 0.011623252222900345
1068.0, 0.011743995024766278
1069.0, 0.01183689145630897
1070.0, 0.012851422507722216
1071.0, 0.013115106399340649
1072.0, 0.013484054349512177
1073.0, 0.013856869016340135
1074.0, 0.012924307774033665
1075.0, 0.01336875182992703
1076.0, 0.01343042244639422
1077.0, 0.013050988898741145
1078.0, 0.012620191424621908
1079.0, 0.012681848871943196
1080.0, 0.01198835613862584
1081.0, 0.011805295992371833
1082.0, 0.011968951712054966
1083.0, 0.012238324829700718
1084.0, 0.012302903317025861
1085.0, 0.011656908913429489
1086.0, 0.012087483090162415
1087.0, 0.012179943587879249
1088.0, 0.012029850411281781
1089.0, 0.011949653645170599
1090.0, 0.012092610788174002
1091.0, 0.012096496631026576
1092.0, 0.012222576554539212
1093.0, 0.012299448939858714
1094.0, 0.012224446470500977
1095.0, 0.012026056831961259
1096.0, 0.012082608953914001
1097.0, 0.012026797720254554
1098.0, 0.011843755687271657
1099.0, 0.01153112871319747
1100.0, 0.011130334928163376
1101.0, 0.0110014577546877
1102.0, 0.010116970129044871
1103.0, 0.009635858643599947
1104.0, 0.00934049041335904
1105.0, 0.008956903426066256
1106.0, 0.009568752176477494
1107.0, 0.008490637818288838
1108.0, 0.008441252601513072
1109.0, 0.00819219561463043
1110.0, 0.007365286439479076
1111.0, 0.007695813262023553
1112.0, 0.00722771612920088
1113.0, 0.006577563103083162
1114.0, 0.006244698074345249
1115.0, 0.006158714579094905
1116.0, 0.0058821107500481905
1117.0, 0.005790371035558701
1118.0, 0.00572567662698362
1119.0, 0.00573604779598008
1120.0, 0.0057320723081371655
1121.0, 0.005631645816650406
1122.0, 0.005542453495655523
1123.0, 0.005630000465487491
1124.0, 0.005314878163882462
1125.0, 0.004817859865472995
1126.0, 0.004518454827511565
1127.0, 0.004846804657778895
1128.0, 0.004245268720055487
1129.0, 0.0042542408190267035
1130.0, 0.0044195836604541145
1131.0, 0.004491706616556195
1132.0, 0.00446306640444619
1133.0, 0.005042335006628248
1134.0, 0.005097631161526595
1135.0, 0.005086449238333384
1136.0, 0.00531092731874703
1137.0, 0.005677271132513029
1138.0, 0.005204003749926213
1139.0, 0.005459413255800396
1140.0, 0.005466723932649215
1141.0, 0.005561577361716929
1142.0, 0.006056740655663029
1143.0, 0.007040215492307804
1144.0, 0.0069000312043531655
1145.0, 0.00784409236665094
1146.0, 0.00894067719687871
1147.0, 0.00930666450169037
1148.0, 0.008739318915552899
1149.0, 0.00938933612922531
1150.0, 0.008952728282284826
1151.0, 0.009072431503200397
1152.0, 0.00887135582729479
1153.0, 0.00805897374096349
1154.0, 0.007457248641362386
1155.0, 0.007401040142622572
1156.0, 0.006538739995835711
1157.0, 0.005814946236298437
1158.0, 0.005185444144375876
1159.0, 0.004363357771250954
1160.0, 0.004219088811598317
1161.0, 0.0035943918861159646
1162.0, 0.0031433938036957757
1163.0, 0.002820161295912696
1164.0, 0.002403344807660527
1165.0, 0.00160841669336139
1166.0, 0.001652425320351616
1167.0, 0.0016617827014984337
1168.0, 0.0012931271020930008
1169.0, 0.0010148024662809977
1170.0, 0.0013062497426253644
1171.0, 0.000715692587643883
1172.0, 0.0004105021228838034
1173.0, 0.0003032624082020937
1174.0, 0.0003094856720283263
1175.0, 0.00028674166203437136
1176.0, 4.561575529995533e-05
1177.0, 4.325055363163482e-05
1178.0, 0.00016013130058757508
1179.0, 0.0002978115450503787
1180.0, 0.00031939241728543423
1181.0, 0.00019916215419203557
1182.0, 0.0004168668982342278
1183.0, 0.0008459787826010318
1184.0, 0.00042138216996808587
1185.0, 0.00024380931608510307
1186.0, 0.0005289930787248447
1187.0, 0.0002321858619433259
1188.0, 0.0007400506419503532
1189.0, 0.0007823952710146607
1190.0, 0.0006731146235034533
1191.0, 0.000657725193398261
1192.0, 0.0007118151236581935
1193.0, 9.293362898929106e-05
1194.0, 0.0005271145848801918
1195.0, 0.0005568492619217413
1196.0, 0.0004611518970208488
1197.0, 0.0005530515837793078
1198.0, 0.0009310597873340971
1199.0, 0.000589134268555356
1200.0, 0.0010313602980153785
1201.0, 0.0007625885799191328
1202.0, 0.00026523209400245514
1203.0, 0.00023214641773555635
1204.0, 0.0007587733561414104
1205.0, 0.0006536730260520335
1206.0, 0.00047543715828178595
1207.0, 0.0007509458517833261
1208.0, 0.0010342358763097976
1209.0, 0.0006661002486614714
1210.0, 0.00048648625709077754
1211.0, 0.00017404834920688015
1212.0, 0.00016410708507422358
1213.0, 0.00020653143740551684
1214.0, 0.0002058014738535553
1215.0, 0.00032083905344998864
1216.0, 0.000418618062816065
1217.0, 0.000439025750347195
1218.0, 0.0004937037839887944
1219.0, 0.0003836892423087372
1220.0, 8.273122451746413e-05
1221.0, 0.00011409129249691184
1222.0, 0.00014768118293984064
1223.0, 0.0001323087883965731
1224.0, 0.00018090755811206617
1225.0, 0.0002749346475587165
1226.0, 0.00030746605172922366
1227.0, 0.000139721222622999
1228.0, 6.933839574550797e-05
1229.0, 2.3842353874280054e-05
1230.0, 0.00010001458689825845
1231.0, 0.00028160249590366816
1232.0, 0.00041289892153327545
1233.0, 0.0002627043878522916
1234.0, 0.00012945436097819816
1235.0, 0.00023578939363899133
1236.0, 0.00037169847721171833
1237.0, 0.0004054184950704802
1238.0, 0.0005181218906536872
1239.0, 0.00041504036782821573
1240.0, 0.00035686132502173493
1241.0, 0.0003579713255355227
1242.0, 0.00041052327675456093
1243.0, 0.0004347980596902182
1244.0, 0.00018508192929305307
1245.0, 0.0003246048322023537
1246.0, 0.0001607424725137143
1247.0, 0.000172889907778702
1248.0, 0.0002443975210894938
1249.0, 5.179599802169097e-05
1250.0, 0.000438557860212818
1251.0, 0.0006516356521437349
1252.0, 0.0008127974004376273
1253.0, 0.0006210175478532825
1254.0, 0.0003149390439319225
1255.0, 0.0005139986232525522
1256.0, 0.00023547273887540793
1257.0, 0.0007801557834503902
1258.0, 0.001190372137425667
1259.0, 0.0011320530203469212
1260.0, 0.0008464863285025446
1261.0, 0.0010560736058205925
1262.0, 0.0006305637793060597
1263.0, 0.001116937179857963
1264.0, 0.00108891705156026
1265.0, 0.000935376341503641
1266.0, 0.0011973310593089083
1267.0, 0.0015707763516541807
1268.0, 0.0009623823586471899
1269.0, 0.0011639383664190258
1270.0, 0.0012723953167057007
1271.0, 0.001158145971425209
1272.0, 0.001045330970059199
1273.0, 0.0011337277673101405
1274.0, 0.0011272396265214737
1275.0, 0.0010249389293266837
1276.0, 0.0008199325376087806
1277.0, 0.0007349725622409535
1278.0, 0.0009715022851464509
1279.0, 0.0012945670252127084
1280.0, 0.001511538059321796
1281.0, 0.0011767406387082375
1282.0, 0.0011468254492776426
1283.0, 0.0013198260983745438
1284.0, 0.0011763279020700526
1285.0, 0.0013199096049466182
1286.0, 0.0014104369460428967
1287.0, 0.0011764008127094897
1288.0, 0.0011196233173087211
1289.0, 0.0013979794967530828
1290.0, 0.0017037595739610614
1291.0, 0.0011136239910095255
1292.0, 0.0015253068509784304
1293.0, 0.0014814949486079286
1294.0, 0.001411398553522289
1295.0, 0.0015313968558334124
1296.0, 0.0017096767662543768
1297.0, 0.00195330508831736
1298.0, 0.0015123585036669136
1299.0, 0.0015309164754586128
1300.0, 0.0020518837921586174
1301.0, 0.0023125165056946707
1302.0, 0.0015324697812223302
1303.0, 0.0019793567585030905
1304.0, 0.0022124649415940353
1305.0, 0.00198665804672119
1306.0, 0.0019251556773455805
1307.0, 0.0019138071987139774
1308.0, 0.0014023241181787658
1309.0, 0.0019494717725665686
1310.0, 0.0019092157485695622
1311.0, 0.001987093067699972
1312.0, 0.0020397380395620174
1313.0, 0.002149308816218564
1314.0, 0.0024986915272258874
1315.0, 0.002104027571476654
1316.0, 0.0025415211352131247
1317.0, 0.002437456511469769
1318.0, 0.002146745483587416
1319.0, 0.0019806998918269255
1320.0, 0.0019697837954866255
1321.0, 0.0020279912168932163
1322.0, 0.002249192970572236
1323.0, 0.0024170801103661228
1324.0, 0.002207463900410812
1325.0, 0.002161853165254574
1326.0, 0.002867966940233411
1327.0, 0.0021783683138579925
1328.0, 0.0021564271438757818
1329.0, 0.0023124554053737855
1330.0, 0.0022326483141075775
1331.0, 0.00213003542369604
1332.0, 0.002293095089551553
1333.0, 0.001684855729119971
1334.0, 0.0018942429883744816
1335.0, 0.0017553136283320185
1336.0, 0.0018034587916824912
1337.0, 0.001845759352904012
1338.0, 0.0016394267154295696
1339.0, 0.002240821926192095
1340.0, 0.002372612414181246
1341.0, 0.0022992948934910883
1342.0, 0.0023737537092672835
1343.0, 0.002270071492813267
1344.0, 0.0018339106639636447
1345.0, 0.002013829881925244
1346.0, 0.001767994033935922
1347.0, 0.001720943612898546
1348.0, 0.0018099777326950957
1349.0, 0.00169291931821893
1350.0, 0.0013804334435045867
1351.0, 0.001597075571316838
1352.0, 0.002100267749636491
1353.0, 0.0018233342114629624
1354.0, 0.0015859111306469043
1355.0, 0.0014521306669627054
1356.0, 0.0013138491515574358
1357.0, 0.0011437737112192322
1358.0, 0.001050956012423437
1359.0, 0.001485240984116228
1360.0, 0.0011794385978914253
1361.0, 0.0010785180530227744
1362.0, 0.0014288742500593698
1363.0, 0.001521134766878077
1364.0, 0.0014711015317094593
1365.0, 0.0010683777528976586
1366.0, 0.000864735018633831
1367.0, 0.0007908289670280798
1368.0, 0.0008967611048667155
1369.0, 0.0011974084093501938
1370.0, 0.0012101343965598525
1371.0, 0.0011165779106080548
1372.0, 0.000817598864666492
1373.0, 0.0006864725374212052
1374.0, 0.0006439427511752211
1375.0, 0.0005398641681601098
1376.0, 0.0005514031356583019
1377.0, 0.000859142307713221
1378.0, 0.0010116470962011966
1379.0, 0.0006602776084834649
1380.0, 0.00045767327710525765
1381.0, 0.0006173602345336182
1382.0, 0.0004896864888013743
1383.0, 0.00031805593420334037
1384.0, 0.000825740233914651
1385.0, 0.0010692369217075509
1386.0, 0.000870115959753538
1387.0, 0.0007136145438892572
1388.0, 0.0010900264661949548
1389.0, 0.0008734346069243707
1390.0, 0.00044462782414760315
1391.0, 0.0005072473016665555
1392.0, 0.00045975513366114065
1393.0, 0.00047660385286991117
1394.0, 0.0006736164020151509
1395.0, 0.00020667175285587485
1396.0, 0.0006101543951974508
1397.0, 0.0005702784617753375
1398.0, 0.00036681298169529905
1399.0, 0.00044192055892148223
1400.0, 0.0007071044868403999
1401.0, 0.0006002143236263955
1402.0, 0.0010191798964190638
1403.0, 0.0007872576206563809
1404.0, 0.0003725063713525369
1405.0, 0.00027214947868256674
1406.0, 0.0005609727158446662
1407.0, 0.0008243960963906208
1408.0, 0.00023200366642131168
1409.0, 0.0005013286359638997
1410.0, 0.0005071182075532706
1411.0, 0.0005526992221224063
1412.0, 0.0006755228249168161
1413.0, 0.0006231254227262686
1414.0, 0.00012684066315768076
1415.0, 0.0010366699445440615
1416.0, 0.0004208480441560403
1417.0, 0.00038057833002935434
1418.0, 0.0005346007461503658
1419.0, 0.0005870656803912647
1420.0, 0.0006118892885210128
1421.0, 0.000447417433992242
1422.0, 8.092846245594644e-05
1423.0, 0.0005871656826971196
1424.0, 0.0006459586499310134
1425.0, 0.00046208770134106885
1426.0, 0.0005993341008840262
1427.0, 0.0009422677303030152
1428.0, 0.0003843791755213452
1429.0, 0.0001443255275730606
1430.0, 0.0007747805323185109
1431.0, 0.0009384445923228189
1432.0, 0.0008340035601970222
1433.0, 0.0013085010907345482
1434.0, 0.0005291888717410792
1435.0, 0.00019069576894330985
1436.0, 0.000863160876783742
1437.0, 0.0011332750468918316
1438.0, 0.0008367382722900164
1439.0, 0.0005701403900782787
1440.0, 0.0009122645234098227
1441.0, 0.0002743300152716675
1442.0, 0.0008053139039900809
1443.0, 0.0010426755148236879
1444.0, 0.0007862182563216906
1445.0, 0.00048595716745202726
1446.0, 0.000740660872304816
1447.0, 0.0016333406763969034
1448.0, 0.0004844515197878421
1449.0, 0.0008415451411694743
1450.0, 0.001047424113166368
1451.0, 0.0008681820633845246
1452.0, 0.0007527499645862942
1453.0, 0.0010595641571000724
1454.0, 0.0006485079308680606
1455.0, 0.0007886143697266293
1456.0, 0.0007738346111009073
1457.0, 0.0008867259280920782
1458.0, 0.0007755867579271488
1459.0, 0.00039250594027367237
1460.0, 0.0005530507377833364
1461.0, 0.0005877746108304255
1462.0, 0.0010372767309544417
1463.0, 0.0011190808456824567
1464.0, 0.0009627240769131943
1465.0, 0.0010570449455086473
1466.0, 0.0014370192813367834
1467.0, 0.0008324911568083623
1468.0, 0.0008683845564333021
1469.0, 0.0010737811929084
1470.0, 0.0008037907314710776
1471.0, 0.0009327174830281904
1472.0, 0.0013483440015343124
1473.0, 0.0009971590197804486
1474.0, 0.0004826819587125685
1475.0, 0.000472772921139581
1476.0, 0.0008705210761725729
1477.0, 0.00055102376834128
1478.0, 0.0005738674086380816
1479.0, 0.0012767229316214285
1480.0, 0.0011962053746411687
1481.0, 0.0006315545660099308
1482.0, 0.00124148412982944
1483.0, 0.0009142635390829823
1484.0, 0.0007692117635298179
1485.0, 0.0010167638639464228
1486.0, 0.0012541833336540593
1487.0, 0.0012278559197214623
1488.0, 0.0012813596860320514
1489.0, 0.001680550683476688
1490.0, 0.00140540963365394
1491.0, 0.0013855479881811471
1492.0, 0.0016457955520494969
1493.0, 0.0017401654548074637
1494.0, 0.0018419954851499412
1495.0, 0.0016303688440006067
1496.0, 0.0010482603059484277
1497.0, 0.0008564985264243067
1498.0, 0.0014625297249502567
1499.0, 0.0016649750148651711
1500.0, 0.0007575970668464929
1501.0, 0.0016127140186826142
1502.0, 0.0008948786680132109
1503.0, 0.0008410724993982903
1504.0, 0.0008727754730640298
1505.0, 0.0007701257259021364
1506.0, 0.0006082467594244211
1507.0, 0.0006184851819483074
1508.0, 0.0009350039442241097
1509.0, 0.0005146291685923344
1510.0, 0.0002639510289604935
1511.0, 0.0005084824962389343
1512.0, 0.0004987906145616182
1513.0, 0.0002567144462727998
1514.0, 0.0004032451656421376
1515.0, 0.0005008540545936373
1516.0, 7.636182456963344e-05
1517.0, 0.000388667663062687
1518.0, 0.0002232342349059326
1519, 0.0
1520, 0.0
1521, 0.0
1522, 0.0
1523, 0.0
1524, 0.0
1525, 0.0
1526, 0.0
1527, 0.0
1528, 0.0
1529, 0.0
1530, 0.0
1531, 0.0
1532, 0.0
1533, 0.0
1534, 0.0
1535, 0.0
1536, 0.0
1537, 0.0
1538, 0.0
1539, 0.0
1540, 0.0
1541, 0.0
1542, 0.0
1543, 0.0
1544, 0.0
1545, 0.0
1546, 0.0
1547, 0.0
1548, 0.0
1549, 0.0
1550, 0.0
1551, 0.0
1552, 0.0
1553, 0.0
1554, 0.0
1555, 0.0
1556, 0.0
1557, 0.0
1558, 0.0
1559, 0.0
1560, 0.0
1561, 0.0
1562, 0.0
1563, 0.0
1564, 0.0
1565, 0.0
1566, 0.0
1567, 0.0
1568, 0.0
1569, 0.0
1570, 0.0
1571, 0.0
1572, 0.0
1573, 0.0
1574, 0.0
1575, 0.0
1576, 0.0
1577, 0.0
1578, 0.0
1579, 0.0
1580, 0.0
1581, 0.0
1582, 0.0
1583, 0.0
1584, 0.0
1585, 0.0
1586, 0.0
1587, 0.0
1588, 0.0
1589, 0.0
1590, 0.0
1591, 0.0
1592, 0.0
1593, 0.0
1594, 0.0
1595, 0.0
1596, 0.0
1597, 0.0
1598, 0.0
1599, 0.0
