30, 0.0
31, 0.0
32, 0.0
33, 0.0
34, 0.0
35, 0.0
36, 0.0
37, 0.0
38, 0.0
39, 0.0
40, 0.0
41, 0.0
42, 0.0
43, 0.0
44, 0.0
45, 0.0
46, 0.0
47, 0.0
48, 0.0
49, 0.0
50, 0.0
51, 0.0
52, 0.0
53, 0.0
54, 0.0
55, 0.0
56, 0.0
57, 0.0
58, 0.0
59, 0.0
60, 0.0
61, 0.0
62, 0.0
63, 0.0
64, 0.0
65, 0.0
66, 0.0
67, 0.0
68, 0.0
69, 0.0
70, 0.0
71, 0.0
72, 0.0
73, 0.0
74, 0.0
75, 0.0
76, 0.0
77, 0.0
78, 0.0
79, 0.0
80, 0.0
81, 0.0
82, 0.0
83, 0.0
84, 0.0
85, 0.0
86, 0.0
87, 0.0
88, 0.0
89, 0.0
90.0, 0.0016376300476216945
91.0, 0.00027598606973990334
92.0, 0.004086533091624046
93.0, 0.0135876191287996
94.0, 0.012966366932020669
95.0, 0.010799978798106659
96.0, 0.013037684799772976
97.0, 0.014089621290792583
98.0, 0.015796941163010652
99.0, 0.018288847179486246
100.0, 0.02277085120649335
101.0, 0.03130379512120579
102.0, 0.036012569202136316
103.0, 0.041592976211284494
104.0, 0.05122156165552757
105.0, 0.06586277252137065
106.0, 0.08641533574917898
107.0, 0.11788980270974966
108.0, 0.16113607667283547
109.0, 0.21465384553527547
110.0, 0.27530952717991186
111.0, 0.35734729408320914
112.0, 0.4528634535769171
113.0, 0.5443932986747961
114.0, 0.596719288651348
115.0, 0.5805835837725593
116.0, 0.5095529709420951
117.0, 0.40865215230867297
118.0, 0.30890368876187496
119.0, 0.22945152839768296
120.0, 0.16937062655417395
121.0, 0.12565593950585507
122.0, 0.09622880348924095
123.0, 0.07845156661200028
124.0, 0.07079778842479342
125.0, 0.06555618469093184
126.0, 0.054551091518912014
127.0, 0.04406778627429585
128.0, 0.03709872275944445
129.0, 0.03407980819325732
130.0, 0.03369958951583838
131.0, 0.032984510446789836
132.0, 0.033920578413564134
133.0, 0.03486960948683338
134.0, 0.03548026017968296
135.0, 0.0376513095577383
136.0, 0.03805620866691174
137.0, 0.03687676237593941
138.0, 0.034708686480512896
139.0, 0.032291534474995796
140.0, 0.03484895721628676
141.0, 0.03657713579792353
142.0, 0.03522330662889842
143.0, 0.031097419021922205
144.0, 0.026427422677286566
145.0, 0.02259064550561137
146.0, 0.020390076797112803
147.0, 0.019109068828860626
148.0, 0.016021037345303153
149.0, 0.012937319416419018
150.0, 0.010045605457188224
151.0, 0.007373239613749144
152.0, 0.005227512528888663
153.0, 0.0030147367389191933
154.0, 0.0004142873815753558
155.0, 0.002940637468171221
156.0, 0.0027636303920639043
157.0, 0.0049108723186201825
158.0, 0.007175497020215803
159.0, 0.00817832021940913
160.0, 0.0074788117822676
161.0, 0.005387149409291468
162.0, 0.0031216488228247626
163.0, 0.0006904926905325525
164.0, 0.005035411580344207
165.0, 0.010289546411136745
166.0, 0.01527886114086268
167.0, 0.021207349514346895
168.0, 0.026628229474800747
169.0, 0.030367115142065786
170.0, 0.034860598853850636
171.0, 0.0383187484054149
172.0, 0.041116260989064395
173.0, 0.04334115218096099
174.0, 0.043650079143471895
175.0, 0.039849994512417816
176.0, 0.032351036558869325
177.0, 0.02350008072691058
178.0, 0.015951556349103432
179.0, 0.010541485160320828
180.0, 0.00683272821261834
181.0, 0.0044494053975419265
182.0, 0.0034316848902857995
183.0, 0.004449354122571368
184.0, 0.004417031396429467
185.0, 0.0045647763361190636
186.0, 0.005441415648496321
187.0, 0.006190670606642716
188.0, 0.009295188960329805
189.0, 0.01327549827138437
190.0, 0.018352460540587433
191.0, 0.025391554246556834
192.0, 0.032954459460072874
193.0, 0.040333848019132826
194.0, 0.04391080158994912
195.0, 0.04180150491752148
196.0, 0.03584545434041364
197.0, 0.027643874898785826
198.0, 0.019934135481915992
199.0, 0.014595816226534714
200.0, 0.012449470687654592
201.0, 0.013081782115855917
202.0, 0.01603254711191252
203.0, 0.020352962514565174
204.0, 0.023978120755896348
205.0, 0.02319269460603846
206.0, 0.020544168157027073
207.0, 0.017266420291362026
208.0, 0.014168999922527082
209.0, 0.012415835718410534
210.0, 0.014084730000094909
211.0, 0.0178456524336331
212.0, 0.024374088661432845
213.0, 0.03352347947306089
214.0, 0.04238151860826985
215.0, 0.04865440290022412
216.0, 0.05274304393599634
217.0, 0.05346703641844433
218.0, 0.048271664192128284
219.0, 0.03768262600009523
220.0, 0.026476308820253498
221.0, 0.018722763791438526
222.0, 0.015882103124584122
223.0, 0.014758708426454997
224.0, 0.016901726485456254
225.0, 0.021239875884347698
226.0, 0.027353766910594733
227.0, 0.03590428026162181
228.0, 0.04570723641542045
229.0, 0.05711676255038474
230.0, 0.06987728044219828
231.0, 0.08167954678582363
232.0, 0.08576076437365068
233.0, 0.07715373517195524
234.0, 0.06186037560957437
235.0, 0.04596333817816729
236.0, 0.0349015922115295
237.0, 0.02907885611485996
238.0, 0.026942390747933715
239.0, 0.02720833822479426
240.0, 0.029474239775784162
241.0, 0.03460032197855329
242.0, 0.04419994447046096
243.0, 0.0571495914363543
244.0, 0.0735752006992524
245.0, 0.09477444171642622
246.0, 0.11388113433808283
247.0, 0.11903548783102363
248.0, 0.10761506674479625
249.0, 0.08301027750244615
250.0, 0.06041215754473902
251.0, 0.04523893700192989
252.0, 0.032609283625498406
253.0, 0.0210298016783952
254.0, 0.012633150902337464
255.0, 0.00807695124235571
256.0, 0.0055815768960961005
257.0, 0.00412517603009669
258.0, 0.003861957310436524
259.0, 0.005925470177993194
260.0, 0.009440588052158892
261.0, 0.01410875162117578
262.0, 0.020583839337454855
263.0, 0.02954649057117034
264.0, 0.04039158798877051
265.0, 0.05229091459137338
266.0, 0.05651578625877118
267.0, 0.05042668102058369
268.0, 0.039426868543867184
269.0, 0.02623081475848594
270.0, 0.017346188415784926
271.0, 0.011949329804362035
272.0, 0.008342882922994848
273.0, 0.009150839117947243
274.0, 0.008366492037049011
275.0, 0.005982038284930469
276.0, 0.003137974395023059
277.0, 0.0008677072168003111
278.0, 0.0011896199673207932
279.0, 0.0018814800691773254
280.0, 0.0016012770507358484
281.0, 0.0013402904840806027
282.0, 0.0017848402137093785
283.0, 0.002492816284504335
284.0, 0.0029826310188591316
285.0, 0.0026458827146791895
286.0, 0.0012541110828349295
287.0, 0.0004181931003528585
288.0, 0.002658161697382223
289.0, 0.0052829693719519955
290.0, 0.008312309108750547
291.0, 0.011621441129780509
292.0, 0.013985370137768089
293.0, 0.01675685708176424
294.0, 0.01760428507195299
295.0, 0.015627490540452673
296.0, 0.012901434605044776
297.0, 0.00999295612125178
298.0, 0.008350895096820963
299.0, 0.007927921941487672
300.0, 0.008579623438750501
301.0, 0.011281864119539374
302.0, 0.014715717826397638
303.0, 0.019231279011966886
304.0, 0.024988437698693577
305.0, 0.031075458586168808
306.0, 0.035134822970288644
307.0, 0.03818631765590233
308.0, 0.03925862485338437
309.0, 0.03771108029791941
310.0, 0.03452802727954658
311.0, 0.03262870282237926
312.0, 0.03028672894550446
313.0, 0.028551812860065813
314.0, 0.028387087003442335
315.0, 0.029121587742175634
316.0, 0.030649514127666155
317.0, 0.03348748894019022
318.0, 0.03746583243494181
319.0, 0.042197934042298976
320.0, 0.04787848481496666
321.0, 0.05704491003328908
322.0, 0.06751238345994366
323.0, 0.07996239422505667
324.0, 0.09617599193324443
325.0, 0.11319191555952386
326.0, 0.13314529376652698
327.0, 0.1457602659785921
328.0, 0.14429045042437835
329.0, 0.12750658490395977
330.0, 0.10025240930930564
331.0, 0.07242658173086343
332.0, 0.050199468847572336
333.0, 0.03542064460691049
334.0, 0.025494954625771823
335.0, 0.017472834726001016
336.0, 0.012696047373904538
337.0, 0.009564001612249485
338.0, 0.006358799490086085
339.0, 0.004284977522450312
340.0, 0.0029447312882242382
341.0, 0.003094605592738048
342.0, 0.004058084839654286
343.0, 0.004373868915038592
344.0, 0.0028613267191608498
345.0, 0.002564016828688359
346.0, 0.0023827048787356175
347.0, 0.00159537551542577
348.0, 0.0006672792822214525
349.0, 0.00021892033716638032
350.0, 0.0005067987696222945
351.0, 0.0005211576088520396
352.0, 0.0006095900763214381
353.0, 0.0006167582093755791
354.0, 0.0014428163013949378
355.0, 0.0037865935047747233
356.0, 0.00519616962257675
357.0, 0.006420563697388307
358.0, 0.009382172982303986
359.0, 0.011321891607882459
360.0, 0.012645540412465248
361.0, 0.013260308513191838
362.0, 0.013023628414350083
363.0, 0.012194212195188577
364.0, 0.010882142616582467
365.0, 0.010241305284396008
366.0, 0.011304822316902512
367.0, 0.013296176500261655
368.0, 0.012849379980610486
369.0, 0.01427484105077722
370.0, 0.014086425612420538
371.0, 0.013403257414360156
372.0, 0.013761844967296408
373.0, 0.012141397455096003
374.0, 0.010678842943711214
375.0, 0.009218048216406392
376.0, 0.00727907933875955
377.0, 0.005001141949572027
378.0, 0.003451167601897032
379.0, 0.002838451157205183
380.0, 0.002438709248991512
381.0, 0.002222304695390525
382.0, 0.002571189178280471
383.0, 0.00362102854448282
384.0, 0.004475612508250523
385.0, 0.006068253588563316
386.0, 0.008411842848695847
387.0, 0.01099655417001908
388.0, 0.013946194407326636
389.0, 0.015702518615725206
390.0, 0.01643432165138101
391.0, 0.017039306012898284
392.0, 0.018399929909791158
393.0, 0.02127857561945286
394.0, 0.02393872786922261
395.0, 0.024969480713847875
396.0, 0.02442242391406885
397.0, 0.02310692562510001
398.0, 0.022570004120272866
399.0, 0.02305806299505785
400.0, 0.024382367690003324
401.0, 0.026639285314712848
402.0, 0.029665276818434685
403.0, 0.03229042361994521
404.0, 0.033378589210366724
405.0, 0.030770967891539814
406.0, 0.02583835241409041
407.0, 0.02106099576873042
408.0, 0.01601388857219778
409.0, 0.010350554154306201
410.0, 0.0052827481154548465
411.0, 0.0021206519208741277
412.0, 0.0011374158291254334
413.0, 0.0002144965745299685
414.0, 5.706355356420063e-05
415.0, 0.0007215558800444871
416.0, 0.003123828439233834
417.0, 0.006631738819800961
418.0, 0.007992035503235465
419.0, 0.005707966379270012
420.0, 0.002443714765689678
421.0, 0.00012513141295434753
422.0, 0.0016540193879164813
423.0, 0.0027993278021160137
424.0, 0.0030315395157250956
425.0, 0.0032388543861727264
426.0, 0.0035573887231099793
427.0, 0.003407195283854098
428.0, 0.0019668530393779316
429.0, 0.0019840855165718673
430.0, 0.0013539250612618068
431.0, 0.00045290527628576
432.0, 0.0007307280594531823
433.0, 0.004314190071513838
434.0, 0.007092455639159172
435.0, 0.00932799244370993
436.0, 0.010003313337522756
437.0, 0.009404365753168303
438.0, 0.009880892435613846
439.0, 0.00986739016582268
440.0, 0.009239979890972576
441.0, 0.010221240273716741
442.0, 0.011761875140291976
443.0, 0.010920970093266247
444.0, 0.01291955294400007
445.0, 0.015445581528282406
446.0, 0.018325984685640177
447.0, 0.02217786789066322
448.0, 0.02740096326161348
449.0, 0.033489876629840806
450.0, 0.039866076340786656
451.0, 0.047144464708386645
452.0, 0.05564024449948493
453.0, 0.06438424836301336
454.0, 0.07048705797915296
455.0, 0.07709134175516548
456.0, 0.08393317104326711
457.0, 0.08864834891416305
458.0, 0.08921523437452657
459.0, 0.08492998588850581
460.0, 0.07197341801528476
461.0, 0.05635074391257083
462.0, 0.04158217012868857
463.0, 0.02957443561176309
464.0, 0.022196790109290668
465.0, 0.015880481901546194
466.0, 0.010991249492647006
467.0, 0.007327532034303371
468.0, 0.005190606149563611
469.0, 0.005378495082985386
470.0, 0.005686338524777387
471.0, 0.005033198164133134
472.0, 0.005196799762761833
473.0, 0.006316753632785394
474.0, 0.006677990549845582
475.0, 0.006216521364126259
476.0, 0.006757382051382093
477.0, 0.007558235514056891
478.0, 0.008592574429604642
479.0, 0.00997546914728281
480.0, 0.01057301841927429
481.0, 0.012713758234728466
482.0, 0.016397951939017455
483.0, 0.019858083616243773
484.0, 0.022651354998367585
485.0, 0.02630922172493928
486.0, 0.027974866574360803
487.0, 0.025979561224414638
488.0, 0.023455454601596704
489.0, 0.022358684847432357
490.0, 0.021899688972396806
491.0, 0.02126949864184497
492.0, 0.022415190706312597
493.0, 0.023597128559755872
494.0, 0.024199313317623577
495.0, 0.025275876924694417
496.0, 0.026864911879666234
497.0, 0.027505978183580474
498.0, 0.025373930705700442
499.0, 0.020666593204081832
500.0, 0.01527817813700079
501.0, 0.011524585624930087
502.0, 0.007890621235479303
503.0, 0.0051819281384203894
504.0, 0.0033834789590628566
505.0, 0.0024178119906693466
506.0, 0.0023655163181102914
507.0, 0.0030220636657874358
508.0, 0.0038010620753007804
509.0, 0.004445965305497977
510.0, 0.005128947053755813
511.0, 0.0060564599246705365
512.0, 0.007045070492663464
513.0, 0.008082992578431763
514.0, 0.009092688638130786
515.0, 0.010381644993563009
516.0, 0.012051732230952869
517.0, 0.013853064819682327
518.0, 0.017190905936118526
519.0, 0.02034533211894644
520.0, 0.024145586312307288
521.0, 0.0283931109600049
522.0, 0.03219413549987708
523.0, 0.03662830729051107
524.0, 0.03979857483557157
525.0, 0.04042272932854354
526.0, 0.039317836042228695
527.0, 0.03673709235076501
528.0, 0.03141335968436313
529.0, 0.025540354111197462
530.0, 0.020809850874085815
531.0, 0.018277739692408482
532.0, 0.016751035864535697
533.0, 0.014488378176068562
534.0, 0.013787372130018767
535.0, 0.013029064690709663
536.0, 0.01297423931826109
537.0, 0.01339621297579843
538.0, 0.013617616516904716
539.0, 0.013875247504066336
540.0, 0.016192084558354733
541.0, 0.016249248945125506
542.0, 0.016517389979394354
543.0, 0.018729030897715097
544.0, 0.021238401304351104
545.0, 0.022190574576895054
546.0, 0.024231419249048588
547.0, 0.02392964377224314
548.0, 0.022972528082782082
549.0, 0.022871637211411073
550.0, 0.020604989819785324
551.0, 0.01885345354960593
552.0, 0.017489234578617376
553.0, 0.016927650045029587
554.0, 0.017097812884460377
555.0, 0.017755769972640632
556.0, 0.0196388526153645
557.0, 0.021782997119804054
558.0, 0.02441044086766628
559.0, 0.02667699944965416
560.0, 0.0286313708898729
561.0, 0.031180773790737474
562.0, 0.0313238215916478
563.0, 0.0318783327019454
564.0, 0.03142921031568823
565.0, 0.029703215284984357
566.0, 0.027555949020506485
567.0, 0.025218506860090615
568.0, 0.023217539530850984
569.0, 0.021830834719635376
570.0, 0.020692410315104673
571.0, 0.01935307228199735
572.0, 0.017830082302066366
573.0, 0.016586806349379223
574.0, 0.016310039426676273
575.0, 0.016668323609129038
576.0, 0.017229394213417355
577.0, 0.017250305727651807
578.0, 0.016140819494291934
579.0, 0.015603205317236657
580.0, 0.01573119940710661
581.0, 0.014415187945936977
582.0, 0.012955521216200961
583.0, 0.012448266523005952
584.0, 0.009497963204381088
585.0, 0.009165573467851787
586.0, 0.009531803228096903
587.0, 0.007663662622287782
588.0, 0.005653254840109345
589.0, 0.0070449049658991075
590.0, 0.0071013578745770245
591.0, 0.006893158006212456
592.0, 0.007012841109706168
593.0, 0.006988174391898886
594.0, 0.006445127185749504
595.0, 0.005754348539190245
596.0, 0.005580666855008374
597.0, 0.00547535803019103
598.0, 0.005539466734600225
599.0, 0.005455527872607215
600.0, 0.004893818946056897
601.0, 0.004054408778305873
602.0, 0.003906912923929822
603.0, 0.004351722074338307
604.0, 0.005401689482653685
605.0, 0.005498641505264029
606.0, 0.0045600664440294415
607.0, 0.005509825377820201
608.0, 0.003934915191985417
609.0, 0.00475706123815098
610.0, 0.0035192014701565617
611.0, 0.0012401916649481999
612.0, 0.0021594283744912966
613.0, 0.002304929740083567
614.0, 0.0010962488410687346
615.0, 0.00017830434487540756
616.0, 0.0002884363510403779
617.0, 0.0005725216955256319
618.0, 0.001712880102309613
619.0, 0.001987990508714882
620.0, 0.0007329610133651475
621.0, 0.000755337960063033
622.0, 0.0019769229761148486
623.0, 0.002610410814942288
624.0, 0.0015310278256304584
625.0, 0.0016511395244196544
626.0, 0.002558951843014752
627.0, 0.0021030501134451473
628.0, 0.0005644055619880059
629.0, 0.0003996262292927722
630.0, 0.0015187556734931075
631.0, 0.0015584987999391672
632.0, 0.0010511119322793114
633.0, 0.0007663808102415333
634.0, 0.00010959479749195425
635.0, 0.0008080387429516421
636.0, 0.0008676343495048302
637.0, 0.0009519971101164912
638.0, 0.0015776065733732754
639.0, 0.002090168536489872
640.0, 0.002962277731267804
641.0, 0.00415619626729492
642.0, 0.004589183460300406
643.0, 0.005320073216016157
644.0, 0.006937071067784071
645.0, 0.00815571587697289
646.0, 0.008492259841387049
647.0, 0.009085376827577646
648.0, 0.011120524403251434
649.0, 0.011076391063157907
650.0, 0.012032220422820693
651.0, 0.014143636444753803
652.0, 0.015482678625183682
653.0, 0.01569948806953564
654.0, 0.016850854092841
655.0, 0.018995580731426598
656.0, 0.0186993760478476
657.0, 0.019463215087848023
658.0, 0.020898856902513623
659.0, 0.022614645916310218
660.0, 0.026245666710175173
661.0, 0.02923584676448471
662.0, 0.03205285924205758
663.0, 0.03703294421634575
664.0, 0.04206168115222012
665.0, 0.04728350643497495
666.0, 0.055921900915871306
667.0, 0.06517590315723376
668.0, 0.07587681487133564
669.0, 0.08927922163949728
670.0, 0.10534644849885261
671.0, 0.12515117803419393
672.0, 0.1493720084606141
673.0, 0.17502918464910722
674.0, 0.20593780021271837
675.0, 0.23901946279596306
676.0, 0.2773159478713882
677.0, 0.32375980527938386
678.0, 0.37964592213531345
679.0, 0.44776032466181936
680.0, 0.5278898812139213
681.0, 0.6215260227875593
682.0, 0.7238373843519372
683.0, 0.8301882911048586
684.0, 0.9298832423357347
685.0, 0.9928755973052042
686.0, 0.9892452923566945
687.0, 0.90835338646279
688.0, 0.7753026511545961
689.0, 0.6282565325550192
690.0, 0.49573143641524237
691.0, 0.3882416098407807
692.0, 0.3086009375670926
693.0, 0.2473449537072612
694.0, 0.20136431223491136
695.0, 0.16707361302623874
696.0, 0.14057010479212098
697.0, 0.11896042488750545
698.0, 0.10192899521760809
699.0, 0.08798772072556872
700.0, 0.076874732851293
701.0, 0.06798264607220748
702.0, 0.06027666441136949
703.0, 0.053262264585244336
704.0, 0.04753930090953083
705.0, 0.042720109614607205
706.0, 0.0387045867624443
707.0, 0.0355876095481922
708.0, 0.0327608946428972
709.0, 0.029814846725254238
710.0, 0.027570245079732505
711.0, 0.024975409424116204
712.0, 0.023311778103150972
713.0, 0.022101365594142247
714.0, 0.019934787075976217
715.0, 0.017641962792429113
716.0, 0.017440801779855918
717.0, 0.016776441704236186
718.0, 0.015119326932429115
719.0, 0.01434186815002064
720.0, 0.013513129335861802
721.0, 0.01227316007365233
722.0, 0.011445727530712413
723.0, 0.010226538120948774
724.0, 0.009409052867803528
725.0, 0.00940347943793633
726.0, 0.00979370275190665
727.0, 0.009865249797227778
728.0, 0.009143637636167904
729.0, 0.007550398616199631
730.0, 0.005494474833298549
731.0, 0.00512669745246429
732.0, 0.0040955813618971095
733.0, 0.0032553111665316148
734.0, 0.00356072132269725
735.0, 0.004329037555324204
736.0, 0.004484402967155348
737.0, 0.0036197775369206705
738.0, 0.0039613224340411535
739.0, 0.003632180235473184
740.0, 0.0031476483534165255
741.0, 0.003970999821431849
742.0, 0.0046946466012875825
743.0, 0.0026591000657541844
744.0, 0.002919776471050601
745.0, 0.003336186902314495
746.0, 0.0031560698249909944
747.0, 0.003346310060890482
748.0, 0.004050273171170529
749.0, 0.0032375836019593734
750.0, 0.002979284632457524
751.0, 0.004662625767753205
752.0, 0.004756224784799946
753.0, 0.003580900531503438
754.0, 0.002772568658173972
755.0, 0.0014512060443366977
756.0, 0.0007711010122718731
757.0, 0.0017560976599774005
758.0, 0.0020615033006364954
759.0, 0.0012085783304141254
760.0, 0.0005078020250275624
761.0, 0.0012570363916664762
762.0, 0.0025228142567519534
763.0, 0.0019886888361148832
764.0, 0.0006533843830341787
765.0, 0.0004919880330183325
766.0, 0.0005297558306101577
767.0, 0.00036008179373184744
768.0, 0.0007990070890721531
769.0, 0.0009404687119828404
770.0, 0.0005741431845825766
771.0, 0.001520669552617757
772.0, 0.0016630372055708733
773.0, 0.0009843035721857965
774.0, 0.0004957346261257751
775.0, 0.0008788646716529247
776.0, 0.0006957257242136103
777.0, 0.001654177263644087
778.0, 0.0017552844563077062
779.0, 0.0010876018701775371
780.0, 0.0005870101970156935
781.0, 0.000424489389361648
782.0, 0.0004616082186996435
783.0, 0.0008323636377360523
784.0, 0.00013558151122353203
785.0, 0.0009660407083726926
786.0, 0.0003211767411401767
787.0, 0.0005011962341520927
788.0, 0.0006304996063159439
789.0, 0.0006655622630987134
790.0, 0.0013852615154546462
791.0, 0.0003907449335282655
792.0, 0.00035136143550744945
793.0, 0.000638300113665307
794.0, 0.000694100076549332
795.0, 0.0004972172353808448
796.0, 0.00019103116736766439
797.0, 9.232272900771176e-05
798.0, 0.00043061976805310964
799.0, 0.0015945718053000226
800.0, 0.001359381396642854
801.0, 0.0008207485596432299
802.0, 0.0030048016211814826
803.0, 0.0036461879302689655
804.0, 0.00300771276634786
805.0, 0.004230246127789357
806.0, 0.005239781772818765
807.0, 0.005039374693666076
808.0, 0.0052265026762573896
809.0, 0.006447112257309431
810.0, 0.005785585021550742
811.0, 0.006780800385111128
812.0, 0.00696731332126369
813.0, 0.007294151928570738
814.0, 0.008284808830909826
815.0, 0.008662562884558049
816.0, 0.0079524468616146
817.0, 0.009781959427116998
818.0, 0.010216323705590521
819.0, 0.01012522667683472
820.0, 0.010495699015892784
821.0, 0.010449393214008486
822.0, 0.010200729756670754
823.0, 0.01057254716107053
824.0, 0.009782451155925811
825.0, 0.007922823548458979
826.0, 0.008570635024674018
827.0, 0.007070364299807737
828.0, 0.006313729389975029
829.0, 0.007134727930157869
830.0, 0.006044605538696302
831.0, 0.004613117629992297
832.0, 0.004693120927142255
833.0, 0.005575410982063656
834.0, 0.005777587952970437
835.0, 0.004229358273144047
836.0, 0.002433922125058168
837.0, 0.002377844653795705
838.0, 0.0034216602046207613
839.0, 0.004277789179116702
840.0, 0.0036214743134044217
841.0, 0.0040260182635462926
842.0, 0.004736723518903437
843.0, 0.005017541212382353
844.0, 0.005113313814095648
845.0, 0.005102562545593194
846.0, 0.005816280152009816
847.0, 0.005399789552330652
848.0, 0.004203361217007489
849.0, 0.0036149119692383013
850.0, 0.0040957240178468735
851.0, 0.0047061994343146904
852.0, 0.004205488781102116
853.0, 0.0035988056418370935
854.0, 0.003897721474422108
855.0, 0.004362430675621948
856.0, 0.005227826777277492
857.0, 0.005236387390491887
858.0, 0.00465308663301555
859.0, 0.005609174565264791
860.0, 0.006870958280122934
861.0, 0.006119368041946616
862.0, 0.006012349373654313
863.0, 0.005786067546994146
864.0, 0.0054758268539834174
865.0, 0.005175146137388499
866.0, 0.004580500953525452
867.0, 0.0039049116378879582
868.0, 0.004044903695191658
869.0, 0.003843535536528952
870.0, 0.003964360991180558
871.0, 0.00445651551770978
872.0, 0.004956345842847961
873.0, 0.0051478921092912204
874.0, 0.00485639101896367
875.0, 0.0040293511296142824
876.0, 0.0038411107686591554
877.0, 0.0037394074664625857
878.0, 0.003959341343049718
879.0, 0.0038644406655931325
880.0, 0.003922438192405642
881.0, 0.004175347619063479
882.0, 0.002986962353567685
883.0, 0.0030390667818005314
884.0, 0.0029063779219315124
885.0, 0.0025598944790465377
886.0, 0.002393701688815661
887.0, 0.0019866986078713677
888.0, 0.002272755921698701
889.0, 0.0036167335897029705
890.0, 0.002788261731437793
891.0, 0.0030716119038715446
892.0, 0.0038131009257441444
893.0, 0.0034696799526689553
894.0, 0.0036928913552951577
895.0, 0.003744630397233133
896.0, 0.0027298301255845557
897.0, 0.002846602844229561
898.0, 0.0033035438766572532
899.0, 0.002275355842960947
900.0, 0.0029103329190247225
901.0, 0.002232307129949292
902.0, 0.0024514237851590813
903.0, 0.004255570829800671
904.0, 0.0050513786258246235
905.0, 0.004977090278467898
906.0, 0.004605254739210059
907.0, 0.00541569075063638
908.0, 0.005010213588516084
909.0, 0.005137477511173728
910.0, 0.005436635339705197
911.0, 0.0059554526351781765
912.0, 0.0074537058148238565
913.0, 0.007984455779041581
914.0, 0.008973330947112702
915.0, 0.008668192270384576
916.0, 0.007817871192557333
917.0, 0.008919726210653536
918.0, 0.009862553591042907
919.0, 0.00897897058686541
920.0, 0.008554584178802557
921.0, 0.009631008302811129
922.0, 0.009691456220942744
923.0, 0.010011537776169926
924.0, 0.01074194420937153
925.0, 0.01120712083283298
926.0, 0.01124872708134206
927.0, 0.01102258239132769
928.0, 0.010252339934567067
929.0, 0.009094404949764835
930.0, 0.01014668007150754
931.0, 0.009647829744125749
932.0, 0.00956837198052837
933.0, 0.008907540230639234
934.0, 0.007705145225993115
935.0, 0.006579864818504341
936.0, 0.0051809741187275335
937.0, 0.004395984003266046
938.0, 0.005392865303621423
939.0, 0.005412604616724685
940.0, 0.0026445365925835546
941.0, 0.0019051786673878672
942.0, 0.0035618369650968072
943.0, 0.004275130612449257
944.0, 0.003517455614750066
945.0, 0.0031050026496355246
946.0, 0.005047863671812056
947.0, 0.0026086687452789277
948.0, 0.003539827120618786
949.0, 0.005309925271606662
950.0, 0.005353793823534893
951.0, 0.0041101840863036095
952.0, 0.00306467033764866
953.0, 0.004066880945720576
954.0, 0.00396076713697388
955.0, 0.0015383169656912972
956.0, 0.001228639382749556
957.0, 0.0008437266505381164
958.0, 0.0009680223402997721
959.0, 0.0022257579349898664
960.0, 0.0024113900745150792
961.0, 0.0038154521737294375
962.0, 0.002768390738433917
963.0, 0.0025983125587053985
964.0, 0.0018341557752784645
965.0, 0.0016509510259509728
966.0, 0.0030608168973067177
967.0, 0.0035017471663432746
968.0, 0.0030054678283870854
969.0, 0.0029676408106701353
970.0, 0.0017108060283058636
971.0, 0.0025709597677229367
972.0, 0.0023540535328186035
973.0, 0.0023472426680424302
974.0, 0.001629228918785487
975.0, 0.001723333117973653
976.0, 0.0018961059982379764
977.0, 0.0004457673150300698
978.0, 0.0024708521183689934
979.0, 0.003833762921221484
980.0, 0.005077165798297612
981.0, 0.006927820084047723
982.0, 0.010276934522048704
983.0, 0.013538602257487417
984.0, 0.016669696777741914
985.0, 0.021334286103248914
986.0, 0.027221823794696703
987.0, 0.03198632935472509
988.0, 0.03678819941834993
989.0, 0.04286605510601667
990.0, 0.04678246466300792
991.0, 0.050729526594734224
992.0, 0.0540738396103584
993.0, 0.056113420142885645
994.0, 0.05748452348562853
995.0, 0.056341083136169055
996.0, 0.053631392337008414
997.0, 0.04914706974794957
998.0, 0.04522375228565907
999.0, 0.04156426162918309
1000.0, 0.03711702684520772
1001.0, 0.03277319634847637
1002.0, 0.029483081985334905
1003.0, 0.02608263275022703
1004.0, 0.021487686394695015
1005.0, 0.019636865131632406
1006.0, 0.017465365303620382
1007.0, 0.01513895110684698
1008.0, 0.012755619954954271
1009.0, 0.01050182114450111
1010.0, 0.008781938720088832
1011.0, 0.008149366046811261
1012.0, 0.00794186206173417
1013.0, 0.0062401362399387
1014.0, 0.004878842112256753
1015.0, 0.0065324301890024045
1016.0, 0.008133981260266914
1017.0, 0.00804328486695095
1018.0, 0.008926720173900117
1019.0, 0.010017335688515663
1020.0, 0.010595917423598502
1021.0, 0.013036793302051196
1022.0, 0.014417412152242137
1023.0, 0.016546185001923376
1024.0, 0.017990814741982303
1025.0, 0.017764294145936207
1026.0, 0.01878871595515138
1027.0, 0.01924126178987726
1028.0, 0.017701488669933964
1029.0, 0.01614053973767851
1030.0, 0.016198881529280736
1031.0, 0.014128335331901358
1032.0, 0.014207496249665144
1033.0, 0.016762198704697008
1034.0, 0.02225000504428631
1035.0, 0.026852460016659023
1036.0, 0.03041096782562987
1037.0, 0.03534555235542569
1038.0, 0.041854168384930425
1039.0, 0.04774896445381494
1040.0, 0.052205519248626125
1041.0, 0.05876197089390304
1042.0, 0.06288252852374582
1043.0, 0.06550612965835718
1044.0, 0.06753188212593293
1045.0, 0.06929124403603211
1046.0, 0.06938683125317845
1047.0, 0.06916588845341076
1048.0, 0.0714710891848226
1049.0, 0.0747403291664999
1050.0, 0.08062516959551437
1051.0, 0.0877527965919769
1052.0, 0.09598819415416547
1053.0, 0.10562683254250832
1054.0, 0.11495999580058838
1055.0, 0.1248658795204841
1056.0, 0.13516591137143813
1057.0, 0.1441111856830591
1058.0, 0.15087591459861632
1059.0, 0.154131779014798
1060.0, 0.15345896101666381
1061.0, 0.15016057578281608
1062.0, 0.14275449820307878
1063.0, 0.13272544791341045
1064.0, 0.120409784291896
1065.0, 0.10736307108982532
1066.0, 0.09552952100629518
1067.0, 0.08422405570894728
1068.0, 0.07198080927758767
1069.0, 0.061502326210670366
1070.0, 0.0540510179518594
1071.0, 0.0461267858661876
1072.0, 0.039287090716340116
1073.0, 0.035329574877716256
1074.0, 0.03170961534577061
1075.0, 0.028823953114771542
1076.0, 0.027517679192589534
1077.0, 0.02616342201475793
1078.0, 0.02745399619682143
1079.0, 0.02861096239817376
1080.0, 0.029904128713464588
1081.0, 0.033195325514029636
1082.0, 0.03871224885107448
1083.0, 0.04511776594217649
1084.0, 0.05302360315686889
1085.0, 0.06326203954929724
1086.0, 0.07513955764755052
1087.0, 0.08850930139283965
1088.0, 0.10587581565355281
1089.0, 0.12606177463732385
1090.0, 0.1484828191225403
1091.0, 0.17399724456764726
1092.0, 0.20327480003102905
1093.0, 0.23673535409498653
1094.0, 0.274491868961713
1095.0, 0.3152312403079652
1096.0, 0.3596790686958289
1097.0, 0.40713104514658816
1098.0, 0.4517751739639239
1099.0, 0.49300963810788345
1100.0, 0.5246912688825166
1101.0, 0.5395380772140513
1102.0, 0.5386355279656942
1103.0, 0.5229982466960706
1104.0, 0.49390322767297856
1105.0, 0.45683285178349564
1106.0, 0.41575296085985813
1107.0, 0.3719412679189952
1108.0, 0.3308013876943593
1109.0, 0.2933094781054264
1110.0, 0.25791618653867493
1111.0, 0.22464751462709295
1112.0, 0.1925929855430493
1113.0, 0.16625599411956135
1114.0, 0.14246650490810905
1115.0, 0.12054514760281286
1116.0, 0.10295355803862279
1117.0, 0.08785907084745795
1118.0, 0.07452487465273382
1119.0, 0.06459228664233294
1120.0, 0.05451398016759264
1121.0, 0.04692891361865488
1122.0, 0.04084331828901738
1123.0, 0.03422285893739195
1124.0, 0.028257173519264274
1125.0, 0.024276133670737783
1126.0, 0.021933497533661004
1127.0, 0.019254644333512264
1128.0, 0.015736457692276013
1129.0, 0.0144163571071119
1130.0, 0.013166725886295881
1131.0, 0.01179962161522136
1132.0, 0.012329133748713035
1133.0, 0.012127652395848867
1134.0, 0.01262912431956957
1135.0, 0.013696673871005212
1136.0, 0.014184732712440626
1137.0, 0.014289906973663734
1138.0, 0.014535979787668065
1139.0, 0.014377512790324629
1140.0, 0.01375365290630357
1141.0, 0.012037351316195138
1142.0, 0.012230280841876728
1143.0, 0.01040707425506631
1144.0, 0.009007662651946559
1145.0, 0.006549643107684154
1146.0, 0.004184186212639674
1147.0, 0.003239620422479819
1148.0, 0.0018916456429158533
1149.0, 0.00035238721897435553
1150.0, 0.0011075740697930971
1151.0, 0.0018533819758703952
1152.0, 0.0010517798507211859
1153.0, 0.0006523142066602936
1154.0, 0.0014967287915223135
1155.0, 0.0021626799470255698
1156.0, 0.0013055221048738426
1157.0, 0.001555041286500297
1158.0, 0.002089366829832829
1159.0, 0.0018690821966132227
1160.0, 0.002890595500651008
1161.0, 0.00425025659216564
1162.0, 0.003624755985303547
1163.0, 0.0029575654643434384
1164.0, 0.0032911571449142055
1165.0, 0.001308248330573273
1166.0, 0.001969584007170861
1167.0, 0.002892212884720191
1168.0, 0.0017478025531374466
1169.0, 0.0010217279235285393
1170.0, 0.0006749679211834755
1171.0, 0.001892033955728574
1172.0, 0.004150561494583945
1173.0, 0.003641356314184693
1174.0, 0.005366358434320824
1175.0, 0.00714565439758052
1176.0, 0.0088102574797762
1177.0, 0.008982668888978636
1178.0, 0.00950268576322626
1179.0, 0.011401545782412863
1180.0, 0.012843141745394224
1181.0, 0.013011327354402398
1182.0, 0.012892483132782061
1183.0, 0.013050824308904098
1184.0, 0.013612705713000151
1185.0, 0.014354620793398906
1186.0, 0.012758095043684112
1187.0, 0.012839859212098228
1188.0, 0.011319554737757392
1189.0, 0.010649113423712763
1190.0, 0.010546106935949916
1191.0, 0.01089353901694067
1192.0, 0.009652264291492416
1193.0, 0.00955685482565555
1194.0, 0.011001886872485126
1195.0, 0.009688684642134173
1196.0, 0.009621104875767802
1197.0, 0.010113420051918742
1198.0, 0.00795149932233229
1199.0, 0.006959283150289025
1200.0, 0.007405184318084633
1201.0, 0.007076596929676573
1202.0, 0.007377329947381486
1203.0, 0.006491926908344986
1204.0, 0.006466170397577715
1205.0, 0.006917671464444778
1206.0, 0.006540493363028426
1207.0, 0.007132197390178739
1208.0, 0.007837927423622357
1209.0, 0.006987897386696128
1210.0, 0.007290824934277512
1211.0, 0.007068805213531879
1212.0, 0.005297579092757165
1213.0, 0.005763529821809198
1214.0, 0.004896898159471723
1215.0, 0.005227421655369612
1216.0, 0.0058927801133114785
1217.0, 0.005950650616242421
1218.0, 0.00559418542049266
1219.0, 0.005153991441694344
1220.0, 0.0051597354125057305
1221.0, 0.004426206494889929
1222.0, 0.003916549738031017
1223.0, 0.0036562415118029457
1224.0, 0.0036238485959516403
1225.0, 0.0028543648686906583
1226.0, 0.0027335941025218528
1227.0, 0.0009679672102564027
1228.0, 9.445323528976843e-05
1229.0, 0.0015744868988746372
1230.0, 0.0015723675586570235
1231.0, 0.00028188458356494684
1232.0, 0.0008724694152134729
1233.0, 0.0014321589716811765
1234.0, 0.0015471938451641117
1235.0, 0.0025056331278151787
1236.0, 0.0009305910836788481
1237.0, 0.0019177043991981772
1238.0, 0.003475239826739266
1239.0, 0.002531964876756503
1240.0, 0.0032973356969058752
1241.0, 0.003727691931922194
1242.0, 0.003512759374727093
1243.0, 0.0037522790634289165
1244.0, 0.004479810369317465
1245.0, 0.005624746561925068
1246.0, 0.006116197311765786
1247.0, 0.005177271757626708
1248.0, 0.0047655871408194975
1249.0, 0.005856951314825281
1250.0, 0.00677135176444595
1251.0, 0.007609631374351647
1252.0, 0.007736564222010598
1253.0, 0.006024014417850188
1254.0, 0.006465101681074776
1255.0, 0.007362305443413769
1256.0, 0.007563081911639225
1257.0, 0.007292297379500667
1258.0, 0.0072812571866835915
1259.0, 0.007803181838826755
1260.0, 0.006938763014409355
1261.0, 0.006613560701067099
1262.0, 0.006039740063794828
1263.0, 0.004777299378010857
1264.0, 0.004446521873709275
1265.0, 0.003367777751541597
1266.0, 0.0024996616572717546
1267.0, 0.0022485998039136197
1268.0, 0.003020785805339314
1269.0, 0.002824526373466186
1270.0, 0.00201351446680575
1271.0, 0.002107954574109367
1272.0, 0.0030561926561062653
1273.0, 0.004010733078707873
1274.0, 0.003936444558013834
1275.0, 0.004000884289645935
1276.0, 0.002898086818216717
1277.0, 0.0020715716741921473
1278.0, 0.0026349031273999878
1279.0, 0.002460597074894592
1280.0, 0.0021901589433771505
1281.0, 0.0021872689307180847
1282.0, 0.001918070702381351
1283.0, 0.002573762948291835
1284.0, 0.002958900370025844
1285.0, 0.002275557867962806
1286.0, 0.0016818329924404838
1287.0, 0.0017800264439772613
1288.0, 0.002414535285029178
1289.0, 0.003278201355876228
1290.0, 0.0032648288891713945
1291.0, 0.0019572358508960996
1292.0, 0.001019407664921954
1293.0, 0.0017129288323601151
1294.0, 0.0026833987436456525
1295.0, 0.0037402565178747144
1296.0, 0.002265286541980206
1297.0, 0.0010743114688628458
1298.0, 0.001770585127056392
1299.0, 0.0011962774090467213
1300.0, 3.054500087194968e-06
1301.0, 2.4218573223756443e-05
1302, 0.0
1303, 0.0
1304, 0.0
1305, 0.0
1306, 0.0
1307, 0.0
1308, 0.0
1309, 0.0
1310, 0.0
1311, 0.0
1312, 0.0
1313, 0.0
1314, 0.0
1315, 0.0
1316, 0.0
1317, 0.0
1318, 0.0
1319, 0.0
1320, 0.0
1321, 0.0
1322, 0.0
1323, 0.0
1324, 0.0
1325, 0.0
1326, 0.0
1327, 0.0
1328, 0.0
1329, 0.0
1330, 0.0
1331, 0.0
1332, 0.0
1333, 0.0
1334, 0.0
1335, 0.0
1336, 0.0
1337, 0.0
1338, 0.0
1339, 0.0
1340, 0.0
1341, 0.0
1342, 0.0
1343, 0.0
1344, 0.0
1345, 0.0
1346, 0.0
1347, 0.0
1348, 0.0
1349, 0.0
1350, 0.0
1351, 0.0
1352, 0.0
1353, 0.0
1354, 0.0
1355, 0.0
1356, 0.0
1357, 0.0
1358, 0.0
1359, 0.0
1360, 0.0
1361, 0.0
1362, 0.0
1363, 0.0
1364, 0.0
1365, 0.0
1366, 0.0
1367, 0.0
1368, 0.0
1369, 0.0
1370, 0.0
1371, 0.0
1372, 0.0
1373, 0.0
1374, 0.0
1375, 0.0
1376, 0.0
1377, 0.0
1378, 0.0
1379, 0.0
1380, 0.0
1381, 0.0
1382, 0.0
1383, 0.0
1384, 0.0
1385, 0.0
1386, 0.0
1387, 0.0
1388, 0.0
1389, 0.0
1390, 0.0
1391, 0.0
1392, 0.0
1393, 0.0
1394, 0.0
1395, 0.0
1396, 0.0
1397, 0.0
1398, 0.0
1399, 0.0
1400, 0.0
1401, 0.0
1402, 0.0
1403, 0.0
1404, 0.0
1405, 0.0
1406, 0.0
1407, 0.0
1408, 0.0
1409, 0.0
1410, 0.0
1411, 0.0
1412, 0.0
1413, 0.0
1414, 0.0
1415, 0.0
1416, 0.0
1417, 0.0
1418, 0.0
1419, 0.0
1420, 0.0
1421, 0.0
1422, 0.0
1423, 0.0
1424, 0.0
1425, 0.0
1426, 0.0
1427, 0.0
1428, 0.0
1429, 0.0
1430, 0.0
1431, 0.0
1432, 0.0
1433, 0.0
1434, 0.0
1435, 0.0
1436, 0.0
1437, 0.0
1438, 0.0
1439, 0.0
1440, 0.0
1441, 0.0
1442, 0.0
1443, 0.0
1444, 0.0
1445, 0.0
1446, 0.0
1447, 0.0
1448, 0.0
1449, 0.0
1450, 0.0
1451, 0.0
1452, 0.0
1453, 0.0
1454, 0.0
1455, 0.0
1456, 0.0
1457, 0.0
1458, 0.0
1459, 0.0
1460, 0.0
1461, 0.0
1462, 0.0
1463, 0.0
1464, 0.0
1465, 0.0
1466, 0.0
1467, 0.0
1468, 0.0
1469, 0.0
1470, 0.0
1471, 0.0
1472, 0.0
1473, 0.0
1474, 0.0
1475, 0.0
1476, 0.0
1477, 0.0
1478, 0.0
1479, 0.0
1480, 0.0
1481, 0.0
1482, 0.0
1483, 0.0
1484, 0.0
1485, 0.0
1486, 0.0
1487, 0.0
1488, 0.0
1489, 0.0
1490, 0.0
1491, 0.0
1492, 0.0
1493, 0.0
1494, 0.0
1495, 0.0
1496, 0.0
1497, 0.0
1498, 0.0
1499, 0.0
1500, 0.0
1501, 0.0
1502, 0.0
1503, 0.0
1504, 0.0
1505, 0.0
1506, 0.0
1507, 0.0
1508, 0.0
1509, 0.0
1510, 0.0
1511, 0.0
1512, 0.0
1513, 0.0
1514, 0.0
1515, 0.0
1516, 0.0
1517, 0.0
1518, 0.0
1519, 0.0
1520, 0.0
1521, 0.0
1522, 0.0
1523, 0.0
1524, 0.0
1525, 0.0
1526, 0.0
1527, 0.0
1528, 0.0
1529, 0.0
1530, 0.0
1531, 0.0
1532, 0.0
1533, 0.0
1534, 0.0
1535, 0.0
1536, 0.0
1537, 0.0
1538, 0.0
1539, 0.0
1540, 0.0
1541, 0.0
1542, 0.0
1543, 0.0
1544, 0.0
1545, 0.0
1546, 0.0
1547, 0.0
1548, 0.0
1549, 0.0
1550, 0.0
1551, 0.0
1552, 0.0
1553, 0.0
1554, 0.0
1555, 0.0
1556, 0.0
1557, 0.0
1558, 0.0
1559, 0.0
1560, 0.0
1561, 0.0
1562, 0.0
1563, 0.0
1564, 0.0
1565, 0.0
1566, 0.0
1567, 0.0
1568, 0.0
1569, 0.0
1570, 0.0
1571, 0.0
1572, 0.0
1573, 0.0
1574, 0.0
1575, 0.0
1576, 0.0
1577, 0.0
1578, 0.0
1579, 0.0
1580, 0.0
1581, 0.0
1582, 0.0
1583, 0.0
1584, 0.0
1585, 0.0
1586, 0.0
1587, 0.0
1588, 0.0
1589, 0.0
1590, 0.0
1591, 0.0
1592, 0.0
1593, 0.0
1594, 0.0
1595, 0.0
1596, 0.0
1597, 0.0
1598, 0.0
1599, 0.0
