30, 0.0
31, 0.0
32, 0.0
33, 0.0
34, 0.0
35, 0.0
36, 0.0
37, 0.0
38, 0.0
39, 0.0
40, 0.0
41, 0.0
42, 0.0
43, 0.0
44, 0.0
45, 0.0
46, 0.0
47, 0.0
48, 0.0
49, 0.0
50, 0.0
51, 0.0
52, 0.0
53, 0.0
54, 0.0
55, 0.0
56, 0.0
57, 0.0
58, 0.0
59, 0.0
60, 0.0
61, 0.0
62, 0.0
63, 0.0
64, 0.0
65, 0.0
66, 0.0
67, 0.0
68, 0.0
69, 0.0
70, 0.0
71, 0.0
72, 0.0
73, 0.0
74, 0.0
75, 0.0
76, 0.0
77, 0.0
78, 0.0
79, 0.0
80, 0.0
81, 0.0
82, 0.0
83, 0.0
84, 0.0
85, 0.0
86, 0.0
87, 0.0
88, 0.0
89, 0.0
90, 0.0
91, 0.0
92, 0.0
93, 0.0
94, 0.0
95, 0.0
96, 0.0
97, 0.0
98, 0.0
99, 0.0
100, 0.0
101, 0.0
102, 0.0
103, 0.0
104, 0.0
105, 0.0
106, 0.0
107, 0.0
108, 0.0
109, 0.0
110, 0.0
111, 0.0
112, 0.0
113, 0.0
114.0, 0.0006918248388597266
115.0, 0.001274419258961208
116.0, 0.0038477809171856337
117.0, 0.011222315027341717
118.0, 0.02115485761945583
119.0, 0.036071295150167236
120.0, 0.050766152485687305
121.0, 0.06583621559229287
122.0, 0.08422849875891478
123.0, 0.1118318452923805
124.0, 0.14050345832880884
125.0, 0.17297852313366366
126.0, 0.202473296607775
127.0, 0.22065833129392493
128.0, 0.21933215735913086
129.0, 0.2074637405289064
130.0, 0.1875783500942989
131.0, 0.16593472746284021
132.0, 0.14469362748355377
133.0, 0.12416844282098599
134.0, 0.10780652965433625
135.0, 0.08909982173232749
136.0, 0.07918852592245317
137.0, 0.07570598316181246
138.0, 0.07471797714663697
139.0, 0.07614515663262417
140.0, 0.07094477289497084
141.0, 0.0707739917030459
142.0, 0.07190041971470829
143.0, 0.07061042219736918
144.0, 0.0648375282221399
145.0, 0.06245434694006093
146.0, 0.0613996083586235
147.0, 0.05745081165178271
148.0, 0.05040962733463739
149.0, 0.04235248358757204
150.0, 0.03753460070642364
151.0, 0.03141773885827891
152.0, 0.025639054350792854
153.0, 0.020046254997134465
154.0, 0.014977700080308177
155.0, 0.01187296473681765
156.0, 0.010172630068047767
157.0, 0.005945727395998583
158.0, 0.004265788919870985
159.0, 0.004401429906532449
160.0, 0.0026798936182044542
161.0, 0.0023918483778439005
162.0, 0.002871232516147929
163.0, 0.0028518028914138803
164.0, 0.0025172618126084504
165.0, 0.0023573188566872005
166.0, 0.00276050811192282
167.0, 0.0014089827601535619
168.0, 0.0006348976214569777
169.0, 0.00037899868646774275
170.0, 0.0010037887254288808
171.0, 0.002945110123799673
172.0, 0.0023564936179907557
173.0, 0.001534286723500612
174.0, 0.0011776484360612475
175.0, 0.0013879271308496757
176.0, 0.001865788262916304
177.0, 0.0017438714916892392
178.0, 0.002845201920784254
179.0, 0.003446392512178939
180.0, 0.0033314044708853056
181.0, 0.002456991145034169
182.0, 0.0010010467244908482
183.0, 0.0018488441374733698
184.0, 0.0028502548544745688
185.0, 0.003602564819735494
186.0, 0.0033784877182072093
187.0, 0.0022287905572837404
188.0, 0.0031128536271964333
189.0, 0.002086920173060176
190.0, 0.0011341542385436135
191.0, 0.0007804118191539925
192.0, 0.0008605479988502379
193.0, 0.0007132696641054516
194.0, 0.0018884235177634176
195.0, 0.0029739366710317457
196.0, 0.002746748040416592
197.0, 0.002809939728745218
198.0, 0.004289071379113231
199.0, 0.003187529699460052
200.0, 0.0035315672632521
201.0, 0.0017843891980709138
202.0, 0.002059553859142088
203.0, 0.003693729799607944
204.0, 0.001132867280560817
205.0, 0.0008838853716679512
206.0, 0.002816502535433406
207.0, 0.003546442356063093
208.0, 0.0037051006275674253
209.0, 0.004498436000867111
210.0, 0.004767748596116074
211.0, 0.002384942976223041
212.0, 0.0014741346190422775
213.0, 0.0011998126178028997
214.0, 0.001179902519964837
215.0, 0.0016214093435330279
216.0, 0.0013908635808287384
217.0, 0.0031277439953739158
218.0, 0.005377275098773568
219.0, 0.007672379018904956
220.0, 0.01004997916840537
221.0, 0.01307781969656576
222.0, 0.017434344347054112
223.0, 0.02225627811495298
224.0, 0.027196003738635514
225.0, 0.03323785577949472
226.0, 0.04154351600711839
227.0, 0.04915596447933193
228.0, 0.058588289354938
229.0, 0.06975911817782755
230.0, 0.0799025022232223
231.0, 0.08779723000728443
232.0, 0.09523598344558692
233.0, 0.09589868850770855
234.0, 0.08951093032549438
235.0, 0.08133302659136006
236.0, 0.07102377713067144
237.0, 0.05769128040949542
238.0, 0.04776348114646907
239.0, 0.036992255430506056
240.0, 0.028264549231283062
241.0, 0.020176147191105494
242.0, 0.01349033706121407
243.0, 0.010574125567007455
244.0, 0.005075303298697877
245.0, 0.004728043173096833
246.0, 0.0026346088837866273
247.0, 0.0008461161863837394
248.0, 0.0011383245140880007
249.0, 6.129588853094148e-05
250.0, 0.0013383999556346288
251.0, 0.002087347593799891
252.0, 0.0023230309192059377
253.0, 0.0024253921745343767
254.0, 0.002480051013148399
255.0, 0.0004854560913208209
256.0, 0.0027600092867418645
257.0, 0.003190424383039558
258.0, 0.004459113711245137
259.0, 0.006014124390801093
260.0, 0.0037251344229350856
261.0, 0.003398439055666301
262.0, 0.0025491419701681806
263.0, 0.0018950708994202395
264.0, 0.0030151207213895124
265.0, 0.006273583850326388
266.0, 0.009346037961072121
267.0, 0.010147484649348554
268.0, 0.009672378994295208
269.0, 0.009879227547801113
270.0, 0.01011037801926247
271.0, 0.009316378527612896
272.0, 0.010230051727612774
273.0, 0.007997961484234043
274.0, 0.006915112757072773
275.0, 0.006777846361950304
276.0, 0.006466218800762371
277.0, 0.004939264990625996
278.0, 0.004839982377412974
279.0, 0.003909873215154744
280.0, 0.0037900283373789273
281.0, 0.004173843256537316
282.0, 0.0046786540943954315
283.0, 0.005400960734981943
284.0, 0.005738722230748673
285.0, 0.008277480319111888
286.0, 0.011412284270281833
287.0, 0.013517398072983598
288.0, 0.014651907978839281
289.0, 0.018640193079466558
290.0, 0.021547491472759264
291.0, 0.020769371022402065
292.0, 0.020614632509010505
293.0, 0.022039908839285968
294.0, 0.023996103806353728
295.0, 0.026421061616350754
296.0, 0.024744880470694015
297.0, 0.024763385842805963
298.0, 0.025086902773236566
299.0, 0.024740059879387096
300.0, 0.023968543459438628
301.0, 0.02434668948927301
302.0, 0.024802840702711094
303.0, 0.02358999423296701
304.0, 0.02465031735183831
305.0, 0.027619985255670335
306.0, 0.02647046102158995
307.0, 0.025978696591135626
308.0, 0.028922081364367126
309.0, 0.032204433244337846
310.0, 0.035183253578217284
311.0, 0.03815392554440903
312.0, 0.041782334327581466
313.0, 0.045953871624992114
314.0, 0.05298590747716526
315.0, 0.05666358021955673
316.0, 0.06003615882974651
317.0, 0.06610801220160079
318.0, 0.0689580718244118
319.0, 0.07502736002463743
320.0, 0.08276572390886287
321.0, 0.09099685598000903
322.0, 0.10007252745508972
323.0, 0.11110719895990412
324.0, 0.1250067578028963
325.0, 0.142561968121288
326.0, 0.1631919871261893
327.0, 0.1866079298909868
328.0, 0.21345212651672624
329.0, 0.24399006399692416
330.0, 0.27454577469965824
331.0, 0.3127328970453084
332.0, 0.35203166794832536
333.0, 0.3906417379859233
334.0, 0.4286851311187434
335.0, 0.4657172991262867
336.0, 0.4906438458289858
337.0, 0.5039338007470173
338.0, 0.5015435963449629
339.0, 0.48561943050319367
340.0, 0.45815760718750675
341.0, 0.4210190299386086
342.0, 0.3835745986220574
343.0, 0.34316621960945803
344.0, 0.3002238862055881
345.0, 0.2589184472535188
346.0, 0.2240522324551655
347.0, 0.19852398561814033
348.0, 0.17346273534186585
349.0, 0.15430082018263377
350.0, 0.13816967782771344
351.0, 0.12381665470168479
352.0, 0.11045328565620728
353.0, 0.09802311399193377
354.0, 0.09131521242652853
355.0, 0.09021193565246484
356.0, 0.08179049456482698
357.0, 0.07368896982005213
358.0, 0.06996261560003084
359.0, 0.06438153486841675
360.0, 0.0607243614572635
361.0, 0.057570339422443946
362.0, 0.053922327064921255
363.0, 0.051076515666364154
364.0, 0.04949410374997228
365.0, 0.04782091789044672
366.0, 0.04589432254634862
367.0, 0.048326314550246934
368.0, 0.050958055064566854
369.0, 0.052738300617981265
370.0, 0.054163499640401847
371.0, 0.05631631470529602
372.0, 0.05489542295169113
373.0, 0.05812428692903157
374.0, 0.06438074433636327
375.0, 0.06582010350286929
376.0, 0.06214761717782514
377.0, 0.0635293974517826
378.0, 0.06285607847281864
379.0, 0.05872693728034339
380.0, 0.058260606470726485
381.0, 0.05661607986055677
382.0, 0.0523451260772961
383.0, 0.0511901418083232
384.0, 0.052463799778819376
385.0, 0.048982657076829354
386.0, 0.05007490606922229
387.0, 0.054102592761168355
388.0, 0.05843630002869863
389.0, 0.06265760853725785
390.0, 0.07003379148027333
391.0, 0.07406568266858475
392.0, 0.08009170657902145
393.0, 0.08454902767362071
394.0, 0.0873638307343881
395.0, 0.09257336117845591
396.0, 0.09637010008109517
397.0, 0.09766168078368746
398.0, 0.09741719675592617
399.0, 0.09800436371620819
400.0, 0.0985506971985161
401.0, 0.09625708398589711
402.0, 0.09429242238256004
403.0, 0.0896366842228431
404.0, 0.08976949009247613
405.0, 0.09184582305333956
406.0, 0.09164648827220202
407.0, 0.08765984959036187
408.0, 0.08836914205228055
409.0, 0.08099926825302003
410.0, 0.08092392166065052
411.0, 0.07989135256987978
412.0, 0.07658371958136086
413.0, 0.07255792769860753
414.0, 0.0613424154017033
415.0, 0.05628688862613288
416.0, 0.05283486224174681
417.0, 0.051046046697301825
418.0, 0.046438145853639846
419.0, 0.03803499640208571
420.0, 0.036715229183995085
421.0, 0.030739310451463442
422.0, 0.030495379335578676
423.0, 0.027873554513762992
424.0, 0.025782898002988865
425.0, 0.027120111519469463
426.0, 0.02783543021209017
427.0, 0.02795704635550713
428.0, 0.029125833686021608
429.0, 0.0333957677403703
430.0, 0.03903128991156865
431.0, 0.043711899472907566
432.0, 0.046455400218229234
433.0, 0.05103556847798444
434.0, 0.052916981105569645
435.0, 0.054487818204165844
436.0, 0.05511518935708423
437.0, 0.05474984290612043
438.0, 0.053733428516384685
439.0, 0.04964870310302877
440.0, 0.04394472512481622
441.0, 0.03787089029461495
442.0, 0.03175475336310354
443.0, 0.026143449328272762
444.0, 0.021586311083513752
445.0, 0.018184956070114937
446.0, 0.015775562808550886
447.0, 0.014570939436919868
448.0, 0.012471013997412428
449.0, 0.012879282500825286
450.0, 0.01577009555898902
451.0, 0.011983566005101058
452.0, 0.01355796432187515
453.0, 0.012124285770858952
454.0, 0.012031787341614253
455.0, 0.010917350289586665
456.0, 0.009106286843449473
457.0, 0.010651593946866761
458.0, 0.008620097732368333
459.0, 0.011405239197036308
460.0, 0.010387810107314087
461.0, 0.008539860948063463
462.0, 0.008404111008416303
463.0, 0.009777352057975404
464.0, 0.009263637885406954
465.0, 0.007035409138229281
466.0, 0.007151148541834398
467.0, 0.008161459515316544
468.0, 0.007909710344131076
469.0, 0.006771551568978123
470.0, 0.009566705119356466
471.0, 0.007259167534887265
472.0, 0.00304853406382327
473.0, 0.0013146101316995195
474.0, 0.0009894115754751423
475.0, 0.0008083817640340019
476.0, 0.0010706505346108506
477.0, 0.0013945529036091123
478.0, 0.0016198571882721103
479.0, 0.0015470220111772023
480.0, 0.003394846689338005
481.0, 0.0040384265327357265
482.0, 0.0007548793897178914
483.0, 0.0030299489865594845
484.0, 0.0006333507357709239
485.0, 0.002374262012695477
486.0, 0.0016761156763573373
487.0, 0.001189680703732677
488.0, 0.002521708789375272
489.0, 0.0006122688451957799
490.0, 0.000879444943814174
491.0, 0.0012084430392250165
492.0, 0.0014879874571468883
493.0, 0.0021793545624832857
494.0, 0.0026451959413281963
495.0, 0.002011297088070854
496.0, 0.0023338726206105125
497.0, 0.002558342916885711
498.0, 0.002194424415885274
499.0, 0.0016229364246001046
500.0, 0.0011293857366583865
501.0, 0.0009560094494361587
502.0, 0.0012598061063245074
503.0, 0.00020585170873847514
504.0, 0.00010513773760369224
505.0, 0.0006307591744463695
506.0, 0.0015752353277095035
507.0, 0.0023654146438048572
508.0, 0.0025519272124269843
509.0, 0.003490418572488224
510.0, 0.0026983205692762925
511.0, 0.0020800180488586245
512.0, 0.0030604547574170932
513.0, 0.0046807637843952095
514.0, 0.0062237859627502475
515.0, 0.009099587550724137
516.0, 0.008975741267790754
517.0, 0.011273603646096676
518.0, 0.011479660674564792
519.0, 0.011976649768946832
520.0, 0.01321551443589359
521.0, 0.013629095931820465
522.0, 0.015528477725306456
523.0, 0.013017182127085435
524.0, 0.014180529841702856
525.0, 0.01487161814907461
526.0, 0.014856613698052001
527.0, 0.01632606461978222
528.0, 0.02102147734646409
529.0, 0.02197063010281767
530.0, 0.022919033799173802
531.0, 0.03009765776110484
532.0, 0.03598644854290238
533.0, 0.03733521060404719
534.0, 0.03711561762983411
535.0, 0.0406809228619448
536.0, 0.036866806192019576
537.0, 0.03712491791105476
538.0, 0.03657036270019781
539.0, 0.03488815420277921
540.0, 0.03252419288720573
541.0, 0.029254061084964294
542.0, 0.026720397193579905
543.0, 0.027734789020268158
544.0, 0.0265383903061949
545.0, 0.02339700877219387
546.0, 0.022639157803329955
547.0, 0.024949111746149118
548.0, 0.02209506017756955
549.0, 0.01885451218084424
550.0, 0.017564783948398926
551.0, 0.01658589646610188
552.0, 0.017324275816911865
553.0, 0.015581783404283909
554.0, 0.008579198242656731
555.0, 0.01106600087600376
556.0, 0.008452112344497359
557.0, 0.011599675581186695
558.0, 0.010966918544386191
559.0, 0.00789941558624806
560.0, 0.007409386490372601
561.0, 0.011113271091832754
562.0, 0.006637590682475977
563.0, 0.01093903373914721
564.0, 0.00898262618999387
565.0, 0.009451662418382726
566.0, 0.01039665799954117
567.0, 0.008042374402187379
568.0, 0.0058120160638222805
569.0, 0.01018541616522875
570.0, 0.010998327516302664
571.0, 0.014303616739548042
572.0, 0.013182013139572365
573.0, 0.01007024620737362
574.0, 0.009841678751372944
575.0, 0.007443448266946874
576.0, 0.010143052767104095
577.0, 0.012544139787294392
578.0, 0.011846924982486181
579.0, 0.011343062197050493
580.0, 0.010726822618354444
581.0, 0.008293670410447618
582.0, 0.009792560271259508
583.0, 0.009405023040774438
584.0, 0.009606533022584525
585.0, 0.010179028427433097
586.0, 0.008674604265429289
587.0, 0.007472759690391295
588.0, 0.010358540696463234
589.0, 0.006495777331766723
590.0, 0.010906064694647083
591.0, 0.009326949309171093
592.0, 0.00664453807136009
593.0, 0.004590359614896515
594.0, 0.004785652884338362
595.0, 0.007854688609800577
596.0, 0.002918755677322851
597.0, 0.0058752150491458675
598.0, 0.007239363178857899
599.0, 0.006907455358648923
600.0, 0.007441436200342709
601.0, 0.009385914308667559
602.0, 0.009830006426113778
603.0, 0.009018525527190051
604.0, 0.007999408727043439
605.0, 0.00744264829330546
606.0, 0.008131141499412409
607.0, 0.009323624493321801
608.0, 0.009368708855889727
609.0, 0.007385385136863413
610.0, 0.008289297652781729
611.0, 0.007682584365957062
612.0, 0.010843549098651201
613.0, 0.009999253352291395
614.0, 0.006058113151423211
615.0, 0.004997162907106371
616.0, 0.009980948805737865
617.0, 0.009677783760709019
618.0, 0.01116456104346477
619.0, 0.012908800009657153
620.0, 0.016008100281219805
621.0, 0.017017958879030057
622.0, 0.016030846302307743
623.0, 0.019699730303535473
624.0, 0.013797635978616359
625.0, 0.01750711709843908
626.0, 0.02134859791234283
627.0, 0.02218391841767435
628.0, 0.023037223027380982
629.0, 0.025784552622667586
630.0, 0.02678474408491633
631.0, 0.028003173039601332
632.0, 0.028059993320817232
633.0, 0.030277956101627403
634.0, 0.03156924244891581
635.0, 0.03387244106822646
636.0, 0.038857770402094025
637.0, 0.04376416941770283
638.0, 0.04661478866630177
639.0, 0.050748874912399614
640.0, 0.05453803314670368
641.0, 0.060574593464328357
642.0, 0.06797499682750334
643.0, 0.07468429850803544
644.0, 0.08070720294787147
645.0, 0.0916781858425564
646.0, 0.10374907767900894
647.0, 0.12345506758746908
648.0, 0.14740791083892368
649.0, 0.17121091240668831
650.0, 0.19684919745240634
651.0, 0.23059360092085424
652.0, 0.2670274755432075
653.0, 0.3005156507102624
654.0, 0.344166140006901
655.0, 0.3914331659436302
656.0, 0.4327082470355869
657.0, 0.4677751091481871
658.0, 0.5010032727284786
659.0, 0.5211220158278246
660.0, 0.5143879986874916
661.0, 0.5019417914113345
662.0, 0.476609473881158
663.0, 0.4459217944894219
664.0, 0.4136306843621175
665.0, 0.38139968540322167
666.0, 0.3590911473095929
667.0, 0.3441280726637803
668.0, 0.3395502480403097
669.0, 0.33991883891930036
670.0, 0.3484684293377269
671.0, 0.37071880042436106
672.0, 0.4074265416894381
673.0, 0.4501179127493851
674.0, 0.48753866014696784
675.0, 0.5437766385344257
676.0, 0.6003544860731336
677.0, 0.6484147672678804
678.0, 0.6890692546424856
679.0, 0.7228057946803831
680.0, 0.7406546215351392
681.0, 0.7220159393034806
682.0, 0.7073888386021896
683.0, 0.6542787033858657
684.0, 0.5950661795532419
685.0, 0.5317711154500389
686.0, 0.46432646383094534
687.0, 0.39923906465132547
688.0, 0.33709024527367837
689.0, 0.2886970189515756
690.0, 0.24340343432427705
691.0, 0.20555253523020325
692.0, 0.17667535151234304
693.0, 0.15157027620461724
694.0, 0.12819658292714342
695.0, 0.11465805674382182
696.0, 0.09852315245852397
697.0, 0.08822353644760461
698.0, 0.07798980102139208
699.0, 0.07139890746744022
700.0, 0.06587861015056447
701.0, 0.05914181884735933
702.0, 0.05238826434513099
703.0, 0.04382880104921396
704.0, 0.03971071942381522
705.0, 0.0374182355531813
706.0, 0.036350412721041996
707.0, 0.034709002791919664
708.0, 0.03282774693576742
709.0, 0.03214470052949687
710.0, 0.03174292235658127
711.0, 0.02545776237140055
712.0, 0.025995406476336785
713.0, 0.02302142611202005
714.0, 0.021416530561690277
715.0, 0.021577467115373394
716.0, 0.021598876032113686
717.0, 0.021323760671485597
718.0, 0.022207914932066097
719.0, 0.01917065317880069
720.0, 0.01434813260896179
721.0, 0.012482844745902923
722.0, 0.012720279051427082
723.0, 0.014791236663902963
724.0, 0.01698588105245084
725.0, 0.013060894757680432
726.0, 0.014667786780775457
727.0, 0.014331346882590938
728.0, 0.014697645690743553
729.0, 0.013478108724463062
730.0, 0.011760787077302473
731.0, 0.011587621517394994
732.0, 0.012594481057794423
733.0, 0.010517024196486634
734.0, 0.011462839254496711
735.0, 0.014706707766503317
736.0, 0.010577037053415738
737.0, 0.00909729696313794
738.0, 0.008928079993759505
739.0, 0.006666996953141245
740.0, 0.010402205346115589
741.0, 0.007983005834574883
742.0, 0.007095506585732956
743.0, 0.006777008968845079
744.0, 0.00734255818008995
745.0, 0.00783363044431668
746.0, 0.008080605391115431
747.0, 0.008731915471253406
748.0, 0.009454229416282826
749.0, 0.008377142157203825
750.0, 0.008831915294285815
751.0, 0.006645064345360826
752.0, 0.0045357003637131335
753.0, 0.003774083039789782
754.0, 0.00499823001424167
755.0, 0.007359198900316959
756.0, 0.0039107457335074754
757.0, 0.004260305348636953
758.0, 0.00161768772717614
759.0, 0.002171561535311286
760.0, 0.0022628588237772807
761.0, 0.0023197765439638965
762.0, 0.0038013400062556135
763.0, 0.004160765248401273
764.0, 0.0013494578325741165
765.0, 0.0006096707871403732
766.0, 0.0027275876171550515
767.0, 0.0019541408404447633
768.0, 0.0033009751104833094
769.0, 0.005138938664237857
770.0, 0.0030284438488951603
771.0, 0.0005593109803381548
772.0, 0.0038412938734513928
773.0, 0.0007090073091423916
774.0, 0.0009132321088632601
775.0, 0.0014103873723710666
776.0, 0.0015693667583129437
777.0, 0.0018069682103382088
778.0, 0.0020222048953912205
779.0, 0.0014054762749109847
780.0, 0.0018917879769173352
781.0, 0.0013816454011509791
782.0, 0.0007361899914823456
783.0, 0.0010853982431284184
784.0, 0.0017891707564148404
785.0, 0.002583694214284645
786.0, 0.0029989102800315787
787.0, 0.000988401625087653
788.0, 0.001164245848642687
789.0, 0.003639007375556515
790.0, 0.004805126595777781
791.0, 0.004443303867035269
792.0, 0.002608776961488408
793.0, 0.0010577557601386006
794.0, 0.0011034586619725515
795.0, 0.0002932814752996434
796.0, 0.0009140208075957578
797.0, 0.0007426221430309587
798.0, 0.0011146134019412932
799.0, 0.0012099923975142951
800.0, 0.0011356299802431726
801.0, 0.0017190120359889644
802.0, 0.0034062486103676906
803.0, 0.004830322138573718
804.0, 0.0008532382890730481
805.0, 0.00012021294979781819
806.0, 0.0016724821925735852
807.0, 0.004347596749828472
808.0, 0.00527004769287404
809.0, 0.0038681839073062673
810.0, 0.00245466247966256
811.0, 0.003100407956931378
812.0, 0.002179712870820848
813.0, 0.0041119477629217764
814.0, 0.003520662882536942
815.0, 0.0024370708858664023
816.0, 0.0020180751057811675
817.0, 0.0020924036815408846
818.0, 0.002229476828605138
819.0, 0.0030939329794838722
820.0, 0.006757201187738397
821.0, 0.0021525872081549413
822.0, 0.0010642230421886224
823.0, 0.002642942952232453
824.0, 0.002109775134560436
825.0, 0.0008284539511877086
826.0, 0.0014703752267031028
827.0, 0.002172791287418323
828.0, 0.003603060885699527
829.0, 0.004721670381732541
830.0, 0.0012297184607561419
831.0, 0.004099514768872573
832.0, 0.005896545038187489
833.0, 0.004701529873126884
834.0, 0.004234041735139766
835.0, 0.006499104059544448
836.0, 0.006995579115961155
837.0, 0.0007733718005789557
838.0, 0.0020722657130418038
839.0, 0.0015201448435112326
840.0, 0.0027970673906553153
841.0, 0.005649463812578529
842.0, 0.007628294652959959
843.0, 0.00811429182276859
844.0, 0.009607479620563441
845.0, 0.012427364241599594
846.0, 0.00867496522812541
847.0, 0.009776889849964256
848.0, 0.013419503122106402
849.0, 0.01675466546374348
850.0, 0.020609981282777107
851.0, 0.0272336767850569
852.0, 0.03581428853703438
853.0, 0.04131488322157024
854.0, 0.043215599552924235
855.0, 0.04453637763904221
856.0, 0.04953804895776688
857.0, 0.051361278588708946
858.0, 0.05151010215541639
859.0, 0.05184125888968644
860.0, 0.05044666090770153
861.0, 0.049153934159298536
862.0, 0.04794723761162193
863.0, 0.0427536484670816
864.0, 0.041146143732767766
865.0, 0.03859079863259406
866.0, 0.03283750842276511
867.0, 0.028043422276394166
868.0, 0.026712249342351255
869.0, 0.024021468691086137
870.0, 0.021173054988568547
871.0, 0.021058956567556582
872.0, 0.018645510487138982
873.0, 0.012475684849984944
874.0, 0.011593896886190568
875.0, 0.01095616480416838
876.0, 0.010342285881446308
877.0, 0.013905448736602957
878.0, 0.010711676935802788
879.0, 0.011972386205063463
880.0, 0.011272272725615491
881.0, 0.010792216060015902
882.0, 0.005789774500642763
883.0, 0.004854227105908456
884.0, 0.007593508403522039
885.0, 0.006658469064771526
886.0, 0.002176067381068696
887.0, 0.00861520404941137
888.0, 0.009728108272939672
889.0, 0.01125771541107316
890.0, 0.00499461634703639
891.0, 0.005870065419953
892.0, 0.007241989535100608
893.0, 0.004095375419021406
894.0, 0.001244797369043166
895.0, 0.003550614432570022
896.0, 0.00661829850301239
897.0, 0.006873222468251183
898.0, 0.006578781257820187
899.0, 0.008461988105993284
900.0, 0.00654370617886319
901.0, 0.00592584568188372
902.0, 0.005994321298723545
903.0, 0.002990839578888598
904.0, 0.004309148036555915
905.0, 0.008412559073073705
906.0, 0.0045915314839905476
907.0, 0.0009446971197816644
908.0, 0.0027922799580641384
909.0, 0.004820216267203539
910.0, 0.005590493576519195
911.0, 0.007011790505072513
912.0, 0.01042280615826088
913.0, 0.013582189567366197
914.0, 0.006362305014985526
915.0, 0.01311289856867553
916.0, 0.012596548579554275
917.0, 0.016336962331937915
918.0, 0.01577710917078283
919.0, 0.014808502677918809
920.0, 0.016942144408266337
921.0, 0.017853135555703215
922.0, 0.01744607572558351
923.0, 0.022967037026614495
924.0, 0.029609331621591566
925.0, 0.027954180424610675
926.0, 0.030998413533583975
927.0, 0.03840537917772318
928.0, 0.04406818698302039
929.0, 0.04726536318551437
930.0, 0.05134296964435742
931.0, 0.05449779056566016
932.0, 0.05771142625985151
933.0, 0.06368197293412581
934.0, 0.06292156562826792
935.0, 0.06529487196677253
936.0, 0.06810851709726833
937.0, 0.06676683065654279
938.0, 0.06525677252288979
939.0, 0.0651615860678052
940.0, 0.05675826346945797
941.0, 0.05872146531668585
942.0, 0.04888514808843679
943.0, 0.04987339880327897
944.0, 0.04415300483068449
945.0, 0.044497415584855066
946.0, 0.042272912185937504
947.0, 0.03563023479233368
948.0, 0.03245539394979079
949.0, 0.03274098424480624
950.0, 0.03234270097443619
951.0, 0.026204820431827792
952.0, 0.022512888510674955
953.0, 0.019492172189894078
954.0, 0.0218579868097546
955.0, 0.02509157462289843
956.0, 0.024457664547821233
957.0, 0.019302017813238398
958.0, 0.014686098723912525
959.0, 0.01984811702682764
960.0, 0.018623667684075956
961.0, 0.020776815498920277
962.0, 0.0192198647813033
963.0, 0.016053824965345503
964.0, 0.018977925997000725
965.0, 0.019180787245861464
966.0, 0.013654831419509543
967.0, 0.011204331710211759
968.0, 0.013314254834327237
969.0, 0.0160894699473669
970.0, 0.021520632146080423
971.0, 0.016036996846675373
972.0, 0.025877629827910295
973.0, 0.024783426130563772
974.0, 0.022384110772015207
975.0, 0.023351275349822613
976.0, 0.024153197426752798
977.0, 0.027524931514379177
978.0, 0.028904861705049106
979.0, 0.034854410979093274
980.0, 0.034629978057342414
981.0, 0.042326736968397824
982.0, 0.043911065811062626
983.0, 0.045938348170267
984.0, 0.049750094256015676
985.0, 0.053841328968121084
986.0, 0.05985693320576893
987.0, 0.0700050406579164
988.0, 0.08186450699314957
989.0, 0.08926152129054037
990.0, 0.10324688557289778
991.0, 0.11483646288670675
992.0, 0.13360242198355407
993.0, 0.15881518295769467
994.0, 0.18313953472766234
995.0, 0.2086620899555759
996.0, 0.24596419810290732
997.0, 0.2938049600509078
998.0, 0.3386394844465579
999.0, 0.3959376485646561
1000.0, 0.4678227769519835
1001.0, 0.5405022734658252
1002.0, 0.622575553461566
1003.0, 0.7189754324552351
1004.0, 0.8121902569605336
1005.0, 0.8889325244035097
1006.0, 0.9535904266685641
1007.0, 0.9960123070392114
1008.0, 0.9998308546995872
1009.0, 0.9575445295966011
1010.0, 0.9003642537495029
1011.0, 0.8196479557665586
1012.0, 0.7394362157957844
1013.0, 0.6617802659526998
1014.0, 0.5860620639245127
1015.0, 0.5195762690363023
1016.0, 0.46877125410727155
1017.0, 0.430919907539961
1018.0, 0.39735098791293244
1019.0, 0.36751625482170824
1020.0, 0.34153975092775074
1021.0, 0.319030879445178
1022.0, 0.3014381761920074
1023.0, 0.28563385481301684
1024.0, 0.2682008029745484
1025.0, 0.25078342153833444
1026.0, 0.23664518680418753
1027.0, 0.2229477027523141
1028.0, 0.21776286478896978
1029.0, 0.19985380534797562
1030.0, 0.18855616434465652
1031.0, 0.184253159642433
1032.0, 0.16637112152001649
1033.0, 0.14788524485477303
1034.0, 0.13531813532960907
1035.0, 0.12433582624077869
1036.0, 0.11380551406920293
1037.0, 0.102899740750611
1038.0, 0.08999692089250354
1039.0, 0.08596237982722298
1040.0, 0.07745093723919474
1041.0, 0.07193806573323898
1042.0, 0.06126400348512519
1043.0, 0.05552997424913
1044.0, 0.05105997358943553
1045.0, 0.04407295065174024
1046.0, 0.04064721557876316
1047.0, 0.04027410665845477
1048.0, 0.03232997031137628
1049.0, 0.030186103390172175
1050.0, 0.0302349539545141
1051.0, 0.0268659488203516
1052.0, 0.02689386633888866
1053.0, 0.024753732483531743
1054.0, 0.022395900568550037
1055.0, 0.023685939738505492
1056.0, 0.02489073742516565
1057.0, 0.020662672783237114
1058.0, 0.018165373108479495
1059.0, 0.013848925538891605
1060.0, 0.011945279382037882
1061.0, 0.014919475956220387
1062.0, 0.0120535324076615
1063.0, 0.009075618573529436
1064.0, 0.010933847542472055
1065.0, 0.011527030776757288
1066.0, 0.00921623762135258
1067.0, 0.010248004833967594
1068.0, 0.013595841129915482
1069.0, 0.012565262832258105
1070.0, 0.0072389956073979685
1071.0, 0.007965529662034239
1072.0, 0.006479786346770442
1073.0, 0.006380165374554298
1074.0, 0.0037780682348812333
1075.0, 0.001588072472029959
1076.0, 0.003637322476763568
1077.0, 0.005419428707600821
1078.0, 0.0026831232965657493
1079.0, 0.0047608325784890635
1080.0, 0.007410305450273315
1081.0, 0.008020683332418945
1082.0, 0.004399632040476339
1083.0, 0.019690098528277234
1084.0, 0.03122572455259584
1085.0, 0.022642781482397747
1086.0, 0.009604287949063154
1087.0, 0.005881292613068034
1088.0, 0.0068958842375512995
1089.0, 0.004845717162627458
1090.0, 0.00259801219579677
1091.0, 0.002512685220280453
1092.0, 0.004336463544421365
1093.0, 0.0028291518720376333
1094.0, 0.0036743167790067944
1095.0, 0.0018519022831757135
1096.0, 0.0005282000558176909
1097.0, 0.0022188455219773534
1098.0, 0.0036279895066470245
1099.0, 0.003045627159952068
1100.0, 0.003185417088875817
1101.0, 0.002675012369359881
1102.0, 0.003103835516789795
1103.0, 0.005172206948497907
1104.0, 0.0083553334153966
1105.0, 0.005265878884290848
1106.0, 0.008303924898155993
1107.0, 0.004993164733641426
1108.0, 0.0036360743504432625
1109.0, 0.0037286532728422806
1110.0, 0.0022905986859214026
1111.0, 0.0031499979051359175
1112.0, 0.00045139439059983577
1113.0, 0.0017719098073607949
1114.0, 0.004368117770494097
1115.0, 0.004635654703152171
1116.0, 0.005387686083861055
1117.0, 0.0024956235348956484
1118.0, 0.0034443187402901036
1119.0, 0.004428858536566456
1120.0, 0.0030466206549018895
1121.0, 0.0030679594647749025
1122.0, 0.005149910062441464
1123.0, 0.0041344730719832
1124.0, 0.0032328766613538653
1125.0, 0.004614179671823875
1126.0, 0.0035772333919242365
1127.0, 0.0025868074650509843
1128.0, 0.005593095377747728
1129.0, 0.005117470413225486
1130.0, 0.004875155574058347
1131.0, 0.006052905303977889
1132.0, 0.0069676571293069145
1133.0, 0.007093419031043381
1134.0, 0.006777439895791472
1135.0, 0.004878594138367554
1136.0, 0.0011379534139074423
1137.0, 0.0024358445298271274
1138.0, 0.005351878289627232
1139.0, 0.00166763445717441
1140.0, 0.003768061207071266
1141.0, 0.0032066048076894354
1142.0, 0.001013140560111187
1143.0, 0.001914032077265534
1144.0, 0.0033064055112274307
1145.0, 0.0034399146770125017
1146.0, 0.005174565328352273
1147.0, 0.0029515417470057366
1148.0, 0.0042153107273261515
1149.0, 0.0031651052568932997
1150.0, 0.006692916569088501
1151.0, 0.006510165824941253
1152.0, 0.005064228288416092
1153.0, 0.004555525151294648
1154.0, 0.00442963642568404
1155.0, 0.003981621740845351
1156.0, 0.004556465366652382
1157.0, 0.005211868465853152
1158.0, 0.0032874072568940785
1159.0, 0.0030192215179648905
1160.0, 0.0035187504042149898
1161.0, 0.00038468303651499006
1162.0, 0.0005899209074049692
1163.0, 0.004665203373200759
1164.0, 0.001743484714304493
1165.0, 0.0003296930168916828
1166.0, 0.0022752971294690756
1167.0, 0.0019952034766088068
1168.0, 0.001281862233764347
1169.0, 0.003238525634886776
1170.0, 0.0033945328104662245
1171.0, 0.0016873247812049512
1172.0, 0.003025763970050964
1173.0, 0.006492762207181759
1174.0, 0.0033024999071662987
1175.0, 0.0007416770134230144
1176.0, 0.0008979256756049992
1177.0, 0.0032065897558926307
1178.0, 0.0024734735104822497
1179.0, 0.001046414678624515
1180.0, 0.0019945526563547116
1181.0, 0.0023909090476329237
1182.0, 0.0014532319970646307
1183.0, 0.00376245005321478
1184.0, 0.0030071551654404015
1185.0, 0.006415859206151402
1186.0, 0.0031296145299206813
1187.0, 0.002627677782350549
1188.0, 0.0025242205737141987
1189.0, 0.002273452118593843
1190.0, 0.0033153664643932315
1191.0, 0.003403120698498534
1192.0, 0.0027944603457890024
1193.0, 0.002995970723925434
1194.0, 0.004180922934083412
1195.0, 0.004679954306706455
1196.0, 0.002764721076495699
1197.0, 0.002222576323493313
1198.0, 0.0020745717509763413
1199.0, 0.0017075358027246607
1200.0, 0.001511634978307543
1201.0, 0.002190436918121597
1202.0, 0.003167190544099559
1203.0, 0.003595035867750456
1204.0, 0.00400096725581017
1205.0, 0.005187376998756891
1206.0, 0.005176181712837541
1207.0, 0.0034779343804692544
1208.0, 0.0022177216576665516
1209.0, 0.00042527038906427776
1210.0, 0.000838152764555073
1211.0, 0.0003732222353375794
1212.0, 0.0015997204189051476
1213.0, 0.0004186601886211782
1214.0, 0.0014783129763290632
1215.0, 0.000677129300406102
1216.0, 0.001166674478664205
1217.0, 0.00216883166253336
1218.0, 0.0032982946375174683
1219.0, 0.0052712398529895935
1220.0, 0.004859383384858965
1221.0, 0.0015199047747726806
1222.0, 0.002277982990747032
1223.0, 0.0014098629587792192
1224.0, 0.003318319185229601
1225.0, 0.0017505720973215993
1226.0, 0.001336896159213213
1227.0, 0.002890605287355569
1228.0, 0.004826429795999624
1229.0, 0.00525463524620931
1230.0, 0.004736303519613666
1231.0, 0.004442811137001889
1232.0, 0.003838365132774164
1233.0, 0.0030293450342104705
1234.0, 0.0034483658701316127
1235.0, 0.004230751843298226
1236.0, 0.0033843953709165255
1237.0, 0.006245747942004387
1238.0, 0.0087470012800485
1239.0, 0.008116477194904863
1240.0, 0.009546129490910901
1241.0, 0.00604472563380575
1242.0, 0.006749392797381272
1243.0, 0.00838768348001906
1244.0, 0.004863458378396844
1245.0, 0.0018621326611620438
1246.0, 0.0026664068888426983
1247.0, 0.00401949238435731
1248.0, 0.004307141821396413
1249.0, 0.005129048671489618
1250.0, 0.0069527513023749585
1251.0, 0.008641230251314972
1252.0, 0.012849230222659446
1253.0, 0.0028132802490789238
1254.0, 0.010966174535216354
1255.0, 0.007995217321063368
1256.0, 0.0047332654340009215
1257.0, 0.006074864357208139
1258.0, 0.007033354666847984
1259.0, 0.007591394063732974
1260.0, 0.007896853258870176
1261.0, 0.007398162215522334
1262.0, 0.00711178594369504
1263.0, 0.005459520678186232
1264.0, 0.0006924068500255503
1265.0, 0.003305795021180304
1266.0, 0.0046685170809211505
1267.0, 0.011559933669305524
1268.0, 0.010557304732535452
1269.0, 0.006514192087146854
1270.0, 0.0095053856414496
1271.0, 0.007896258431838001
1272.0, 0.009093749894488815
1273.0, 0.011083787141563089
1274.0, 0.010164857639174685
1275.0, 0.008066306979290517
1276.0, 0.008053405303868041
1277.0, 0.009629256597602075
1278.0, 0.008656555555335312
1279.0, 0.005534744987270648
1280.0, 0.010632564812400404
1281.0, 0.008261295427474417
1282.0, 0.017460005015952053
1283.0, 0.014225265588991967
1284.0, 0.012112921165896838
1285.0, 0.01270393987049709
1286.0, 0.012957045847117484
1287.0, 0.009551503405712205
1288.0, 0.010644910443951624
1289.0, 0.010395589346452835
1290.0, 0.007712775766142108
1291.0, 0.008898593538987575
1292.0, 0.009817813348668951
1293.0, 0.006719055605135382
1294.0, 0.00843703192126899
1295.0, 0.005972458793634885
1296.0, 0.010061249489895115
1297.0, 0.008942263124122038
1298.0, 0.004981919020877488
1299.0, 0.003026774571356596
1300.0, 0.005399256684478358
1301.0, 0.005058025531080339
1302.0, 0.00415082744681976
1303.0, 0.0015483376575345079
1304.0, 0.001317808559952743
1305.0, 0.003053125208215075
1306.0, 0.003916109488032006
1307.0, 0.0032217931738511493
1308.0, 0.0027733189855348316
1309.0, 0.0059107116440560185
1310.0, 0.006864038036820777
1311.0, 0.0036674649876940854
1312.0, 0.00041215602515235123
1313.0, 0.0038122136480494124
1314.0, 0.006021634646409435
1315.0, 0.005619868519559054
1316.0, 0.009935948831066686
1317.0, 0.009167887275550398
1318.0, 0.010174213516645934
1319.0, 0.010385538942740084
1320.0, 0.01042005473053197
1321.0, 0.011077848116185108
1322.0, 0.010332574822091399
1323.0, 0.009323864251894432
1324.0, 0.009232815055170476
1325.0, 0.006067020450737906
1326.0, 0.0026696847956767748
1327.0, 0.004749401219175362
1328.0, 0.003400540110326946
1329.0, 0.011956308060336235
1330.0, 0.012911343665829399
1331.0, 0.013273147837365376
1332.0, 0.013724283837426144
1333.0, 0.014015005053666771
1334.0, 0.011832120130371299
1335.0, 0.01127238324827511
1336.0, 0.009957568217263586
1337.0, 0.010541197194214131
1338.0, 0.008836478384045986
1339.0, 0.0040108166413047605
1340.0, 0.0023969346707847913
1341.0, 0.003524256666640402
1342.0, 0.007013179530670471
1343.0, 0.010173458784167543
1344.0, 0.01580017880891648
1345.0, 0.013889320515944398
1346.0, 0.006566061742563228
1347.0, 0.012510263464200632
1348.0, 0.0066739308156347436
1349.0, 0.005211697704557775
1350.0, 0.007638421996783374
1351.0, 0.0071311994841357015
1352.0, 0.007576029408335348
1353.0, 0.0068619983575666215
1354.0, 0.008471266473597201
1355.0, 0.0077962674583781375
1356.0, 0.00583878743476386
1357.0, 0.009031091932392262
1358.0, 0.009722237244390683
1359.0, 0.004029593473897323
1360.0, 0.004877208793107506
1361.0, 0.012150383617482228
1362.0, 0.009609807679553056
1363.0, 0.009432715043899925
1364.0, 0.00692750741779735
1365.0, 0.008237139602699301
1366.0, 0.010061282409409856
1367.0, 0.009474255737495592
1368.0, 0.009322095518847629
1369.0, 0.009226443671529982
1370.0, 0.007699809436621927
1371.0, 0.007258113013729357
1372.0, 0.008736739781741103
1373.0, 0.00900195213956704
1374.0, 0.011734767819007414
1375.0, 0.012999361631221862
1376.0, 0.008812930371896505
1377.0, 0.013406082716987814
1378.0, 0.015608267598571847
1379.0, 0.007355951346812577
1380.0, 0.006388515264277895
1381.0, 0.009385642310875363
1382.0, 0.009633900334664613
1383.0, 0.012862089764345715
1384.0, 0.0062569297516999346
1385.0, 0.0023725530171110985
1386.0, 0.0053167218376371644
1387.0, 0.00863133280824522
1388.0, 0.007388491942435129
1389.0, 0.00782988329246093
1390.0, 0.009271370519806074
1391.0, 0.007073989996028675
1392.0, 0.008915153637900719
1393.0, 0.009095391497200562
1394.0, 0.004891323374635934
1395.0, 0.0055298591423761445
1396.0, 0.004241349754496159
1397.0, 0.007500547652470664
1398.0, 0.0026065553226951007
1399.0, 0.006220295406010515
1400.0, 0.007371920035576064
1401.0, 0.007642751195271586
1402.0, 0.006208015943860796
1403.0, 0.0060478046207649485
1404.0, 0.007721422885494357
1405.0, 0.008929910525489972
1406.0, 0.007288947072010827
1407.0, 0.010026603910116493
1408.0, 0.009030657360859527
1409.0, 0.011763578581197887
1410.0, 0.008748968203393078
1411.0, 0.006091715571189265
1412.0, 0.007866161612630025
1413.0, 0.008829095819498364
1414.0, 0.010291064741950639
1415.0, 0.01213289840691039
1416.0, 0.01172604392634855
1417.0, 0.01119674647579792
1418.0, 0.009163813067788008
1419.0, 0.009824589920545308
1420.0, 0.007733902850687704
1421.0, 0.0057314733521291565
1422.0, 0.0069426232337569
1423.0, 0.008788553791329477
1424.0, 0.00875925556179652
1425.0, 0.007885519031221927
1426.0, 0.009721638019964066
1427.0, 0.010732576097617174
1428.0, 0.010220105649159672
1429.0, 0.01218843414058608
1430.0, 0.013785450084431577
1431.0, 0.01344669099770266
1432.0, 0.006346079367957727
1433.0, 0.007484985903808433
1434.0, 0.013941621461495498
1435.0, 0.009464892072715359
1436.0, 0.005775232215982361
1437.0, 0.008661984667342422
1438.0, 0.006119944626604475
1439.0, 0.006100887759005472
1440.0, 0.012692717127869844
1441.0, 0.014713330413446416
1442.0, 0.003320548679979285
1443.0, 0.012076550358694422
1444.0, 0.01059419689435143
1445.0, 0.014619350163588875
1446.0, 0.0061110008999276984
1447.0, 0.01194023623626947
1448.0, 0.011018050983739992
1449.0, 0.012797998454172253
1450.0, 0.01433463473736989
1451.0, 0.011543376200424744
1452.0, 0.00919758756546807
1453.0, 0.009845639394071277
1454.0, 0.008577388912328229
1455.0, 0.012486738396589253
1456.0, 0.014664166252311208
1457.0, 0.012143255587303656
1458.0, 0.01270685871873462
1459.0, 0.01211167964979791
1460.0, 0.010548201117640208
1461.0, 0.009700975278967364
1462.0, 0.00940137490398082
1463.0, 0.01162103510379983
1464.0, 0.0074502231591565965
1465.0, 0.00809785356064632
1466.0, 0.012967906419088843
1467.0, 0.00984391802389864
1468.0, 0.011889379497225412
1469.0, 0.008352164033830062
1470.0, 0.01252279184478502
1471.0, 0.009309651861500295
1472.0, 0.018216614075402145
1473.0, 0.013933176032261895
1474.0, 0.012471742994658074
1475.0, 0.010798021597777447
1476.0, 0.01431574988115976
1477.0, 0.015948497733046393
1478.0, 0.015204232850881114
1479.0, 0.015498320173312808
1480.0, 0.015818216411006118
1481.0, 0.015245274370390074
1482.0, 0.015187042686199451
1483.0, 0.016329032125824944
1484.0, 0.016732257292843247
1485.0, 0.012802240120194767
1486.0, 0.009193434018104105
1487.0, 0.014275487119362997
1488.0, 0.010419145337933745
1489.0, 0.014276416845810658
1490.0, 0.01884764251294206
1491.0, 0.01624043950109493
1492.0, 0.00954970769474823
1493.0, 0.00909474408262485
1494.0, 0.010018088773846107
1495.0, 0.015169945282148631
1496.0, 0.011126370542163758
1497.0, 0.016172895198740763
1498.0, 0.017898659595626403
1499.0, 0.015245937680007336
1500.0, 0.013384571913042813
1501.0, 0.009246867433308163
1502.0, 0.008967736778596545
1503.0, 0.007767199196863448
1504.0, 0.01323432984810674
1505.0, 0.015667540895366
1506.0, 0.016042942483035123
1507.0, 0.01648798567664804
1508.0, 0.015102281294233
1509.0, 0.012432644202850462
1510.0, 0.010330851840230549
1511.0, 0.009668631718030335
1512.0, 0.00899494709039034
1513.0, 0.010463984930386838
1514.0, 0.010192032358065163
1515.0, 0.010044038843802417
1516.0, 0.012429865839224554
1517.0, 0.01025253766901742
1518.0, 0.016797107419437515
1519.0, 0.009247639765547306
1520.0, 0.01373595113730916
1521.0, 0.0067849327888664605
1522.0, 0.016579545300775503
1523.0, 0.012964579101620759
1524.0, 0.01427162405259503
1525.0, 0.00532111848117724
1526.0, 0.012350639030924915
1527.0, 0.011396752512299824
1528.0, 0.014044389715763743
1529.0, 0.008758659817207425
1530.0, 0.00599389684179152
1531.0, 0.01135978932386803
1532.0, 0.008165596354235317
1533.0, 0.009209631575612547
1534.0, 0.008417575860659145
1535.0, 0.011211143834532986
1536.0, 0.009405875069986972
1537.0, 0.011231693388161846
1538.0, 0.01127094199555903
1539.0, 0.008249595639050134
1540.0, 0.007532973660799062
1541.0, 0.008611925355509736
1542.0, 0.01171937279321214
1543.0, 0.007728450996708445
1544.0, 0.009651694158952116
1545.0, 0.014670738252451833
1546.0, 0.00408726942690122
1547.0, 0.0039062451977268397
1548.0, 0.009583425424469334
1549.0, 0.0032152305213970184
1550.0, 0.0037337150539208013
1551.0, 0.002227693702612393
1552.0, 0.00048058398078597937
1553.0, 0.0009325707838356073
1554.0, 0.005412970736269682
1555.0, 0.00024967045140021583
1556.0, 0.0057690764010350564
1557.0, 0.007795102705998067
1558.0, 0.004522334769971608
1559.0, 0.004731131667710887
1560.0, 0.0050940608926534035
1561.0, 0.0016054461849810554
1562.0, 0.004664180286808782
1563.0, 0.007106980772902518
1564.0, 0.006292779917961109
1565.0, 0.006097313967355762
1566.0, 0.005932570604962441
1567.0, 0.0038363925976962507
1568.0, 0.005055084785998695
1569.0, 0.002133309051588092
1570.0, 1.3872808319333843e-05
1571, 0.0
1572, 0.0
1573, 0.0
1574, 0.0
1575, 0.0
1576, 0.0
1577, 0.0
1578, 0.0
1579, 0.0
1580, 0.0
1581, 0.0
1582, 0.0
1583, 0.0
1584, 0.0
1585, 0.0
1586, 0.0
1587, 0.0
1588, 0.0
1589, 0.0
1590, 0.0
1591, 0.0
1592, 0.0
1593, 0.0
1594, 0.0
1595, 0.0
1596, 0.0
1597, 0.0
1598, 0.0
1599, 0.0
