30, 0.0
31, 0.0
32, 0.0
33, 0.0
34, 0.0
35, 0.0
36, 0.0
37, 0.0
38, 0.0
39, 0.0
40, 0.0
41, 0.0
42.0, 9.060699894043703e-06
43.0, 5.436419936426159e-05
44.0, 3.5559617482839806e-05
45.0, 3.124961545618629e-05
46.0, 0.00025550710749315314
47.0, 0.0006998730876275458
48.0, 0.000901371441638581
49.0, 0.0011996390293289227
50.0, 0.0013295392572602982
51.0, 0.0014547496788805013
52.0, 0.001725975563850536
53.0, 0.002215163307891393
54.0, 0.0025087548592346957
55.0, 0.002908997859666854
56.0, 0.0033428374130890903
57.0, 0.003725916543040404
58.0, 0.0040142535198581155
59.0, 0.004007670893468841
60.0, 0.004113607974051545
61.0, 0.004111297692579993
62.0, 0.004018414036377196
63.0, 0.004538350156052822
64.0, 0.005098674898668748
65.0, 0.006037412407513408
66.0, 0.007127920713964098
67.0, 0.008190793861317455
68.0, 0.009266292095756357
69.0, 0.009549701353166842
70.0, 0.009263325366909717
71.0, 0.008660321038193154
72.0, 0.007942200094558994
73.0, 0.007182520148407412
74.0, 0.006890960816477914
75.0, 0.0065725640833945555
76.0, 0.006225959218881832
77.0, 0.005829784426423683
78.0, 0.005254044087512082
79.0, 0.004738755818339079
80.0, 0.0038126380186389473
81.0, 0.0029618529865800226
82.0, 0.002402069026232163
83.0, 0.0018351796470132378
84.0, 0.00121842461859788
85.0, 0.0006243218004297515
86.0, 0.000377537642673475
87.0, 0.0005293516706372061
88.0, 0.0007565230918526583
89.0, 0.0013484999927778167
90.0, 0.001868764428024856
91.0, 0.0021601739435373924
92.0, 0.0021889704049357916
93.0, 0.0020514179247823187
94.0, 0.002213759258697546
95.0, 0.002088332076659413
96.0, 0.001697958679369062
97.0, 0.0011100290952499251
98.0, 0.00047996142675835673
99.0, 0.0018099704352079176
100.0, 0.0035733743351496266
101.0, 0.006673391770536894
102.0, 0.011073081150794771
103.0, 0.016036926916185384
104.0, 0.020137018688322978
105.0, 0.022731446346205792
106.0, 0.024575604065544307
107.0, 0.026385152991859104
108.0, 0.0284803053750112
109.0, 0.027320331910094434
110.0, 0.024077128503493462
111.0, 0.02244360529622858
112.0, 0.02244640357358292
113.0, 0.023178616387291538
114.0, 0.025966871261351627
115.0, 0.0320222255548311
116.0, 0.03732551977482693
117.0, 0.04328631511805406
118.0, 0.05173025954971483
119.0, 0.06177648357700495
120.0, 0.07173382082453103
121.0, 0.08352210385849636
122.0, 0.0958424690954684
123.0, 0.10825731765921723
124.0, 0.12349585438335771
125.0, 0.14327629088728505
126.0, 0.1616810032390509
127.0, 0.1781994994600077
128.0, 0.19049087751845334
129.0, 0.19295594750473669
130.0, 0.18772434287850115
131.0, 0.17777942616429065
132.0, 0.16461549462919506
133.0, 0.14978109618014251
134.0, 0.13488911985416296
135.0, 0.12352633440597229
136.0, 0.1147380446771446
137.0, 0.10802775110281844
138.0, 0.10362580298246041
139.0, 0.10191330287757538
140.0, 0.10188902591875333
141.0, 0.10091943852357406
142.0, 0.10015975264337404
143.0, 0.09933697065538229
144.0, 0.09808603034344462
145.0, 0.09760986990814427
146.0, 0.09506590440307261
147.0, 0.09205673173692688
148.0, 0.08813608125930515
149.0, 0.08313382539210681
150.0, 0.07819308911463356
151.0, 0.07405706835342617
152.0, 0.06823732241184015
153.0, 0.06390681163251498
154.0, 0.06152781239631604
155.0, 0.057785633456088566
156.0, 0.053481142465331845
157.0, 0.05100172114350014
158.0, 0.04854560246735346
159.0, 0.04612442060205616
160.0, 0.04478043064507339
161.0, 0.04314107327255075
162.0, 0.04390129486342652
163.0, 0.04395782459865431
164.0, 0.0435065730508417
165.0, 0.043194238926652244
166.0, 0.040642017014822965
167.0, 0.040708590335030624
168.0, 0.03975439641734633
169.0, 0.03862426403978448
170.0, 0.03792673274783273
171.0, 0.03643545604828293
172.0, 0.035994390874178175
173.0, 0.03472985440556178
174.0, 0.03337781942773743
175.0, 0.032733142847176246
176.0, 0.03338614423359888
177.0, 0.03366215602914633
178.0, 0.03318452694236293
179.0, 0.03321930516763129
180.0, 0.03389581054218134
181.0, 0.03463113223846531
182.0, 0.033863015268977545
183.0, 0.03541067799601346
184.0, 0.03615043230244581
185.0, 0.03694987847472694
186.0, 0.038440371000569504
187.0, 0.039044187537914755
188.0, 0.039256242100099314
189.0, 0.04035353902772005
190.0, 0.04105614406321193
191.0, 0.04103114319686203
192.0, 0.04097076371561886
193.0, 0.0403613255500412
194.0, 0.03954798746523904
195.0, 0.039355222717280855
196.0, 0.03883610400022353
197.0, 0.037074176933896585
198.0, 0.0367967232872498
199.0, 0.0349384323987003
200.0, 0.03500865623690346
201.0, 0.034801768002763904
202.0, 0.033261726572656206
203.0, 0.03297865852579995
204.0, 0.0313775993851417
205.0, 0.03059045975071628
206.0, 0.030053508648004483
207.0, 0.028931011939556953
208.0, 0.0267901303042897
209.0, 0.028132457188103307
210.0, 0.027076254300190932
211.0, 0.025881743095182475
212.0, 0.025726759914657834
213.0, 0.026756230787202233
214.0, 0.027137670467511258
215.0, 0.02763820832919938
216.0, 0.028175465339986515
217.0, 0.029681135749777147
218.0, 0.03168315287051624
219.0, 0.032410338300755216
220.0, 0.03416635788088311
221.0, 0.03773961762283567
222.0, 0.040698468968176714
223.0, 0.04424869704892923
224.0, 0.05013222883805304
225.0, 0.05671055832420564
226.0, 0.0639122925588349
227.0, 0.07121980261090685
228.0, 0.07963056704452501
229.0, 0.08960744204401347
230.0, 0.10062288744995573
231.0, 0.10983181560156553
232.0, 0.12092113918867443
233.0, 0.13063804068044593
234.0, 0.13788241632286005
235.0, 0.14177725167816602
236.0, 0.13714027118893546
237.0, 0.12809217519923263
238.0, 0.11588348958694251
239.0, 0.10219812924543908
240.0, 0.08802860604954589
241.0, 0.07325575023673757
242.0, 0.060921097004107576
243.0, 0.050400630724193714
244.0, 0.041581882737349175
245.0, 0.03491862224643046
246.0, 0.030359989243110435
247.0, 0.02491165427606671
248.0, 0.023866020746045182
249.0, 0.022585592743537112
250.0, 0.021307931420068798
251.0, 0.020234272228447918
252.0, 0.018896116847014297
253.0, 0.019787241849471022
254.0, 0.019239229623476403
255.0, 0.020341398776735544
256.0, 0.02051691611418587
257.0, 0.0175821188737007
258.0, 0.018584546196539386
259.0, 0.02123292612440706
260.0, 0.021256420262631203
261.0, 0.01926878307728172
262.0, 0.017278567768455207
263.0, 0.017591329547687683
264.0, 0.01601488310799516
265.0, 0.0175283231874539
266.0, 0.018385906713923365
267.0, 0.01872177500590734
268.0, 0.01968187446528082
269.0, 0.021929870276875263
270.0, 0.022066510703547815
271.0, 0.02236430296867997
272.0, 0.023561661401225165
273.0, 0.024048554349997073
274.0, 0.02159191559266725
275.0, 0.020012854091286142
276.0, 0.019642960697833972
277.0, 0.01825019477269625
278.0, 0.01634219681100659
279.0, 0.014800883197999836
280.0, 0.014185444172877558
281.0, 0.013992013140926698
282.0, 0.013931328529817195
283.0, 0.013667328271550197
284.0, 0.014180087531919636
285.0, 0.016269674431067273
286.0, 0.01841041754338014
287.0, 0.018745154155768995
288.0, 0.02128141382828897
289.0, 0.023083495661642413
290.0, 0.024458728013967927
291.0, 0.02818775868044979
292.0, 0.03059053239371629
293.0, 0.03254129427595361
294.0, 0.03429135179893784
295.0, 0.035620889772624974
296.0, 0.03621214627420693
297.0, 0.035820396085774336
298.0, 0.036406328619980374
299.0, 0.0364907442809241
300.0, 0.035248829064443966
301.0, 0.03417911167472921
302.0, 0.03477303764872423
303.0, 0.03552848413485856
304.0, 0.033092144810467745
305.0, 0.03228455821232479
306.0, 0.03247225033073311
307.0, 0.03262004608965303
308.0, 0.031912339772404354
309.0, 0.03072779891217816
310.0, 0.033611902415208894
311.0, 0.03429631758359234
312.0, 0.03585077886387648
313.0, 0.03944841782249011
314.0, 0.04215008525869998
315.0, 0.042951347683404396
316.0, 0.04853058205430613
317.0, 0.0520245974965698
318.0, 0.055661577535349366
319.0, 0.06172757200298794
320.0, 0.06725102401352137
321.0, 0.07074323435894583
322.0, 0.0777407561541925
323.0, 0.08488475389596102
324.0, 0.09321270298158817
325.0, 0.10455002648795476
326.0, 0.11643181680942669
327.0, 0.13232698249041486
328.0, 0.1497966924459684
329.0, 0.16952126215722374
330.0, 0.19306349266114367
331.0, 0.2214616387315961
332.0, 0.25146962887234764
333.0, 0.28124198476290974
334.0, 0.3149458921140058
335.0, 0.3482219117659392
336.0, 0.38120481503798304
337.0, 0.41713725041095856
338.0, 0.43914659558124636
339.0, 0.45115655706663094
340.0, 0.4548926759462943
341.0, 0.4449039542617718
342.0, 0.4219365069988526
343.0, 0.39519098539346814
344.0, 0.3551850931205454
345.0, 0.31734333105939966
346.0, 0.2806607347302052
347.0, 0.24505662662914074
348.0, 0.21129387579291545
349.0, 0.18108046117670415
350.0, 0.15867119620419642
351.0, 0.14180475325762584
352.0, 0.12711430243383748
353.0, 0.11596951889538576
354.0, 0.10844267155824859
355.0, 0.09842770813573398
356.0, 0.09077231966683982
357.0, 0.08332240403230576
358.0, 0.07725449237064774
359.0, 0.071634573180638
360.0, 0.0655632565694361
361.0, 0.06075659351810951
362.0, 0.05628256644169352
363.0, 0.0526182098350275
364.0, 0.05030452367224767
365.0, 0.048840925417470794
366.0, 0.047589719008166276
367.0, 0.04720711134989422
368.0, 0.04639837665407774
369.0, 0.04766814981012847
370.0, 0.049610592662073495
371.0, 0.05125540402023499
372.0, 0.05269522708979383
373.0, 0.05605425967138475
374.0, 0.0595319464024773
375.0, 0.06328546100796685
376.0, 0.0664490284058283
377.0, 0.06871153822712335
378.0, 0.07013597501713655
379.0, 0.07050491721769303
380.0, 0.06904919835157543
381.0, 0.06853553770893739
382.0, 0.06653676898187771
383.0, 0.06339625097917706
384.0, 0.060794201683225926
385.0, 0.057475880643960614
386.0, 0.05704271493780556
387.0, 0.05710047099579266
388.0, 0.057462285633391674
389.0, 0.059083118550377914
390.0, 0.062217784517239694
391.0, 0.06242297844646618
392.0, 0.06786985816412505
393.0, 0.07226441537194668
394.0, 0.07529447900717097
395.0, 0.07826464154284608
396.0, 0.08219239137040922
397.0, 0.08462877432387343
398.0, 0.08592459094763719
399.0, 0.0872101583670342
400.0, 0.08798433562540425
401.0, 0.08832949536634631
402.0, 0.08838327988741293
403.0, 0.08726017950476168
404.0, 0.08651921477604112
405.0, 0.08500577380827376
406.0, 0.08311989615355596
407.0, 0.0823208985697576
408.0, 0.0830229482172861
409.0, 0.0818889825967487
410.0, 0.08224866653827992
411.0, 0.08117484580114555
412.0, 0.07997948110267018
413.0, 0.07824841376776732
414.0, 0.07507703873286076
415.0, 0.07041235752857886
416.0, 0.06732355803684822
417.0, 0.0618215024043348
418.0, 0.05652026186867228
419.0, 0.05056655606104437
420.0, 0.04369287002984142
421.0, 0.038617730556968495
422.0, 0.032392757309522305
423.0, 0.030752831050949024
424.0, 0.027391525041377478
425.0, 0.02347299734519074
426.0, 0.021488986514017087
427.0, 0.021955497749883337
428.0, 0.019414314841984522
429.0, 0.018686485396670824
430.0, 0.019358787490293475
431.0, 0.021193340698587682
432.0, 0.023680427689452072
433.0, 0.02617966064855354
434.0, 0.02888261395026017
435.0, 0.03173985189960371
436.0, 0.03536251211152286
437.0, 0.038514270911787024
438.0, 0.04053998018703292
439.0, 0.04144121166019884
440.0, 0.04084026602512536
441.0, 0.03652497431174834
442.0, 0.032727428645864164
443.0, 0.028995115748175825
444.0, 0.024880342759342474
445.0, 0.020397172814428655
446.0, 0.016200221741678927
447.0, 0.013029480282059778
448.0, 0.011178054590901985
449.0, 0.010007580227788124
450.0, 0.00955453751394658
451.0, 0.009490961787304191
452.0, 0.008583087629449024
453.0, 0.008383407166219433
454.0, 0.00762660545101233
455.0, 0.008868747718085136
456.0, 0.0100040863057137
457.0, 0.009792063855955215
458.0, 0.009251288913928511
459.0, 0.007749058268598368
460.0, 0.009750829639406147
461.0, 0.01039245613354626
462.0, 0.010532780575169631
463.0, 0.010381805964538275
464.0, 0.00930509520499882
465.0, 0.0075509026592797505
466.0, 0.006621073988370529
467.0, 0.007687342611423964
468.0, 0.007062869009822243
469.0, 0.005331829872193709
470.0, 0.004443451722628667
471.0, 0.0043240836857591555
472.0, 0.002138629721950699
473.0, 0.002300080551629078
474.0, 0.0012191682311365468
475.0, 0.0002579085504168161
476.0, 0.00058359030509209
477.0, 0.0012748510221079741
478.0, 0.0006104657617465965
479.0, 0.0007398276690969209
480.0, 0.000833567399846422
481.0, 0.001346735946857122
482.0, 0.0019329317251355527
483.0, 0.0018821116389092485
484.0, 0.0014300350645061431
485.0, 0.0009479244076671269
486.0, 0.0019094832217575815
487.0, 0.0020992130180858214
488.0, 0.00215885067878017
489.0, 0.0028705921878718985
490.0, 0.003362440930771797
491.0, 0.0036421900056714867
492.0, 0.0040839858204882624
493.0, 0.005059127295356824
494.0, 0.0050055766093053036
495.0, 0.0038425371623418162
496.0, 0.0032477046180140272
497.0, 0.005177366691961836
498.0, 0.003957108399696459
499.0, 0.004934272859348792
500.0, 0.005870444851428562
501.0, 0.004979265119612782
502.0, 0.0031408567024367325
503.0, 0.004292686122959683
504.0, 0.0034425969214937177
505.0, 0.0019144663469377234
506.0, 0.002394313902619155
507.0, 0.00232663647779502
508.0, 0.0013533540460046647
509.0, 0.0017122316930441425
510.0, 0.0034919300197267028
511.0, 0.005604645606198232
512.0, 0.007167197596636186
513.0, 0.00927067605071933
514.0, 0.01188334145753029
515.0, 0.014215730022497045
516.0, 0.015487828539339641
517.0, 0.017334380711240494
518.0, 0.019169131377495978
519.0, 0.0195528424468075
520.0, 0.019013171977302207
521.0, 0.0182211495573429
522.0, 0.01767713156747455
523.0, 0.018091587078518007
524.0, 0.018085357151157017
525.0, 0.018430324018861854
526.0, 0.01811404729355754
527.0, 0.01789584480709216
528.0, 0.018323083418952738
529.0, 0.018645721335133387
530.0, 0.01848259450912168
531.0, 0.020667924142505508
532.0, 0.023851128449125892
533.0, 0.027014441529056434
534.0, 0.029564339615319755
535.0, 0.031738542079749466
536.0, 0.03483267683897168
537.0, 0.037196512802123986
538.0, 0.03792330152173101
539.0, 0.03860586295954643
540.0, 0.03800658766534447
541.0, 0.03567450743764035
542.0, 0.03276892441374228
543.0, 0.030295020488016407
544.0, 0.029212231453068952
545.0, 0.027331391520345312
546.0, 0.026278692328801416
547.0, 0.025242765915888254
548.0, 0.023547081731241783
549.0, 0.022211238183494048
550.0, 0.019812807245734115
551.0, 0.01874428390933307
552.0, 0.017768611292488388
553.0, 0.016202690900882853
554.0, 0.014050379507762719
555.0, 0.011851834285845077
556.0, 0.010306283807560846
557.0, 0.00937948292731075
558.0, 0.0091835864975059
559.0, 0.00842121304592958
560.0, 0.007928688134618018
561.0, 0.008465336789589491
562.0, 0.009694311021410834
563.0, 0.009688326067984589
564.0, 0.009176554939680481
565.0, 0.010538968539719197
566.0, 0.01167832582819486
567.0, 0.012081698055395945
568.0, 0.012422163163156424
569.0, 0.013608035928235658
570.0, 0.014754830387030758
571.0, 0.01859281340417596
572.0, 0.019841312011842974
573.0, 0.01971746226078442
574.0, 0.019250306157855814
575.0, 0.018758240446055945
576.0, 0.017969418918072477
577.0, 0.016932590488797646
578.0, 0.016699144627007032
579.0, 0.01516366562871292
580.0, 0.013185257955124124
581.0, 0.011807835167016086
582.0, 0.011370170552301441
583.0, 0.01108317606028029
584.0, 0.009321163565076174
585.0, 0.007153182185374142
586.0, 0.007494067029311462
587.0, 0.006970653431456448
588.0, 0.006785762749491338
589.0, 0.008297721583749248
590.0, 0.007203871419736886
591.0, 0.007396825019784324
592.0, 0.006063850147731318
593.0, 0.006451960135307051
594.0, 0.006175529714284667
595.0, 0.00513751319596294
596.0, 0.004525640355782589
597.0, 0.003439484313080763
598.0, 0.002968955532554574
599.0, 0.0026302684112103672
600.0, 0.002259572775992302
601.0, 0.0021951233488227014
602.0, 0.002209285139082091
603.0, 0.0020431898246002426
604.0, 0.00240865434059556
605.0, 0.0032165026815623703
606.0, 0.0037127680192871764
607.0, 0.003759686949297391
608.0, 0.0028521476392428255
609.0, 0.0017057690465066236
610.0, 0.0016688046710165805
611.0, 0.003088157400292618
612.0, 0.003075740196771161
613.0, 0.004094883264633116
614.0, 0.004154914783151708
615.0, 0.003948423968836823
616.0, 0.004284134659570979
617.0, 0.005266368466788844
618.0, 0.006238514815897732
619.0, 0.00656276959753871
620.0, 0.0070845224581824046
621.0, 0.007539412721620078
622.0, 0.008007218153934969
623.0, 0.008734865778043352
624.0, 0.009510048282610152
625.0, 0.009450423241677176
626.0, 0.011815160197717896
627.0, 0.012076125139668914
628.0, 0.01349702410599635
629.0, 0.014378437170154112
630.0, 0.015717726492607546
631.0, 0.018071921431394758
632.0, 0.018022764455479862
633.0, 0.01735829258553939
634.0, 0.01990477923132344
635.0, 0.0208397805423834
636.0, 0.02272715934330329
637.0, 0.025535651022837155
638.0, 0.027838370295511772
639.0, 0.029500735009016465
640.0, 0.03305035506735038
641.0, 0.03861839833007204
642.0, 0.04359008240930707
643.0, 0.04908381852474596
644.0, 0.05575622987970151
645.0, 0.06367271003772186
646.0, 0.07275201955507979
647.0, 0.08358941715711107
648.0, 0.09514903429492112
649.0, 0.11067038938726531
650.0, 0.12777703804427573
651.0, 0.14987794962508885
652.0, 0.17665464458144559
653.0, 0.20418442944892104
654.0, 0.23535131600432035
655.0, 0.27167046156817326
656.0, 0.31200946388024997
657.0, 0.35261319936815416
658.0, 0.3914281203091525
659.0, 0.4261838831462094
660.0, 0.454171604782876
661.0, 0.47208388950975216
662.0, 0.46516454311664496
663.0, 0.4558308407396652
664.0, 0.43427785865205254
665.0, 0.4059330932681985
666.0, 0.37539883623339115
667.0, 0.347057133980309
668.0, 0.3263728812498302
669.0, 0.31084721080529365
670.0, 0.3028995779570097
671.0, 0.30512318474115735
672.0, 0.31666555847915717
673.0, 0.3363332711013901
674.0, 0.3636211014564765
675.0, 0.39869093853426935
676.0, 0.44139800876295465
677.0, 0.48296035698065154
678.0, 0.5352388158772639
679.0, 0.5815262797155067
680.0, 0.6197685517459939
681.0, 0.6499788702185466
682.0, 0.6688008747965458
683.0, 0.669007726581784
684.0, 0.6419008174301463
685.0, 0.6020400798605834
686.0, 0.5508692967812531
687.0, 0.48794026225842435
688.0, 0.4244887569226131
689.0, 0.36613723312897584
690.0, 0.30786574831496605
691.0, 0.262059293182631
692.0, 0.2201701627321141
693.0, 0.18502221487124465
694.0, 0.15677741654653812
695.0, 0.13462348090083157
696.0, 0.11614744773957804
697.0, 0.1002742477767354
698.0, 0.09018927603252921
699.0, 0.07987747664545716
700.0, 0.07119511356886903
701.0, 0.06325917646568412
702.0, 0.05618446468808741
703.0, 0.050052284532244695
704.0, 0.0447619874501705
705.0, 0.04018378952637619
706.0, 0.03657322273611807
707.0, 0.03378677233897289
708.0, 0.03138499347940891
709.0, 0.03010654638151608
710.0, 0.028347919233769416
711.0, 0.026162068126718528
712.0, 0.024632898642203957
713.0, 0.023333864799934687
714.0, 0.021592506220281187
715.0, 0.020599570783493896
716.0, 0.018719726931109487
717.0, 0.01779070804228498
718.0, 0.017489879047754096
719.0, 0.01685649589578823
720.0, 0.01563939897604918
721.0, 0.014264034969304208
722.0, 0.014868658738372594
723.0, 0.01379551261829868
724.0, 0.01242351756671712
725.0, 0.010783005837888538
726.0, 0.009816613994789454
727.0, 0.010130830410145482
728.0, 0.010767206584592898
729.0, 0.010476508369154992
730.0, 0.01116262368469462
731.0, 0.0119383735661745
732.0, 0.01178600068737905
733.0, 0.01128009650772833
734.0, 0.011091000691976903
735.0, 0.010856866974024175
736.0, 0.009341149109778133
737.0, 0.008555550263950044
738.0, 0.008465043486632096
739.0, 0.008956299633189942
740.0, 0.010016673171280311
741.0, 0.010327647030608655
742.0, 0.01006922983990206
743.0, 0.010371259989109432
744.0, 0.01032942189241889
745.0, 0.01099223926122598
746.0, 0.009831087716199659
747.0, 0.01055746550107304
748.0, 0.010958028651111057
749.0, 0.011578006355476959
750.0, 0.012004588179119886
751.0, 0.010762539970288799
752.0, 0.010845265489423205
753.0, 0.008645715670627283
754.0, 0.008919455926524097
755.0, 0.007015243352467477
756.0, 0.004252132825752901
757.0, 0.00241557233416353
758.0, 0.001573460760362705
759.0, 0.0010898000015567189
760.0, 0.0033381489169387766
761.0, 0.000676716910009886
762.0, 0.0017124594656181622
763.0, 0.002148969194093453
764.0, 0.0016843336804449633
765.0, 0.0017088675424949136
766.0, 0.001971528322943858
767.0, 0.0006785872470345072
768.0, 0.0002655658517024164
769.0, 0.0005803014313359724
770.0, 0.0006234651297448671
771.0, 0.0012829995365739844
772.0, 0.0010205189938795275
773.0, 0.0005702608832113237
774.0, 0.0008521862686072525
775.0, 0.0009875698394186752
776.0, 0.00033677707366319936
777.0, 0.0007932509539053952
778.0, 0.0006922888952701933
779.0, 0.000750926687292332
780.0, 0.0007492580961156357
781.0, 0.0007023140392069025
782.0, 0.0007809133422974704
783.0, 0.0012531434365549306
784.0, 0.0027734893559290402
785.0, 0.001060714730734802
786.0, 0.0005446466128188116
787.0, 0.0017010275460314613
788.0, 0.001238073517130913
789.0, 0.0005867888610718843
790.0, 0.0014006716324499264
791.0, 0.0020807967262826957
792.0, 0.0007906893908530162
793.0, 0.0012694410973942772
794.0, 0.0005335727331625569
795.0, 0.0011542171091199636
796.0, 0.0015638699140571315
797.0, 0.0010030023433282597
798.0, 0.00040424975674024845
799.0, 0.0009589804671165777
800.0, 0.001773947222153881
801.0, 0.0010880005168511205
802.0, 0.0011603562939739654
803.0, 0.0020434724468401046
804.0, 0.0014936997684434372
805.0, 0.0005015134582677164
806.0, 9.383904705905326e-05
807.0, 0.00019359246196697596
808.0, 0.0006132535262535925
809.0, 0.0004755613758585796
810.0, 0.0010664436748848089
811.0, 0.0023142282260286366
812.0, 0.0010845879860193245
813.0, 0.00022352101979819207
814.0, 0.0010291384027802638
815.0, 0.0015839493221415347
816.0, 8.002537973043786e-05
817.0, 6.686286194773866e-05
818.0, 0.0010889255969141589
819.0, 0.0024670697232011154
820.0, 0.0009971525516074226
821.0, 0.0002381619184115238
822.0, 0.0002933672187875975
823.0, 0.0004370510316647649
824.0, 0.001124449868683218
825.0, 0.000856375156414425
826.0, 0.00028102626909320847
827.0, 0.0006116590942989421
828.0, 0.0006963262934484615
829.0, 0.0010068686075049799
830.0, 0.0021565240244407554
831.0, 0.0024952088341274616
832.0, 0.0009138048013222972
833.0, 0.0004690170518671284
834.0, 0.0026900048343883346
835.0, 0.0015690314033311747
836.0, 0.0019366467184382
837.0, 0.0025649225117893347
838.0, 0.00332004521214003
839.0, 0.003858727651515734
840.0, 0.0038170094614348514
841.0, 0.0036113629346348104
842.0, 0.004579819675044309
843.0, 0.0040835489254809
844.0, 0.004516248728945172
845.0, 0.0070843254251960475
846.0, 0.008052854636518995
847.0, 0.010126690121878725
848.0, 0.013378008850547757
849.0, 0.015347075681998869
850.0, 0.017279638004492903
851.0, 0.021495524650023416
852.0, 0.026222813217712672
853.0, 0.031116965253719337
854.0, 0.03381349999062744
855.0, 0.03763524399387265
856.0, 0.04193275628881784
857.0, 0.04396949853030451
858.0, 0.043860776641793414
859.0, 0.04552475447860575
860.0, 0.044182431973392305
861.0, 0.04473591476654631
862.0, 0.04185502282441689
863.0, 0.03834933213441162
864.0, 0.03554790160329802
865.0, 0.03283644300303012
866.0, 0.029934624969470216
867.0, 0.027594557883939237
868.0, 0.024489864026720785
869.0, 0.022141563208454153
870.0, 0.019835622219862493
871.0, 0.01735732803398247
872.0, 0.01539595849875522
873.0, 0.01378538557208807
874.0, 0.012240516733852453
875.0, 0.010407983329144829
876.0, 0.008374668155579842
877.0, 0.009361376705611664
878.0, 0.009088099092845388
879.0, 0.00788198379941951
880.0, 0.009096734028898065
881.0, 0.00970289884444348
882.0, 0.00835145936590338
883.0, 0.006197149741608893
884.0, 0.005269276757131744
885.0, 0.006450947823003258
886.0, 0.00819905601943206
887.0, 0.00736715187139803
888.0, 0.008543682900823971
889.0, 0.008989460620657965
890.0, 0.010381806550534093
891.0, 0.009814440891660526
892.0, 0.007873857580744388
893.0, 0.007937764590976469
894.0, 0.008000056888871208
895.0, 0.00900477427300702
896.0, 0.008974014677822604
897.0, 0.008584336124119258
898.0, 0.008102894961334001
899.0, 0.008213322164184682
900.0, 0.008110953921681102
901.0, 0.007227142997135049
902.0, 0.006672503740874604
903.0, 0.0076802639720130045
904.0, 0.005820093987917885
905.0, 0.005609938397516496
906.0, 0.006471313813999112
907.0, 0.007082879135899509
908.0, 0.006177679707350328
909.0, 0.006211163989178685
910.0, 0.007678397063191226
911.0, 0.008072679085668824
912.0, 0.006563224483389853
913.0, 0.006186351336636546
914.0, 0.007153486832829438
915.0, 0.007485314684894758
916.0, 0.00890846931047127
917.0, 0.010420197485364505
918.0, 0.012457138689758411
919.0, 0.015047417342218877
920.0, 0.017317730300482764
921.0, 0.019065434367049154
922.0, 0.021815924981690424
923.0, 0.024529805369822896
924.0, 0.028536577564920864
925.0, 0.03201010896821295
926.0, 0.03472989662139117
927.0, 0.03810465286401791
928.0, 0.0420210676206271
929.0, 0.04626189744341007
930.0, 0.05141931112023848
931.0, 0.055564379558296115
932.0, 0.05855775643329441
933.0, 0.06333226782486087
934.0, 0.0670250180260454
935.0, 0.06921357561121179
936.0, 0.06831288960798507
937.0, 0.06905591602252988
938.0, 0.0705293337300734
939.0, 0.06699683885869852
940.0, 0.06339240876491471
941.0, 0.06167846927246368
942.0, 0.05854172644226134
943.0, 0.05576344662733612
944.0, 0.05241329010159301
945.0, 0.04921595665413844
946.0, 0.045440343935270265
947.0, 0.0417146150965523
948.0, 0.03927369908692205
949.0, 0.036881513588693675
950.0, 0.03180889259236602
951.0, 0.030465488095252333
952.0, 0.029367802180194615
953.0, 0.027459278525299606
954.0, 0.025406662885841938
955.0, 0.024487777486926644
956.0, 0.023376191058507818
957.0, 0.0227057566723872
958.0, 0.024061815032693272
959.0, 0.02347117769326159
960.0, 0.020839181308894034
961.0, 0.01964457377360379
962.0, 0.02009984184497134
963.0, 0.0194878849373145
964.0, 0.01916045363402324
965.0, 0.018994849326823514
966.0, 0.018951922118510406
967.0, 0.019044075608609046
968.0, 0.018872296430861094
969.0, 0.018876621514942866
970.0, 0.016626924258772373
971.0, 0.01830036663138406
972.0, 0.0181875021621952
973.0, 0.019939509942719702
974.0, 0.02164047069698059
975.0, 0.02395573469165768
976.0, 0.025772957783359165
977.0, 0.02548923216723156
978.0, 0.025857768615793506
979.0, 0.028953845938874255
980.0, 0.032548170103706205
981.0, 0.03357746155212662
982.0, 0.03580844336442348
983.0, 0.041084594790514774
984.0, 0.043931075906539205
985.0, 0.04660367083116633
986.0, 0.052742823535246716
987.0, 0.06082741124154079
988.0, 0.06839484700155327
989.0, 0.07847307719681197
990.0, 0.08895649869973944
991.0, 0.10220971416032214
992.0, 0.11721729273128126
993.0, 0.13327283045168156
994.0, 0.15502215243804013
995.0, 0.1810989562288534
996.0, 0.2108221766681302
997.0, 0.24536612317527573
998.0, 0.2840348747480825
999.0, 0.3386587892521128
1000.0, 0.39360590454235445
1001.0, 0.45730839305992893
1002.0, 0.536787948413948
1003.0, 0.62333972443315
1004.0, 0.7155208224022968
1005.0, 0.8090236262793136
1006.0, 0.8943736783058691
1007.0, 0.960240075348419
1008.0, 0.9968461899874378
1009.0, 0.9981772783702993
1010.0, 0.9705602839809083
1011.0, 0.9089768304240571
1012.0, 0.8333551607789814
1013.0, 0.751071517558302
1014.0, 0.6676595535142906
1015.0, 0.5919603866011768
1016.0, 0.5311413248266742
1017.0, 0.4832157696542513
1018.0, 0.44094419202183194
1019.0, 0.4083008501108022
1020.0, 0.3777689280560481
1021.0, 0.35844015768275195
1022.0, 0.3396519757925771
1023.0, 0.32040934143791383
1024.0, 0.3032307048882597
1025.0, 0.28955113735286603
1026.0, 0.2789426507136273
1027.0, 0.26831729788569136
1028.0, 0.2547776190530115
1029.0, 0.24137077053798578
1030.0, 0.23069776656591123
1031.0, 0.21531192713514083
1032.0, 0.20161050484263637
1033.0, 0.18828012004723627
1034.0, 0.17319737326681608
1035.0, 0.1594052735654605
1036.0, 0.14690782854232362
1037.0, 0.13492694488680182
1038.0, 0.12371971460828182
1039.0, 0.11245476624201615
1040.0, 0.10298024803420931
1041.0, 0.09271276728855492
1042.0, 0.08410736721145073
1043.0, 0.07610178504821977
1044.0, 0.06914215826581742
1045.0, 0.06272829522487974
1046.0, 0.057050239166118705
1047.0, 0.05257976918594845
1048.0, 0.04864437653273072
1049.0, 0.044331375202048065
1050.0, 0.04104722869807017
1051.0, 0.0384134236755869
1052.0, 0.033105865012217864
1053.0, 0.032411884400441675
1054.0, 0.029211239731541272
1055.0, 0.027826683829465168
1056.0, 0.026461895958018088
1057.0, 0.02357684661902213
1058.0, 0.021206214957180947
1059.0, 0.02066817726770227
1060.0, 0.019108886240806977
1061.0, 0.015352993602182213
1062.0, 0.014616366800347374
1063.0, 0.01299290380947048
1064.0, 0.01426958662384834
1065.0, 0.014482479399421025
1066.0, 0.012144851550357057
1067.0, 0.01087752391935188
1068.0, 0.009553572780510762
1069.0, 0.008694238818318632
1070.0, 0.009793309372070296
1071.0, 0.00880951736668314
1072.0, 0.007191374443170047
1073.0, 0.00691173302524824
1074.0, 0.006299205681919562
1075.0, 0.006031513189544468
1076.0, 0.006358876698085252
1077.0, 0.0056866295153269065
1078.0, 0.005791242202484409
1079.0, 0.005345390786481187
1080.0, 0.0039060129242771513
1081.0, 0.003391075404203888
1082.0, 0.0036009160704989435
1083.0, 0.0038689244885075453
1084.0, 0.003764086806997628
1085.0, 0.0045042539514270575
1086.0, 0.0037599901161008116
1087.0, 0.005037136492295316
1088.0, 0.004576091781696469
1089.0, 0.003924157077061835
1090.0, 0.004548150196383185
1091.0, 0.0047593513984040955
1092.0, 0.0038104537902405727
1093.0, 0.003859100572323442
1094.0, 0.0034502671367833866
1095.0, 0.0022025570833594664
1096.0, 0.002520232045018869
1097.0, 0.0027809493440383347
1098.0, 0.0035175217004751107
1099.0, 0.003168557834637624
1100.0, 0.0032360846596088872
1101.0, 0.0037865101660284704
1102.0, 0.0042149845726956
1103.0, 0.004454185862325955
1104.0, 0.004775252784007899
1105.0, 0.00535793031941078
1106.0, 0.004964567751417824
1107.0, 0.00433252127502574
1108.0, 0.00487116033147856
1109.0, 0.0036054944413189674
1110.0, 0.0032928224314015078
1111.0, 0.004366947430750227
1112.0, 0.00411080047667037
1113.0, 0.003976589676523616
1114.0, 0.004293937394256658
1115.0, 0.003457337819850645
1116.0, 0.003179648692764904
1117.0, 0.0017804324734275415
1118.0, 0.004330594453170649
1119.0, 0.0032366903924789018
1120.0, 0.005775111565337707
1121.0, 0.006627246385924245
1122.0, 0.004792335187479279
1123.0, 0.00517539807715732
1124.0, 0.005666010973229574
1125.0, 0.005822000048913398
1126.0, 0.005606465251295663
1127.0, 0.0033464969346694014
1128.0, 0.00303247548253581
1129.0, 0.003912418480458597
1130.0, 0.004227813508540717
1131.0, 0.0034471477829247556
1132.0, 0.0021282851948866343
1133.0, 0.0016862943271999105
1134.0, 0.0027423619851855495
1135.0, 0.003308492406661921
1136.0, 0.0036564251063760374
1137.0, 0.00390151522846553
1138.0, 0.0034331187059936557
1139.0, 0.002915095013170386
1140.0, 0.002799139366090622
1141.0, 0.0015710018190028912
1142.0, 0.005268985461257751
1143.0, 0.0007837690659018549
1144.0, 0.0009752287727318183
1145.0, 0.0024835133333973728
1146.0, 0.001306652482608148
1147.0, 0.001496138165046339
1148.0, 0.0018311553680224683
1149.0, 0.0019287929226866336
1150.0, 0.0025353601035434173
1151.0, 0.0023322226244692017
1152.0, 0.0027393769368722273
1153.0, 0.00039815756143709533
1154.0, 0.0009613608647339302
1155.0, 0.0015400425410767523
1156.0, 0.0026847406803474114
1157.0, 0.0008918454190124561
1158.0, 0.0022785984137107867
1159.0, 0.0014585450092581584
1160.0, 0.0010182348521600708
1161.0, 0.0017913886516283768
1162.0, 0.001277026981918581
1163.0, 0.0007407636657686267
1164.0, 0.0016406150676178829
1165.0, 0.001338437658771621
1166.0, 0.002038299438632218
1167.0, 0.0011036133588834217
1168.0, 0.001974129828436211
1169.0, 0.0013799401419048321
1170.0, 0.001974668081168176
1171.0, 0.001002228640916804
1172.0, 0.0003488473618492288
1173.0, 0.00041374088941667465
1174.0, 0.0009177333659795124
1175.0, 0.0013927281588283946
1176.0, 0.0005131080824656857
1177.0, 0.0009845264593246078
1178.0, 0.0019191611110963695
1179.0, 0.0003154848855221749
1180.0, 0.00194765158638686
1181.0, 0.0020044421814479655
1182.0, 0.0015964840116561587
1183.0, 0.002078882229060527
1184.0, 0.0015184618413662365
1185.0, 0.0008954529197907465
1186.0, 0.0008660347861413006
1187.0, 0.0007110010355288299
1188.0, 0.00037851551488111745
1189.0, 0.00035106125379370454
1190.0, 0.0006408210562688736
1191.0, 0.0009127519081507775
1192.0, 0.0018666279143342529
1193.0, 0.0019676633634765324
1194.0, 0.0017501926593386091
1195.0, 0.0013231308873954432
1196.0, 0.000922378430033538
1197.0, 0.001295144168211492
1198.0, 0.0013380250531076655
1199.0, 0.0005955304073222972
1200.0, 0.00013605293769256441
1201.0, 0.0003405321467234858
1202.0, 0.000578080493828593
1203.0, 0.0014010131922881567
1204.0, 0.0004819126468116598
1205.0, 0.00032515696542343835
1206.0, 0.0017260196667756582
1207.0, 0.002158742475869552
1208.0, 0.0007730692108147837
1209.0, 0.0015484976438655091
1210.0, 0.0014652138265529014
1211.0, 0.0010651677159899493
1212.0, 0.0006826229362917352
1213.0, 0.0003766319423914333
1214.0, 0.001448404407198702
1215.0, 0.0025704672484651104
1216.0, 0.0011828111539496037
1217.0, 0.0021583306762610935
1218.0, 0.0006661557808550124
1219.0, 0.0021090468888067533
1220.0, 0.0008225773878050716
1221.0, 0.00027735323787047363
1222.0, 0.00047438776952203994
1223.0, 0.0003259649427512781
1224.0, 0.00017030743168476272
1225.0, 0.00022079219622125974
1226.0, 0.000575333196496371
1227.0, 0.0008888969607461297
1228.0, 0.000728676222586394
1229.0, 0.001115059859673773
1230.0, 0.001628604673869632
1231.0, 0.0011637076711537822
1232.0, 0.0007457136967420218
1233.0, 0.0007956162452256817
1234.0, 0.00020861209148513972
1235.0, 0.0009633599341257144
1236.0, 0.0006484818531556885
1237.0, 0.0006036561655629907
1238.0, 0.002034132715544679
1239.0, 0.002096135075501865
1240.0, 0.0009147206785713313
1241.0, 0.0011107826019178322
1242.0, 0.0011972855795309458
1243.0, 0.0005099162657837753
1244.0, 0.0005705295403004192
1245.0, 0.0012378468990579313
1246.0, 0.0005556747613864258
1247.0, 0.001220821987594901
1248.0, 0.0003472244689608115
1249.0, 0.0017030023336911263
1250.0, 0.00131145280839312
1251.0, 0.0029464959533483455
1252.0, 0.002802208124213672
1253.0, 0.002410040647028745
1254.0, 0.002408562609023412
1255.0, 0.0015505855832560846
1256.0, 0.002550092837771956
1257.0, 0.0012639377160343398
1258.0, 0.000943403741074068
1259.0, 0.003324739103855836
1260.0, 0.003285623265189697
1261.0, 0.0019701897835679035
1262.0, 0.00045661797846771287
1263.0, 0.0011275696844587312
1264.0, 0.001159558089450042
1265.0, 0.0008672253847595656
1266.0, 0.0018366517411059497
1267.0, 0.0020208360931009183
1268.0, 0.0016346260761611773
1269.0, 0.002499090220442039
1270.0, 0.0027659013171500366
1271.0, 0.0015007391477006328
1272.0, 0.0019966207073056083
1273.0, 0.0007758077843611198
1274.0, 0.0019391720804177246
1275.0, 0.002309681715838631
1276.0, 0.0027588005870557673
1277.0, 0.003592956928520151
1278.0, 0.0022137919898919363
1279.0, 0.0017535680240829744
1280.0, 0.0018194664491102603
1281.0, 0.0023470258471907893
1282.0, 0.003258696199923048
1283.0, 0.003575807860636543
1284.0, 0.002164863876909164
1285.0, 0.0006844677777657591
1286.0, 0.0024830803263894306
1287.0, 0.002945562624631529
1288.0, 0.0025322475639798676
1289.0, 0.004681987032961941
1290.0, 0.0026905938267118164
1291.0, 0.002376534150214897
1292.0, 0.005373044993864555
1293.0, 0.004660488310176511
1294.0, 0.003390236030930974
1295.0, 0.004220907503092802
1296.0, 0.004536917757933672
1297.0, 0.005469542195470344
1298.0, 0.004915229762172103
1299.0, 0.0031028151364391175
1300.0, 0.004046968378253338
1301.0, 0.003107855786863971
1302.0, 0.004599248690814029
1303.0, 0.003878980459423852
1304.0, 0.004866162007631583
1305.0, 0.0046818267342312505
1306.0, 0.0066111751697611925
1307.0, 0.004549166004474907
1308.0, 0.004445340634693648
1309.0, 0.0046315610554807695
1310.0, 0.003650476835913349
1311.0, 0.00429511580801009
1312.0, 0.004947948451093127
1313.0, 0.0038727847328059854
1314.0, 0.003003390388032192
1315.0, 0.003412882470288229
1316.0, 0.003479766146553702
1317.0, 0.0033435205680441248
1318.0, 0.004503743513969248
1319.0, 0.003917516284636529
1320.0, 0.0035155873067850923
1321.0, 0.0030504334782907364
1322.0, 0.0027409461744899504
1323.0, 0.003982851404054053
1324.0, 0.002393679712161988
1325.0, 0.001464690489180472
1326.0, 0.0025650953055871414
1327.0, 0.004350751119960655
1328.0, 0.0040123909580640485
1329.0, 0.003576497162910657
1330.0, 0.0036462538172334544
1331.0, 0.0029420342726670574
1332.0, 0.003638511999263064
1333.0, 0.00417409611818675
1334.0, 0.004099683195293995
1335.0, 0.0032422555394070627
1336.0, 0.0033396973866928682
1337.0, 0.003802289253437374
1338.0, 0.0023568220336420724
1339.0, 0.0031412357809649342
1340.0, 0.004678602896828301
1341.0, 0.003922201297451183
1342.0, 0.0033795093092707277
1343.0, 0.00437734664967831
1344.0, 0.004000740880985472
1345.0, 0.0033067461296023572
1346.0, 0.004223654398137105
1347.0, 0.004489700103571153
1348.0, 0.002822898111854604
1349.0, 0.0024834873380379877
1350.0, 0.004119776512327738
1351.0, 0.0028807988487777447
1352.0, 0.004168944540779724
1353.0, 0.0011794239049341111
1354.0, 0.003964742138760722
1355.0, 0.003645457528159623
1356.0, 0.003259058011366237
1357.0, 0.006571152062858018
1358.0, 0.00675372104567004
1359.0, 0.0047738023876375225
1360.0, 0.005192247583945034
1361.0, 0.00499650069812854
1362.0, 0.004495581820418785
1363.0, 0.004009319624090561
1364.0, 0.0030256764349641104
1365.0, 0.0033982294454409515
1366.0, 0.004518504824738229
1367.0, 0.005931723045289796
1368.0, 0.00582134934668373
1369.0, 0.0044008711018213385
1370.0, 0.0038851195227218413
1371.0, 0.0034526243225070966
1372.0, 0.001953568548941766
1373.0, 0.003030617938587585
1374.0, 0.004070457317821266
1375.0, 0.0033744839439494895
1376.0, 0.004999831010872748
1377.0, 0.004256583506360229
1378.0, 0.003897106527322002
1379.0, 0.00259208099705723
1380.0, 0.0016240959235432045
1381.0, 0.002677856127038595
1382.0, 0.003285172346425359
1383.0, 0.0030437667523714497
1384.0, 0.0031431290080479557
1385.0, 0.003558090164735246
1386.0, 0.0030077173528527735
1387.0, 0.0021910782793262786
1388.0, 0.0036186104672207265
1389.0, 0.0014107886250234213
1390.0, 0.0027647744133949144
1391.0, 0.003440239343944412
1392.0, 0.0038593203017094325
1393.0, 0.0024730025478345878
1394.0, 0.0017792646998216197
1395.0, 0.0029138444495724223
1396.0, 0.0020716382162326227
1397.0, 0.0018389635994593943
1398.0, 0.0027374439761563376
1399.0, 0.003367085667370133
1400.0, 0.003819187822762649
1401.0, 0.003725937063674447
1402.0, 0.0034472855181588505
1403.0, 0.003560636996172651
1404.0, 0.0034269324297370772
1405.0, 0.003111344757035943
1406.0, 0.003142332959808875
1407.0, 0.0034699285635099975
1408.0, 0.0026850674847482985
1409.0, 0.0020484680859912457
1410.0, 0.0016281894439071902
1411.0, 0.0031508492490069846
1412.0, 0.0038332226873003207
1413.0, 0.003076244030802616
1414.0, 0.003031684951152967
1415.0, 0.0020813514701315005
1416.0, 0.0008049382835058524
1417.0, 0.0005670365593421761
1418.0, 0.0018990956615640036
1419.0, 0.003422501811461457
1420.0, 0.0031339329087190244
1421.0, 0.002315705502069036
1422.0, 0.002674900721047775
1423.0, 0.0026147885168638996
1424.0, 0.003006917806679561
1425.0, 0.002115809798267235
1426.0, 0.003552872862435071
1427.0, 0.002618384307369541
1428.0, 0.0004101699506247171
1429.0, 0.0020132210627056973
1430.0, 0.002510901910363148
1431.0, 0.0036705402330409
1432.0, 0.0040931101648249745
1433.0, 0.0025758587182261694
1434.0, 0.0029525319470546647
1435.0, 0.0033345089228747024
1436.0, 0.002160607871205022
1437.0, 0.0018818282006075682
1438.0, 0.0030799546073745025
1439.0, 0.002999503362661975
1440.0, 0.0027090039089457856
1441.0, 0.004143384748826485
1442.0, 0.0038979291137370576
1443.0, 0.004219097502764523
1444.0, 0.004226705852137367
1445.0, 0.0030273647178689998
1446.0, 0.002873974894550371
1447.0, 0.003741602270991599
1448.0, 0.003295289267438941
1449.0, 0.00347694680926685
1450.0, 0.0034737610834177112
1451.0, 0.004044474262614892
1452.0, 0.003438868966713544
1453.0, 0.0025943275231117696
1454.0, 0.003388507531476115
1455.0, 0.003339582045934087
1456.0, 0.003418016351773898
1457.0, 0.0024840741980258875
1458.0, 0.003345069809276309
1459.0, 0.004621547061915252
1460.0, 0.002918496018714733
1461.0, 0.002122803703017078
1462.0, 0.002952609608942799
1463.0, 0.0018840242965150705
1464.0, 0.002920806263355906
1465.0, 0.0036899220559957766
1466.0, 0.0040154624779230865
1467.0, 0.0024257906344496436
1468.0, 0.0032784378658772214
1469.0, 0.0009473824468072595
1470.0, 0.004346236935624985
1471.0, 0.0036774367575025976
1472.0, 0.0027033255025150295
1473.0, 0.004171177739793838
1474.0, 0.004968086537333174
1475.0, 0.0046616413867888
1476.0, 0.004040098972793321
1477.0, 0.003429558573224629
1478.0, 0.001932238832200164
1479.0, 0.002597610992954061
1480.0, 0.0035120710257136914
1481.0, 0.0024154784885734824
1482.0, 0.002639436152966491
1483.0, 0.0032182137384329456
1484.0, 0.0021075123130296185
1485.0, 0.0031357198319073706
1486.0, 0.003491814172931598
1487.0, 0.00302985109610447
1488.0, 0.004921447110776823
1489.0, 0.0033366371978444933
1490.0, 0.001171737179578886
1491.0, 0.003464122896167527
1492.0, 0.0013939629591978053
1493.0, 0.0018725673978865944
1494.0, 0.0028846389387892613
1495.0, 0.0027860002093231923
1496.0, 0.002470459436545945
1497.0, 0.0024070587890955277
1498.0, 0.002920959357809996
1499.0, 0.0018164118048077538
1500.0, 0.001362083534607857
1501.0, 0.0025939020434762954
1502.0, 0.0017056842003293124
1503.0, 0.001375567254969729
1504.0, 0.002179013693203367
1505.0, 0.0012667096801638421
1506.0, 0.0005956283766851175
1507.0, 0.0018048443687517625
1508.0, 0.003209594124420704
1509.0, 0.003479533250848773
1510.0, 0.001264685105931118
1511.0, 0.001370156031520164
1512.0, 0.0018460851043933433
1513.0, 0.00035343378574069153
1514.0, 0.0006454780435727063
1515.0, 0.001357215459736416
1516.0, 0.0019102605733981694
1517.0, 0.002296518744209419
1518.0, 0.0020653249191686643
1519.0, 0.003229681984821528
1520.0, 0.0023689173069673837
1521.0, 0.0013632364527477547
1522.0, 0.0032568740289785664
1523.0, 0.003074626403410118
1524.0, 0.0018719692251846223
1525.0, 0.0012301963632642041
1526.0, 0.0028101513669079553
1527.0, 0.0015951240294226968
1528.0, 0.002489114340928747
1529.0, 0.0036615732715899116
1530.0, 0.003275856214364154
1531.0, 0.0026224574022307027
1532.0, 0.0012935432983127847
1533.0, 0.0005501099426841203
1534.0, 0.0005038452665490551
1535.0, 0.0015572328091627348
1536.0, 0.0025215390528884932
1537.0, 0.0015730357537593104
1538.0, 0.0018587809905150996
1539.0, 0.001964967516453478
1540.0, 0.0009337914282501827
1541.0, 0.00280804274816198
1542.0, 0.0013307033424601845
1543.0, 0.00372210421587179
1544.0, 0.003856431408173775
1545.0, 0.0038736759455176013
1546.0, 0.0035720952081029827
1547.0, 0.0031334080671225196
1548.0, 0.001660877366367352
1549.0, 0.0022411840266230126
1550.0, 0.002896987838568713
1551.0, 0.0017197064852174238
1552.0, 0.0012081906629874968
1553.0, 0.0030694310606921124
1554.0, 0.0027575058836870094
1555.0, 0.0027094359646357806
1556.0, 0.002883127685331063
1557.0, 0.0019182330740353227
1558.0, 0.002224487409811289
1559.0, 0.004363582920335354
1560.0, 0.004043776611998301
1561.0, 0.001391916557983086
1562.0, 0.0005969101308968687
1563.0, 8.48419664025097e-06
1564, 0.0
1565, 0.0
1566, 0.0
1567, 0.0
1568, 0.0
1569, 0.0
1570, 0.0
1571, 0.0
1572, 0.0
1573, 0.0
1574, 0.0
1575, 0.0
1576, 0.0
1577, 0.0
1578, 0.0
1579, 0.0
1580, 0.0
1581, 0.0
1582, 0.0
1583, 0.0
1584, 0.0
1585, 0.0
1586, 0.0
1587, 0.0
1588, 0.0
1589, 0.0
1590, 0.0
1591, 0.0
1592, 0.0
1593, 0.0
1594, 0.0
1595, 0.0
1596, 0.0
1597, 0.0
1598, 0.0
1599, 0.0
