30, 0.0
31, 0.0
32, 0.0
33, 0.0
34, 0.0
35, 0.0
36, 0.0
37, 0.0
38, 0.0
39, 0.0
40, 0.0
41, 0.0
42, 0.0
43, 0.0
44, 0.0
45, 0.0
46, 0.0
47, 0.0
48, 0.0
49, 0.0
50, 0.0
51, 0.0
52, 0.0
53, 0.0
54, 0.0
55, 0.0
56, 0.0
57, 0.0
58, 0.0
59, 0.0
60, 0.0
61, 0.0
62, 0.0
63, 0.0
64, 0.0
65, 0.0
66, 0.0
67, 0.0
68, 0.0
69, 0.0
70, 0.0
71, 0.0
72, 0.0
73, 0.0
74, 0.0
75, 0.0
76, 0.0
77, 0.0
78, 0.0
79, 0.0
80, 0.0
81, 0.0
82, 0.0
83, 0.0
84, 0.0
85, 0.0
86, 0.0
87, 0.0
88, 0.0
89, 0.0
90, 0.0
91, 0.0
92, 0.0
93, 0.0
94, 0.0
95, 0.0
96, 0.0
97, 0.0
98, 0.0
99, 0.0
100, 0.0
101, 0.0
102, 0.0
103, 0.0
104, 0.0
105, 0.0
106, 0.0
107, 0.0
108, 0.0
109, 0.0
110, 0.0
111, 0.0
112, 0.0
113.0, 3.2185918918607806e-06
114.0, 3.2214915241956815e-05
115.0, 0.0011554163128876147
116.0, 0.0010799294575886396
117.0, 0.001321692460655951
118.0, 0.00340538141900139
119.0, 0.005839642974930941
120.0, 0.01538752469729848
121.0, 0.0263208412526173
122.0, 0.03931081617147916
123.0, 0.054805484294741046
124.0, 0.07096450032170111
125.0, 0.09391551314744809
126.0, 0.12521819960005423
127.0, 0.16305106147925952
128.0, 0.2020053487664721
129.0, 0.23218806571332634
130.0, 0.24538797801721185
131.0, 0.24049640643113876
132.0, 0.22452321139383355
133.0, 0.2015589399187862
134.0, 0.17281789205933232
135.0, 0.14214566940438855
136.0, 0.11400598958204773
137.0, 0.08992565482041529
138.0, 0.07140220132104476
139.0, 0.0594715686427987
140.0, 0.05326223471807184
141.0, 0.047328007992583666
142.0, 0.04184050621429599
143.0, 0.03770470306594206
144.0, 0.035993243765097827
145.0, 0.03784976723000378
146.0, 0.03729414505513905
147.0, 0.037538468763566236
148.0, 0.03782925591747801
149.0, 0.03737479331233261
150.0, 0.036790646598373486
151.0, 0.03555609685846233
152.0, 0.033934624784052826
153.0, 0.031890354305948665
154.0, 0.029493928878988857
155.0, 0.026950451748567097
156.0, 0.023610520421692406
157.0, 0.020106190995569248
158.0, 0.017058861963238192
159.0, 0.015403710398694124
160.0, 0.016177595385993872
161.0, 0.01999040936622152
162.0, 0.021519210462801697
163.0, 0.02566678207328721
164.0, 0.030660735173752594
165.0, 0.03300641021082483
166.0, 0.03160936772796545
167.0, 0.026452707003940534
168.0, 0.02254094612823826
169.0, 0.018713438498898508
170.0, 0.01407848490447689
171.0, 0.010139853478736301
172.0, 0.005474406756589797
173.0, 0.0030132025662751877
174.0, 0.002399674784762313
175.0, 0.0026608193259234085
176.0, 0.002471063474927807
177.0, 0.0015879003119853561
178.0, 0.0014783155058317456
179.0, 0.0020308017530278766
180.0, 0.0034967127227529034
181.0, 0.005920065056782755
182.0, 0.0074797806669955605
183.0, 0.011100571005177867
184.0, 0.014368659708543273
185.0, 0.019784649801073795
186.0, 0.028604936208366398
187.0, 0.03738677671194938
188.0, 0.047093542698498345
189.0, 0.05456023250147963
190.0, 0.06269556117808169
191.0, 0.07091022018865407
192.0, 0.0750587713898781
193.0, 0.07367808583300181
194.0, 0.07301179809148309
195.0, 0.07003021179154997
196.0, 0.06543851381763431
197.0, 0.06081447114426042
198.0, 0.053997587067721675
199.0, 0.05072670394294648
200.0, 0.04745624650957771
201.0, 0.04384391194910536
202.0, 0.04009820940184591
203.0, 0.03652856896769148
204.0, 0.028604948047134256
205.0, 0.022887738585092608
206.0, 0.018371626041893564
207.0, 0.014157202175170188
208.0, 0.009742170242982622
209.0, 0.006203695632252884
210.0, 0.00461313255850915
211.0, 0.0042065882053321435
212.0, 0.003691639135786823
213.0, 0.0028062453182502436
214.0, 0.004651460731561882
215.0, 0.006824584636937479
216.0, 0.0064156262364068635
217.0, 0.0065324280383411105
218.0, 0.008904522247840531
219.0, 0.013149844267871556
220.0, 0.018024320899739352
221.0, 0.022138736817010254
222.0, 0.02731258508331066
223.0, 0.03439934599290061
224.0, 0.043609349623514766
225.0, 0.054520199616858396
226.0, 0.06987909042314219
227.0, 0.08551770236934218
228.0, 0.1044913221484923
229.0, 0.127988848907421
230.0, 0.1538993934991335
231.0, 0.1865766168094673
232.0, 0.2264794589057436
233.0, 0.2669520265480562
234.0, 0.30387044798746504
235.0, 0.333264743508946
236.0, 0.34495629292726654
237.0, 0.34074174872705054
238.0, 0.32224133120158405
239.0, 0.2982156828607929
240.0, 0.27048326540825657
241.0, 0.2303259720087738
242.0, 0.19236994759578016
243.0, 0.15461096828142745
244.0, 0.12306285382118125
245.0, 0.09673615637560588
246.0, 0.0726578500547773
247.0, 0.05459021171031185
248.0, 0.041162229791416996
249.0, 0.031228007568821787
250.0, 0.023132743520191054
251.0, 0.015836097799874174
252.0, 0.009461830468798891
253.0, 0.008112131841833518
254.0, 0.0063688642695396295
255.0, 0.004359919635204207
256.0, 0.002983007334376479
257.0, 0.0029266941616049808
258.0, 0.0032081902551998214
259.0, 0.002632222725021064
260.0, 0.001019380393108799
261.0, 0.0007579841339805365
262.0, 0.0024436386818862577
263.0, 0.004590862604257101
264.0, 0.006361468065774843
265.0, 0.005939849764653377
266.0, 0.006281347385472975
267.0, 0.007130596752673205
268.0, 0.00730449836861972
269.0, 0.005824984682400087
270.0, 0.005150315568018823
271.0, 0.0042868306156811555
272.0, 0.00382594829240718
273.0, 0.0032357419796446877
274.0, 0.0015969190131604955
275.0, 0.0008430392766551743
276.0, 0.00030946758741911184
277.0, 0.0005235038226815852
278.0, 0.0007102605480649867
279.0, 0.0006149866715326717
280.0, 0.0010774327930146675
281.0, 0.00043149348971619503
282.0, 0.00037969438024670606
283.0, 0.0013748818219381936
284.0, 0.00297287929649731
285.0, 0.004322974666564197
286.0, 0.004593654874690602
287.0, 0.006673461450394914
288.0, 0.008593130219644632
289.0, 0.010783622726841299
290.0, 0.014505531855545956
291.0, 0.02090410253299188
292.0, 0.026539789677029853
293.0, 0.03202474976295637
294.0, 0.03907559796474391
295.0, 0.04654212460363854
296.0, 0.0535949318514912
297.0, 0.060921919164798964
298.0, 0.06693423793586463
299.0, 0.06901634114730863
300.0, 0.06927482616136799
301.0, 0.06803013696746932
302.0, 0.06536588681475969
303.0, 0.06295021275897762
304.0, 0.06416215906388299
305.0, 0.06323997911719029
306.0, 0.06199244623984459
307.0, 0.060515076692713
308.0, 0.05774619823023655
309.0, 0.05566036735425613
310.0, 0.05607837535969749
311.0, 0.056856341636951996
312.0, 0.056153630888794645
313.0, 0.05478937265054879
314.0, 0.0565069597662624
315.0, 0.06255368504435907
316.0, 0.07032520228815048
317.0, 0.07766001150101955
318.0, 0.08559763551036478
319.0, 0.09458273642372418
320.0, 0.10213113044403026
321.0, 0.10609032897315632
322.0, 0.11045308503229923
323.0, 0.11605034945428618
324.0, 0.12294131230966096
325.0, 0.13187056031744276
326.0, 0.14699776280195587
327.0, 0.1638694894370426
328.0, 0.1876694765605209
329.0, 0.21591981992097414
330.0, 0.25072094281570023
331.0, 0.2959639969663615
332.0, 0.3476650893189461
333.0, 0.40882287761529
334.0, 0.4784992504401482
335.0, 0.5591789789542544
336.0, 0.6500072732098849
337.0, 0.7460221926343086
338.0, 0.838274228003981
339.0, 0.9190922989464437
340.0, 0.9697057921005628
341.0, 0.9899688898084569
342.0, 0.9802471341655996
343.0, 0.9370585903446146
344.0, 0.8655578979568853
345.0, 0.7769288631947282
346.0, 0.6828508276057188
347.0, 0.5905603508530798
348.0, 0.5052016225444971
349.0, 0.42994249177887844
350.0, 0.3663878044515371
351.0, 0.3122883198782382
352.0, 0.2704010531417674
353.0, 0.2389086627780321
354.0, 0.2144849123107937
355.0, 0.19488418632106866
356.0, 0.1806075341854607
357.0, 0.16964686194737752
358.0, 0.15932767858666888
359.0, 0.14888495857112935
360.0, 0.13822953579230837
361.0, 0.1264977792201232
362.0, 0.11494581451823938
363.0, 0.1074254642702167
364.0, 0.0997172566627112
365.0, 0.09309183751779962
366.0, 0.0899215130232883
367.0, 0.08654732229144096
368.0, 0.08491976996679576
369.0, 0.08633522415849558
370.0, 0.08888929078075933
371.0, 0.09162579100939183
372.0, 0.09516832920898942
373.0, 0.10288476092535727
374.0, 0.11286137431055276
375.0, 0.12252464067540664
376.0, 0.13292292616750775
377.0, 0.14255123842468514
378.0, 0.14942787978521685
379.0, 0.15608555888616174
380.0, 0.15679940691123018
381.0, 0.15751125135901548
382.0, 0.1567762960058305
383.0, 0.1526481507636333
384.0, 0.14542415020606547
385.0, 0.14317311172234407
386.0, 0.1408739956948138
387.0, 0.1415304130012512
388.0, 0.1448794914021599
389.0, 0.15020021832181718
390.0, 0.1580203412033874
391.0, 0.1738498910758616
392.0, 0.18561591377965203
393.0, 0.2031993696857876
394.0, 0.22413833067403235
395.0, 0.24550313992069805
396.0, 0.2651560207705754
397.0, 0.28228785082431423
398.0, 0.29572524839049646
399.0, 0.30398474915236956
400.0, 0.30629755512638074
401.0, 0.30406566682212677
402.0, 0.29947424340167866
403.0, 0.29328836623710786
404.0, 0.2802605128572928
405.0, 0.26811177522336777
406.0, 0.2571550153646675
407.0, 0.2489007786398641
408.0, 0.24376199096921294
409.0, 0.23773981897796514
410.0, 0.23316346800720444
411.0, 0.23313227958281346
412.0, 0.2343991379953704
413.0, 0.23572187876011763
414.0, 0.2367711092191231
415.0, 0.23685727768157752
416.0, 0.22911565861317695
417.0, 0.22316716421585195
418.0, 0.21513520706409747
419.0, 0.20359557936823264
420.0, 0.18967061127569923
421.0, 0.17642121929657015
422.0, 0.1556862676971824
423.0, 0.1375606240298388
424.0, 0.1190507482128168
425.0, 0.10211616454334908
426.0, 0.08700278079461644
427.0, 0.07070686615334064
428.0, 0.061818883998957075
429.0, 0.05368173889816244
430.0, 0.046733518888329204
431.0, 0.04179570846281989
432.0, 0.039336834393007954
433.0, 0.039205731188449715
434.0, 0.040661692814340664
435.0, 0.04580051418431151
436.0, 0.049859304892672186
437.0, 0.05533577593661713
438.0, 0.06272044550988617
439.0, 0.07027172206828283
440.0, 0.07726625159401837
441.0, 0.08130572564276388
442.0, 0.07954238108788478
443.0, 0.07652671053708443
444.0, 0.07208803479576632
445.0, 0.06398641879170468
446.0, 0.05299481505227252
447.0, 0.04555838462966317
448.0, 0.03867157960271379
449.0, 0.03245054421638012
450.0, 0.028099120315902098
451.0, 0.025711893141933066
452.0, 0.023028967628794424
453.0, 0.0212425497970618
454.0, 0.021100866954793483
455.0, 0.02081903677044641
456.0, 0.02010951437124394
457.0, 0.01893308027915498
458.0, 0.01752788937219688
459.0, 0.01906545427813658
460.0, 0.019113902320428193
461.0, 0.017949832609026578
462.0, 0.018420614529091703
463.0, 0.019224158293653672
464.0, 0.017885906561585976
465.0, 0.01967413471656568
466.0, 0.015921327802870092
467.0, 0.01552207862531617
468.0, 0.015140829933260533
469.0, 0.013777956984951243
470.0, 0.01200862727196616
471.0, 0.010532189477129195
472.0, 0.010124074270530092
473.0, 0.00870234243484104
474.0, 0.008093105965598884
475.0, 0.008179041534791189
476.0, 0.007738315823068439
477.0, 0.005462608532985895
478.0, 0.0029349338323660322
479.0, 0.003701587834299927
480.0, 0.003877010228917073
481.0, 0.0038243986652727055
482.0, 0.004086992429361333
483.0, 0.004663807910853214
484.0, 0.004784841653549137
485.0, 0.0038823248268841314
486.0, 0.003428932811850949
487.0, 0.0027548808883450324
488.0, 0.0016829609090112199
489.0, 0.0005921382328355197
490.0, 0.00021538079851961684
491.0, 0.00016352155703023744
492.0, 0.0020548363840549046
493.0, 0.0027894688810490395
494.0, 0.00257872987055473
495.0, 0.0024594407620895306
496.0, 0.0033183864279604535
497.0, 0.005058935435886123
498.0, 0.005195275636435879
499.0, 0.004368650429758502
500.0, 0.004291368671858875
501.0, 0.004301824522593347
502.0, 0.0037894002347042344
503.0, 0.0040119653812264846
504.0, 0.0015645936522952182
505.0, 0.000556092778488538
506.0, 0.0015312085106045778
507.0, 0.0042012285745346755
508.0, 0.007962301882128289
509.0, 0.012302579822570225
510.0, 0.017386675638311935
511.0, 0.023779681494142432
512.0, 0.030828733155870158
513.0, 0.03837704631414241
514.0, 0.0475772685682492
515.0, 0.05887557717532567
516.0, 0.07062143907375737
517.0, 0.08247768425882952
518.0, 0.09056570932653783
519.0, 0.09859877180606232
520.0, 0.1033384029194617
521.0, 0.10388158096373581
522.0, 0.10305666073258235
523.0, 0.10521345817217176
524.0, 0.10281701007175816
525.0, 0.10131950069730171
526.0, 0.09690598275930933
527.0, 0.09081484225155163
528.0, 0.08452206434819524
529.0, 0.0773828456306346
530.0, 0.0736801646607629
531.0, 0.06615870058768927
532.0, 0.06466692521686793
533.0, 0.06538711704853795
534.0, 0.06708812189972353
535.0, 0.07086788338055187
536.0, 0.07621915286525721
537.0, 0.0852246902792909
538.0, 0.09138106301562038
539.0, 0.092519571367559
540.0, 0.0934567618369762
541.0, 0.09440150070221126
542.0, 0.09105084656473973
543.0, 0.08797520331971216
544.0, 0.086340025887618
545.0, 0.08353509127599668
546.0, 0.08082380968336689
547.0, 0.0786130037592762
548.0, 0.0774810445290283
549.0, 0.07798498530180735
550.0, 0.07293075284197857
551.0, 0.07050447156320405
552.0, 0.06442816132335681
553.0, 0.05635043799784801
554.0, 0.04881124287259547
555.0, 0.04249550161195695
556.0, 0.034958179812905575
557.0, 0.031689076585214804
558.0, 0.027672631636739976
559.0, 0.025023043959166786
560.0, 0.02284706217915636
561.0, 0.020577739139849578
562.0, 0.01872269106995127
563.0, 0.01813690030324969
564.0, 0.019420798387898335
565.0, 0.017558422362501405
566.0, 0.01953752983763781
567.0, 0.02189627849657911
568.0, 0.02320554177193374
569.0, 0.026894416702995725
570.0, 0.02910303377785861
571.0, 0.03269890137413708
572.0, 0.0370615230010152
573.0, 0.0420282742673112
574.0, 0.04703186449994374
575.0, 0.05111488221884171
576.0, 0.053449646414087795
577.0, 0.0554609825608088
578.0, 0.05493037211267093
579.0, 0.05119250162568489
580.0, 0.04719226388531932
581.0, 0.043496066096772784
582.0, 0.038679838764438555
583.0, 0.03152788297652703
584.0, 0.028195019753348333
585.0, 0.024418838862154783
586.0, 0.01962074222336426
587.0, 0.01855576212304826
588.0, 0.018970403390727475
589.0, 0.01748205216614874
590.0, 0.017560684588018387
591.0, 0.016519203059210282
592.0, 0.016138527434579587
593.0, 0.015471357272471484
594.0, 0.013771321114327635
595.0, 0.012534827399620726
596.0, 0.012653354547506256
597.0, 0.010777208061451386
598.0, 0.0064814130324969636
599.0, 0.007745353847730087
600.0, 0.006039312361098139
601.0, 0.0038500699081607122
602.0, 0.0024294106574395515
603.0, 0.0011664118178542487
604.0, 0.0009045143260110562
605.0, 0.0003652759159040304
606.0, 0.0002224476766682085
607.0, 0.00031527633957303394
608.0, 0.00025408390664611804
609.0, 0.0007049912977365233
610.0, 0.0017070999552190693
611.0, 0.0004954015451762948
612.0, 0.0008696556882250399
613.0, 0.000935925346784566
614.0, 0.0012774704198569003
615.0, 0.0016180909115637028
616.0, 0.0015263768116921207
617.0, 0.0012407443407153587
618.0, 0.0021314685907917047
619.0, 0.0024385602105089985
620.0, 0.0018742719449461234
621.0, 0.003017595553931817
622.0, 0.003894318224532402
623.0, 0.0039561878558042754
624.0, 0.004437554152120967
625.0, 0.006519972463379984
626.0, 0.007959445991949862
627.0, 0.009421748470646004
628.0, 0.011823210205533553
629.0, 0.01310456865049134
630.0, 0.013546349665906563
631.0, 0.01411404176418917
632.0, 0.014149501120963515
633.0, 0.01605298080871294
634.0, 0.019369422101999247
635.0, 0.021023609996975827
636.0, 0.023233058872642036
637.0, 0.026317514504109494
638.0, 0.02934871965692196
639.0, 0.03178837029096003
640.0, 0.033673211667589194
641.0, 0.03897419087064318
642.0, 0.04296463556121626
643.0, 0.04775675771964211
644.0, 0.05436244774797902
645.0, 0.06255090199986257
646.0, 0.07169497917552056
647.0, 0.08204145105074045
648.0, 0.0938948773802275
649.0, 0.11024540858167459
650.0, 0.12745205023388162
651.0, 0.1488442008949908
652.0, 0.17563484579971286
653.0, 0.20603864145476067
654.0, 0.2434149446958677
655.0, 0.28903850083417165
656.0, 0.34031775076865195
657.0, 0.3945301228865986
658.0, 0.45654707334748124
659.0, 0.5210043022398368
660.0, 0.5786897413347304
661.0, 0.6315065534744817
662.0, 0.663947767719888
663.0, 0.6743655960866752
664.0, 0.6582947330648358
665.0, 0.6224619176922365
666.0, 0.5786975264737056
667.0, 0.532532800304035
668.0, 0.4801794646103818
669.0, 0.43496570359828857
670.0, 0.4032491394472806
671.0, 0.38162544904416573
672.0, 0.3711602861283133
673.0, 0.37446749718864325
674.0, 0.39056277390479494
675.0, 0.4149999344578025
676.0, 0.44728690788538583
677.0, 0.49301130914335606
678.0, 0.5494889470600177
679.0, 0.6106158112028661
680.0, 0.6747261565910204
681.0, 0.7403751841438592
682.0, 0.7990118325718341
683.0, 0.833360455024006
684.0, 0.8598938945772624
685.0, 0.8398903699792786
686.0, 0.799628909168405
687.0, 0.741708622295056
688.0, 0.6687192250844028
689.0, 0.5848377544644282
690.0, 0.4969751170899006
691.0, 0.4206542419278153
692.0, 0.3506337093976164
693.0, 0.2934957366379402
694.0, 0.24840832342766153
695.0, 0.20832577129354782
696.0, 0.1733561953472765
697.0, 0.14754128629934848
698.0, 0.12728977464007463
699.0, 0.11217853050737554
700.0, 0.09713374785743997
701.0, 0.08547365847397355
702.0, 0.07809342794290226
703.0, 0.07104526482065816
704.0, 0.06257096730304657
705.0, 0.056264695579457465
706.0, 0.053772642770947496
707.0, 0.04834855014893719
708.0, 0.04219089394400121
709.0, 0.039023604275686574
710.0, 0.03672831116169819
711.0, 0.03389049740223932
712.0, 0.03136286929241541
713.0, 0.030441379530759184
714.0, 0.02968654100156146
715.0, 0.025849170263143983
716.0, 0.024089993492279763
717.0, 0.023274900334964647
718.0, 0.022467888251274246
719.0, 0.021784708972605735
720.0, 0.02150651662356116
721.0, 0.020284228546331957
722.0, 0.01946933093552236
723.0, 0.01876757708797395
724.0, 0.017688474632388578
725.0, 0.017467402117407844
726.0, 0.01816346005832153
727.0, 0.01889111373522743
728.0, 0.018766011337019006
729.0, 0.01698879809586549
730.0, 0.019286001658103003
731.0, 0.019573742933113956
732.0, 0.01894820170588059
733.0, 0.019716815803415035
734.0, 0.02090580093894591
735.0, 0.021204831506231817
736.0, 0.02306057863039952
737.0, 0.023156231829242296
738.0, 0.02221860332466921
739.0, 0.02427347896667986
740.0, 0.02552824207765911
741.0, 0.02626259250463282
742.0, 0.027429697430630322
743.0, 0.02899932602640874
744.0, 0.03108764305998237
745.0, 0.03347073945125528
746.0, 0.03557301186420308
747.0, 0.03911807003197921
748.0, 0.042580192181985846
749.0, 0.04602247507257066
750.0, 0.049081521010963844
751.0, 0.05027767657623206
752.0, 0.04917177955953863
753.0, 0.045133934043247434
754.0, 0.03958589843016871
755.0, 0.03266349940266929
756.0, 0.025210142054494584
757.0, 0.02034923961091783
758.0, 0.01810491034796757
759.0, 0.01460167710360733
760.0, 0.010023617672185152
761.0, 0.006247229516477797
762.0, 0.005382880040483172
763.0, 0.006208325771202339
764.0, 0.004917492546758665
765.0, 0.003187563854950832
766.0, 0.0028609890251866505
767.0, 0.0023411506017782906
768.0, 0.0024783288935261182
769.0, 0.0011731105842306632
770.0, 0.0009236521026669177
771.0, 0.0008124805526680296
772.0, 0.0006313709321260191
773.0, 0.00036688933966066485
774.0, 0.0004639996156578113
775.0, 0.001213237151736997
776.0, 0.0007050124372515353
777.0, 0.0003588546581356716
778.0, 0.0003928462178292005
779.0, 0.000465371673712734
780.0, 0.0010555295439450367
781.0, 0.0009849807302632582
782.0, 0.00023759787235584957
783.0, 0.0005917190540698488
784.0, 0.0008800371625308749
785.0, 0.0008709957397109716
786.0, 0.0011335961046935324
787.0, 0.0020437364536293402
788.0, 0.0025399389516776354
789.0, 0.001989013172192768
790.0, 0.001395443655040948
791.0, 0.0019705341591435364
792.0, 0.0015463478765576427
793.0, 0.0003496555297716967
794.0, 0.0005253494525067758
795.0, 0.0018509265272496644
796.0, 0.001549146216839264
797.0, 0.0013813259613797359
798.0, 0.0020098025388821795
799.0, 0.0018628935288088479
800.0, 0.002063249307314734
801.0, 0.0022309867581444313
802.0, 0.0011453770299834395
803.0, 0.0014663499083991567
804.0, 0.0016656649833052112
805.0, 0.0014503065867644248
806.0, 0.0016897286426072451
807.0, 0.002063492673090938
808.0, 0.0003507172872547065
809.0, 0.0017921012630043864
810.0, 0.0012802675879038333
811.0, 0.0015571426807022
812.0, 0.00099717557473063
813.0, 0.00169315951507831
814.0, 0.002241157642855744
815.0, 0.0010372911675868382
816.0, 0.0006593093545807855
817.0, 0.0019502159802199327
818.0, 0.00042176532098697295
819.0, 0.00023771967925078423
820.0, 0.0003162088880851671
821.0, 0.0008242167215392948
822.0, 0.0008866274614425093
823.0, 0.000498796057951648
824.0, 0.0005837853886776672
825.0, 1.2759281557721464e-05
826.0, 0.00018441191699142262
827.0, 0.00010593889761294521
828.0, 0.00031126054009632107
829.0, 0.0004849228819070828
830.0, 0.0006845176893550026
831.0, 0.00092671257276784
832.0, 0.0010848795335466732
833.0, 0.0015479975118578636
834.0, 0.0048930088775074885
835.0, 0.002265792979426119
836.0, 0.003673190807634726
837.0, 0.003115629111481003
838.0, 0.003953881578488435
839.0, 0.0052189170616845386
840.0, 0.005521367984858365
841.0, 0.0064278072705862424
842.0, 0.005811767253069684
843.0, 0.006808102622208506
844.0, 0.009379473660573142
845.0, 0.011436691248181965
846.0, 0.014071630865282939
847.0, 0.017093685287150086
848.0, 0.020995598566709565
849.0, 0.025387980110690038
850.0, 0.028480971448737985
851.0, 0.03764426642907055
852.0, 0.045010717819239696
853.0, 0.05585059068385804
854.0, 0.06258002908437778
855.0, 0.06806965802737164
856.0, 0.07208896976970533
857.0, 0.07341293232152189
858.0, 0.07262878917756041
859.0, 0.06965948870839407
860.0, 0.06360712596609744
861.0, 0.05870220537791209
862.0, 0.05297827025427785
863.0, 0.0480553484900743
864.0, 0.042498010326781584
865.0, 0.03731927734259361
866.0, 0.033332379771584306
867.0, 0.029004295351394663
868.0, 0.026214116996965357
869.0, 0.022962604234460816
870.0, 0.021074119348949403
871.0, 0.019300527453740595
872.0, 0.016902457037329337
873.0, 0.015450618250524533
874.0, 0.014389261784246453
875.0, 0.012740013851076823
876.0, 0.012031046734211976
877.0, 0.010812295676210136
878.0, 0.010085538057246038
879.0, 0.010925384618452829
880.0, 0.010727964248147296
881.0, 0.010918729443486257
882.0, 0.011368547142401276
883.0, 0.011703087466600698
884.0, 0.011989779710550028
885.0, 0.011929288359076766
886.0, 0.011336539545970284
887.0, 0.01089237967259483
888.0, 0.011626009042261142
889.0, 0.013196940215038148
890.0, 0.014831762389338999
891.0, 0.016187056098542357
892.0, 0.01721429593387653
893.0, 0.01753037832426197
894.0, 0.01679800861588084
895.0, 0.01839557269967874
896.0, 0.018909763057945186
897.0, 0.018384046156734626
898.0, 0.019117894898269306
899.0, 0.02010765683978259
900.0, 0.019859280200204336
901.0, 0.01902193176775596
902.0, 0.018633271250213707
903.0, 0.0170135353270284
904.0, 0.01451308287324992
905.0, 0.015351155516323847
906.0, 0.01465759988373686
907.0, 0.014408928906398595
908.0, 0.014465552070618224
909.0, 0.014224546863372793
910.0, 0.014464851939534134
911.0, 0.015493160248507042
912.0, 0.01557341735341801
913.0, 0.017731256929128435
914.0, 0.020496931615881883
915.0, 0.02220771675304605
916.0, 0.023140075399670463
917.0, 0.026198962076017417
918.0, 0.029938229762700903
919.0, 0.033925987429007445
920.0, 0.039325185397791035
921.0, 0.0456532538683819
922.0, 0.05191029842141769
923.0, 0.060451619524407196
924.0, 0.06884786112555388
925.0, 0.07883423472212038
926.0, 0.08533755789094949
927.0, 0.09144060630967048
928.0, 0.09791305213673715
929.0, 0.10224793051776863
930.0, 0.10350764458065
931.0, 0.10339881289915175
932.0, 0.10650524707022792
933.0, 0.11308734855326968
934.0, 0.11145081533075422
935.0, 0.11191280399736317
936.0, 0.1123265439262806
937.0, 0.11001020796633543
938.0, 0.10677106717182291
939.0, 0.10456086547209119
940.0, 0.09995481882005681
941.0, 0.09264399113892752
942.0, 0.0841671133975488
943.0, 0.07622242133216113
944.0, 0.06848684075474318
945.0, 0.0612141175817282
946.0, 0.05509202328610819
947.0, 0.04945883553711329
948.0, 0.04417624934590592
949.0, 0.04095976759220958
950.0, 0.03859063044748461
951.0, 0.033396520097017976
952.0, 0.031153356573211024
953.0, 0.027254167147262767
954.0, 0.0235802435061484
955.0, 0.022743875870009197
956.0, 0.02245709251431986
957.0, 0.02153457294959762
958.0, 0.021192362123168797
959.0, 0.01949321328630558
960.0, 0.020402731135413004
961.0, 0.01842098011035852
962.0, 0.017792434502520178
963.0, 0.018118197694305806
964.0, 0.017766679743347398
965.0, 0.01765150262707724
966.0, 0.017921105545789497
967.0, 0.017317306928601076
968.0, 0.01588058877998293
969.0, 0.01671339442658309
970.0, 0.01916002627739493
971.0, 0.017749251075507472
972.0, 0.017025260731892047
973.0, 0.019196920664727665
974.0, 0.022004356924044868
975.0, 0.022716283464548213
976.0, 0.02289237305965884
977.0, 0.024659304297268106
978.0, 0.025786138351448218
979.0, 0.0262612343105138
980.0, 0.02843558383277256
981.0, 0.03157135827342111
982.0, 0.033410876420072934
983.0, 0.03642444949808889
984.0, 0.03944228202025222
985.0, 0.04321388726491339
986.0, 0.047831521035871793
987.0, 0.05277058509602163
988.0, 0.05921426864891931
989.0, 0.06460296773400555
990.0, 0.07089028602563946
991.0, 0.08181864074687742
992.0, 0.0923414902075995
993.0, 0.10464746411543673
994.0, 0.12046047880149285
995.0, 0.13803399301496516
996.0, 0.1583490099096419
997.0, 0.1837676420286488
998.0, 0.21134737289383598
999.0, 0.241194401678098
1000.0, 0.28579571571496953
1001.0, 0.33034207869061366
1002.0, 0.38394074613343115
1003.0, 0.44788757773700894
1004.0, 0.5195904990081066
1005.0, 0.6035514377541337
1006.0, 0.6987428671961011
1007.0, 0.7961023098782757
1008.0, 0.8871488835252342
1009.0, 0.9564120271071743
1010.0, 0.9982029886535074
1011.0, 0.9934858462996076
1012.0, 0.964828911477714
1013.0, 0.913965267936994
1014.0, 0.8531776506050545
1015.0, 0.797090303264068
1016.0, 0.7486919651170987
1017.0, 0.7094181720329622
1018.0, 0.6872959780652845
1019.0, 0.6719555186483068
1020.0, 0.6681035947179977
1021.0, 0.6684697971612787
1022.0, 0.6757745974000229
1023.0, 0.6801732071557949
1024.0, 0.6868573029565463
1025.0, 0.6978311880011827
1026.0, 0.712544712161609
1027.0, 0.7226474510361854
1028.0, 0.720656335961127
1029.0, 0.7205676617001529
1030.0, 0.7129694860876732
1031.0, 0.7005591861072552
1032.0, 0.6739045725804633
1033.0, 0.6364400446566362
1034.0, 0.5959280661717496
1035.0, 0.5535339347529944
1036.0, 0.5107535481425325
1037.0, 0.46745872684999273
1038.0, 0.4245969647966896
1039.0, 0.3876253056859243
1040.0, 0.35089255340470094
1041.0, 0.31640142346266314
1042.0, 0.28612385410362806
1043.0, 0.25903468732015494
1044.0, 0.23215324556793615
1045.0, 0.2080562385015667
1046.0, 0.18586480984604956
1047.0, 0.16494234817965364
1048.0, 0.14683300838123495
1049.0, 0.13190197052007116
1050.0, 0.11798135757565147
1051.0, 0.1092155412276025
1052.0, 0.09745788579101378
1053.0, 0.090914647518488
1054.0, 0.08385313192456725
1055.0, 0.07944205742735747
1056.0, 0.07390658729999658
1057.0, 0.0690695169205875
1058.0, 0.06525984006311668
1059.0, 0.061024284056306756
1060.0, 0.05765819496078729
1061.0, 0.05127051830967591
1062.0, 0.047891751239945775
1063.0, 0.045066613252587054
1064.0, 0.03896033003350924
1065.0, 0.03546018933602942
1066.0, 0.03345817090125704
1067.0, 0.03114206653315331
1068.0, 0.028202785597214484
1069.0, 0.025504558964220533
1070.0, 0.02355241327298702
1071.0, 0.021989932293926356
1072.0, 0.020908954318988905
1073.0, 0.017563265083481792
1074.0, 0.017213987252077064
1075.0, 0.0170657533719313
1076.0, 0.015193083623158516
1077.0, 0.014850088729019462
1078.0, 0.014005457218664781
1079.0, 0.014359860362035883
1080.0, 0.014213169486159761
1081.0, 0.010664885086360723
1082.0, 0.009143080052902288
1083.0, 0.010563271814084252
1084.0, 0.010025590412751544
1085.0, 0.008576503640352052
1086.0, 0.010041333565944856
1087.0, 0.009185444851599098
1088.0, 0.0078721135372774
1089.0, 0.007872689016469725
1090.0, 0.00865530235802608
1091.0, 0.008059041442317253
1092.0, 0.006834693137096331
1093.0, 0.007718987804300715
1094.0, 0.006591294517591872
1095.0, 0.008991119477102221
1096.0, 0.007485676069295627
1097.0, 0.00819906133297812
1098.0, 0.007268013355249928
1099.0, 0.00579806521707236
1100.0, 0.005160444280323318
1101.0, 0.005562868180322889
1102.0, 0.00582147528584746
1103.0, 0.0054939688323043445
1104.0, 0.005840078269073711
1105.0, 0.006888430872386861
1106.0, 0.005776825344927203
1107.0, 0.006312348144067433
1108.0, 0.0050811455846732
1109.0, 0.006048102129438391
1110.0, 0.006705115902818909
1111.0, 0.006023174555513763
1112.0, 0.006638742957733176
1113.0, 0.006830306038026592
1114.0, 0.006241556687294765
1115.0, 0.007165942985097993
1116.0, 0.007852662316555408
1117.0, 0.008610491331283117
1118.0, 0.01219699001401372
1119.0, 0.009169646556032437
1120.0, 0.011945811038664527
1121.0, 0.013910808532982339
1122.0, 0.01320550930269937
1123.0, 0.01267986657811378
1124.0, 0.012837897900606847
1125.0, 0.011321382498843539
1126.0, 0.008575850713287135
1127.0, 0.006900752502067628
1128.0, 0.005161641623963617
1129.0, 0.008459596389407718
1130.0, 0.007068380143324907
1131.0, 0.0055451313572636475
1132.0, 0.004325563260509245
1133.0, 0.004886952654579847
1134.0, 0.006171575449857414
1135.0, 0.005961397400233935
1136.0, 0.005980644514521409
1137.0, 0.005681850830063917
1138.0, 0.005177316146001948
1139.0, 0.006735672383670096
1140.0, 0.005798892593568201
1141.0, 0.003945759858863581
1142.0, 0.005081115378913509
1143.0, 0.005209103551233151
1144.0, 0.0029774559925781294
1145.0, 0.0031361250188956247
1146.0, 0.004173127796029954
1147.0, 0.004133319458040775
1148.0, 0.00311080998314124
1149.0, 0.0029792120845282093
1150.0, 0.003560456920870517
1151.0, 0.0026624337129569696
1152.0, 0.0017656386710999243
1153.0, 0.00308103636033597
1154.0, 0.0013830127584771945
1155.0, 0.0032264080780471326
1156.0, 0.0033059088556158384
1157.0, 0.0016911979371150255
1158.0, 0.0009285906053951459
1159.0, 0.0008456290674349684
1160.0, 0.000508924732152376
1161.0, 0.0002210064566344337
1162.0, 0.0007725197230061953
1163.0, 0.0014554421133899543
1164.0, 0.0009743211589121279
1165.0, 0.0013999041457747547
1166.0, 0.0017344634061428593
1167.0, 0.0012551785793579466
1168.0, 0.0021445484695855337
1169.0, 0.003238618720253921
1170.0, 0.0011410213889416721
1171.0, 0.0014565181759764933
1172.0, 0.0014337694145154112
1173.0, 0.0018139003165882597
1174.0, 0.0023922639358439435
1175.0, 0.001621360380164656
1176.0, 0.002524193773949782
1177.0, 0.0031848280971845367
1178.0, 0.0010693574574274572
1179.0, 0.000675692035054029
1180.0, 0.0028178807656649876
1181.0, 0.0011547098808725835
1182.0, 0.00177810830089648
1183.0, 0.0015273258658241042
1184.0, 0.0007066975558471338
1185.0, 0.0013524673884052084
1186.0, 0.001295281515366232
1187.0, 0.00034200597977016587
1188.0, 0.000663234173802854
1189.0, 1.2615490805638436e-05
1190.0, 0.00032526302838436604
1191.0, 0.002356638781237817
1192.0, 0.0006797424152315689
1193.0, 0.0029433612265224295
1194.0, 0.0012620293278804116
1195.0, 0.00025528692097277956
1196.0, 0.00119131707627627
1197.0, 0.0008793544980187306
1198.0, 0.0005803048790924354
1199.0, 0.0008762422050549263
1200.0, 0.001032936174352211
1201.0, 0.001642922414124901
1202.0, 0.002265998414030398
1203.0, 0.0017810703295151494
1204.0, 0.001764871047067248
1205.0, 0.0005674050906083455
1206.0, 0.00020757969574275285
1207.0, 0.001080076045621757
1208.0, 0.0013718856469754706
1209.0, 0.0006243681115647761
1210.0, 0.0011629041152391676
1211.0, 0.0016883532493366551
1212.0, 0.00113207223151307
1213.0, 0.0004381117204811794
1214.0, 0.00033586781416050545
1215.0, 0.0006843732369906124
1216.0, 0.0010621079243117088
1217.0, 0.00017291916844647492
1218.0, 0.00034946637980260017
1219.0, 0.00029477422913770846
1220.0, 0.000741297607051415
1221.0, 0.0004204499472372355
1222.0, 0.0009952047671283023
1223.0, 0.0006191629157441751
1224.0, 0.00025158354430955234
1225.0, 0.0007370670112393316
1226.0, 0.001998836808374994
1227.0, 0.002445733061935332
1228.0, 0.0011259987058240281
1229.0, 0.000903727880180556
1230.0, 8.997813259583939e-05
1231.0, 0.0005281970121650305
1232.0, 0.0010587477502736788
1233.0, 0.002102065858534927
1234.0, 0.0013116834465231307
1235.0, 0.0009931726138983118
1236.0, 0.0006205446527088432
1237.0, 0.0011592129786033036
1238.0, 0.0010262054901660311
1239.0, 0.00044695868090339987
1240.0, 0.00025578108629341025
1241.0, 0.0004740217904979797
1242.0, 0.001280427255926613
1243.0, 0.001497484632596046
1244.0, 0.0027567568586892586
1245.0, 0.00250731882158735
1246.0, 0.0006121768199427507
1247.0, 0.002084992156231803
1248.0, 0.0008937711043943266
1249.0, 0.0018606646233246522
1250.0, 0.0007719463940304547
1251.0, 0.0010946948339707959
1252.0, 0.0011384273680610612
1253.0, 0.0008291516397720531
1254.0, 0.0014370843772360863
1255.0, 0.0018557334153243737
1256.0, 0.0016358369627558023
1257.0, 0.0016695052870845913
1258.0, 0.0018861105736198533
1259.0, 0.0018386524834288808
1260.0, 0.0016576502894843988
1261.0, 0.0005494155535208528
1262.0, 0.0013109452340126031
1263.0, 0.0005642584707986672
1264.0, 0.0018372000299252413
1265.0, 0.0018934795402249778
1266.0, 0.002417070528542219
1267.0, 0.002510609821968125
1268.0, 0.0025738737592257326
1269.0, 0.003571387396462115
1270.0, 0.0038027846755968897
1271.0, 0.003671895269184908
1272.0, 0.002791014848976304
1273.0, 0.00360744044533122
1274.0, 0.004214729792062133
1275.0, 0.002092232845119849
1276.0, 0.0038562650194955677
1277.0, 0.003429065970295821
1278.0, 0.0052064112680156975
1279.0, 0.00489500991861931
1280.0, 0.0048275034161472255
1281.0, 0.005393837379015034
1282.0, 0.005213644607178957
1283.0, 0.004544044429549209
1284.0, 0.0038600602599632976
1285.0, 0.0034601398190230717
1286.0, 0.004770220924391067
1287.0, 0.005471921447866671
1288.0, 0.004214391319170299
1289.0, 0.0045147778695739564
1290.0, 0.0039359601398148815
1291.0, 0.005788666446442782
1292.0, 0.006544917465418213
1293.0, 0.006667913482864504
1294.0, 0.007599974806746359
1295.0, 0.007495220520365635
1296.0, 0.007303844264400721
1297.0, 0.007170438257531468
1298.0, 0.006906601093282472
1299.0, 0.006530727818197159
1300.0, 0.005829197011767833
1301.0, 0.005776771173580872
1302.0, 0.00580983385829425
1303.0, 0.0063850699294052205
1304.0, 0.00563302896431072
1305.0, 0.006980371498342718
1306.0, 0.005235692214404228
1307.0, 0.0065255820823493845
1308.0, 0.005733311735347681
1309.0, 0.005827650481453608
1310.0, 0.00582788626086176
1311.0, 0.005713249247545432
1312.0, 0.006211267250090225
1313.0, 0.0067238849174231915
1314.0, 0.006662626158404249
1315.0, 0.0060513155490521464
1316.0, 0.005439133056219214
1317.0, 0.005826132792795921
1318.0, 0.004281602617285367
1319.0, 0.004852489518170827
1320.0, 0.006275024694907057
1321.0, 0.004663532236477016
1322.0, 0.0073868275721288654
1323.0, 0.007332829746337957
1324.0, 0.0058630897699363
1325.0, 0.0064337257940931415
1326.0, 0.006539175935504038
1327.0, 0.0062068178648225876
1328.0, 0.006243166788602551
1329.0, 0.005522294137732186
1330.0, 0.0035837665362642955
1331.0, 0.0021467130176061012
1332.0, 0.0031270036415319865
1333.0, 0.005738474174664279
1334.0, 0.004964901053408419
1335.0, 0.004283940447886409
1336.0, 0.006332217792512236
1337.0, 0.005066139297589727
1338.0, 0.005541247910431705
1339.0, 0.004025131407299898
1340.0, 0.00400409654023024
1341.0, 0.005124449321731551
1342.0, 0.006637849138283946
1343.0, 0.006999007422996476
1344.0, 0.006488339040708671
1345.0, 0.004883840637819657
1346.0, 0.0036975197229095935
1347.0, 0.004068385595714064
1348.0, 0.004640839647767636
1349.0, 0.005120235875558389
1350.0, 0.004537373342323898
1351.0, 0.004009672606828896
1352.0, 0.00597741158650191
1353.0, 0.004921078092931542
1354.0, 0.0028300991880822633
1355.0, 0.005073804551691304
1356.0, 0.006312502820309493
1357.0, 0.005901425148786519
1358.0, 0.005573441073848353
1359.0, 0.004146060989801859
1360.0, 0.003555274906746902
1361.0, 0.004548088825685543
1362.0, 0.004412853221664123
1363.0, 0.004263859188159993
1364.0, 0.005598506487991473
1365.0, 0.0059379304831410976
1366.0, 0.00536226414798582
1367.0, 0.004880171560528039
1368.0, 0.004048385433977581
1369.0, 0.004768103127180482
1370.0, 0.006266656861858745
1371.0, 0.004760782575477053
1372.0, 0.004243017987831736
1373.0, 0.004992918141271261
1374.0, 0.004480040473115319
1375.0, 0.004062840549122736
1376.0, 0.005431695948703614
1377.0, 0.00590028810003773
1378.0, 0.004924113764721786
1379.0, 0.0043869653622334295
1380.0, 0.003952095977004779
1381.0, 0.003518532184422714
1382.0, 0.003945431795015665
1383.0, 0.003998754403777129
1384.0, 0.003032971560322045
1385.0, 0.0026560842349623564
1386.0, 0.002424037461679201
1387.0, 0.0031266575596670424
1388.0, 0.0016054662257997216
1389.0, 0.0043344747073292954
1390.0, 0.002413139244568939
1391.0, 0.0029951885824399363
1392.0, 0.0036612896094147685
1393.0, 0.0016386355939246012
1394.0, 0.0030445661213397424
1395.0, 0.003647479977719322
1396.0, 0.004037145396507949
1397.0, 0.0047926757827218055
1398.0, 0.004933414724047177
1399.0, 0.004192410054862696
1400.0, 0.004186634428699935
1401.0, 0.004972880457950293
1402.0, 0.0037360795883091547
1403.0, 0.002354404755658165
1404.0, 0.003496653835021759
1405.0, 0.0007690813647879238
1406.0, 0.003979924157214836
1407.0, 0.0030880248551431026
1408.0, 0.0045408901858457005
1409.0, 0.0033710603311544384
1410.0, 0.00398775588782453
1411.0, 0.00298394926113283
1412.0, 0.0034278011613474353
1413.0, 0.003753512387363051
1414.0, 0.004376074621309198
1415.0, 0.0033206025314399903
1416.0, 0.0024555995171394282
1417.0, 0.0030047487596536696
1418.0, 0.002415263282639509
1419.0, 0.0020286370193404483
1420.0, 0.004126139234180184
1421.0, 0.0043546404656521365
1422.0, 0.0020650200035995793
1423.0, 0.002592623982626857
1424.0, 0.0035354388104202905
1425.0, 0.0038486864169921396
1426.0, 0.0036202402108760105
1427.0, 0.004503021094767191
1428.0, 0.003120920239482828
1429.0, 0.0029406529430255485
1430.0, 0.0036878471377793038
1431.0, 0.005127972956790717
1432.0, 0.007536764036586337
1433.0, 0.006490790736230094
1434.0, 0.00673901737860006
1435.0, 0.006122433663958829
1436.0, 0.006817770966103702
1437.0, 0.0049386179310250515
1438.0, 0.0025432194315824727
1439.0, 0.0037549578066476312
1440.0, 0.004265475768332129
1441.0, 0.00401790503052399
1442.0, 0.004752013751355854
1443.0, 0.0049321538287660435
1444.0, 0.006380898665654213
1445.0, 0.0040259256350618335
1446.0, 0.0042764466038049875
1447.0, 0.004925876337961039
1448.0, 0.006530223320092198
1449.0, 0.005147084238463226
1450.0, 0.0068789740279333106
1451.0, 0.006101592893171367
1452.0, 0.005270643310867383
1453.0, 0.005664932934826958
1454.0, 0.006978445518785905
1455.0, 0.007297156558357505
1456.0, 0.007370273870145693
1457.0, 0.00741895080406076
1458.0, 0.0071675958053323665
1459.0, 0.0062533785202092485
1460.0, 0.005367488888226497
1461.0, 0.005928529107329185
1462.0, 0.005814431402954489
1463.0, 0.0038013852483177787
1464.0, 0.004605167032902504
1465.0, 0.004026175570706375
1466.0, 0.005984403797317382
1467.0, 0.006193192815303242
1468.0, 0.005021701564471733
1469.0, 0.005969140555284904
1470.0, 0.0046237151205563145
1471.0, 0.0035314342333729555
1472.0, 0.002911766988367399
1473.0, 0.005711522680940357
1474.0, 0.0017012343083164813
1475.0, 0.004055861580314158
1476.0, 0.003906446736510462
1477.0, 0.003797255206747225
1478.0, 0.004469720473376086
1479.0, 0.002910422822655525
1480.0, 0.0028556433655461447
1481.0, 0.004721749143813009
1482.0, 0.00494414041589133
1483.0, 0.004565070225108377
1484.0, 0.004291733387855459
1485.0, 0.0031349775176807626
1486.0, 0.003292902185701434
1487.0, 0.003507273610657891
1488.0, 0.0039203568452641285
1489.0, 0.004819561535869647
1490.0, 0.005336625532145835
1491.0, 0.004491751213258528
1492.0, 0.002181493860099527
1493.0, 0.001502035319444627
1494.0, 0.001446364953450593
1495.0, 0.0019181221251179117
1496.0, 0.0027354207201420663
1497.0, 0.0034251910355341123
1498.0, 0.0012619899130077218
1499.0, 0.0015812889348591113
1500.0, 0.0006745401382340435
1501.0, 3.4049601221180946e-05
1502.0, 0.0011263980543307244
1503.0, 0.001334037675224477
1504.0, 0.0016463642758115047
1505.0, 0.003423591834513055
1506.0, 0.0030802419699274357
1507.0, 0.0018438759890090136
1508.0, 0.0029389021297314966
1509.0, 0.002867916822813943
1510.0, 0.00298444268737703
1511.0, 0.0020174745131948777
1512.0, 0.0013611918735812799
1513.0, 0.0012475123364756881
1514.0, 0.0011756254856233987
1515.0, 0.0023711890008089927
1516.0, 0.0004645214774888385
1517.0, 0.00346458838313268
1518.0, 0.0014720382852138386
1519.0, 0.0011184494253512654
1520.0, 0.0013987008904082644
1521.0, 0.0013693526852948882
1522.0, 0.0007803768024171527
1523.0, 0.0016931150630249232
1524.0, 0.002012085216089832
1525.0, 0.0025827667437413795
1526.0, 0.002701640669542584
1527.0, 0.002658463498139155
1528.0, 0.002776412247181598
1529.0, 0.0028059197572996523
1530.0, 0.0027943114198792102
1531.0, 0.002827830990691519
1532.0, 0.0028684156704335655
1533.0, 0.002914172183498705
1534.0, 0.0023263240930052245
1535.0, 0.001486055062865277
1536.0, 0.0020440846855131318
1537.0, 0.0019448199806127193
1538.0, 0.002288468770555754
1539.0, 0.0009965457537746338
1540.0, 0.00041227364326988593
1541.0, 0.0017171065947676684
1542.0, 0.0023753181148195427
1543.0, 3.138769162181962e-05
1544.0, 0.002173152711712978
1545.0, 0.001574415059104301
1546.0, 0.0008711576437422282
1547.0, 0.0015430229275839214
1548.0, 0.002131134485231493
1549.0, 0.0018205485858580456
1550.0, 0.00040793525523356476
1551.0, 0.002523098806893241
1552.0, 0.005018341398978035
1553.0, 0.0044552183092852774
1554.0, 0.00535617887993539
1555.0, 0.006059288736855988
1556.0, 0.005556220422218747
1557.0, 0.0035409072367395453
1558.0, 0.0026901392372831357
1559.0, 0.001954975544198075
1560.0, 0.0003986038330770996
1561.0, 0.0012186111071152805
1562.0, 0.0012172632098219984
1563.0, 4.459898544607072e-06
1564, 0.0
1565, 0.0
1566, 0.0
1567, 0.0
1568, 0.0
1569, 0.0
1570, 0.0
1571, 0.0
1572, 0.0
1573, 0.0
1574, 0.0
1575, 0.0
1576, 0.0
1577, 0.0
1578, 0.0
1579, 0.0
1580, 0.0
1581, 0.0
1582, 0.0
1583, 0.0
1584, 0.0
1585, 0.0
1586, 0.0
1587, 0.0
1588, 0.0
1589, 0.0
1590, 0.0
1591, 0.0
1592, 0.0
1593, 0.0
1594, 0.0
1595, 0.0
1596, 0.0
1597, 0.0
1598, 0.0
1599, 0.0
