30, 0.0
31, 0.0
32, 0.0
33, 0.0
34, 0.0
35, 0.0
36, 0.0
37, 0.0
38, 0.0
39, 0.0
40, 0.0
41, 0.0
42, 0.0
43, 0.0
44, 0.0
45, 0.0
46, 0.0
47, 0.0
48, 0.0
49, 0.0
50, 0.0
51, 0.0
52, 0.0
53, 0.0
54, 0.0
55, 0.0
56, 0.0
57, 0.0
58, 0.0
59, 0.0
60, 0.0
61, 0.0
62, 0.0
63, 0.0
64, 0.0
65, 0.0
66, 0.0
67, 0.0
68, 0.0
69, 0.0
70, 0.0
71, 0.0
72, 0.0
73, 0.0
74, 0.0
75, 0.0
76, 0.0
77, 0.0
78, 0.0
79, 0.0
80, 0.0
81, 0.0
82, 0.0
83, 0.0
84, 0.0
85, 0.0
86, 0.0
87, 0.0
88, 0.0
89, 0.0
90, 0.0
91, 0.0
92, 0.0
93, 0.0
94, 0.0
95, 0.0
96, 0.0
97, 0.0
98, 0.0
99, 0.0
100, 0.0
101, 0.0
102, 0.0
103, 0.0
104, 0.0
105, 0.0
106, 0.0
107, 0.0
108, 0.0
109, 0.0
110, 0.0
111, 0.0
112, 0.0
113, 0.0
114.0, 0.00046447499850422937
115.0, 0.0003978516426836943
116.0, 0.0001735515940641403
117.0, 0.000625047607585485
118.0, 0.0006188318720770261
119.0, 0.0007108623917841108
120.0, 0.0007706224355146504
121.0, 0.0006720540062573679
122.0, 0.000564755949647276
123.0, 0.0013398546150091787
124.0, 0.0003935064425346573
125.0, 0.0008494294331236126
126.0, 0.002029311396207761
127.0, 0.0029319340773048663
128.0, 0.0026432832935118214
129.0, 0.0024824911996128123
130.0, 0.002965136233918174
131.0, 0.003586543509122644
132.0, 0.004381561861726511
133.0, 0.0055291648648526275
134.0, 0.006272409046758986
135.0, 0.006832290995969623
136.0, 0.007975592998330899
137.0, 0.009281004461567694
138.0, 0.010365644209902904
139.0, 0.01156460934348389
140.0, 0.011205756625269982
141.0, 0.013450069738612845
142.0, 0.01431645669194988
143.0, 0.013536901661809054
144.0, 0.014586972659208313
145.0, 0.013187986268506072
146.0, 0.012500244015217878
147.0, 0.011484631072072558
148.0, 0.010370098587261576
149.0, 0.009651888487971069
150.0, 0.008711133357277205
151.0, 0.007593314724502115
152.0, 0.00646968677646761
153.0, 0.005594596659072635
154.0, 0.005010160419979173
155.0, 0.004409669477326272
156.0, 0.0035111144413434046
157.0, 0.0032358040881580977
158.0, 0.0023825119162981874
159.0, 0.0018550163611962957
160.0, 0.003143849472567208
161.0, 0.002068593821022445
162.0, 0.002605931386464101
163.0, 0.001986379778265064
164.0, 0.0011997599986447226
165.0, 0.0011186717054887923
166.0, 0.00031109306108215097
167.0, 0.00023822250626154086
168.0, 0.00016922221623036203
169.0, 0.0002950927580489031
170.0, 0.0004010976033999453
171.0, 2.1605748902108968e-05
172.0, 0.0001692732260793509
173.0, 0.0007790350268032495
174.0, 0.0013058106403855073
175.0, 0.0011108935610570898
176.0, 0.00020371585157942957
177.0, 0.000544822189191167
178.0, 0.0007562561918804042
179.0, 0.00045265121874735865
180.0, 0.00029427920215601913
181.0, 0.00035620761548433384
182.0, 0.00013605907460800847
183.0, 0.0013126532196612935
184.0, 0.0023398263855063696
185.0, 0.0026836554768515293
186.0, 0.0031498058423214594
187.0, 0.004256442437858991
188.0, 0.0038778427363006076
189.0, 0.0037990260095183003
190.0, 0.0039047122700582738
191.0, 0.004256213106955639
192.0, 0.004706353629286204
193.0, 0.004922541041943328
194.0, 0.005416850749481037
195.0, 0.006058481667668365
196.0, 0.005774657757999172
197.0, 0.006007859687470394
198.0, 0.007796204305514974
199.0, 0.007727551647350885
200.0, 0.007731663748688161
201.0, 0.00858332556864009
202.0, 0.009146616132874118
203.0, 0.008719590947120798
204.0, 0.007447430580074184
205.0, 0.007598124182603093
206.0, 0.007737021854476792
207.0, 0.008959609519423897
208.0, 0.010197009200256507
209.0, 0.010333398048681072
210.0, 0.010241522659392887
211.0, 0.0105870595922286
212.0, 0.011134602719532967
213.0, 0.01124720875132338
214.0, 0.011153433557593783
215.0, 0.01182548066164875
216.0, 0.013835634081337977
217.0, 0.014355272155945778
218.0, 0.016348421440216587
219.0, 0.018895916566851793
220.0, 0.020617146206239736
221.0, 0.02152489471824014
222.0, 0.02696567432124291
223.0, 0.0318294809581289
224.0, 0.036298543043526955
225.0, 0.04125905480680488
226.0, 0.047701526359779825
227.0, 0.05526227655105964
228.0, 0.06097848932299056
229.0, 0.0693410464614139
230.0, 0.07781361035892553
231.0, 0.08483762161186244
232.0, 0.09218656311832989
233.0, 0.0928862031685273
234.0, 0.0913977037588427
235.0, 0.08645169148408402
236.0, 0.07980079514568728
237.0, 0.07322453871276843
238.0, 0.06347237644766696
239.0, 0.05451756425134826
240.0, 0.044505277979100456
241.0, 0.03630851628271448
242.0, 0.030417191238052952
243.0, 0.024920038873353097
244.0, 0.022324615754733136
245.0, 0.018427090960245054
246.0, 0.016037744472126983
247.0, 0.0157904600283188
248.0, 0.01639868960377351
249.0, 0.014217336936377995
250.0, 0.015824175707139426
251.0, 0.015016623191084945
252.0, 0.014716660031386674
253.0, 0.01542639954599709
254.0, 0.01586161134598678
255.0, 0.013617981858490379
256.0, 0.014830267720184346
257.0, 0.015223777562738294
258.0, 0.016772122683724276
259.0, 0.01823134065505213
260.0, 0.015438712654146439
261.0, 0.01741846256823803
262.0, 0.018257998155140343
263.0, 0.018134363731596877
264.0, 0.01860840178331062
265.0, 0.020430435092131195
266.0, 0.022046716258375888
267.0, 0.023341325656889428
268.0, 0.025266436512125005
269.0, 0.027134474601197316
270.0, 0.027693426783055853
271.0, 0.026378447637211453
272.0, 0.025919585055047954
273.0, 0.02264707888977632
274.0, 0.021315057466122236
275.0, 0.018680628146218996
276.0, 0.015591575821081031
277.0, 0.015818553506280832
278.0, 0.01264680562917047
279.0, 0.01000612076100596
280.0, 0.0088361250088725
281.0, 0.007495889373105014
282.0, 0.006177589023504987
283.0, 0.008117731047003501
284.0, 0.008888168146108485
285.0, 0.009618262648652136
286.0, 0.010014617079435717
287.0, 0.01127714059069853
288.0, 0.013794339853630216
289.0, 0.014870102975020305
290.0, 0.015386993783085725
291.0, 0.016871284485640327
292.0, 0.017624043627256846
293.0, 0.019091311887839583
294.0, 0.022688247275040617
295.0, 0.022377209962157845
296.0, 0.022950601272431852
297.0, 0.021641087889430408
298.0, 0.020107347810253244
299.0, 0.019090827934363726
300.0, 0.01825092435272353
301.0, 0.01842152887025841
302.0, 0.016860931166079063
303.0, 0.016653263877455148
304.0, 0.016383146476723356
305.0, 0.0164217641377747
306.0, 0.01978719987603709
307.0, 0.02325508704591108
308.0, 0.025187662095409964
309.0, 0.0261214512121198
310.0, 0.029869726958773254
311.0, 0.03625824271685098
312.0, 0.03743940087535864
313.0, 0.04343228273638744
314.0, 0.04922537673869872
315.0, 0.052471861550782005
316.0, 0.05632911061093358
317.0, 0.06180823327888915
318.0, 0.05998235565775854
319.0, 0.06396809299922791
320.0, 0.06642561223433943
321.0, 0.06830601719093812
322.0, 0.0713141408737384
323.0, 0.07595066943842284
324.0, 0.07823530607585676
325.0, 0.08452719281063062
326.0, 0.09112528965946508
327.0, 0.09924157998607129
328.0, 0.10867036572083887
329.0, 0.1187305021322883
330.0, 0.13176156611641798
331.0, 0.14706667542109192
332.0, 0.1616132612321108
333.0, 0.17546247538022383
334.0, 0.18866527904837568
335.0, 0.20072395716760152
336.0, 0.2093194103154121
337.0, 0.21198183077886282
338.0, 0.21172556225217648
339.0, 0.2079762441635603
340.0, 0.20050147501949728
341.0, 0.1896128747263035
342.0, 0.1735306689439008
343.0, 0.1556146899318408
344.0, 0.1368904627149203
345.0, 0.11908278621146907
346.0, 0.10357404649379473
347.0, 0.09073638644101095
348.0, 0.07803123326336515
349.0, 0.06610166069100859
350.0, 0.056508874262930914
351.0, 0.04957102308571533
352.0, 0.04478010381905883
353.0, 0.04094803320682267
354.0, 0.03628968135990591
355.0, 0.03193707905358503
356.0, 0.028379898145102684
357.0, 0.025974185825155094
358.0, 0.025187128476453987
359.0, 0.026117743776449556
360.0, 0.02225683279921176
361.0, 0.020608703947708255
362.0, 0.020636900446793255
363.0, 0.020109743066800377
364.0, 0.018732498671070255
365.0, 0.019178282319437696
366.0, 0.02134141801679261
367.0, 0.020855829763927393
368.0, 0.021230549237182175
369.0, 0.02211694907319415
370.0, 0.022622994052522653
371.0, 0.022686398867308933
372.0, 0.024492095601209837
373.0, 0.026768376631458604
374.0, 0.027256524001137233
375.0, 0.02771734752785424
376.0, 0.02912478078649747
377.0, 0.029992625779555703
378.0, 0.028511689982075088
379.0, 0.027569579969673377
380.0, 0.026836499422609704
381.0, 0.02517192023532189
382.0, 0.022988011157071633
383.0, 0.02215931460119869
384.0, 0.01768255184082606
385.0, 0.017664804101828357
386.0, 0.016589249917252042
387.0, 0.015621485219670215
388.0, 0.015121206110133551
389.0, 0.013417694499283794
390.0, 0.013371839011116085
391.0, 0.013173734373136023
392.0, 0.013376680865701667
393.0, 0.012657761759751562
394.0, 0.011107176766433233
395.0, 0.010120073051124695
396.0, 0.00768390610578769
397.0, 0.007960018906394879
398.0, 0.009398229627534213
399.0, 0.009428862728550138
400.0, 0.008470574717365119
401.0, 0.008985687865497452
402.0, 0.00925356333906424
403.0, 0.007671206545785981
404.0, 0.007112239832026026
405.0, 0.006956199469953753
406.0, 0.006967355103662292
407.0, 0.00738144587967349
408.0, 0.007916216251030277
409.0, 0.0066245598302452245
410.0, 0.006369303496626952
411.0, 0.006035357936841667
412.0, 0.004943638767726978
413.0, 0.0035540194604031395
414.0, 0.004121536162432132
415.0, 0.0038473119286020667
416.0, 0.003210686831762962
417.0, 0.003116921377145377
418.0, 0.0028260705409295854
419.0, 0.0015299507218940495
420.0, 0.00013880589854158997
421.0, 0.0021855866958460698
422.0, 0.0010331807294992404
423.0, 0.0003887710146187826
424.0, 0.0005794031214528171
425.0, 0.0007534655385611077
426.0, 0.0004995306770789714
427.0, 0.0009331322683857838
428.0, 0.000952118176767428
429.0, 0.0010243610353182883
430.0, 0.0009465651543601808
431.0, 0.0005932869226595583
432.0, 0.0002143303354376993
433.0, 0.0005234521090617076
434.0, 0.00045487465818192196
435.0, 0.0001819339668803318
436.0, 0.0001146342869872455
437.0, 0.00023260051277306548
438.0, 0.00024518983610528173
439.0, 0.0006168714026552916
440.0, 0.0003843971414779028
441.0, 0.00012179280572838186
442.0, 2.4089630985829405e-05
443.0, 0.0004806479157617564
444.0, 0.0012625954502155296
445.0, 0.00016814644499602222
446.0, 0.0023477758432038096
447.0, 0.0011445104526895849
448.0, 0.0016487847588268177
449.0, 0.003147837409177965
450.0, 0.0033265415233209614
451.0, 0.002171143606528799
452.0, 0.0017995573567772057
453.0, 0.00335558197837912
454.0, 0.0037370757950454113
455.0, 0.004318631554392564
456.0, 0.005101237726875533
457.0, 0.0038091059412453257
458.0, 0.0036109133700286964
459.0, 0.002641472922834643
460.0, 0.004030900975595784
461.0, 0.005100611178406224
462.0, 0.005624618494717122
463.0, 0.00694616781713807
464.0, 0.006795685939747455
465.0, 0.0052263116334683776
466.0, 0.005101904455496988
467.0, 0.005083467650536155
468.0, 0.005156619857885079
469.0, 0.005452131305495659
470.0, 0.005050379060451503
471.0, 0.00639636346254303
472.0, 0.0063002346052294395
473.0, 0.004184416600194304
474.0, 0.002418204799177191
475.0, 0.0022053644350618056
476.0, 0.0022445712568948625
477.0, 0.0007703242195894743
478.0, 0.00035332000269404216
479.0, 0.00016921546277245958
480.0, 0.0006557551650480052
481.0, 0.0015496495428427718
482.0, 0.0020051138117884904
483.0, 0.0013040680448685562
484.0, 0.0004937171030956508
485.0, 0.00034202530792217575
486.0, 0.0005768004832473883
487.0, 0.0005431285343907507
488.0, 0.0001642662843060223
489.0, 0.00030741310467267567
490.0, 0.0003644005421440406
491.0, 0.00012936678064160605
492.0, 7.55307178466193e-05
493.0, 0.0007414498993409734
494.0, 0.0013936232642990005
495.0, 0.0008949333872030595
496.0, 0.000665318849961774
497.0, 0.00023736632374910105
498.0, 0.001299243325164411
499.0, 0.0009366306376585112
500.0, 0.0008539898978157812
501.0, 0.0019331694988512736
502.0, 8.593650555390619e-05
503.0, 0.00039537385920812974
504.0, 0.0005261748354431056
505.0, 0.00046712772086943756
506.0, 0.0006380657380361479
507.0, 0.0008890823322473501
508.0, 0.0007826316686260618
509.0, 0.001247972619123106
510.0, 0.0005430450187813905
511.0, 0.0012452110442422756
512.0, 0.0026441859707749533
513.0, 0.0035612836542501525
514.0, 0.004053108688672641
515.0, 0.006117895851998559
516.0, 0.0065364189623669635
517.0, 0.007000167555340758
518.0, 0.0076012419002126535
519.0, 0.007796104124174783
520.0, 0.007536488714370942
521.0, 0.007469700615453701
522.0, 0.008635677717493132
523.0, 0.006407985608404057
524.0, 0.008203842436217112
525.0, 0.010529930836566632
526.0, 0.011272477117521515
527.0, 0.011214737695644555
528.0, 0.01356131313814379
529.0, 0.016171322804261513
530.0, 0.01943620195796541
531.0, 0.021979088583694607
532.0, 0.023497978219985567
533.0, 0.02487766079211118
534.0, 0.027293817108532747
535.0, 0.030636433697862713
536.0, 0.028743803535241166
537.0, 0.028585401795877298
538.0, 0.02838489759447011
539.0, 0.026954926302486835
540.0, 0.02444273940937839
541.0, 0.021945510972211438
542.0, 0.01873432179602609
543.0, 0.017420781447362352
544.0, 0.016614482614425777
545.0, 0.01552738185699886
546.0, 0.013779984952308458
547.0, 0.012450933605184145
548.0, 0.01403908365598312
549.0, 0.011747399176946876
550.0, 0.009525807860800808
551.0, 0.01170561277209394
552.0, 0.01214192210826851
553.0, 0.009731349072161947
554.0, 0.008252888985033255
555.0, 0.008185667376757766
556.0, 0.007674009258648564
557.0, 0.006754732602391885
558.0, 0.007347256837964243
559.0, 0.007790833105518797
560.0, 0.007780145937217495
561.0, 0.009124804388109923
562.0, 0.00955962951567036
563.0, 0.007471197599559005
564.0, 0.00721129850286416
565.0, 0.007943289416937843
566.0, 0.008337356108091453
567.0, 0.008298580549070204
568.0, 0.009343791716100334
569.0, 0.009752024298334406
570.0, 0.01013535028859412
571.0, 0.010335187080326555
572.0, 0.010280805719031571
573.0, 0.010120484843720284
574.0, 0.010025223663085567
575.0, 0.009922803570531978
576.0, 0.009682489780424224
577.0, 0.009572176973112988
578.0, 0.008278832100315272
579.0, 0.008140444225271319
580.0, 0.008352664493913824
581.0, 0.006676221742223548
582.0, 0.006037424780407536
583.0, 0.007465705515602196
584.0, 0.006739731831711517
585.0, 0.005177435314002422
586.0, 0.004623607457856401
587.0, 0.00501347205147921
588.0, 0.005165895926716272
589.0, 0.007400136939973871
590.0, 0.005573741024400048
591.0, 0.005086849806332924
592.0, 0.004036520186163711
593.0, 0.004427343257714515
594.0, 0.005924405759385519
595.0, 0.004980759564104813
596.0, 0.00445409946430073
597.0, 0.004019167194592204
598.0, 0.0037147846569941995
599.0, 0.004078787299565627
600.0, 0.004852233711666113
601.0, 0.005418004669375626
602.0, 0.005498967108374149
603.0, 0.006459202369045669
604.0, 0.006559296588550566
605.0, 0.005939370192650825
606.0, 0.006220559026770606
607.0, 0.007277011256453929
608.0, 0.007399827989744567
609.0, 0.005202620533759377
610.0, 0.0067722513167869265
611.0, 0.006147465662015932
612.0, 0.007104287401899827
613.0, 0.008001425884113756
614.0, 0.007762692056135859
615.0, 0.0071243541731528985
616.0, 0.007930593385551668
617.0, 0.0070999552889325175
618.0, 0.009821285517167795
619.0, 0.009976685855490537
620.0, 0.01053183838693249
621.0, 0.011403614946726835
622.0, 0.012053719843228224
623.0, 0.013885121780439397
624.0, 0.012525399043237287
625.0, 0.01363566411568685
626.0, 0.015085737488014122
627.0, 0.01574819791574045
628.0, 0.01605668273712169
629.0, 0.016704913257354
630.0, 0.017528201071383306
631.0, 0.018353864441072863
632.0, 0.018932298001146264
633.0, 0.020576809005648275
634.0, 0.021650661466058412
635.0, 0.022769468314559695
636.0, 0.024755686963358964
637.0, 0.027044138972271273
638.0, 0.030342793276156247
639.0, 0.03283798438179422
640.0, 0.036555098394639676
641.0, 0.04113562506849409
642.0, 0.04439493047317211
643.0, 0.047870116920315696
644.0, 0.056170672541324074
645.0, 0.061398524173312825
646.0, 0.06867603534645367
647.0, 0.07986742258700325
648.0, 0.09252907859615878
649.0, 0.10742109682559925
650.0, 0.12430495478969514
651.0, 0.14229513897677304
652.0, 0.16821577186790385
653.0, 0.18922191293408538
654.0, 0.21879894883624706
655.0, 0.24907806124155668
656.0, 0.2770469771608396
657.0, 0.30063736468491126
658.0, 0.31803238337981526
659.0, 0.3304045922406437
660.0, 0.3327121203633545
661.0, 0.32829555113550335
662.0, 0.31637104663112575
663.0, 0.298012040601902
664.0, 0.27820378279708774
665.0, 0.2624903676657191
666.0, 0.2511620469971493
667.0, 0.23913338453163538
668.0, 0.234735747680721
669.0, 0.2389867631256453
670.0, 0.24989960728570315
671.0, 0.26619012470285375
672.0, 0.2862663317886343
673.0, 0.30831148338178793
674.0, 0.3436336464423444
675.0, 0.38458954928721406
676.0, 0.41980764065489146
677.0, 0.4529503846067562
678.0, 0.4847955130888321
679.0, 0.5104865177989889
680.0, 0.5223928592487684
681.0, 0.5195332625089556
682.0, 0.5011996332425047
683.0, 0.47565207662769
684.0, 0.43646941020340013
685.0, 0.39048954320982904
686.0, 0.342525603794458
687.0, 0.2938203108155881
688.0, 0.25269027067640093
689.0, 0.21251127895812574
690.0, 0.17977398382798898
691.0, 0.15157428776542506
692.0, 0.127184995908999
693.0, 0.10829734226933507
694.0, 0.09466968052806922
695.0, 0.08129375747279324
696.0, 0.07096899245292154
697.0, 0.062384942511423014
698.0, 0.0564928415640939
699.0, 0.049948936996083645
700.0, 0.04415313147989049
701.0, 0.0404890151949443
702.0, 0.03737477812171751
703.0, 0.03337202706457345
704.0, 0.030632678335414342
705.0, 0.02873910509331916
706.0, 0.02514737184351822
707.0, 0.0232163612028669
708.0, 0.02318129070850956
709.0, 0.022072995272128023
710.0, 0.019029025507724062
711.0, 0.019006790040807506
712.0, 0.016905704635810297
713.0, 0.015345624803727623
714.0, 0.015274598476060029
715.0, 0.013912631069358554
716.0, 0.011491944272203812
717.0, 0.012135357181628748
718.0, 0.011011873123878326
719.0, 0.009743411377034454
720.0, 0.011012949519604314
721.0, 0.010413747093049916
722.0, 0.0102938378160805
723.0, 0.010331939205721603
724.0, 0.008565445192090062
725.0, 0.00719138876063697
726.0, 0.007073868300600822
727.0, 0.008804200706767004
728.0, 0.007254333910443694
729.0, 0.007700553758237624
730.0, 0.008603045509716996
731.0, 0.007552429115154911
732.0, 0.006103548070915646
733.0, 0.007044525210249058
734.0, 0.006148214359557619
735.0, 0.006024462380134134
736.0, 0.0065198708520073706
737.0, 0.006419737831022171
738.0, 0.005347260792867985
739.0, 0.004351382342220891
740.0, 0.004871316925880313
741.0, 0.004381550089425706
742.0, 0.004631657770673766
743.0, 0.004614827202548298
744.0, 0.004936461439458368
745.0, 0.004885987079811812
746.0, 0.004029122482613805
747.0, 0.0030583886941717856
748.0, 0.00336138485505228
749.0, 0.004319121846906472
750.0, 0.00472630648847908
751.0, 0.0038365001201379144
752.0, 0.0032384813103803725
753.0, 0.0027451908011498034
754.0, 0.002106105247055834
755.0, 0.0021866261508488903
756.0, 0.0035458291449328968
757.0, 0.0026330519706439914
758.0, 0.002961095178644631
759.0, 0.002717913396997765
760.0, 0.0019595656850791327
761.0, 0.0022370653131061355
762.0, 0.0035813903608387762
763.0, 0.0033494315871504974
764.0, 0.0012798125013459025
765.0, 0.0010045717816758234
766.0, 0.0014435091455357735
767.0, 0.0015469490632202569
768.0, 0.0010450426650331036
769.0, 0.000399753769323249
770.0, 0.0005570979705898832
771.0, 0.001874025386215319
772.0, 0.0003728337780814059
773.0, 0.0016645433457130507
774.0, 0.0005902813860501953
775.0, 0.0010578633835205994
776.0, 0.0013221897597685318
777.0, 0.0009904760904683404
778.0, 0.0011312475577802685
779.0, 0.0005547098185910969
780.0, 0.0009967694181310044
781.0, 0.001920096290793553
782.0, 0.0013500932409949737
783.0, 0.0011628142038459946
784.0, 0.0009091771723004798
785.0, 0.0006463434649225102
786.0, 0.000864861016502297
787.0, 0.0005926204819306841
788.0, 0.0022748669333909474
789.0, 0.0015864681354259228
790.0, 0.001497122541921146
791.0, 0.0016536801356249124
792.0, 0.0015344222208902723
793.0, 0.0011535969314477787
794.0, 0.0008297200646083158
795.0, 0.0005417319397082887
796.0, 0.0004785407254686011
797.0, 0.0007372947371392863
798.0, 0.001013910545523213
799.0, 0.001537343121636356
800.0, 0.0011955150520128555
801.0, 0.0009122298721849796
802.0, 0.0015800723106771915
803.0, 0.00015188587305884997
804.0, 0.0018159835016829228
805.0, 0.0009386152918560823
806.0, 0.0007150705756165929
807.0, 0.0014449538897944288
808.0, 0.0014944515042837354
809.0, 0.0006401358766593042
810.0, 0.00012500245371639316
811.0, 0.0003946649697166222
812.0, 0.0008705221013328529
813.0, 0.0011412007987831128
814.0, 0.0005245255019871223
815.0, 0.00021581323477802016
816.0, 0.0006852166194319614
817.0, 0.0012088896637201733
818.0, 0.0009605526104501561
819.0, 0.00033488533305780615
820.0, 0.00043286914439613156
821.0, 0.0005148641979821214
822.0, 0.0011943938425367899
823.0, 0.002644196434063019
824.0, 0.002003995479551925
825.0, 0.00039817628561065213
826.0, 0.0008764465196965818
827.0, 0.0028813846807539184
828.0, 0.00012239265209960007
829.0, 0.0003393011761548362
830.0, 0.0011584470411616418
831.0, 0.0011985725776410745
832.0, 0.000834567036804763
833.0, 0.00123561099843083
834.0, 0.0016871417122841983
835.0, 0.0009159637912013068
836.0, 0.0026438233482708076
837.0, 0.002465063370024376
838.0, 0.0009586532874569883
839.0, 0.0009130754376404001
840.0, 0.000960360205270671
841.0, 0.0006978700918128483
842.0, 0.0005618011441586352
843.0, 0.001105045711375058
844.0, 0.002187448128038113
845.0, 0.0001346048392219005
846.0, 0.0020844049203724417
847.0, 0.0015153726526463407
848.0, 0.0010058301958967425
849.0, 0.001425944315846919
850.0, 0.00177547287596066
851.0, 0.002011301237096139
852.0, 0.0035088989365666128
853.0, 0.0026578293262078884
854.0, 0.0026137721996264203
855.0, 0.0036358347392958486
856.0, 0.0036178871978747454
857.0, 0.003924805720951263
858.0, 0.004840116779926279
859.0, 0.004866494058615114
860.0, 0.003472022514462972
861.0, 0.004021596015008852
862.0, 0.0036492022002233586
863.0, 0.003230035899126959
864.0, 0.004627904240308647
865.0, 0.004255126476647446
866.0, 0.003978584959919924
867.0, 0.0041752157662618165
868.0, 0.003733436088703117
869.0, 0.0032058269063343007
870.0, 0.002932862438455864
871.0, 0.0023309260871768557
872.0, 0.0016846323492745489
873.0, 0.0011838521500041168
874.0, 0.0013419057696652896
875.0, 0.0014410997070884752
876.0, 0.0015386638964101167
877.0, 0.0020871287109365108
878.0, 0.0015991742565310773
879.0, 0.0006514243219640538
880.0, 0.0011323745477063295
881.0, 0.0008637044115781087
882.0, 0.0013140992273749112
883.0, 0.0017933749927297761
884.0, 0.002349285304798927
885.0, 0.0027317669412579254
886.0, 0.0023295291709095473
887.0, 0.0034089318971819325
888.0, 0.00125312398247552
889.0, 0.001670746037616611
890.0, 0.002239930451306826
891.0, 0.002855198785628695
892.0, 0.0028508717165249453
893.0, 0.002151296313745834
894.0, 0.0016172425406881714
895.0, 0.0022506934017069557
896.0, 0.003941723557014488
897.0, 0.0012755566657335125
898.0, 0.002708097816122179
899.0, 0.0028439562865041246
900.0, 0.001298249053899216
901.0, 0.001517128196042653
902.0, 0.002872662043863314
903.0, 0.0025250724960934755
904.0, 0.002409947429604649
905.0, 0.0029709001950422842
906.0, 0.0029971673348901844
907.0, 0.0035332315533063894
908.0, 0.003633046264388536
909.0, 0.00473304962059601
910.0, 0.005582236297262269
911.0, 0.005486778048948347
912.0, 0.006134927425036246
913.0, 0.008298305024569482
914.0, 0.005115196608626926
915.0, 0.0063308607272274655
916.0, 0.006311288829958939
917.0, 0.008428212935173762
918.0, 0.010725931432893715
919.0, 0.010997250017146973
920.0, 0.010988820236603185
921.0, 0.01268658031899007
922.0, 0.01270001458265482
923.0, 0.015815313619454978
924.0, 0.016963668642260187
925.0, 0.019191982561387145
926.0, 0.02182609021140426
927.0, 0.025147701181552316
928.0, 0.028146373464355
929.0, 0.030855694226436282
930.0, 0.0339811979730904
931.0, 0.036629899818433044
932.0, 0.041165932742578945
933.0, 0.04473734168196604
934.0, 0.0468856777931141
935.0, 0.05054911117225688
936.0, 0.052161321134349
937.0, 0.052897050756861866
938.0, 0.05297520588564151
939.0, 0.05071467306629432
940.0, 0.047814980661799344
941.0, 0.04773167348271534
942.0, 0.043880996854858335
943.0, 0.040825613827116726
944.0, 0.03680307981986783
945.0, 0.033757492843817086
946.0, 0.031216933184967707
947.0, 0.028753674373419705
948.0, 0.02666144208378178
949.0, 0.024825358684421085
950.0, 0.02324997373889222
951.0, 0.021823133561091206
952.0, 0.0210298221012333
953.0, 0.020114393639462935
954.0, 0.019511118957739267
955.0, 0.018621979655554174
956.0, 0.018201915675531078
957.0, 0.01841418715954169
958.0, 0.017666509491481092
959.0, 0.01608647390290981
960.0, 0.01750996959170642
961.0, 0.016207503395312878
962.0, 0.014613321934825913
963.0, 0.014931795188124264
964.0, 0.014823810573243296
965.0, 0.01470829599446397
966.0, 0.015464770775226115
967.0, 0.01642488137781884
968.0, 0.01701013724194593
969.0, 0.017295350891406488
970.0, 0.01763498230477608
971.0, 0.018692762449432472
972.0, 0.01941373439241811
973.0, 0.020462428441259145
974.0, 0.021416718829220284
975.0, 0.022944605140307196
976.0, 0.025068403748129055
977.0, 0.026644988499842304
978.0, 0.029384605718633713
979.0, 0.030635030769204513
980.0, 0.033328340810071085
981.0, 0.034580629795916085
982.0, 0.03821745392576459
983.0, 0.042434741218732086
984.0, 0.04615190213686062
985.0, 0.05114467432704999
986.0, 0.05808073928420618
987.0, 0.06438066832022014
988.0, 0.073365653701858
989.0, 0.08243056203325841
990.0, 0.09395363673457861
991.0, 0.10822850688003831
992.0, 0.12486007811362267
993.0, 0.1467622755985023
994.0, 0.1725149692485649
995.0, 0.20165346186356362
996.0, 0.23723490493286448
997.0, 0.2788641400430129
998.0, 0.32392753206416713
999.0, 0.387193497735779
1000.0, 0.45542293289630964
1001.0, 0.5424229791889629
1002.0, 0.6340059065901682
1003.0, 0.728540171873036
1004.0, 0.8185945676305063
1005.0, 0.8983145173398377
1006.0, 0.9655301454634491
1007.0, 0.9995266488795229
1008.0, 0.9953006893077871
1009.0, 0.9548834601568372
1010.0, 0.894692751634366
1011.0, 0.7987586433419148
1012.0, 0.6987510176373445
1013.0, 0.606583842463175
1014.0, 0.5254397860660932
1015.0, 0.45466763374149316
1016.0, 0.39221199461994694
1017.0, 0.3466417462037102
1018.0, 0.3039880874484005
1019.0, 0.2771783158639921
1020.0, 0.25379383282140633
1021.0, 0.2339470473867601
1022.0, 0.21702896000504418
1023.0, 0.2015285857886695
1024.0, 0.18756704655399997
1025.0, 0.1769296796867141
1026.0, 0.168891158046512
1027.0, 0.15767234702807478
1028.0, 0.14679881543372533
1029.0, 0.14045245799694792
1030.0, 0.13149045229590725
1031.0, 0.1219132603020116
1032.0, 0.11310143294829136
1033.0, 0.10568698222991287
1034.0, 0.09769643952283487
1035.0, 0.0888091985438423
1036.0, 0.0816816628907623
1037.0, 0.07610764347087137
1038.0, 0.06785688986670411
1039.0, 0.06191023714811979
1040.0, 0.05905456048364438
1041.0, 0.053672163914747134
1042.0, 0.04842254219358433
1043.0, 0.04447188166936175
1044.0, 0.04142285442433789
1045.0, 0.03790117817742729
1046.0, 0.03396146615194797
1047.0, 0.03170018543832975
1048.0, 0.028944573261209243
1049.0, 0.026987870605663298
1050.0, 0.024547526118805247
1051.0, 0.024560118757059653
1052.0, 0.02270257371909589
1053.0, 0.019221938756651465
1054.0, 0.017676221745955338
1055.0, 0.01698314742039962
1056.0, 0.01565002716722189
1057.0, 0.015205003092460537
1058.0, 0.012152462360330754
1059.0, 0.01379898307266391
1060.0, 0.013730921289978326
1061.0, 0.011187064173956485
1062.0, 0.01205857895182909
1063.0, 0.012395338204432147
1064.0, 0.010582637035193266
1065.0, 0.008567092258960868
1066.0, 0.006780085533562156
1067.0, 0.005684910878900349
1068.0, 0.007984986614269055
1069.0, 0.0070181228122789055
1070.0, 0.008117539613117076
1071.0, 0.005593749270953333
1072.0, 0.005758088829264775
1073.0, 0.004731084643592303
1074.0, 0.004982524106371027
1075.0, 0.005686278670142936
1076.0, 0.005718507976789014
1077.0, 0.004936079229137992
1078.0, 0.003953589142320304
1079.0, 0.0043744246008310585
1080.0, 0.0042727664757163455
1081.0, 0.004025924879335901
1082.0, 0.004824683621847005
1083.0, 0.004534319354260713
1084.0, 0.004024110018170605
1085.0, 0.00444504614757031
1086.0, 0.003998131906161028
1087.0, 0.0033311540659384693
1088.0, 0.00373046326981331
1089.0, 0.003854602956949762
1090.0, 0.0034611150790841484
1091.0, 0.0032916246903371086
1092.0, 0.002442101287986635
1093.0, 0.002412016230174915
1094.0, 0.002956112512516632
1095.0, 0.0029824482332528666
1096.0, 0.003293584245487134
1097.0, 0.003169717752708274
1098.0, 0.002927865319191357
1099.0, 0.0029528481850817578
1100.0, 0.002126219358337604
1101.0, 0.0008013174343124792
1102.0, 0.0017442651279507132
1103.0, 0.0015727277725839232
1104.0, 0.0038438056264802093
1105.0, 0.003828331939762972
1106.0, 0.003799499502100457
1107.0, 0.0027010676223631026
1108.0, 0.0014981243270538434
1109.0, 0.0022666242476119154
1110.0, 0.003491644425979675
1111.0, 0.002751661858981873
1112.0, 0.002863387417614776
1113.0, 0.002998561889324822
1114.0, 0.003464347551053739
1115.0, 0.004173780249823689
1116.0, 0.0031346593119982082
1117.0, 0.004286487915507119
1118.0, 0.0035777020728404735
1119.0, 0.0026048227669103184
1120.0, 0.0035971835196490108
1121.0, 0.004872684148291904
1122.0, 0.003670397289503019
1123.0, 0.001967120865806729
1124.0, 0.004999050240919908
1125.0, 0.005047260287669074
1126.0, 0.0032694173397253322
1127.0, 0.004964182507312479
1128.0, 0.0038054410010765725
1129.0, 0.003107929558043996
1130.0, 0.0014728607189986296
1131.0, 0.0021042167205260623
1132.0, 0.003056280702530723
1133.0, 0.002129915578306274
1134.0, 0.0020144719535835245
1135.0, 0.0013906143573801874
1136.0, 0.0009489802593508784
1137.0, 0.00011263338917828053
1138.0, 0.001186525215101636
1139.0, 0.0010929290958628887
1140.0, 0.0023801400890946693
1141.0, 0.0033572952903586674
1142.0, 0.003042722651435436
1143.0, 0.0021834443774529553
1144.0, 0.001552918870192261
1145.0, 0.0017569672163337052
1146.0, 0.0024534572938677422
1147.0, 0.0013826943334066817
1148.0, 0.0021076983662878888
1149.0, 0.001164122866716227
1150.0, 0.002730878300381908
1151.0, 0.003112422259405355
1152.0, 0.001979689829658364
1153.0, 0.0014621357832493164
1154.0, 0.0025263529816375373
1155.0, 0.0018513058100323584
1156.0, 0.0006499706276115169
1157.0, 0.001400886091593825
1158.0, 0.0011628776324206854
1159.0, 0.0005117983147475547
1160.0, 0.002039254433421171
1161.0, 0.003081659377527038
1162.0, 0.00160459735142531
1163.0, 0.0018695889476109673
1164.0, 0.0021624499229080936
1165.0, 0.0018167614822406605
1166.0, 0.0012801203151882993
1167.0, 0.0006225402906649556
1168.0, 0.0002113800892948054
1169.0, 0.0005733677432978848
1170.0, 0.0009671341535800334
1171.0, 0.0002308876908623147
1172.0, 0.0006621574830622404
1173.0, 0.00041512531368474
1174.0, 0.0007029105753393327
1175.0, 0.0002024160285141146
1176.0, 0.0016925449180764177
1177.0, 0.000991150584665699
1178.0, 0.00032062737707293855
1179.0, 0.00042639276243807756
1180.0, 0.0019073294278397082
1181.0, 0.0027099886449473433
1182.0, 0.001533177295774978
1183.0, 0.0021929938196835488
1184.0, 0.0015704151309869027
1185.0, 0.00022041501081738178
1186.0, 0.002602513149233746
1187.0, 0.00045450866099817184
1188.0, 0.0013454924858778625
1189.0, 0.0006257088455840632
1190.0, 0.0013450217950028713
1191.0, 0.0013577843501911071
1192.0, 0.0007294597645576228
1193.0, 0.0006101239660343761
1194.0, 0.0006008136650824494
1195.0, 0.00033954138736722104
1196.0, 0.0006160321573319414
1197.0, 0.0016734112218025304
1198.0, 0.0007008112090143227
1199.0, 0.00029257616639762616
1200.0, 0.002536358844388233
1201.0, 0.0011844031543372625
1202.0, 0.0012306372984045165
1203.0, 0.000891138957640588
1204.0, 0.0003238105967258724
1205.0, 0.0003400630363994025
1206.0, 0.0005086853720130973
1207.0, 0.0008114112008405067
1208.0, 0.0014165518478190657
1209.0, 0.0007244139299928294
1210.0, 0.00017359970877688037
1211.0, 0.0011838465298269394
1212.0, 0.00048254067081077823
1213.0, 0.0013300283204790723
1214.0, 0.0009512032028112158
1215.0, 0.0007681334085408804
1216.0, 0.001132077963862771
1217.0, 0.0009967676924686345
1218.0, 0.0011363853078889682
1219.0, 0.0009106710561485999
1220.0, 0.00018587429412032308
1221.0, 0.0002521464154121819
1222.0, 9.089018821653721e-05
1223.0, 0.00029520610564078893
1224.0, 0.0002534586310052704
1225.0, 0.0010096832886833515
1226.0, 0.0006426627036433154
1227.0, 0.0004658863036935704
1228.0, 0.0002708618838568565
1229.0, 0.00249703454993413
1230.0, 0.0024377743404911992
1231.0, 0.0013165048204143983
1232.0, 0.0006905196516555771
1233.0, 0.0005876390055170105
1234.0, 0.0007127605062383456
1235.0, 0.0005223278001340998
1236.0, 0.0008888704785092233
1237.0, 0.0003468197233169262
1238.0, 0.0006027915315678883
1239.0, 0.0014644725041208341
1240.0, 0.0027965945920985745
1241.0, 0.0030708147099242807
1242.0, 0.0009581939920415804
1243.0, 0.002904403080976211
1244.0, 0.0028061232972781706
1245.0, 0.0010716846356062328
1246.0, 0.0006783676632437165
1247.0, 0.001481135088597355
1248.0, 0.001893803651481486
1249.0, 0.0016326910367025368
1250.0, 0.002354768743053237
1251.0, 0.001196755050963437
1252.0, 0.0038866536689431247
1253.0, 0.0008565651651489977
1254.0, 0.0017512106575942805
1255.0, 0.0015607617491966053
1256.0, 0.0014075545254460286
1257.0, 0.0005207802775532458
1258.0, 0.0005909222740741199
1259.0, 0.001886554556352236
1260.0, 0.0018549638185106374
1261.0, 0.001284811547678522
1262.0, 0.00213157653585687
1263.0, 0.0022701146493677325
1264.0, 0.001596921777631147
1265.0, 0.00285094666325153
1266.0, 0.0033688309673748874
1267.0, 0.004440183677397249
1268.0, 0.0015375953207039973
1269.0, 0.0004184036557721518
1270.0, 0.0023145488367511116
1271.0, 0.0027081532986828714
1272.0, 0.0030712972493832434
1273.0, 0.0027470767595700256
1274.0, 0.0019060015348696785
1275.0, 0.0016085086936651366
1276.0, 0.0015804843108335534
1277.0, 0.001824499281804616
1278.0, 0.0027503922250120983
1279.0, 0.0021484371581927766
1280.0, 0.003148677082327607
1281.0, 0.004656520069702302
1282.0, 0.0036087684973386634
1283.0, 0.003647156699469335
1284.0, 0.0039043234465583453
1285.0, 0.0027323944036333233
1286.0, 0.002797282149664696
1287.0, 0.0028595326544499475
1288.0, 0.003435657235717696
1289.0, 0.0027059300036601677
1290.0, 0.0028105761765643686
1291.0, 0.004225297472018315
1292.0, 0.0036950831967859517
1293.0, 0.00322853292229609
1294.0, 0.003970780424170139
1295.0, 0.0024547538247685257
1296.0, 0.003264794000570864
1297.0, 0.002847944495462731
1298.0, 0.0026838697973859335
1299.0, 0.0024763808401649366
1300.0, 0.0025590701013589673
1301.0, 0.002238172109078614
1302.0, 0.0018364281143432915
1303.0, 0.0036396076272440466
1304.0, 0.0030084545723512504
1305.0, 0.0025250599179353645
1306.0, 0.003775713809987738
1307.0, 0.003465806574736383
1308.0, 0.002829062594574536
1309.0, 0.0033766213638674086
1310.0, 0.0036877569034006524
1311.0, 0.004285287865442352
1312.0, 0.004046225382480189
1313.0, 0.004473869413406522
1314.0, 0.0030719174932661852
1315.0, 0.0030650250019512723
1316.0, 0.004607842592224886
1317.0, 0.00433019431155911
1318.0, 0.005250444854824519
1319.0, 0.004508503402179725
1320.0, 0.003669166640718858
1321.0, 0.004053634098566817
1322.0, 0.004601726706395144
1323.0, 0.004161448135143938
1324.0, 0.0033851323088535342
1325.0, 0.0037858062128530447
1326.0, 0.002882987206536595
1327.0, 0.00415901048517975
1328.0, 0.002004331500044602
1329.0, 0.0033910144600888432
1330.0, 0.004300500572888379
1331.0, 0.003940067737867615
1332.0, 0.004544108712093944
1333.0, 0.004431554833822052
1334.0, 0.005511984551930366
1335.0, 0.004935860849543126
1336.0, 0.003743202974699479
1337.0, 0.00415830720608989
1338.0, 0.004491030796884588
1339.0, 0.0038661473026397847
1340.0, 0.0037581751848758367
1341.0, 0.0034519809203268866
1342.0, 0.0028031138787983773
1343.0, 0.0040001177542515805
1344.0, 0.0027067930077983413
1345.0, 0.004377740258964123
1346.0, 0.004339949102613698
1347.0, 0.004373964723999044
1348.0, 0.0020500211373992066
1349.0, 0.0033896734081834776
1350.0, 0.0023501366290863803
1351.0, 0.0027778715978671025
1352.0, 0.002007141483112651
1353.0, 0.0026547083028268643
1354.0, 0.003474830296657015
1355.0, 0.002960664313449964
1356.0, 0.002977643521993395
1357.0, 0.0038230406451776147
1358.0, 0.0035409754935868997
1359.0, 0.002661519939115648
1360.0, 0.002787386544641235
1361.0, 0.0023656143429413123
1362.0, 0.005071520713399566
1363.0, 0.0014011694711362345
1364.0, 0.004106391612428179
1365.0, 0.003481902950910362
1366.0, 0.002930702926539893
1367.0, 0.002311899084250374
1368.0, 0.0017716073585523104
1369.0, 0.0017084559126821048
1370.0, 0.0016670190870030563
1371.0, 0.0017601422580425252
1372.0, 0.0020112999893212437
1373.0, 0.0030700052376338707
1374.0, 0.0033305465231385206
1375.0, 0.0021915419219497943
1376.0, 0.0015105601244797796
1377.0, 0.001232694719178893
1378.0, 0.00238679806258372
1379.0, 0.0021576930406561356
1380.0, 0.0018899639988351165
1381.0, 0.0038926124250956966
1382.0, 0.0015575116575242002
1383.0, 0.0016957061652911234
1384.0, 0.0036734290279985165
1385.0, 0.0011726077208465031
1386.0, 0.000541919586843979
1387.0, 0.0013801458436585752
1388.0, 0.0010928382271106556
1389.0, 0.002642068741131081
1390.0, 0.0021191998789785436
1391.0, 0.0007967366675686011
1392.0, 0.0013887348720380058
1393.0, 0.0018257828152752494
1394.0, 0.0013951516990117012
1395.0, 0.00233476553310775
1396.0, 0.003650809230792384
1397.0, 0.0027886567057996275
1398.0, 0.0022413216415704896
1399.0, 0.0035079791982017936
1400.0, 0.00063532801389538
1401.0, 0.004451872909610501
1402.0, 0.0016704328544817212
1403.0, 0.00022718954034718609
1404.0, 0.0029932130676173898
1405.0, 0.0015201323021911493
1406.0, 0.0016192296628770562
1407.0, 0.0014966183666732277
1408.0, 0.0014016300795404552
1409.0, 0.0015312189955262057
1410.0, 0.0023445466707301427
1411.0, 0.001922531646253107
1412.0, 0.0016415011784882466
1413.0, 0.001363815536250718
1414.0, 0.0004283961911158177
1415.0, 0.001594800437535795
1416.0, 0.0034687869329159673
1417.0, 0.0032537661585739664
1418.0, 0.001539045365355659
1419.0, 0.002662491302920044
1420.0, 0.0011922654886739371
1421.0, 0.0014735582924331003
1422.0, 0.0013786745388159488
1423.0, 0.001588758616856641
1424.0, 0.004437195500367783
1425.0, 0.0017346219531041167
1426.0, 0.0023781406303094808
1427.0, 0.003729833632636659
1428.0, 0.0021420817237865148
1429.0, 0.0030522372407668147
1430.0, 0.0037238460432420096
1431.0, 0.002098578740014949
1432.0, 0.0013302216061607595
1433.0, 0.003019490434026202
1434.0, 0.004047913001422928
1435.0, 0.005045373062874642
1436.0, 0.005894793796481633
1437.0, 0.0030001035993449674
1438.0, 0.0024991554467583277
1439.0, 0.0038712354672178853
1440.0, 0.003831936165882006
1441.0, 0.004995563744096367
1442.0, 0.0041533065984573495
1443.0, 0.0025108549910842237
1444.0, 0.0018698650675555775
1445.0, 0.002946190134779452
1446.0, 0.002423760901813558
1447.0, 0.0030527895342207503
1448.0, 0.0035227936850254432
1449.0, 0.0036235079492110836
1450.0, 0.0034583858214895648
1451.0, 0.0031630999623932098
1452.0, 0.0025858197471245567
1453.0, 0.0021844252747574952
1454.0, 0.0019279101508942803
1455.0, 0.0018333386571365061
1456.0, 0.0027804878843068494
1457.0, 0.003667209537776056
1458.0, 0.0028197679889156615
1459.0, 0.001667194017117588
1460.0, 0.00312712186329523
1461.0, 0.0048209227919959255
1462.0, 0.002025446452110803
1463.0, 0.006486131707925261
1464.0, 0.002466170035101416
1465.0, 0.005236376401518315
1466.0, 0.003565123652314235
1467.0, 0.004200188023221268
1468.0, 0.004712734768921331
1469.0, 0.0041352539130611495
1470.0, 0.005169930896157466
1471.0, 0.004528271972996049
1472.0, 0.0062606685072886265
1473.0, 0.005310674655998163
1474.0, 0.0037174623011715516
1475.0, 0.003957161576443012
1476.0, 0.0054369203394010685
1477.0, 0.004638157998489933
1478.0, 0.003469131293877253
1479.0, 0.004002144776774318
1480.0, 0.0036923366455790373
1481.0, 0.00410224357518783
1482.0, 0.005442281905351235
1483.0, 0.003780185511112967
1484.0, 0.0021793456937351293
1485.0, 0.004122797542828346
1486.0, 0.005167254605679942
1487.0, 0.0046012775584494195
1488.0, 0.005781890760266248
1489.0, 0.004467154531275504
1490.0, 0.0035464780559945905
1491.0, 0.00437153441333216
1492.0, 0.002774568303258716
1493.0, 0.003058483078487993
1494.0, 0.005451024573439944
1495.0, 0.003811770872332255
1496.0, 0.004671927788800696
1497.0, 0.005339617621791699
1498.0, 0.0032792135232100825
1499.0, 0.0022531022923336723
1500.0, 0.003363352250175781
1501.0, 0.004693236669674091
1502.0, 0.005212756604512784
1503.0, 0.0043916219347288656
1504.0, 0.002915637567456849
1505.0, 0.002351212738146685
1506.0, 0.0011909868305382781
1507.0, 0.002822288429261066
1508.0, 0.004438433390657319
1509.0, 0.003458354611146881
1510.0, 0.0026380315967983333
1511.0, 0.0025950111851998853
1512.0, 0.004650459708165387
1513.0, 0.005229686522684625
1514.0, 0.003616768599154206
1515.0, 0.0031130314787842076
1516.0, 0.0040496946150454455
1517.0, 0.004027598269007313
1518.0, 0.006175842477370341
1519.0, 0.003920384374098966
1520.0, 0.004026988331742724
1521.0, 0.00033378609189413876
1522.0, 0.0035118498829249537
1523.0, 0.0046419327739919474
1524.0, 0.0039983407717722776
1525.0, 0.0030460507773111805
1526.0, 0.003055265667861582
1527.0, 0.005101450177953104
1528.0, 0.005186274512129235
1529.0, 0.0038542068263183902
1530.0, 0.004134333596731302
1531.0, 0.003622382024975485
1532.0, 0.0018590686304816924
1533.0, 0.0025086017972518753
1534.0, 0.002597346510907734
1535.0, 0.002822782040223243
1536.0, 0.0034656777538058063
1537.0, 0.0030060042507932695
1538.0, 0.0014400858579130087
1539.0, 0.0013804928566505798
1540.0, 0.0025316399403786114
1541.0, 0.001608259403209187
1542.0, 0.00021679290899791927
1543.0, 0.0008310746795359545
1544.0, 0.001254975782203153
1545.0, 0.000787784790416022
1546.0, 0.000610005837131264
1547.0, 0.0013511513748889082
1548.0, 0.00250657233634715
1549.0, 0.0030157129971948703
1550.0, 0.004928435851101101
1551.0, 0.0036262643529174354
1552.0, 0.0015188732250018488
1553.0, 0.0004562855170731449
1554.0, 0.0016546716871544671
1555.0, 0.0012417232018490697
1556.0, 0.0019691303467850225
1557.0, 0.002385978222820131
1558.0, 0.0015827160790197073
1559.0, 0.0030444828011871265
1560.0, 0.003337067029271952
1561.0, 0.003168345954306223
1562.0, 0.0036270445587767218
1563.0, 0.003613671448690867
1564.0, 0.004222911773967774
1565.0, 0.003479393161659472
1566.0, 0.0017228844168879155
1567.0, 0.00037125482564750697
1568.0, 0.0013307742126002272
1569.0, 0.001594739501635105
1570.0, 0.0005250966739351656
1571, 0.0
1572, 0.0
1573, 0.0
1574, 0.0
1575, 0.0
1576, 0.0
1577, 0.0
1578, 0.0
1579, 0.0
1580, 0.0
1581, 0.0
1582, 0.0
1583, 0.0
1584, 0.0
1585, 0.0
1586, 0.0
1587, 0.0
1588, 0.0
1589, 0.0
1590, 0.0
1591, 0.0
1592, 0.0
1593, 0.0
1594, 0.0
1595, 0.0
1596, 0.0
1597, 0.0
1598, 0.0
1599, 0.0
