30, 0.0
31, 0.0
32, 0.0
33, 0.0
34, 0.0
35, 0.0
36, 0.0
37, 0.0
38, 0.0
39, 0.0
40, 0.0
41, 0.0
42, 0.0
43, 0.0
44, 0.0
45, 0.0
46, 0.0
47, 0.0
48, 0.0
49, 0.0
50, 0.0
51, 0.0
52, 0.0
53, 0.0
54, 0.0
55, 0.0
56, 0.0
57, 0.0
58, 0.0
59, 0.0
60, 0.0
61, 0.0
62, 0.0
63, 0.0
64, 0.0
65, 0.0
66, 0.0
67, 0.0
68, 0.0
69, 0.0
70, 0.0
71, 0.0
72, 0.0
73, 0.0
74, 0.0
75, 0.0
76, 0.0
77, 0.0
78, 0.0
79, 0.0
80, 0.0
81, 0.0
82, 0.0
83, 0.0
84, 0.0
85, 0.0
86, 0.0
87, 0.0
88, 0.0
89, 0.0
90, 0.0
91, 0.0
92, 0.0
93, 0.0
94, 0.0
95, 0.0
96, 0.0
97, 0.0
98, 0.0
99, 0.0
100, 0.0
101, 0.0
102, 0.0
103, 0.0
104, 0.0
105, 0.0
106, 0.0
107, 0.0
108, 0.0
109, 0.0
110, 0.0
111, 0.0
112, 0.0
113, 0.0
114.0, 1.7252362300786123e-05
115.0, 0.005569385860332169
116.0, 0.018595329520184847
117.0, 0.03863920406791622
118.0, 0.06461533221926423
119.0, 0.09491654059869224
120.0, 0.13137967509831283
121.0, 0.17471457315660505
122.0, 0.22641226420091157
123.0, 0.29189127900561046
124.0, 0.3832475449940776
125.0, 0.4716101135071606
126.0, 0.5508021314757618
127.0, 0.6117675489001403
128.0, 0.6405785066816767
129.0, 0.6079228289319601
130.0, 0.5532739544505488
131.0, 0.4865229315278098
132.0, 0.41544045092042414
133.0, 0.34586590837448117
134.0, 0.2790896031175365
135.0, 0.2208254501779249
136.0, 0.17716714570634534
137.0, 0.1442198667613203
138.0, 0.11705175396867983
139.0, 0.09468461896940482
140.0, 0.07853609563844442
141.0, 0.06493657762235525
142.0, 0.053969386642558584
143.0, 0.044453890528156174
144.0, 0.03411903339404546
145.0, 0.025574982133117007
146.0, 0.01863803265799475
147.0, 0.012499417617067425
148.0, 0.0074874994747187165
149.0, 0.0040875770460115125
150.0, 0.0017198367602854288
151.0, 0.0005677234645184236
152.0, 0.0022403673203149335
153.0, 0.003619511769340073
154.0, 0.003000562144085632
155.0, 0.0020791670088651662
156.0, 0.0026776717856292842
157.0, 0.003953296374203434
158.0, 0.003662166151749931
159.0, 0.0030543619334969753
160.0, 0.004469568109816075
161.0, 0.0014419883702539208
162.0, 0.0012597760114105793
163.0, 0.0009017254337787694
164.0, 0.0010416189631267771
165.0, 0.002206323902994124
166.0, 0.002669349622294092
167.0, 0.004066227189123811
168.0, 0.003980145416409178
169.0, 0.004205953398045951
170.0, 0.0049400120857594106
171.0, 0.004946616591589395
172.0, 0.0048750366254213095
173.0, 0.004224501169803454
174.0, 0.00509609849960938
175.0, 0.006556795741567064
176.0, 0.006906623739030892
177.0, 0.005080528911470127
178.0, 0.006327957668351806
179.0, 0.007443461143091531
180.0, 0.009584544654697748
181.0, 0.012423135508513605
182.0, 0.01405639741130113
183.0, 0.01725867254387
184.0, 0.020745098267559218
185.0, 0.0227127201047327
186.0, 0.024363341046156794
187.0, 0.026734023121602918
188.0, 0.026467129787222106
189.0, 0.027094592532607324
190.0, 0.02645290152959763
191.0, 0.025237539834056463
192.0, 0.02446620044624486
193.0, 0.025048591913001184
194.0, 0.02659545589292837
195.0, 0.02678991423492031
196.0, 0.02626667600541578
197.0, 0.02602966997335341
198.0, 0.026596677378488826
199.0, 0.026449376549552945
200.0, 0.024996744594366307
201.0, 0.024283545124591313
202.0, 0.02245064185389703
203.0, 0.0188915933482453
204.0, 0.014723083246243624
205.0, 0.01076902421694342
206.0, 0.009375842978367424
207.0, 0.007233970179770528
208.0, 0.00480176878056842
209.0, 0.0032801990048922447
210.0, 0.0022626388493417783
211.0, 0.0022933335936090424
212.0, 0.0016774856354357219
213.0, 0.001038694583819296
214.0, 0.001127034358552726
215.0, 0.002409485632284186
216.0, 0.0033824806629576655
217.0, 0.004529264176980684
218.0, 0.0043967083505035915
219.0, 0.00536491675457675
220.0, 0.008774470849763103
221.0, 0.011467484516231646
222.0, 0.014498970232152986
223.0, 0.019036152060103808
224.0, 0.024502959551390847
225.0, 0.030490745152912124
226.0, 0.0368190008974092
227.0, 0.043661959255703424
228.0, 0.05079114882727084
229.0, 0.0609142107162555
230.0, 0.07251822156265648
231.0, 0.08312381849475227
232.0, 0.09033082989537214
233.0, 0.09463710165594778
234.0, 0.0923217931416615
235.0, 0.08465251915070211
236.0, 0.07407073555539202
237.0, 0.06277662234952634
238.0, 0.05010114242501996
239.0, 0.038569605873182075
240.0, 0.028813401029496134
241.0, 0.019373894683844723
242.0, 0.01126755649665825
243.0, 0.007436030609263798
244.0, 0.004702466501072297
245.0, 0.0015613925383874208
246.0, 0.0019935828748010036
247.0, 0.0037923621456533276
248.0, 0.004482076536230671
249.0, 0.004540260767350659
250.0, 0.004894321927888278
251.0, 0.005117526613229324
252.0, 0.004554566960800671
253.0, 0.0038756681703652988
254.0, 0.004130431814752233
255.0, 0.004815547357586043
256.0, 0.004434681874698103
257.0, 0.003761937415308051
258.0, 0.00277074242125478
259.0, 0.0017901083561152388
260.0, 0.0014380540240070197
261.0, 0.0006418240245456449
262.0, 0.0011007469121327874
263.0, 0.0016183429018174161
264.0, 0.002209307042872796
265.0, 0.0029098259339191157
266.0, 0.0031809864371898245
267.0, 0.0036096687496823205
268.0, 0.0037036496564509624
269.0, 0.003771348639687089
270.0, 0.003784454349278027
271.0, 0.00344013815442948
272.0, 0.0020962952834593616
273.0, 0.0011806393212392568
274.0, 0.0013160990631028789
275.0, 0.002650449497852889
276.0, 0.004742467875319789
277.0, 0.006567090657599424
278.0, 0.00595287803965907
279.0, 0.007030351519595576
280.0, 0.008193898422922938
281.0, 0.008170953723707018
282.0, 0.007291225277793354
283.0, 0.007869091838305647
284.0, 0.008161890201968352
285.0, 0.0061644571697134195
286.0, 0.007388308000453119
287.0, 0.009589520347569078
288.0, 0.010117662900854201
289.0, 0.012249987363606392
290.0, 0.0166358969147051
291.0, 0.0192368554563837
292.0, 0.021380769336438298
293.0, 0.023234195654003576
294.0, 0.02434767058136468
295.0, 0.02497158403399432
296.0, 0.0253849443241142
297.0, 0.024911458493031665
298.0, 0.0242629621067515
299.0, 0.023412922293243786
300.0, 0.02197318026548179
301.0, 0.022371048753655157
302.0, 0.02366887676932076
303.0, 0.022550943539383413
304.0, 0.02159326328915408
305.0, 0.02241804390899456
306.0, 0.023992381524391725
307.0, 0.024914413216232716
308.0, 0.02612264433484313
309.0, 0.029636133418145822
310.0, 0.03323916423585572
311.0, 0.03571486193349891
312.0, 0.03954646739118372
313.0, 0.04385195902385228
314.0, 0.04919181336071576
315.0, 0.05666059241975392
316.0, 0.06492094897686927
317.0, 0.07285066379811832
318.0, 0.08215577892498196
319.0, 0.09402460428088943
320.0, 0.10861694628592079
321.0, 0.12603296421075175
322.0, 0.14618116063059886
323.0, 0.16964654394073994
324.0, 0.19961200132061763
325.0, 0.23099683702754492
326.0, 0.26905804450846715
327.0, 0.31495907854444294
328.0, 0.36937916791437575
329.0, 0.43158515276821535
330.0, 0.49643438848882254
331.0, 0.5741105780398212
332.0, 0.653952053894338
333.0, 0.7403153326867101
334.0, 0.8276683074514088
335.0, 0.9028239466794266
336.0, 0.9591830610747256
337.0, 0.9912716628927485
338.0, 0.9953810642128884
339.0, 0.9736279573466861
340.0, 0.9292101902272161
341.0, 0.865662694111236
342.0, 0.7890649583696959
343.0, 0.7024060135485483
344.0, 0.6179991822956372
345.0, 0.5388166597371911
346.0, 0.4662039626325372
347.0, 0.4015521977058031
348.0, 0.34974923032795685
349.0, 0.30662043570937053
350.0, 0.271220779769553
351.0, 0.24193618659289365
352.0, 0.2177000453995673
353.0, 0.1981681687074841
354.0, 0.17971517925257563
355.0, 0.15932900290233343
356.0, 0.14296555690809765
357.0, 0.13146696722749365
358.0, 0.12240099677003351
359.0, 0.11183148225938282
360.0, 0.10708325356238034
361.0, 0.09790103641075304
362.0, 0.09190334636870928
363.0, 0.0872279125916994
364.0, 0.08200759478013438
365.0, 0.07758751214612886
366.0, 0.07399297525110646
367.0, 0.07189490002006065
368.0, 0.07183615245087076
369.0, 0.07011277605113486
370.0, 0.06667278459635803
371.0, 0.06691951355336881
372.0, 0.06489161556737068
373.0, 0.06526747773383502
374.0, 0.06514867184386768
375.0, 0.06467548055451845
376.0, 0.06412164758542935
377.0, 0.06322772209759892
378.0, 0.06543726959540927
379.0, 0.0647159729035547
380.0, 0.06575064408677914
381.0, 0.06770710725195996
382.0, 0.069725352309767
383.0, 0.07268244397347685
384.0, 0.07835761877585226
385.0, 0.08558938126235215
386.0, 0.09385142463002653
387.0, 0.10347356685570668
388.0, 0.11381420710698016
389.0, 0.12371857570152972
390.0, 0.13837926462021927
391.0, 0.1499546372144143
392.0, 0.16241299013517504
393.0, 0.1752384495267671
394.0, 0.1869629796211699
395.0, 0.19625170543564666
396.0, 0.20257225504272053
397.0, 0.20817990526844596
398.0, 0.21024879513361594
399.0, 0.21024259496304315
400.0, 0.2085527213053283
401.0, 0.20455504996429844
402.0, 0.2005731429479322
403.0, 0.19376897774030444
404.0, 0.18670417107891288
405.0, 0.18068634484298562
406.0, 0.17433363934471713
407.0, 0.1660909234095017
408.0, 0.16120427551375674
409.0, 0.15348305169489096
410.0, 0.14733294634884125
411.0, 0.1399695951067544
412.0, 0.1334532741338214
413.0, 0.1296265177507555
414.0, 0.12007036180245473
415.0, 0.11503592676724611
416.0, 0.11071935472027798
417.0, 0.10526873388253437
418.0, 0.09898113182213465
419.0, 0.09330737656989363
420.0, 0.0896132172905515
421.0, 0.08407231694686165
422.0, 0.07956902857771332
423.0, 0.07688753322634
424.0, 0.07581565371363311
425.0, 0.07593547867100184
426.0, 0.07724996561991188
427.0, 0.08147916826729498
428.0, 0.08552612095239892
429.0, 0.09309877603058472
430.0, 0.10354495775376985
431.0, 0.11503060993040523
432.0, 0.12620984227831047
433.0, 0.1383559675999576
434.0, 0.15379749578980906
435.0, 0.16346831374102036
436.0, 0.1687217862386157
437.0, 0.17038236423648845
438.0, 0.1665989880166629
439.0, 0.1527413398008907
440.0, 0.13613094190542455
441.0, 0.11698133670796838
442.0, 0.09927539002708827
443.0, 0.08375934317918758
444.0, 0.06942472493400044
445.0, 0.0572165561710213
446.0, 0.04735359588059472
447.0, 0.03999945553543772
448.0, 0.03419803340225884
449.0, 0.02997251702486601
450.0, 0.027042824650349056
451.0, 0.023933340270134582
452.0, 0.021812095264277513
453.0, 0.019701488733098724
454.0, 0.017786456765656822
455.0, 0.016961958414792932
456.0, 0.01674087871626833
457.0, 0.015306946003746671
458.0, 0.014200960077872573
459.0, 0.01382234615972696
460.0, 0.012289397522891122
461.0, 0.011103333679089045
462.0, 0.01048778941851525
463.0, 0.0098084109353022
464.0, 0.010331133303694997
465.0, 0.009046861319770633
466.0, 0.008127660690119339
467.0, 0.007463763516617039
468.0, 0.006376838999785637
469.0, 0.004948507075498085
470.0, 0.004917277025829813
471.0, 0.003691574962091158
472.0, 0.002996297832865949
473.0, 0.0017794557370819715
474.0, 0.0007215994036427798
475.0, 0.0002878825627126071
476.0, 0.0001583823881192614
477.0, 0.0005263473762009594
478.0, 0.0006296019536356753
479.0, 0.0003483627453066723
480.0, 0.00020730897142863544
481.0, 0.0005738713434193081
482.0, 0.0011283442854385308
483.0, 0.0002322285702454158
484.0, 0.0012315744892222678
485.0, 0.0011312317347945285
486.0, 0.0006874100366903398
487.0, 0.0004830178720932688
488.0, 0.0010098373588215263
489.0, 0.00239445860085603
490.0, 0.000793514588069928
491.0, 0.0015071387157084206
492.0, 0.0017524327945186084
493.0, 0.000984489860984191
494.0, 0.0002302191585759305
495.0, 0.0006992619009267889
496.0, 0.0007095725696794972
497.0, 0.0010523456203818161
498.0, 0.0008010549704016543
499.0, 0.0009625324698446804
500.0, 0.0008971297209252687
501.0, 0.0002737059945908881
502.0, 0.0005917009118278972
503.0, 0.0004553011283116912
504.0, 0.0004573115472295366
505.0, 0.0009317485062706335
506.0, 0.0017064528650492716
507.0, 0.002356410202325263
508.0, 0.0024346834389873226
509.0, 0.001805576793228255
510.0, 0.0019080070738544503
511.0, 0.001592536600047365
512.0, 0.0018169582506381374
513.0, 0.002111523359996835
514.0, 0.002271248472246747
515.0, 0.003835775732827324
516.0, 0.007630362079187938
517.0, 0.009245402164486312
518.0, 0.010783981549595891
519.0, 0.013043728853048159
520.0, 0.015031466958378224
521.0, 0.015418497687055513
522.0, 0.016388317553801882
523.0, 0.016074243962226523
524.0, 0.016005334117818612
525.0, 0.015729770880721108
526.0, 0.016031800204969995
527.0, 0.01769767122714698
528.0, 0.0204139275101214
529.0, 0.022251117247101757
530.0, 0.02529996732545687
531.0, 0.027507933938561616
532.0, 0.030998962785796034
533.0, 0.03606461010430358
534.0, 0.04045444160901766
535.0, 0.0405861832301598
536.0, 0.04102678584981906
537.0, 0.03760639378764624
538.0, 0.034643432498849665
539.0, 0.031486319507567216
540.0, 0.028089078541347935
541.0, 0.02644273696695741
542.0, 0.0248116655305217
543.0, 0.020958219540241095
544.0, 0.020287959930723812
545.0, 0.0194038442622449
546.0, 0.01917177112896637
547.0, 0.020532246160857106
548.0, 0.01968447345219286
549.0, 0.014873562369601705
550.0, 0.014245932289730073
551.0, 0.013417358630677896
552.0, 0.012113291568429664
553.0, 0.010048043200220248
554.0, 0.0069039827062089025
555.0, 0.004061723388096811
556.0, 0.005651376295773702
557.0, 0.004018112408397082
558.0, 0.0031210918490387
559.0, 0.003237094702366341
560.0, 0.0026316326823058863
561.0, 0.00011303419657184271
562.0, 0.0004386549526331706
563.0, 0.001357699201313773
564.0, 0.0015627598055934849
565.0, 0.0018496748529413236
566.0, 0.0018865325744548307
567.0, 0.0015364482421013122
568.0, 0.0016334691448594617
569.0, 0.0002488063371434505
570.0, 0.0016171763533135888
571.0, 0.0021793520374348563
572.0, 0.0013766716032043626
573.0, 0.0004146936021794446
574.0, 0.0005829341412393065
575.0, 0.0014221247905135933
576.0, 0.0022763303981070846
577.0, 0.0026552009889315273
578.0, 0.003221319636671894
579.0, 0.0027431811533595108
580.0, 0.0025339553662412874
581.0, 0.0040342985405464275
582.0, 0.0024785195160266574
583.0, 0.001696662172158186
584.0, 0.0024851945087173586
585.0, 0.003331297772507873
586.0, 0.003871496996879439
587.0, 0.0038240940928000165
588.0, 0.003011144428293422
589.0, 0.00259839284316129
590.0, 0.0027802238249039508
591.0, 0.00269727387740135
592.0, 0.003052343486905786
593.0, 0.0038134195332265287
594.0, 0.003992709136222767
595.0, 0.0027497032674628
596.0, 0.0032643280225980375
597.0, 0.001089775760797689
598.0, 0.0018516551796011345
599.0, 0.002318264834391056
600.0, 0.0020063493821728968
601.0, 0.0013519056948792143
602.0, 0.0005805250744719782
603.0, 0.0031402742379543504
604.0, 0.002741214629581375
605.0, 0.0027625647087521307
606.0, 0.0016657858342228576
607.0, 0.0006823644472997104
608.0, 0.001260785830621933
609.0, 0.002545864710551964
610.0, 0.001955803501539043
611.0, 0.0030109299406916126
612.0, 0.003669391800722123
613.0, 0.004380617324939546
614.0, 0.004910581427912071
615.0, 0.00502283748426786
616.0, 0.005145844650480928
617.0, 0.0050906952415823705
618.0, 0.0068039917872311974
619.0, 0.007012557441170666
620.0, 0.007904389417930324
621.0, 0.009255364551634528
622.0, 0.010182395552979378
623.0, 0.011130169035223948
624.0, 0.010721391447229653
625.0, 0.012063871881226672
626.0, 0.01313479274137747
627.0, 0.014266553738446834
628.0, 0.015864193824055992
629.0, 0.017842705843253936
630.0, 0.019455623482919356
631.0, 0.019460341268816857
632.0, 0.023290285406329908
633.0, 0.026531248690322994
634.0, 0.02813407802426535
635.0, 0.0303945042892693
636.0, 0.035054313547234296
637.0, 0.04048207607029414
638.0, 0.043374766689333044
639.0, 0.0495393613103042
640.0, 0.05695422573388791
641.0, 0.06368360055443653
642.0, 0.07072647085493768
643.0, 0.08065084972010775
644.0, 0.09488879638729249
645.0, 0.10906836599997097
646.0, 0.12517680884917057
647.0, 0.14730150049365864
648.0, 0.1720499194360389
649.0, 0.2014346449726951
650.0, 0.23894529852370697
651.0, 0.28530259957191856
652.0, 0.3352354381414946
653.0, 0.38807667190748835
654.0, 0.45005507694456814
655.0, 0.5154321824405459
656.0, 0.5818347912846864
657.0, 0.6435343173725276
658.0, 0.6908710077346859
659.0, 0.7162876701785038
660.0, 0.72124814032278
661.0, 0.6999760913407747
662.0, 0.6629734694355329
663.0, 0.61697048525802
664.0, 0.567167602442619
665.0, 0.5199314870242842
666.0, 0.4840417903241789
667.0, 0.45041528469975395
668.0, 0.4380753689777601
669.0, 0.43673713462723496
670.0, 0.44903249770636233
671.0, 0.47284614219133864
672.0, 0.5072073990736234
673.0, 0.558001719383716
674.0, 0.6134824364642082
675.0, 0.6757639151803757
676.0, 0.74298219080032
677.0, 0.8043112986330992
678.0, 0.8596445300220562
679.0, 0.9050705775384413
680.0, 0.9273290267028236
681.0, 0.9251713214745072
682.0, 0.8922664716844194
683.0, 0.839824551261406
684.0, 0.7640226922117997
685.0, 0.6778310816426172
686.0, 0.5918590904578706
687.0, 0.5086709194474062
688.0, 0.4309916958113297
689.0, 0.36584345291189
690.0, 0.3128543528357204
691.0, 0.2649684414094424
692.0, 0.22464776838893377
693.0, 0.19377548985522577
694.0, 0.169290963492728
695.0, 0.14424908304206308
696.0, 0.12401751911276726
697.0, 0.11053919331911734
698.0, 0.09997676427630703
699.0, 0.09048047969258681
700.0, 0.08045113365718286
701.0, 0.07170024363922513
702.0, 0.06711132639882991
703.0, 0.05946740891252978
704.0, 0.05626606466503303
705.0, 0.048965351254785995
706.0, 0.0461062639725067
707.0, 0.044065795372494145
708.0, 0.04101069839805444
709.0, 0.03806131809868201
710.0, 0.03402565801805807
711.0, 0.03301966806981833
712.0, 0.029857299052778338
713.0, 0.02781381262588539
714.0, 0.025612893744530043
715.0, 0.023061392753193383
716.0, 0.02155683739355509
717.0, 0.02230870092537665
718.0, 0.022320318338366032
719.0, 0.020288396080508416
720.0, 0.017400418312791596
721.0, 0.015871889504116242
722.0, 0.015526700037794907
723.0, 0.015377231276202802
724.0, 0.014510143292346718
725.0, 0.012707010157119305
726.0, 0.0132276999996313
727.0, 0.01210236436013698
728.0, 0.01154140476981207
729.0, 0.011151174714644949
730.0, 0.010529241619854678
731.0, 0.010276290763371821
732.0, 0.010842475713726794
733.0, 0.009084790279644341
734.0, 0.011301697449440633
735.0, 0.0102322392385041
736.0, 0.00757739012690135
737.0, 0.005955589608283277
738.0, 0.0058589526331743495
739.0, 0.006129670950727891
740.0, 0.0060626885366408985
741.0, 0.007540225215218853
742.0, 0.008400320443035382
743.0, 0.007527909584738011
744.0, 0.006666128812563425
745.0, 0.005389089943553135
746.0, 0.004633427900692324
747.0, 0.005428057873064508
748.0, 0.004725944301295144
749.0, 0.004643172015545622
750.0, 0.004560263468256017
751.0, 0.004033141633916937
752.0, 0.003574291205881232
753.0, 0.0029784236393967677
754.0, 0.0022617701988686336
755.0, 0.0018061984370925138
756.0, 0.0007997416141591997
757.0, 0.000200941869709079
758.0, 0.0009286613053216456
759.0, 0.0006859621850531554
760.0, 0.00045933558104220275
761.0, 0.0009518994007261661
762.0, 0.001323267261509895
763.0, 0.00044792526630251233
764.0, 0.0017335739935541766
765.0, 0.0012023443646301186
766.0, 0.0014059424532979268
767.0, 0.0008904339834089869
768.0, 0.0011806946368892375
769.0, 0.0014129843454792255
770.0, 0.0004761409897242918
771.0, 0.00047320251352283785
772.0, 0.0006440883585225141
773.0, 0.0009535541067819426
774.0, 0.001431890095923662
775.0, 0.0009361514194079931
776.0, 0.0003146974679118309
777.0, 9.984002547435252e-05
778.0, 6.6294183461819e-05
779.0, 0.00022096476928350754
780.0, 0.0010276014576603263
781.0, 0.00022019419408757186
782.0, 2.3436645781970166e-05
783.0, 0.00019118625500026202
784.0, 0.00056776086248637
785.0, 0.0007491911122842694
786.0, 0.0005444073503945262
787.0, 0.0006501571172559705
788.0, 0.00019233799763563784
789.0, 0.0007254148992153918
790.0, 0.0010513006077042682
791.0, 0.0005154091086304162
792.0, 0.000449898730917947
793.0, 0.0007162401371213523
794.0, 0.000235759444607343
795.0, 0.00020766178137588944
796.0, 0.00012711204490457932
797.0, 0.0004430953496614465
798.0, 0.00036376622094804975
799.0, 0.0008069515378571303
800.0, 0.0010175264881081623
801.0, 0.0005619124736036412
802.0, 0.00019110718700854692
803.0, 0.0008048196049377114
804.0, 0.0006954491198630246
805.0, 0.0006691468185140146
806.0, 0.0005656962941239461
807.0, 0.0006247093842585281
808.0, 0.0005288566149171338
809.0, 0.00045201015307129525
810.0, 0.0007391990221755894
811.0, 0.0008910492409087657
812.0, 0.0005037738532895185
813.0, 0.00010794879956703573
814.0, 0.0007755447184555608
815.0, 0.000677167049306835
816.0, 0.00038973176622983526
817.0, 0.0002781842356907945
818.0, 0.00016039262220583956
819.0, 0.0002840916877511945
820.0, 0.0006778906822411262
821.0, 0.0004966961151719357
822.0, 0.0002949840284278213
823.0, 0.00022104081325092796
824.0, 0.00013778928181680853
825.0, 0.00011514514488430144
826.0, 0.0003582447633128873
827.0, 0.0007526440284673458
828.0, 0.00035535295861159963
829.0, 0.0002671089749122861
830.0, 0.00038863190577417063
831.0, 0.00037266201269568473
832.0, 0.000340837109553171
833.0, 0.0007129304723956902
834.0, 0.0009317130011121917
835.0, 0.0004259706870169786
836.0, 0.0017464574672801077
837.0, 0.0006822305802911527
838.0, 0.002506527821979991
839.0, 0.0027484118860782196
840.0, 0.003543824583814168
841.0, 0.004091516670941578
842.0, 0.004513336823377438
843.0, 0.0063718937170281695
844.0, 0.009103078523686336
845.0, 0.011232375608196258
846.0, 0.011541279781612582
847.0, 0.014410551126859773
848.0, 0.018020605407515558
849.0, 0.022298891248016536
850.0, 0.027701169444457517
851.0, 0.03374348367301848
852.0, 0.03894663072671685
853.0, 0.04318781021105125
854.0, 0.05010624865044133
855.0, 0.054134781532127356
856.0, 0.056771366818400455
857.0, 0.059975763790711394
858.0, 0.06253664220967704
859.0, 0.06464886827237631
860.0, 0.06663708303219672
861.0, 0.06224329369462324
862.0, 0.05397662978041393
863.0, 0.05317063367179897
864.0, 0.048831362375188175
865.0, 0.04514476196920633
866.0, 0.04073587814951088
867.0, 0.03677004180915392
868.0, 0.03406517221669132
869.0, 0.029240567775158592
870.0, 0.02595890717839124
871.0, 0.024827526352222982
872.0, 0.021369491328699825
873.0, 0.01846077402698871
874.0, 0.015970977630025654
875.0, 0.013064446047400983
876.0, 0.010935860921724334
877.0, 0.011071857030993464
878.0, 0.011187625968751055
879.0, 0.011124996579819203
880.0, 0.00850783056642661
881.0, 0.006677470848293335
882.0, 0.005791162612046882
883.0, 0.005960139717983253
884.0, 0.005891445067370808
885.0, 0.00524701049819733
886.0, 0.005568086078859514
887.0, 0.006506369490630621
888.0, 0.004637491916446645
889.0, 0.005020113611440283
890.0, 0.00409851137074452
891.0, 0.0029349177262662307
892.0, 0.0026628975121105636
893.0, 0.0034103002883974633
894.0, 0.004542694135189274
895.0, 0.005376885122569364
896.0, 0.005438163176526505
897.0, 0.00286921870231202
898.0, 0.005328273044765601
899.0, 0.0026424151217165886
900.0, 0.0010138071431015803
901.0, 0.002218441194069555
902.0, 0.002758802241810353
903.0, 0.0009466285770785088
904.0, 0.0008754143149342483
905.0, 0.0007018651124670704
906.0, 0.0021730536457643555
907.0, 0.0031971110626393675
908.0, 0.001421272365268567
909.0, 0.0010529197139481025
910.0, 0.0013608789375891125
911.0, 0.001214980320596125
912.0, 0.0015377908490166853
913.0, 0.0020447289204758644
914.0, 0.0023686573127570743
915.0, 0.002522832247397675
916.0, 0.003038465368460436
917.0, 0.003665734744252717
918.0, 0.00487581990571313
919.0, 0.00648989424787679
920.0, 0.007528951758585098
921.0, 0.007634557746093279
922.0, 0.008192892903719388
923.0, 0.008725995483621988
924.0, 0.0111095589000691
925.0, 0.009674605003847411
926.0, 0.011532836868041421
927.0, 0.012994702917628583
928.0, 0.014461935467680936
929.0, 0.016324508570471418
930.0, 0.017596651212185965
931.0, 0.019849121648703394
932.0, 0.018992126926058624
933.0, 0.02103623758843245
934.0, 0.02189360564234517
935.0, 0.02338548292957111
936.0, 0.024487978844307052
937.0, 0.023969428608139012
938.0, 0.02364450232707377
939.0, 0.024871045327687004
940.0, 0.0240682885746827
941.0, 0.02100850034731048
942.0, 0.022073559065038963
943.0, 0.02202945767067976
944.0, 0.02108995731352491
945.0, 0.018555399900075292
946.0, 0.01652665021096273
947.0, 0.015534558012672556
948.0, 0.014133110242511515
949.0, 0.012652606290393761
950.0, 0.014989087017640734
951.0, 0.012223566478392867
952.0, 0.01115476928163853
953.0, 0.009450037916761616
954.0, 0.00980038949092992
955.0, 0.009621094853187021
956.0, 0.009483009497896109
957.0, 0.009885052015826502
958.0, 0.008659709629188031
959.0, 0.007623275780433501
960.0, 0.005709074503524176
961.0, 0.0067527009174867154
962.0, 0.00578385722123992
963.0, 0.007154779429195299
964.0, 0.0066523067219713215
965.0, 0.004796017280491958
966.0, 0.003932826545633883
967.0, 0.004271350602344462
968.0, 0.005057825623707057
969.0, 0.0051993366365210136
970.0, 0.006811613281121944
971.0, 0.004875747223974675
972.0, 0.002749331432965401
973.0, 0.0033329543805872396
974.0, 0.004582006762366849
975.0, 0.005278580578370774
976.0, 0.0059797958417491725
977.0, 0.0069196547397918735
978.0, 0.00807602311372802
979.0, 0.009480231830041026
980.0, 0.01019244750846385
981.0, 0.012717745211655014
982.0, 0.013684304381178389
983.0, 0.015130446755244189
984.0, 0.016164464410713005
985.0, 0.01794839198469699
986.0, 0.022261857182136302
987.0, 0.02603550878121019
988.0, 0.02986392130131382
989.0, 0.03494567379616071
990.0, 0.04160583403638876
991.0, 0.0501998464164966
992.0, 0.0589179271224779
993.0, 0.06874676664638381
994.0, 0.08001108316900586
995.0, 0.09215176718211952
996.0, 0.10516273573286086
997.0, 0.11972933058960837
998.0, 0.13540366320584468
999.0, 0.1512303773473999
1000.0, 0.16971519936766538
1001.0, 0.18809435497983285
1002.0, 0.20896127145555893
1003.0, 0.22881837825543005
1004.0, 0.24783476474943683
1005.0, 0.2662018602435833
1006.0, 0.2812931804491224
1007.0, 0.2953486230873249
1008.0, 0.30204429040603026
1009.0, 0.3029967597415972
1010.0, 0.30483681983241495
1011.0, 0.30371735128782296
1012.0, 0.30004077053694905
1013.0, 0.2960486780494631
1014.0, 0.29242794018974366
1015.0, 0.29021239973564755
1016.0, 0.2905026052471005
1017.0, 0.28884246654840995
1018.0, 0.28322097344303687
1019.0, 0.2810101828207106
1020.0, 0.27215404077922883
1021.0, 0.2678226058070119
1022.0, 0.2603725182842762
1023.0, 0.2511121945974625
1024.0, 0.24162157525144576
1025.0, 0.23150322999717735
1026.0, 0.22274251179497376
1027.0, 0.2165768926171776
1028.0, 0.20184401343628292
1029.0, 0.1927760645878312
1030.0, 0.18118491221744187
1031.0, 0.16815829452065367
1032.0, 0.1532189829481019
1033.0, 0.1383981637963545
1034.0, 0.12699461528321962
1035.0, 0.11714201377880316
1036.0, 0.10436681931079955
1037.0, 0.09188353114766837
1038.0, 0.08143100030072342
1039.0, 0.07145216224409659
1040.0, 0.06512585400742103
1041.0, 0.05970965046428797
1042.0, 0.05119098581041001
1043.0, 0.04461248515953986
1044.0, 0.039956277934298325
1045.0, 0.034977984560238456
1046.0, 0.031073521946737383
1047.0, 0.02956772712781816
1048.0, 0.024862860462866378
1049.0, 0.023603069863877012
1050.0, 0.022128549470005476
1051.0, 0.020023026768224518
1052.0, 0.017033534148331114
1053.0, 0.01602692981587117
1054.0, 0.013883624412402354
1055.0, 0.010997565852571462
1056.0, 0.010525888250769444
1057.0, 0.010906246727385946
1058.0, 0.008942314650761653
1059.0, 0.008579935182621401
1060.0, 0.008234693025710883
1061.0, 0.005527299192952011
1062.0, 0.00619683501233079
1063.0, 0.005391116379938193
1064.0, 0.004143529536885286
1065.0, 0.004097170815702003
1066.0, 0.004056645663119941
1067.0, 0.003177747119477698
1068.0, 0.0036816523843766005
1069.0, 0.004784912211610218
1070.0, 0.0031889047415474517
1071.0, 0.002607036046855273
1072.0, 0.000792578317823555
1073.0, 0.002252290573670052
1074.0, 0.002134063361997849
1075.0, 0.0017817582496996328
1076.0, 0.001962927172921834
1077.0, 0.0017727986709850003
1078.0, 0.0014557570811023469
1079.0, 0.000975546603633934
1080.0, 0.00042279820126579895
1081.0, 0.0004001700383565024
1082.0, 0.0001326650529438154
1083.0, 0.00023964331446188377
1084.0, 0.00018008428724677056
1085.0, 0.00036440740763378406
1086.0, 0.00038897109713895205
1087.0, 0.0017161392591722537
1088.0, 0.0031593901684021535
1089.0, 0.0019527850582944399
1090.0, 0.0029884175573356127
1091.0, 0.0035535594872544126
1092.0, 0.0005324149390735005
1093.0, 0.003009267131578632
1094.0, 0.003166875375351161
1095.0, 0.002697905338885757
1096.0, 0.0028213236074426155
1097.0, 0.0030936906682606474
1098.0, 0.0031248975198911446
1099.0, 0.0032740052728621964
1100.0, 0.0037103234316984497
1101.0, 0.0038172125295713034
1102.0, 0.003865541407826358
1103.0, 0.004626515879101142
1104.0, 0.004083035910392131
1105.0, 0.00449854942680838
1106.0, 0.004873875368111357
1107.0, 0.004238263217504273
1108.0, 0.003131018424410377
1109.0, 0.0030775349872451826
1110.0, 0.003802892242834734
1111.0, 0.0038488876742582587
1112.0, 0.00416460789212384
1113.0, 0.005150861839214829
1114.0, 0.0019119492633366613
1115.0, 0.004766015661379802
1116.0, 0.006066308054179504
1117.0, 0.004063804657725466
1118.0, 0.0034209851264974216
1119.0, 0.0036539376527137345
1120.0, 0.003317987191310637
1121.0, 0.0029826997541289404
1122.0, 0.003700752808907398
1123.0, 0.004715808745559494
1124.0, 0.004404786123268122
1125.0, 0.004954057161543158
1126.0, 0.005442815295911313
1127.0, 0.002458876967846698
1128.0, 0.0035986789122542896
1129.0, 0.003863996241581851
1130.0, 0.004779571212250821
1131.0, 0.0046154969864948565
1132.0, 0.0043345063514101815
1133.0, 0.004579275175306638
1134.0, 0.0037205318066703746
1135.0, 0.004194492905035537
1136.0, 0.0028782101909317383
1137.0, 0.0053728903330152985
1138.0, 0.004983243334796993
1139.0, 0.005107602669598404
1140.0, 0.005929199913852419
1141.0, 0.004997738011538838
1142.0, 0.004670849001552383
1143.0, 0.003521865746855101
1144.0, 0.002676349175238519
1145.0, 0.0034561010720661157
1146.0, 0.0025420024925240517
1147.0, 0.0011392231135109103
1148.0, 0.0023191144675093122
1149.0, 0.0022583128360848686
1150.0, 0.0006817012662811611
1151.0, 0.0015133981433390813
1152.0, 0.0015712724743159078
1153.0, 0.0013253812456587692
1154.0, 0.0025343632477715958
1155.0, 0.002164213801673618
1156.0, 0.001364379043478919
1157.0, 0.0032618491611045245
1158.0, 0.004077011086290222
1159.0, 0.0008403901401043787
1160.0, 0.0004297581120966639
1161.0, 0.004247656942713628
1162.0, 0.0019848524043944112
1163.0, 0.0030448820093750125
1164.0, 0.002282683403735229
1165.0, 0.0012313791784889408
1166.0, 0.0008995863660975569
1167.0, 0.001126446028302247
1168.0, 0.002193863794314224
1169.0, 0.0032530519884514894
1170.0, 0.0027952100666482366
1171.0, 0.002416733716668793
1172.0, 0.002334638063949952
1173.0, 0.0014428134227532246
1174.0, 0.0009845140226851998
1175.0, 0.0008101280859204575
1176.0, 0.0005799747263086842
1177.0, 0.0008504906441627919
1178.0, 0.0006487804946855004
1179.0, 0.0007950150015294075
1180.0, 0.0017395472588405513
1181.0, 0.001647863737338328
1182.0, 0.0001686970144400309
1183.0, 0.00032409094600129723
1184.0, 0.0008783886690996135
1185.0, 0.00018954744588868183
1186.0, 0.0004200066538664314
1187.0, 0.00042298086439469714
1188.0, 0.000743101344829065
1189.0, 0.001062537187918547
1190.0, 0.00093939286504321
1191.0, 0.0004572626001366034
1192.0, 0.00018813125392717623
1193.0, 0.00036039791338419433
1194.0, 0.0004741407774694238
1195.0, 0.00042575868533303537
1196.0, 0.0007787777509537211
1197.0, 7.37028479388529e-05
1198.0, 0.000537762458260363
1199.0, 0.0004486234649953945
1200.0, 0.0007199158437303171
1201.0, 0.00039795693198474967
1202.0, 0.00012199426450015322
1203.0, 0.00037410974162411636
1204.0, 0.0006607389527079735
1205.0, 0.0007383928771894902
1206.0, 0.0005727967421294307
1207.0, 0.00025379607940699816
1208.0, 0.00021684879120958687
1209.0, 0.000511026991793568
1210.0, 0.00013509770623557727
1211.0, 0.0007051316074613836
1212.0, 0.0016182922764046573
1213.0, 0.0015349125497213481
1214.0, 0.0006392148534765862
1215.0, 0.004523783331870588
1216.0, 0.008658654433525577
1217.0, 0.004587648517096013
1218.0, 0.0012019683203889407
1219.0, 0.0010257422827128
1220.0, 4.163564872625811e-05
1221.0, 0.0004415229517650776
1222.0, 0.0012460124535073852
1223.0, 0.000653605993115765
1224.0, 0.00042688593661307855
1225.0, 0.0013851490484631265
1226.0, 0.0017017808604431427
1227.0, 0.00034185896200821376
1228.0, 0.0008999017954819276
1229.0, 0.0006322177927447006
1230.0, 0.0009670453288021298
1231.0, 0.001396645877999895
1232.0, 0.0016195151614274458
1233.0, 0.0019514030072512007
1234.0, 0.0018522497381840363
1235.0, 0.0014589777628865018
1236.0, 0.0019530324886983313
1237.0, 0.0002696325113257866
1238.0, 9.907207775191674e-05
1239.0, 0.0008921811440579594
1240.0, 0.00043299951763438966
1241.0, 0.00011830307847067213
1242.0, 0.0002640820648067866
1243.0, 0.00015148949676544482
1244.0, 0.00016443299424007935
1245.0, 0.00023798800782463573
1246.0, 0.0001526402069127941
1247.0, 0.00026808963877954727
1248.0, 0.0006999738962019995
1249.0, 0.0012072470219658214
1250.0, 0.002218766038714971
1251.0, 0.002068364971708724
1252.0, 0.0024036854279231587
1253.0, 0.0014879980348816491
1254.0, 0.0012027343477875622
1255.0, 0.00048395266102046927
1256.0, 0.0014225242341162703
1257.0, 0.0007345154637014724
1258.0, 0.000468928452351844
1259.0, 0.0018183224197141313
1260.0, 0.002869840322037239
1261.0, 0.0021266259808075203
1262.0, 0.001454077694435716
1263.0, 0.002510771095362209
1264.0, 0.0025547363297918108
1265.0, 0.0015687353316197988
1266.0, 0.001182197843566694
1267.0, 0.0012540595897710506
1268.0, 0.0011360160246381295
1269.0, 0.0011684986596509996
1270.0, 0.0016075679255675495
1271.0, 0.0016487837625005007
1272.0, 0.0021102677593672604
1273.0, 0.002403688547396621
1274.0, 0.0020912483643223266
1275.0, 0.001618963010438135
1276.0, 0.0016096733838680151
1277.0, 0.001924928888744635
1278.0, 0.0016547415796319854
1279.0, 0.0010488544506274747
1280.0, 0.002501756518202018
1281.0, 0.00308078869877784
1282.0, 0.0023756454750758936
1283.0, 0.002421857941789732
1284.0, 0.0014214665672093614
1285.0, 0.0026055586416583987
1286.0, 0.001198328916020273
1287.0, 0.001609424349553172
1288.0, 0.001447655649514663
1289.0, 0.0010850824949496937
1290.0, 0.0030340880343925655
1291.0, 0.004948776737818415
1292.0, 0.004518818573997526
1293.0, 0.004062250099890117
1294.0, 0.0030689575772052382
1295.0, 0.003016446899799935
1296.0, 0.00218093925684282
1297.0, 0.0047406166557570645
1298.0, 0.003328944251766366
1299.0, 0.0047353737421378
1300.0, 0.0038760409951331958
1301.0, 0.005289272848050676
1302.0, 0.00410375530290021
1303.0, 0.004546958609777198
1304.0, 0.005026414982617741
1305.0, 0.003935525219571667
1306.0, 0.0033321043901693185
1307.0, 0.003331534153938052
1308.0, 0.002604979880626365
1309.0, 0.0024275854117262676
1310.0, 0.0026262111201514767
1311.0, 0.002787131768330989
1312.0, 0.004494184629354995
1313.0, 0.003832281674230539
1314.0, 0.004177831187656659
1315.0, 0.0037482440048065904
1316.0, 0.0038861301262592134
1317.0, 0.004120934743303176
1318.0, 0.0038829123918881986
1319.0, 0.004339347232739133
1320.0, 0.0036840281821249234
1321.0, 0.0033407911221946555
1322.0, 0.004074794980156187
1323.0, 0.0041078949822349895
1324.0, 0.0038334358857950593
1325.0, 0.0038071407120781535
1326.0, 0.00316916399028377
1327.0, 0.0037472621202430246
1328.0, 0.0034608132403611356
1329.0, 0.001125007215949963
1330.0, 0.004307559208911094
1331.0, 0.004913344481769748
1332.0, 0.002965724057440825
1333.0, 0.004673721192927522
1334.0, 0.0020869204967251705
1335.0, 0.0029173497232926927
1336.0, 0.003496369337991528
1337.0, 0.0034135624243474294
1338.0, 0.0022493700781728186
1339.0, 0.002511978967971545
1340.0, 0.004183085908721649
1341.0, 0.0021898202120690484
1342.0, 0.0025630340449811656
1343.0, 0.0007437167297770361
1344.0, 0.003487526664146112
1345.0, 0.0031382915349791713
1346.0, 0.003497201983727287
1347.0, 0.004599037349928954
1348.0, 0.0027429312754204483
1349.0, 0.0031921795161430717
1350.0, 0.001513027578412679
1351.0, 0.0028921313397410825
1352.0, 0.0036793303514950776
1353.0, 0.0035929935768963285
1354.0, 0.0021996645743240515
1355.0, 0.001904896247471863
1356.0, 0.003467576009817118
1357.0, 0.004571192182419049
1358.0, 0.0034160974639584354
1359.0, 0.0008984765626758137
1360.0, 0.0031036371618350053
1361.0, 0.002248636112135869
1362.0, 0.0029860082981150423
1363.0, 0.003389928534906864
1364.0, 0.0009163804776295547
1365.0, 0.0034014547990659184
1366.0, 0.0007306748865046444
1367.0, 0.0026582203013009154
1368.0, 0.003963714388100462
1369.0, 0.0032472069456912517
1370.0, 0.0025198945985891656
1371.0, 0.002463092083196326
1372.0, 0.0032837861539561034
1373.0, 0.004010987379973074
1374.0, 0.0024473463742109335
1375.0, 0.0013797198442591474
1376.0, 0.0023606204785610184
1377.0, 0.001166185535040401
1378.0, 0.0026523110730219943
1379.0, 0.0023113069642488183
1380.0, 0.002495938157347461
1381.0, 0.001476243773529261
1382.0, 0.0038923414479418352
1383.0, 0.0011305711376078543
1384.0, 0.0012231897245113476
1385.0, 0.001843900140855999
1386.0, 0.0005463725836269052
1387.0, 5.338753508844544e-05
1388.0, 0.0015475652470098773
1389.0, 0.002546972382021583
1390.0, 0.002792489832908604
1391.0, 0.002973276339873657
1392.0, 0.0031433195434954434
1393.0, 0.0026729683580897085
1394.0, 0.002275807758910944
1395.0, 0.002553348884400425
1396.0, 0.0020169255104965167
1397.0, 0.0020994299992149056
1398.0, 0.0028410654289337677
1399.0, 0.00023173519129651243
1400.0, 0.0009303937567399232
1401.0, 0.0033644476315872517
1402.0, 0.0005918371909610484
1403.0, 0.0021921494918447047
1404.0, 0.0021909928965899946
1405.0, 0.0009452462859763227
1406.0, 0.0007391255822996118
1407.0, 0.0003690203691062286
1408.0, 0.00016561332083112534
1409.0, 0.0016918655291196427
1410.0, 0.0020343004046059097
1411.0, 0.001143515544752471
1412.0, 0.0014790065172216693
1413.0, 0.0013450504935305912
1414.0, 0.0007654943781629438
1415.0, 0.0013881815237654698
1416.0, 0.0004960684403409597
1417.0, 0.0006964047547198136
1418.0, 0.0019673167005091283
1419.0, 0.0003208105593672636
1420.0, 0.0008850328234984196
1421.0, 0.002334425379192603
1422.0, 0.0006058103396713096
1423.0, 0.0009521700064000476
1424.0, 0.0017871488086417225
1425.0, 0.0014088239854806316
1426.0, 0.0014031989384770173
1427.0, 0.0037178934284462116
1428.0, 0.0024199946134593137
1429.0, 0.0018942424010779352
1430.0, 0.0025364555138865114
1431.0, 0.0023170724689730703
1432.0, 0.0013213276267963622
1433.0, 0.0018164307631550508
1434.0, 0.0023497322919176153
1435.0, 0.001971735506192931
1436.0, 0.002445513657118585
1437.0, 0.0024862398166202683
1438.0, 0.0021464244268289833
1439.0, 0.0021489245025501846
1440.0, 0.002005755980077208
1441.0, 0.0014783124469780772
1442.0, 0.0019599060978905043
1443.0, 0.0018891397994842557
1444.0, 0.0015731209264605868
1445.0, 0.004189669112484903
1446.0, 0.004204733757558646
1447.0, 0.003260927313383507
1448.0, 0.0023345086561858907
1449.0, 0.0020732339693198803
1450.0, 0.0017829704434309103
1451.0, 0.0026014179908359593
1452.0, 0.002207414322987488
1453.0, 0.0018320032860986142
1454.0, 0.0018421194374560776
1455.0, 0.003833611891152954
1456.0, 0.004421390845984484
1457.0, 0.0040866681889047
1458.0, 0.004348281924215356
1459.0, 0.0031029476607453326
1460.0, 0.004039313983487667
1461.0, 0.004637137579968487
1462.0, 0.0029715947958679394
1463.0, 0.0041391561392460155
1464.0, 0.002851800324072857
1465.0, 0.0024466977787690083
1466.0, 0.003247259782306266
1467.0, 0.0033045468789242157
1468.0, 0.004328621772078262
1469.0, 0.002170065567777108
1470.0, 0.006629383769759507
1471.0, 0.002857665389219412
1472.0, 0.004859318417746843
1473.0, 0.004899674977445672
1474.0, 0.004507954955186505
1475.0, 0.0029028021427533754
1476.0, 0.004892633986469597
1477.0, 0.005260671735208391
1478.0, 0.0026996184772715873
1479.0, 0.000938482099083152
1480.0, 0.002892589719950706
1481.0, 0.0028520052303971657
1482.0, 0.002200670918486584
1483.0, 0.004644597712418237
1484.0, 0.003532044218995407
1485.0, 0.002621103879289907
1486.0, 0.005765441862031733
1487.0, 0.005184109736812024
1488.0, 0.002281661807749291
1489.0, 0.0024503538774922735
1490.0, 0.002389465535145951
1491.0, 0.004826977816316345
1492.0, 0.006653554992610101
1493.0, 0.005121767395533775
1494.0, 0.0011805959057812438
1495.0, 0.00010617619527166953
1496.0, 0.0014132971777948327
1497.0, 0.0036962001730789637
1498.0, 0.004209848418111432
1499.0, 0.006274256632305041
1500.0, 0.005362178683446987
1501.0, 0.00469239439372247
1502.0, 0.0025671210649347923
1503.0, 0.0026743526442739134
1504.0, 0.001958033386348301
1505.0, 0.0038902849757600183
1506.0, 0.004759067309659485
1507.0, 0.0029139419027397156
1508.0, 0.0013678155102309416
1509.0, 0.0006359970920880197
1510.0, 0.0009232547777657099
1511.0, 0.001704302677857075
1512.0, 0.0015314705106658892
1513.0, 0.001556073710735493
1514.0, 0.0032407729544080013
1515.0, 0.0032824392092294283
1516.0, 0.005327926151435671
1517.0, 0.0026143925770395595
1518.0, 0.0032171143860609008
1519.0, 0.0017491682119759849
1520.0, 0.003633498361228957
1521.0, 0.004037223218837186
1522.0, 0.005175478079475522
1523.0, 0.005320167683024754
1524.0, 0.0012620858589396581
1525.0, 0.004546331567144308
1526.0, 0.00301768106620725
1527.0, 0.002147532825451811
1528.0, 0.002937398874240602
1529.0, 0.0031113029877860737
1530.0, 0.0028228379220704967
1531.0, 0.0031535554815330627
1532.0, 0.002356664001839801
1533.0, 0.0018656987918977085
1534.0, 0.0016965439954887917
1535.0, 0.0017578762157487197
1536.0, 0.001741995028696688
1537.0, 0.001835451094565851
1538.0, 0.0026669526116918463
1539.0, 0.002851004306089623
1540.0, 0.0035333438774045305
1541.0, 0.0031420219663770453
1542.0, 0.0012191533891592987
1543.0, 0.0025489750648356284
1544.0, 0.0023075077919924285
1545.0, 0.0005353302985081472
1546.0, 0.0010066734515164415
1547.0, 0.0005240818379288882
1548.0, 0.001153805425372303
1549.0, 0.004164908112686457
1550.0, 0.0030188138000805382
1551.0, 0.0025705589917406142
1552.0, 0.00375097246942801
1553.0, 0.004844782827218142
1554.0, 0.00597697792650299
1555.0, 0.00208561451841497
1556.0, 0.0020610864277021404
1557.0, 0.0030298801366198842
1558.0, 0.003509207488936088
1559.0, 0.0025909682456198386
1560.0, 0.00047494667231556635
1561.0, 0.002050244919478886
1562.0, 0.0006769330896607381
1563.0, 0.0038242070233802717
1564.0, 0.0029296184652715896
1565.0, 0.0027919026643898046
1566.0, 0.003702528517840362
1567.0, 0.0029234552044018615
1568.0, 0.0009520500795190978
1569.0, 8.016661076797418e-05
1570.0, 3.9671599031890254e-07
1571, 0.0
1572, 0.0
1573, 0.0
1574, 0.0
1575, 0.0
1576, 0.0
1577, 0.0
1578, 0.0
1579, 0.0
1580, 0.0
1581, 0.0
1582, 0.0
1583, 0.0
1584, 0.0
1585, 0.0
1586, 0.0
1587, 0.0
1588, 0.0
1589, 0.0
1590, 0.0
1591, 0.0
1592, 0.0
1593, 0.0
1594, 0.0
1595, 0.0
1596, 0.0
1597, 0.0
1598, 0.0
1599, 0.0
