30, 0.0
31, 0.0
32, 0.0
33, 0.0
34, 0.0
35, 0.0
36, 0.0
37, 0.0
38, 0.0
39, 0.0
40, 0.0
41, 0.0
42, 0.0
43, 0.0
44, 0.0
45, 0.0
46, 0.0
47, 0.0
48, 0.0
49, 0.0
50, 0.0
51, 0.0
52, 0.0
53, 0.0
54, 0.0
55, 0.0
56, 0.0
57, 0.0
58, 0.0
59, 0.0
60, 0.0
61, 0.0
62, 0.0
63, 0.0
64, 0.0
65, 0.0
66, 0.0
67, 0.0
68, 0.0
69, 0.0
70, 0.0
71, 0.0
72, 0.0
73, 0.0
74, 0.0
75, 0.0
76, 0.0
77, 0.0
78, 0.0
79, 0.0
80, 0.0
81, 0.0
82, 0.0
83, 0.0
84, 0.0
85, 0.0
86, 0.0
87, 0.0
88, 0.0
89, 0.0
90, 0.0
91, 0.0
92, 0.0
93, 0.0
94, 0.0
95, 0.0
96, 0.0
97, 0.0
98, 0.0
99, 0.0
100, 0.0
101, 0.0
102, 0.0
103, 0.0
104, 0.0
105, 0.0
106, 0.0
107, 0.0
108, 0.0
109, 0.0
110, 0.0
111, 0.0
112, 0.0
113, 0.0
114, 0.0
115, 0.0
116, 0.0
117, 0.0
118, 0.0
119, 0.0
120, 0.0
121, 0.0
122, 0.0
123, 0.0
124, 0.0
125, 0.0
126, 0.0
127, 0.0
128, 0.0
129, 0.0
130, 0.0
131, 0.0
132, 0.0
133, 0.0
134, 0.0
135, 0.0
136, 0.0
137, 0.0
138, 0.0
139, 0.0
140, 0.0
141, 0.0
142, 0.0
143, 0.0
144, 0.0
145, 0.0
146, 0.0
147, 0.0
148, 0.0
149, 0.0
150, 0.0
151, 0.0
152, 0.0
153, 0.0
154, 0.0
155, 0.0
156, 0.0
157, 0.0
158, 0.0
159, 0.0
160, 0.0
161, 0.0
162, 0.0
163, 0.0
164, 0.0
165, 0.0
166, 0.0
167, 0.0
168, 0.0
169, 0.0
170, 0.0
171, 0.0
172, 0.0
173, 0.0
174, 0.0
175, 0.0
176, 0.0
177, 0.0
178, 0.0
179, 0.0
180, 0.0
181, 0.0
182, 0.0
183, 0.0
184, 0.0
185, 0.0
186, 0.0
187, 0.0
188, 0.0
189, 0.0
190, 0.0
191, 0.0
192, 0.0
193, 0.0
194, 0.0
195, 0.0
196, 0.0
197, 0.0
198, 0.0
199, 0.0
200, 0.0
201.0, 0.0010429425969252723
202.0, 0.004728252126696723
203.0, 0.006894163360873674
204.0, 0.0073873660306619845
205.0, 0.007496705228271698
206.0, 0.012887095086305497
207.0, 0.006304051873515323
208.0, 0.0029483273442221718
209.0, 0.009264161745223931
210.0, 0.010672008714407336
211.0, 0.008867768384083702
212.0, 0.006186950978322432
213.0, 0.005662538389545652
214.0, 0.00846746617459339
215.0, 0.01039239022448584
216.0, 0.011090014622164157
217.0, 0.011123342041209204
218.0, 0.008091409367670435
219.0, 0.007275665403596797
220.0, 0.010721069397035515
221.0, 0.006953382155466683
222.0, 0.004307922174768028
223.0, 0.003544273880555219
224.0, 0.006028862295290699
225.0, 0.009974438049381473
226.0, 0.01511238637544593
227.0, 0.018569570912809783
228.0, 0.009260034445287238
229.0, 0.01175600929333056
230.0, 0.012456857813164654
231.0, 0.0072726929225075156
232.0, 0.01468024834362722
233.0, 0.016486187691187176
234.0, 0.013467539519115968
235.0, 0.005531797955578731
236.0, 0.00884362953097283
237.0, 0.009757060827382017
238.0, 0.007678572953211594
239.0, 0.0032346653771076856
240.0, 0.005030343818254519
241.0, 0.006606896967188014
242.0, 0.006136156479288208
243.0, 0.003490182948687335
244.0, 0.005923709605778059
245.0, 0.006710367628131805
246.0, 0.0005074838790093813
247.0, 0.002221153695194812
248.0, 0.002558450084953651
249.0, 0.002794938787586951
250.0, 0.006012723532668079
251.0, 0.005336146405472712
252.0, 0.003620401021248898
253.0, 0.0017543015345618108
254.0, 0.0018675010802629258
255.0, 0.0027693452371542063
256.0, 0.002945673036997898
257.0, 0.0016675323273772833
258.0, 0.0015413486858185282
259.0, 0.0017937104693107146
260.0, 0.00444890633170908
261.0, 0.012457323726242985
262.0, 0.010490117925112346
263.0, 0.009668944134610955
264.0, 0.011306613452608508
265.0, 0.0167754011608462
266.0, 0.015416797353943825
267.0, 0.018010491888895513
268.0, 0.025314842648938657
269.0, 0.01648163713075458
270.0, 0.012497999949288947
271.0, 0.012376690406909596
272.0, 0.015868541784963195
273.0, 0.019690007612864914
274.0, 0.025795536381116937
275.0, 0.03049030097847479
276.0, 0.027608645245323513
277.0, 0.03299468530220018
278.0, 0.03830883422469411
279.0, 0.04106026790154288
280.0, 0.035543838787245874
281.0, 0.037077964551701
282.0, 0.03610354780958128
283.0, 0.03097422457785297
284.0, 0.03814837251147982
285.0, 0.032874518249379654
286.0, 0.02594120874230028
287.0, 0.02494557531075035
288.0, 0.03047219506666017
289.0, 0.03277889143842253
290.0, 0.03214595667576458
291.0, 0.028761347814750097
292.0, 0.030558227495957553
293.0, 0.03176671658486586
294.0, 0.03198359872637173
295.0, 0.032107973904408414
296.0, 0.037109789812395266
297.0, 0.04157609295013538
298.0, 0.044645011006083354
299.0, 0.05290390739642496
300.0, 0.05904186922523284
301.0, 0.06321295108794873
302.0, 0.06538048574385309
303.0, 0.06842755182746929
304.0, 0.07655432341689282
305.0, 0.08528559070784597
306.0, 0.08888389740225115
307.0, 0.09187104070480062
308.0, 0.0941683439047617
309.0, 0.09624295890532979
310.0, 0.09928247728499223
311.0, 0.08749251968993696
312.0, 0.08102086476412054
313.0, 0.0821697882295601
314.0, 0.0802628180076169
315.0, 0.08109056147273147
316.0, 0.07836678476639203
317.0, 0.06990681332499253
318.0, 0.06675421333033459
319.0, 0.061724086931450345
320.0, 0.055393255235615724
321.0, 0.04810493253350448
322.0, 0.04091990691816446
323.0, 0.039222772558387145
324.0, 0.04062129926212386
325.0, 0.041605032454238675
326.0, 0.03803704596081945
327.0, 0.039644378898327594
328.0, 0.04201910919845504
329.0, 0.02963653821445984
330.0, 0.02969246742263608
331.0, 0.030268987587976713
332.0, 0.029550766070133294
333.0, 0.03258856659337756
334.0, 0.031197192524286627
335.0, 0.029828026204891705
336.0, 0.030306504158817613
337.0, 0.03163009344921149
338.0, 0.029548199269243645
339.0, 0.027952914243009965
340.0, 0.029768817730708014
341.0, 0.031393362888390695
342.0, 0.03326675587957705
343.0, 0.035101994238410525
344.0, 0.0365140809681637
345.0, 0.037906448070692864
346.0, 0.03946958952736536
347.0, 0.040942660651777874
348.0, 0.041707831363741385
349.0, 0.04347646206473445
350.0, 0.04514185802371205
351.0, 0.046584223838711136
352.0, 0.04801976491648598
353.0, 0.05023529639515749
354.0, 0.052377489410272746
355.0, 0.054296150019377924
356.0, 0.05668087645368115
357.0, 0.05833589559359777
358.0, 0.0595814872024702
359.0, 0.060526086318445485
360.0, 0.060812491494063786
361.0, 0.06063249748070977
362.0, 0.060215353270436145
363.0, 0.059720115442722675
364.0, 0.05920024250849419
365.0, 0.05874445147103352
366.0, 0.058768985972932626
367.0, 0.059824972251138656
368.0, 0.06109423681708705
369.0, 0.057880384807358735
370.0, 0.051709017188299504
371.0, 0.04557776490081875
372.0, 0.04920976295354106
373.0, 0.04434157593739306
374.0, 0.03567208939058607
375.0, 0.04254332459121233
376.0, 0.036862682695720565
377.0, 0.027471360029812642
378.0, 0.018495524742943664
379.0, 0.020065959422548692
380.0, 0.020242112523611397
381.0, 0.01770776336599146
382.0, 0.01290240964441196
383.0, 0.012277398666450732
384.0, 0.010502907385293078
385.0, 0.008366322970189447
386.0, 0.006563704386399457
387.0, 0.009473416464063505
388.0, 0.008161984939991087
389.0, 0.004957989165287182
390.0, 0.0014944169774817964
391.0, 0.004307446851957669
392.0, 0.002853187862687472
393.0, 0.0012078510094016808
394.0, 0.0031673748635360696
395.0, 0.007071992734228516
396.0, 0.009302074548766377
397.0, 0.008875562889767466
398.0, 0.004382870763338394
399.0, 0.004281738952341382
400.0, 0.002730337025365852
401.0, 0.0009474611989931717
402.0, 0.001608168837113816
403.0, 0.002815975027017724
404.0, 0.002102078196708525
405.0, 0.0009510101428779395
406.0, 0.0033765208311145635
407.0, 0.002808818037480949
408.0, 0.0018851881255925117
409.0, 0.0012729409755049739
410.0, 0.0017955215812659017
411.0, 0.004058931454811169
412.0, 0.0045052275936305385
413.0, 0.00308951400375182
414.0, 0.0027119160428254003
415.0, 0.002031213932242043
416.0, 0.003142865093807049
417.0, 0.0058196763399255644
418.0, 0.0055212231408250986
419.0, 0.005146164187297814
420.0, 0.005163754020550486
421.0, 0.005232550537794412
422.0, 0.0016138775470787925
423.0, 0.0007905323204780567
424.0, 0.002391433123966054
425.0, 0.0055339935595255015
426.0, 0.002250059931240751
427.0, 0.0031291315627287046
428.0, 0.003973870594500861
429.0, 0.0027733610983434694
430.0, 0.0038488882666111676
431.0, 0.003567535508438266
432.0, 0.003190470760943061
433.0, 0.00347603049743411
434.0, 0.0029446166335938126
435.0, 0.005990797505080856
436.0, 0.006684753522506507
437.0, 0.0006410529833060598
438.0, 0.0002457540326675242
439.0, 0.002212931836143365
440.0, 0.0036654962077688038
441.0, 0.0020438596441876428
442.0, 0.005778682459731357
443.0, 0.006758261597286092
444.0, 0.005410357614450604
445.0, 0.0021160547334998425
446.0, 0.0032938733451090825
447.0, 0.0063833849833013125
448.0, 0.010077678855859584
449.0, 0.012908487523235902
450.0, 0.011107862256601039
451.0, 0.008750082147428987
452.0, 0.007325105802445882
453.0, 0.008647885474853241
454.0, 0.006956253159707165
455.0, 0.004207089987200288
456.0, 0.004940479373794173
457.0, 0.015522647726345158
458.0, 0.01625871849342127
459.0, 0.014809151217318389
460.0, 0.013774128607168576
461.0, 0.016474239144168193
462.0, 0.015223974742719993
463.0, 0.016515819086352253
464.0, 0.01856809412154625
465.0, 0.018019741184331795
466.0, 0.016568606137410253
467.0, 0.016850771254734227
468.0, 0.01671155590769658
469.0, 0.012329831211594752
470.0, 0.016093209515844302
471.0, 0.01837299909244293
472.0, 0.018378267899426825
473.0, 0.015836697370087253
474.0, 0.018065706243314394
475.0, 0.017481586833516916
476.0, 0.0154703381093347
477.0, 0.01523985144720539
478.0, 0.015115272593934454
479.0, 0.01541599200047504
480.0, 0.01580537059376959
481.0, 0.015684814315436175
482.0, 0.012953503024940223
483.0, 0.0073084240285533125
484.0, 0.005490968679252545
485.0, 0.0187230074405704
486.0, 0.012077995844689767
487.0, 0.008411289935746292
488.0, 0.009885637592923394
489.0, 0.017661548173633648
490.0, 0.011582414948277902
491.0, 0.007285450550479216
492.0, 0.006975764721127492
493.0, 0.012657557412229629
494.0, 0.006925479216792061
495.0, 0.009105278166095309
496.0, 0.012508971786942533
497.0, 0.0064455730982289645
498.0, 0.0105648410763232
499.0, 0.01096845785288875
500.0, 0.0097500444265971
501.0, 0.010316045386144373
502.0, 0.007597520397041413
503.0, 0.008761438396020376
504.0, 0.010325076811504812
505.0, 0.007981261663159885
506.0, 0.006783749797794328
507.0, 0.006138877450281346
508.0, 0.005734443516071322
509.0, 0.00525472596954879
510.0, 0.007683714796311134
511.0, 0.011523974322650454
512.0, 0.014200831678201303
513.0, 0.013237049475914394
514.0, 0.005181114828850792
515.0, 0.007336535230321821
516.0, 0.00997462418329615
517.0, 0.005509804573680983
518.0, 0.0037416286703081166
519.0, 0.004701949349738804
520.0, 0.0070492695411840025
521.0, 0.009441547586765233
522.0, 0.005337620536147189
523.0, 0.002340620939194297
524.0, 0.003996894664127748
525.0, 0.011858068776066235
526.0, 0.01906817486340467
527.0, 0.012654271992293704
528.0, 0.009716413885530928
529.0, 0.016386355239386873
530.0, 0.014257885431154508
531.0, 0.011040195075250376
532.0, 0.011691586552554402
533.0, 0.01564244208144522
534.0, 0.007792439937359509
535.0, 0.017692911877140092
536.0, 0.021151708913857203
537.0, 0.01509548889779631
538.0, 0.020678335063284047
539.0, 0.01632955682159901
540.0, 0.016118343280573478
541.0, 0.0208804787862436
542.0, 0.02153506937007403
543.0, 0.01915994520151641
544.0, 0.016993198918545258
545.0, 0.016198149227673462
546.0, 0.018233736289129533
547.0, 0.024784726463985756
548.0, 0.027901469340430366
549.0, 0.028611747043890867
550.0, 0.03095580248672079
551.0, 0.025526670272328314
552.0, 0.023575187969159164
553.0, 0.02430528012468795
554.0, 0.025148589050672104
555.0, 0.027713622471213888
556.0, 0.02785605162213483
557.0, 0.030285608125388334
558.0, 0.04034955855963354
559.0, 0.031122856967380548
560.0, 0.034418791541106344
561.0, 0.038977369058739414
562.0, 0.035692646884080324
563.0, 0.03747652820733246
564.0, 0.03643623813014839
565.0, 0.03569625648666058
566.0, 0.03696272457602966
567.0, 0.037684277573335374
568.0, 0.036757855600466266
569.0, 0.0328623103667369
570.0, 0.02749520574300679
571.0, 0.033202992001837565
572.0, 0.030340508209839124
573.0, 0.028078367710958216
574.0, 0.02850998177973166
575.0, 0.028642382513875787
576.0, 0.027504055113446925
577.0, 0.024962686990604593
578.0, 0.022477005234262656
579.0, 0.023867916132510155
580.0, 0.025127589695063204
581.0, 0.023421673481587985
582.0, 0.02158928727629182
583.0, 0.02518091734341584
584.0, 0.020955392674978115
585.0, 0.023514338148141276
586.0, 0.028289398986410717
587.0, 0.0288861236361191
588.0, 0.026680205540604195
589.0, 0.023831187436197408
590.0, 0.0223830734463384
591.0, 0.023984636800469014
592.0, 0.028403357329505448
593.0, 0.029404412936075635
594.0, 0.030555734804645223
595.0, 0.03257205933353203
596.0, 0.02658655179688943
597.0, 0.030407569954132987
598.0, 0.033736899510143435
599.0, 0.0345960705071313
600.0, 0.039568912778019015
601.0, 0.04546259385812705
602.0, 0.0456246507323853
603.0, 0.0430711065729647
604.0, 0.04863685381223408
605.0, 0.04672774418652461
606.0, 0.04788454064886461
607.0, 0.05085797672089323
608.0, 0.05198672600223887
609.0, 0.055283537785785916
610.0, 0.062211611492332404
611.0, 0.06779684817053372
612.0, 0.06758416673556246
613.0, 0.07300322711023494
614.0, 0.07836082127555781
615.0, 0.0827183977595427
616.0, 0.08590520825897785
617.0, 0.09117251985673021
618.0, 0.0982016480021892
619.0, 0.10193862332475678
620.0, 0.1034650776466383
621.0, 0.11463184431569991
622.0, 0.1248906767778639
623.0, 0.1308881263179372
624.0, 0.13407815409489632
625.0, 0.13934865988781198
626.0, 0.1565130545769711
627.0, 0.17537625952496755
628.0, 0.19092529886581408
629.0, 0.19784958380110076
630.0, 0.2135888886101025
631.0, 0.23699132299195533
632.0, 0.26016041138588114
633.0, 0.27779251101930597
634.0, 0.30458566888215705
635.0, 0.3315507367835301
636.0, 0.3610758984444792
637.0, 0.3961435218348711
638.0, 0.44624754414216755
639.0, 0.49861757631990533
640.0, 0.5395172803727012
641.0, 0.5765355478986339
642.0, 0.6384781262503556
643.0, 0.6908316480850318
644.0, 0.7462430126990275
645.0, 0.8032892421102488
646.0, 0.8579127575304691
647.0, 0.9052212166774599
648.0, 0.946918688017133
649.0, 0.9761425306631465
650.0, 0.9886248166098979
651.0, 0.997820599463659
652.0, 0.9735560900774796
653.0, 0.9481125811401803
654.0, 0.9260269346229392
655.0, 0.8612640131143054
656.0, 0.8057112700647963
657.0, 0.7677296396987724
658.0, 0.731462123000829
659.0, 0.6567339293729932
660.0, 0.5927367960571441
661.0, 0.5535895181451848
662.0, 0.5170359773639835
663.0, 0.45572428968680184
664.0, 0.4109382179879164
665.0, 0.37908153044099413
666.0, 0.3491967574711111
667.0, 0.31494680756320986
668.0, 0.28378284074374205
669.0, 0.2618637840884591
670.0, 0.24300981662035295
671.0, 0.22374474572165942
672.0, 0.19958542670302332
673.0, 0.19355039996132245
674.0, 0.1766099934031254
675.0, 0.15704060518503696
676.0, 0.15364902788407445
677.0, 0.1409106959273838
678.0, 0.13592133150569538
679.0, 0.12840561565652678
680.0, 0.11208033909067887
681.0, 0.1111806419818377
682.0, 0.10277742574620134
683.0, 0.09530602639997633
684.0, 0.09164398807894993
685.0, 0.08992846944762312
686.0, 0.08936613131098124
687.0, 0.08178796513158257
688.0, 0.0742949074930266
689.0, 0.08128112435222837
690.0, 0.07136547143013683
691.0, 0.06799582261013513
692.0, 0.06620603850738249
693.0, 0.06193084053780835
694.0, 0.06581481968551248
695.0, 0.05847090421117969
696.0, 0.05220276860788568
697.0, 0.05119606349337311
698.0, 0.052116178802266516
699.0, 0.05059225395906233
700.0, 0.04771440400673595
701.0, 0.04366643777315645
702.0, 0.0385042169371102
703.0, 0.040238375507619946
704.0, 0.04265292262976537
705.0, 0.044188381215602424
706.0, 0.044158876228515685
707.0, 0.0467412600646902
708.0, 0.04768497935840984
709.0, 0.044841187010536646
710.0, 0.04104006560742026
711.0, 0.04756308648881622
712.0, 0.04248954769010005
713.0, 0.03811204465244764
714.0, 0.039261513414512034
715.0, 0.04973146272764962
716.0, 0.031913962294689235
717.0, 0.03653053700985656
718.0, 0.04084308939296413
719.0, 0.033042283704573815
720.0, 0.03288793953545186
721.0, 0.030178248482343344
722.0, 0.030428499423920043
723.0, 0.0335773836205224
724.0, 0.03605273950162576
725.0, 0.027200820997692866
726.0, 0.0283303540707603
727.0, 0.03249267206526679
728.0, 0.03125626093651381
729.0, 0.028119056584976595
730.0, 0.03491036337189593
731.0, 0.03657511559564989
732.0, 0.031359556865807096
733.0, 0.03779966677048381
734.0, 0.03885802035484418
735.0, 0.03789742809723473
736.0, 0.034351161975383696
737.0, 0.026808937374284313
738.0, 0.0291873801812698
739.0, 0.029693137696461498
740.0, 0.02883424889533
741.0, 0.02739368237295065
742.0, 0.027754933740926475
743.0, 0.031088024456707452
744.0, 0.03269218648091896
745.0, 0.03269932246690561
746.0, 0.03387978112164501
747.0, 0.029794312937951588
748.0, 0.026344730773201902
749.0, 0.025066315559177474
750.0, 0.026580632464052952
751.0, 0.026906573743201406
752.0, 0.022493745357313386
753.0, 0.024573838491621973
754.0, 0.031111756239590442
755.0, 0.025716364450313348
756.0, 0.024837542312766497
757.0, 0.03048187285012449
758.0, 0.03158130504728192
759.0, 0.017914572877790483
760.0, 0.01957636314282744
761.0, 0.021972455147858956
762.0, 0.023970749130762158
763.0, 0.025785170397045785
764.0, 0.02984931561070968
765.0, 0.024983913149281455
766.0, 0.02324437445423066
767.0, 0.022652255955286558
768.0, 0.01932062458874294
769.0, 0.03239584958237763
770.0, 0.03467194182628778
771.0, 0.027955119301499562
772.0, 0.01730692913684203
773.0, 0.01825125010200446
774.0, 0.007440616452735352
775.0, 0.006751826144344596
776.0, 0.013771292996370782
777.0, 0.0200111894750022
778.0, 0.02071438163974255
779.0, 0.01965415224914135
780.0, 0.016822300978010036
781.0, 0.014336478399251546
782.0, 0.020934301916216917
783.0, 0.009637802761625996
784.0, 0.012648269720109436
785.0, 0.022176379035187415
786.0, 0.019793716698186997
787.0, 0.026395711581149346
788.0, 0.012877413381168415
789.0, 0.004920498160134479
790.0, 0.011511859398543682
791.0, 0.01125085197839226
792.0, 0.013528306819360946
793.0, 0.012007335004568038
794.0, 0.009591219192103657
795.0, 0.011664030653134665
796.0, 0.0199562654351753
797.0, 0.02002373683291405
798.0, 0.019158733707473508
799.0, 0.01922737907447693
800.0, 0.012944995600737842
801.0, 0.012569591174577933
802.0, 0.015479292960634779
803.0, 0.015597058892783537
804.0, 0.007060195808592164
805.0, 0.010295669623431496
806.0, 0.010225670942255835
807.0, 0.011885737751198173
808.0, 0.013611889778530218
809.0, 0.0032086749601149753
810.0, 0.004283833942123953
811.0, 0.002599662060866
812.0, 0.0011236055307553925
813.0, 0.004053800693948341
814.0, 0.005925444626198198
815.0, 0.014043592579109953
816.0, 0.01491561077850978
817.0, 0.009355938617851015
818.0, 0.01125922345281426
819.0, 0.004993967505598907
820.0, 0.004055309268994587
821.0, 0.004238925521528571
822.0, 0.001920092740340425
823.0, 0.0020524357032200807
824.0, 0.002248483524012418
825.0, 0.002126343627944733
826.0, 0.0025086365082758093
827.0, 0.005015563308439984
828.0, 0.008239762434656137
829.0, 0.00769195187707228
830.0, 0.006720008397766929
831.0, 0.006372399201710889
832.0, 0.0013302912890781355
833.0, 0.0014053424716059797
834.0, 0.0028652161640343034
835.0, 0.0034075686925600993
836.0, 0.0011898464620165364
837.0, 0.002265978270838364
838.0, 0.003884708522285546
839.0, 0.00484904605390853
840.0, 0.005548421366468257
841.0, 0.008535253489231344
842.0, 0.0032827940529474952
843.0, 0.0015826947310258698
844.0, 0.0026346898853004774
845.0, 0.004355425325487453
846.0, 0.003822454160625593
847.0, 0.009002913514757785
848.0, 0.010157658103285836
849.0, 0.008397911993691045
850.0, 0.01025227661158909
851.0, 0.005287897296462495
852.0, 0.0035495330707647588
853.0, 0.004789757559055753
854.0, 0.0080615506605713
855.0, 0.010796201564071016
856.0, 0.006239014084695694
857.0, 0.0037059792966675485
858.0, 0.005229324542712795
859.0, 0.010576273573259274
860.0, 0.00930222625588069
861.0, 0.009687143005144642
862.0, 0.008364362951009842
863.0, 0.007123741345164546
864.0, 0.011712473148101955
865.0, 0.0051189560142269434
866.0, 0.003251388069485162
867.0, 0.005680346269562699
868.0, 0.00961431310768059
869.0, 0.006144753023835665
870.0, 0.01206831289406373
871.0, 0.008383651051381641
872.0, 0.0041615252848939905
873.0, 0.01085237927299253
874.0, 0.006041770912528128
875.0, 0.0031232005796225423
876.0, 0.0069102558697714134
877.0, 0.011735474163041007
878.0, 0.0033854461891507344
879.0, 0.008947835301555258
880.0, 0.005001053059368002
881.0, 0.0029083487510289155
882.0, 0.0075655206500296005
883.0, 0.00992540033322125
884.0, 0.00876981753001259
885.0, 0.006002932402354429
886.0, 0.007441217249255514
887.0, 0.01565215713542332
888.0, 0.004450688301458853
889.0, 0.011863251963196719
890.0, 0.01176330397983434
891.0, 0.005640677410668335
892.0, 0.007955229306570586
893.0, 0.007263031099709214
894.0, 0.003847185495607626
895.0, 0.0036737462845031358
896.0, 0.008379754049079832
897.0, 0.01415229624005424
898.0, 0.009274064261000484
899.0, 0.004048721811898925
900.0, 0.003824870921649876
901.0, 0.008800730053999051
902.0, 0.001040605227162868
903.0, 0.0003132558827335303
904.0, 0.008612602339269432
905.0, 0.0135264071986356
906.0, 0.00177160260384583
907.0, 0.0022254529280721666
908.0, 0.008683706378455482
909.0, 0.010223795654723932
910.0, 0.0064554310023904795
911.0, 0.0036720120069240747
912.0, 0.011508550513217218
913.0, 0.013085308250677597
914.0, 0.012149819798108464
915.0, 0.011003138250630196
916.0, 0.01005230014961168
917.0, 0.00978716912063617
918.0, 0.009321194313288407
919.0, 0.00863394687801566
920.0, 0.008091956642685725
921.0, 0.009338019834480637
922.0, 0.009940012834920202
923.0, 0.010081141764914574
924.0, 0.010046931185713204
925.0, 0.010165687538009636
926.0, 0.010732235668332655
927.0, 0.009444238102679109
928.0, 0.009173275128514456
929.0, 0.009514015076149806
930.0, 0.008751003515969668
931.0, 0.014887935110408375
932.0, 0.016255490744051533
933.0, 0.016479110795950838
934.0, 0.015965833208324787
935.0, 0.012061774894239874
936.0, 0.013896123872906629
937.0, 0.014252171351817312
938.0, 0.015507888802432984
939.0, 0.018080509324533943
940.0, 0.01821633351001502
941.0, 0.017546392163071984
942.0, 0.02049346226476677
943.0, 0.022005624548075416
944.0, 0.018703061824230392
945.0, 0.015550742246069726
946.0, 0.015728778189348366
947.0, 0.015818691373128742
948.0, 0.01624566173379308
949.0, 0.017028710255333916
950.0, 0.01041221290217664
951.0, 0.01316509924898742
952.0, 0.015369477398546242
953.0, 0.015475747632513533
954.0, 0.015003070950684852
955.0, 0.018569695095589225
956.0, 0.019090741829363857
957.0, 0.014599111384722887
958.0, 0.008708411694116801
959.0, 0.00861303447284887
960.0, 0.015011412400445772
961.0, 0.019734313988842463
962.0, 0.02212765156205921
963.0, 0.0228372193216619
964.0, 0.023828346057305418
965.0, 0.018344228468231024
966.0, 0.01796846422356258
967.0, 0.02058477071327592
968.0, 0.022916459899429455
969.0, 0.01984159844062429
970.0, 0.023595311168363484
971.0, 0.01912002169261154
972.0, 0.014642929449204848
973.0, 0.014791671318734574
974.0, 0.015065138667828982
975.0, 0.012324612046376767
976.0, 0.012835443150331256
977.0, 0.014009848474654994
978.0, 0.014123109787264157
979.0, 0.016211775419662084
980.0, 0.020418415156708943
981.0, 0.017972260055003183
982.0, 0.013743526735181078
983.0, 0.0137394724261251
984.0, 0.02144919287659111
985.0, 0.011774308394397899
986.0, 0.013967096671176743
987.0, 0.020529256592159362
988.0, 0.018862260574950603
989.0, 0.006258219540735071
990.0, 0.0037861146699563588
991.0, 0.005166167537043767
992.0, 0.007213072091265903
993.0, 0.007900477962008972
994.0, 0.008983270528662683
995.0, 0.0060024952351152416
996.0, 0.009265710869174052
997.0, 0.011757759564951406
998.0, 0.004387461623391826
999.0, 0.0053045633855085
1000.0, 0.0030141210404063218
1001.0, 0.00657412693643544
1002.0, 0.011160812844647414
1003.0, 0.008159557053121392
1004.0, 0.002133334998516251
1005.0, 0.007598800595130289
1006.0, 0.0062660973247926875
1007.0, 0.0014748084318377402
1008.0, 0.0038605941906752423
1009.0, 0.006952413783500387
1010.0, 0.01235493446521636
1011.0, 0.008223587795167197
1012.0, 0.002724721355321042
1013.0, 0.009686112817358865
1014.0, 0.001743121685978578
1015.0, 0.0022710145638271213
1016.0, 0.004461273920646195
1017.0, 0.006446860309568645
1018.0, 0.008687577979616447
1019.0, 0.01472752612960154
1020.0, 0.01188653578132126
1021.0, 0.007383635194956472
1022.0, 0.005997603290455683
1023.0, 0.01005918133595879
1024.0, 0.004086360547340607
1025.0, 0.0030643727860200673
1026.0, 0.003552625713935604
1027.0, 0.004083068448221171
1028.0, 0.003930262275575181
1029.0, 0.0021508142183100445
1030.0, 0.007218793477661994
1031.0, 0.008210291894396773
1032.0, 0.006106819919541251
1033.0, 0.006310137510053461
1034.0, 0.009255182925901417
1035.0, 0.004985336802790166
1036.0, 0.003252557174071131
1037.0, 0.00393818878386998
1038.0, 0.0035880319932264466
1039.0, 0.0013755162928665346
1040.0, 0.006724116944498527
1041.0, 0.011945767092275787
1042.0, 0.01352422248092745
1043.0, 0.01019147940998834
1044.0, 0.006181263663304179
1045.0, 0.007668323525479421
1046.0, 0.009876675191190875
1047.0, 0.012549748617281017
1048.0, 0.015662684711465837
1049.0, 0.014512793254155193
1050.0, 0.013680609964862802
1051.0, 0.00922395322258055
1052.0, 0.006686352289013901
1053.0, 0.009302749254969642
1054.0, 0.00350831026239343
1055.0, 0.007602364584796262
1056.0, 0.0084891859320939
1057.0, 0.005229132553312361
1058.0, 0.001428411134415634
1059.0, 0.008359918749549352
1060.0, 0.007974056825227184
1061.0, 0.0085307224781856
1062.0, 0.007708743291981667
1063.0, 0.0043493177163580095
1064.0, 0.0022000388680571466
1065.0, 0.0015796186440461147
1066.0, 0.0015449780019080475
1067.0, 0.0040469874015087995
1068.0, 0.007703935324649093
1069.0, 0.005676737622674438
1070.0, 0.005105908643957806
1071.0, 0.006124917341371761
1072.0, 0.0055076663449135825
1073.0, 0.0035523143978816204
1074.0, 0.004482017393635048
1075.0, 0.01062348583955117
1076.0, 0.007259016746720197
1077.0, 0.007535196461031729
1078.0, 0.012210225949382422
1079.0, 0.012961330806393483
1080.0, 0.011804367207835703
1081.0, 0.0076446319440473245
1082.0, 0.0036208150029832875
1083.0, 0.0036448543709866666
1084.0, 0.010122973513089028
1085.0, 0.009090086299367407
1086.0, 0.012887484984169858
1087.0, 0.014741731112183257
1088.0, 0.013080353647969773
1089.0, 0.010010141138756368
1090.0, 0.017342579534529574
1091.0, 0.014851375442411694
1092.0, 0.016305876504520735
1093.0, 0.014760999845986207
1094.0, 0.006865037095152647
1095.0, 0.010204381948172926
1096.0, 0.005185305271843371
1097.0, 0.012652204075032343
1098.0, 0.015912073445265445
1099.0, 0.009422923393563775
1100.0, 0.011762201754845804
1101.0, 0.0199682573365359
1102.0, 0.013696759967335666
1103.0, 0.007998503504476727
1104.0, 0.008294585151960042
1105.0, 0.009635888111605841
1106.0, 0.015357994877783223
1107.0, 0.014638023925329306
1108.0, 0.00882114669631765
1109.0, 0.005622260658452268
1110.0, 0.01365645032510145
1111.0, 0.019628884399115185
1112.0, 0.020836465148865706
1113.0, 0.014906026169884113
1114.0, 0.01066409451355076
1115.0, 0.014803330643481074
1116.0, 0.012266388542213508
1117.0, 0.019466078439091532
1118.0, 0.023006818957537388
1119.0, 0.01938366917534732
1120.0, 0.012629556869616325
1121.0, 0.01861020907766442
1122.0, 0.01733693812737852
1123.0, 0.022490779645923515
1124.0, 0.026492667146080413
1125.0, 0.02515554089672267
1126.0, 0.019542635041308737
1127.0, 0.028537556936082824
1128.0, 0.016192275844153545
1129.0, 0.013786548800615169
1130.0, 0.018256060795386043
1131.0, 0.013117248159945274
1132.0, 0.016598488514069514
1133.0, 0.012608799493301057
1134.0, 0.013838303197869073
1135.0, 0.014781409711955764
1136.0, 0.012436326376420191
1137.0, 0.024334212233798155
1138.0, 0.01581803952825193
1139.0, 0.016963695522590534
1140.0, 0.019228565727892936
1141.0, 0.015286592880586373
1142.0, 0.004584864988029549
1143.0, 0.012976363843891451
1144.0, 0.012489017742275897
1145.0, 0.014031455988834223
1146.0, 0.019564316166809877
1147.0, 0.024315526224690916
1148.0, 0.0166629202932098
1149.0, 0.014000694728932506
1150.0, 0.009074447636748712
1151.0, 0.009177784606730594
1152.0, 0.018582124030985366
1153.0, 0.020863165073213712
1154.0, 0.013594548246772057
1155.0, 0.008822149102715619
1156.0, 0.009349110576037163
1157.0, 0.01195006305031024
1158.0, 0.0074798273635030615
1159.0, 0.008212932373135702
1160.0, 0.007838159511796668
1161.0, 0.005768510783704404
1162.0, 0.005709536187392645
1163.0, 0.011177451103355985
1164.0, 0.009691654160352359
1165.0, 0.01521023079632972
1166.0, 0.015063878833657935
1167.0, 0.010733260051049472
1168.0, 0.006371621912317496
1169.0, 0.004971484359198442
1170.0, 0.00699557162136982
1171.0, 0.009599415309013275
1172.0, 0.013391668644173193
1173.0, 0.015455386552903525
1174.0, 0.011250861099252241
1175.0, 0.017161824518012035
1176.0, 0.00799060222385243
1177.0, 0.007244053455670999
1178.0, 0.009702496981326575
1179.0, 0.007049482037678375
1180.0, 0.015756631294916574
1181.0, 0.009608164807788346
1182.0, 0.007405820861312119
1183.0, 0.0069410199560852705
1184.0, 0.0070453201044406895
1185.0, 0.010224146770456908
1186.0, 0.01024902542222821
1187.0, 0.00833377635818526
1188.0, 0.008069913532572512
1189.0, 0.007068351046041005
1190.0, 0.002594542208648982
1191.0, 0.0033320322265225646
1192.0, 0.0030738846837726104
1193.0, 0.0017218238116678687
1194.0, 0.0015336851259051423
1195.0, 0.002917671774555031
1196.0, 0.003124950055783668
1197.0, 0.005256249035682614
1198.0, 0.008488182229934228
1199.0, 0.006233536329667266
1200.0, 0.0042972251344637075
1201.0, 0.010187145396570532
1202.0, 0.005484980462165907
1203.0, 0.01588083784886225
1204.0, 0.009120216209146683
1205.0, 0.007486131259327896
1206.0, 0.01672360405388964
1207.0, 0.00462899429367604
1208.0, 0.014735407890030958
1209.0, 0.011889913947902652
1210.0, 0.00983856049790937
1211.0, 0.010733945217376532
1212.0, 0.010649947655216733
1213.0, 0.008342601246597537
1214.0, 0.013042448820041986
1215.0, 0.011894971158791331
1216.0, 0.010271837158943458
1217.0, 0.011336849854712616
1218.0, 0.01144034580432425
1219.0, 0.011512497931522788
1220.0, 0.01268272580105226
1221.0, 0.01398874481749904
1222.0, 0.014934969424131323
1223.0, 0.015549002302551207
1224.0, 0.01692660132520618
1225.0, 0.016546250232689987
1226.0, 0.01812703857536469
1227.0, 0.018384619515128015
1228.0, 0.017363599951191386
1229.0, 0.01896240898305921
1230.0, 0.017556625080385618
1231.0, 0.01900644070564139
1232.0, 0.023042506240523918
1233.0, 0.022957058520248312
1234.0, 0.018216873565199375
1235.0, 0.029513061038280122
1236.0, 0.022097466445106555
1237.0, 0.03289151777211187
1238.0, 0.029087901083748473
1239.0, 0.01269117728963966
1240.0, 0.011229083041096356
1241.0, 0.020164157272255068
1242.0, 0.014866494357914312
1243.0, 0.014925257903055551
1244.0, 0.016861017244939578
1245.0, 0.0160897043045966
1246.0, 0.014183400096049776
1247.0, 0.02192856446725967
1248.0, 0.02297021842332253
1249.0, 0.02017467079314893
1250.0, 0.017380749041135398
1251.0, 0.01742454850237768
1252.0, 0.01855304749360443
1253.0, 0.014781614023288854
1254.0, 0.020349197071981004
1255.0, 0.02070125673755026
1256.0, 0.017506990898378542
1257.0, 0.025215568300304525
1258.0, 0.017674150913109966
1259.0, 0.01721218060692112
1260.0, 0.019247547227841784
1261.0, 0.019245595365095302
1262.0, 0.017642009981467713
1263.0, 0.022735404767844504
1264.0, 0.01981302392874352
1265.0, 0.01462199899729279
1266.0, 0.017051473387049047
1267.0, 0.022147142510057605
1268.0, 0.020441437200995855
1269.0, 0.010629894897911364
1270.0, 0.015301602143184007
1271.0, 0.0211435277034838
1272.0, 0.02366445592569862
1273.0, 0.02366996308776472
1274.0, 0.024123576797071177
1275.0, 0.01632183378674466
1276.0, 0.014979992207065064
1277.0, 0.01669666370842942
1278.0, 0.015489264563351006
1279.0, 0.014499367237606687
1280.0, 0.026502674701991052
1281.0, 0.019713162571741667
1282.0, 0.015479005796800088
1283.0, 0.017944894586374018
1284.0, 0.018972506629820543
1285.0, 0.014480053275986192
1286.0, 0.01700949941911767
1287.0, 0.012798751175049456
1288.0, 0.011466272534021424
1289.0, 0.012399155323473222
1290.0, 0.015352096505497043
1291.0, 0.018219802875337556
1292.0, 0.011918724141649142
1293.0, 0.01677709986289192
1294.0, 0.012598527561766385
1295.0, 0.009296037130714396
1296.0, 0.012622762416114843
1297.0, 0.020188929560640806
1298.0, 0.01413902042819918
1299.0, 0.014935035099626029
1300.0, 0.012151455574561884
1301.0, 0.008215924772827982
1302.0, 0.009129797385211667
1303.0, 0.0187486158431989
1304.0, 0.007310003876923199
1305.0, 0.006118287639550251
1306.0, 0.016396752501967336
1307.0, 0.019961615243021306
1308.0, 0.010686620559297635
1309.0, 0.006124112037699322
1310.0, 0.0210876448102811
1311.0, 0.014396046340167524
1312.0, 0.010646469802694097
1313.0, 0.008454325720614608
1314.0, 0.0036477642569221693
1315.0, 0.0024706408899968675
1316.0, 0.0027478478708931322
1317.0, 0.0028809179119494393
1318.0, 0.004320522346471336
1319.0, 0.005451630092719496
1320.0, 0.005566897989086012
1321.0, 0.009024525959022568
1322.0, 0.0035065671108550243
1323.0, 0.012645290881423146
1324.0, 0.010737507232646545
1325.0, 0.002079544231510865
1326.0, 0.002070904853216784
1327.0, 0.009735804664672254
1328.0, 0.006668133754780327
1329.0, 0.008495447337119042
1330.0, 0.005465766832377171
1331.0, 0.0021135202507367615
1332.0, 0.007123169604606114
1333.0, 0.011308489872769825
1334.0, 0.007183518666795215
1335.0, 0.00964831557539937
1336.0, 0.007999183396254468
1337.0, 0.004943013924866146
1338.0, 0.008692979082425395
1339.0, 0.008110850633634583
1340.0, 0.004575426475573959
1341.0, 0.004925921511310104
1342.0, 0.0048887085034299005
1343.0, 0.0050497687917980955
1344.0, 0.008162921896459173
1345.0, 0.007707316608306746
1346.0, 0.011221232144843246
1347.0, 0.005953792198149634
1348.0, 0.0014234845577139948
1349.0, 0.002965584622222149
1350.0, 0.008044735076734744
1351.0, 0.0028172162439244254
1352.0, 0.007790707751053331
1353.0, 0.0068289503857940715
1354.0, 0.010617075031803211
1355.0, 0.015619337928918642
1356.0, 0.01115908677861118
1357.0, 0.012692819854256744
1358.0, 0.0037403753777142477
1359.0, 0.008112540142629713
1360.0, 0.009924126376998342
1361.0, 0.007504392800188987
1362.0, 0.009562908174319132
1363.0, 0.00961774426056036
1364.0, 0.015978089112168737
1365.0, 0.014750729677627906
1366.0, 0.011931336220629378
1367.0, 0.00929592019843368
1368.0, 0.005202470709196193
1369.0, 0.001772806473190214
1370.0, 0.0026779774362898847
1371.0, 0.00385421528871486
1372.0, 0.004921653240290671
1373.0, 0.005536718860357138
1374.0, 0.005210008590082303
1375.0, 0.003283532291271798
1376.0, 0.0038442123843268824
1377.0, 0.0019913423163176267
1378.0, 0.0018589985288336541
1379.0, 0.004872988859478688
1380.0, 0.007978909336234704
1381.0, 0.001752272067188736
1382.0, 0.01081451798244254
1383.0, 0.005100496245999781
1384.0, 0.0007098978052233594
1385.0, 0.0035924890092650236
1386.0, 0.009146886912081544
1387.0, 0.0038725128207004397
1388.0, 0.004371602576217694
1389.0, 0.003393341998909131
1390.0, 0.004328161814262556
1391.0, 0.006020601347633559
1392.0, 0.0057788149056384065
1393.0, 0.0023730318557774127
1394.0, 0.01090342420358244
1395.0, 0.008278064383870127
1396.0, 0.009065944357961396
1397.0, 0.012742512291598757
1398.0, 0.012616788747189649
1399.0, 0.002999284999146131
1400.0, 0.005307759367692504
1401.0, 0.008527184798207419
1402.0, 0.005076961547953273
1403.0, 0.004252684656715895
1404.0, 0.0078852118786957
1405.0, 0.008228490000056736
1406.0, 0.009497905238254403
1407.0, 0.0031587567602212813
1408.0, 0.0060860919811728175
1409.0, 0.007423814935477434
1410.0, 0.008101172910066217
1411.0, 0.013628194245593922
1412.0, 0.0021689251335679487
1413.0, 0.010640027296319412
1414.0, 0.010585193847366685
1415.0, 0.005225104321255692
1416.0, 0.005312536487067522
1417.0, 0.013310674849276937
1418.0, 0.0064480774550775225
1419.0, 0.00963390433037827
1420.0, 0.011543357865504615
1421.0, 0.009354408537961139
1422.0, 0.006528077340733401
1423.0, 0.005983275896126549
1424.0, 0.006425731831488203
1425.0, 0.015078520289839508
1426.0, 0.006672240605726234
1427.0, 0.008930888244089441
1428.0, 0.011018919649280215
1429.0, 0.007897168675124123
1430.0, 0.007990679498302605
1431.0, 0.006254706396792769
1432.0, 0.00937677217610386
1433.0, 0.010350895817568383
1434.0, 0.012786391592705894
1435.0, 0.014249694249311865
1436.0, 0.01135628368831779
1437.0, 0.012325942437472922
1438.0, 0.014629491913348593
1439.0, 0.013189305343852608
1440.0, 0.014821543906709363
1441.0, 0.015598740382161963
1442.0, 0.011555336383252372
1443.0, 0.007270932632405518
1444.0, 0.011400935558545865
1445.0, 0.013267098942515158
1446.0, 0.011688445043090011
1447.0, 0.012230369856016433
1448.0, 0.015502519833068603
1449.0, 0.01641400459183636
1450.0, 0.01581386420036934
1451.0, 0.016291050509555673
1452.0, 0.011838609313796282
1453.0, 0.007859612590395085
1454.0, 0.00870533403324331
1455.0, 0.014395644185149055
1456.0, 0.01864377549748494
1457.0, 0.01852993551024123
1458.0, 0.012027459649851628
1459.0, 0.015106449402846295
1460.0, 0.02115049904466538
1461.0, 0.02127773800837596
1462.0, 0.01658766845059218
1463.0, 0.022523371171356724
1464.0, 0.011235605334725524
1465.0, 0.0065270199366133
1466.0, 0.009530558745166597
1467.0, 0.013199000483056538
1468.0, 0.012177691363512717
1469.0, 0.01609232588534763
1470.0, 0.023864522207586007
1471.0, 0.021733856575801017
1472.0, 0.02082944846287118
1473.0, 0.018105305263035477
1474.0, 0.012620818795215809
1475.0, 0.013332070580584231
1476.0, 0.014674525104630949
1477.0, 0.01368937551248117
1478.0, 0.014627527647661643
1479.0, 0.014912915490464357
1480.0, 0.01494571800571027
1481.0, 0.016072323643721038
1482.0, 0.013257423377689561
1483.0, 0.011453651521863445
1484.0, 0.011799685835411798
1485.0, 0.008749432658900047
1486.0, 0.014881119258696793
1487.0, 0.02561416810223644
1488.0, 0.013305755039261298
1489.0, 0.018625808994905
1490.0, 0.02023475776747738
1491.0, 0.013798227860389315
1492.0, 0.02058399941064423
1493.0, 0.027417624350746964
1494.0, 0.015307211970508529
1495.0, 0.01425905011967078
1496.0, 0.014896360514676398
1497.0, 0.011908631109498975
1498.0, 0.011517509805048384
1499.0, 0.01713379740834582
1500.0, 0.01987390986509825
1501.0, 0.008510603754049547
1502.0, 0.020509748302465977
1503.0, 0.01364014250867955
1504.0, 0.013070125907107722
1505.0, 0.015283498165167038
1506.0, 0.015931817682255968
1507.0, 0.013299071869292701
1508.0, 0.010335985698688724
1509.0, 0.028531838728627155
1510.0, 0.014960911716943883
1511.0, 0.006579743014745993
1512.0, 0.01342666313023509
1513.0, 0.019142540259975308
1514.0, 0.008391206560338179
1515.0, 0.016222327552162727
1516.0, 0.029154779538509673
1517.0, 0.009634139503836561
1518.0, 0.01384502101505721
1519.0, 0.021020187978867906
1520.0, 0.011594445560257606
1521, 0.0
1522, 0.0
1523, 0.0
1524, 0.0
1525, 0.0
1526, 0.0
1527, 0.0
1528, 0.0
1529, 0.0
1530, 0.0
1531, 0.0
1532, 0.0
1533, 0.0
1534, 0.0
1535, 0.0
1536, 0.0
1537, 0.0
1538, 0.0
1539, 0.0
1540, 0.0
1541, 0.0
1542, 0.0
1543, 0.0
1544, 0.0
1545, 0.0
1546, 0.0
1547, 0.0
1548, 0.0
1549, 0.0
1550, 0.0
1551, 0.0
1552, 0.0
1553, 0.0
1554, 0.0
1555, 0.0
1556, 0.0
1557, 0.0
1558, 0.0
1559, 0.0
1560, 0.0
1561, 0.0
1562, 0.0
1563, 0.0
1564, 0.0
1565, 0.0
1566, 0.0
1567, 0.0
1568, 0.0
1569, 0.0
1570, 0.0
1571, 0.0
1572, 0.0
1573, 0.0
1574, 0.0
1575, 0.0
1576, 0.0
1577, 0.0
1578, 0.0
1579, 0.0
1580, 0.0
1581, 0.0
1582, 0.0
1583, 0.0
1584, 0.0
1585, 0.0
1586, 0.0
1587, 0.0
1588, 0.0
1589, 0.0
1590, 0.0
1591, 0.0
1592, 0.0
1593, 0.0
1594, 0.0
1595, 0.0
1596, 0.0
1597, 0.0
1598, 0.0
1599, 0.0
