30, 0.0
31, 0.0
32, 0.0
33, 0.0
34, 0.0
35, 0.0
36, 0.0
37, 0.0
38, 0.0
39, 0.0
40, 0.0
41, 0.0
42, 0.0
43, 0.0
44, 0.0
45, 0.0
46, 0.0
47, 0.0
48, 0.0
49, 0.0
50, 0.0
51, 0.0
52, 0.0
53, 0.0
54, 0.0
55, 0.0
56, 0.0
57, 0.0
58, 0.0
59, 0.0
60, 0.0
61, 0.0
62, 0.0
63, 0.0
64, 0.0
65, 0.0
66, 0.0
67, 0.0
68, 0.0
69, 0.0
70, 0.0
71, 0.0
72, 0.0
73, 0.0
74, 0.0
75, 0.0
76, 0.0
77, 0.0
78, 0.0
79, 0.0
80, 0.0
81, 0.0
82, 0.0
83, 0.0
84, 0.0
85, 0.0
86, 0.0
87, 0.0
88, 0.0
89, 0.0
90, 0.0
91, 0.0
92, 0.0
93, 0.0
94, 0.0
95, 0.0
96, 0.0
97, 0.0
98, 0.0
99, 0.0
100, 0.0
101, 0.0
102, 0.0
103, 0.0
104, 0.0
105, 0.0
106, 0.0
107, 0.0
108, 0.0
109, 0.0
110, 0.0
111, 0.0
112, 0.0
113, 0.0
114, 0.0
115, 0.0
116, 0.0
117, 0.0
118, 0.0
119, 0.0
120, 0.0
121, 0.0
122, 0.0
123, 0.0
124, 0.0
125, 0.0
126, 0.0
127, 0.0
128, 0.0
129, 0.0
130, 0.0
131, 0.0
132, 0.0
133, 0.0
134, 0.0
135, 0.0
136, 0.0
137, 0.0
138, 0.0
139, 0.0
140, 0.0
141, 0.0
142, 0.0
143, 0.0
144, 0.0
145, 0.0
146, 0.0
147.0, 0.00026974938046503796
148.0, 0.008396124154590656
149.0, 0.01797334609765663
150.0, 0.021479008670453298
151.0, 0.020058821308426414
152.0, 0.023304606746152184
153.0, 0.023246523001679554
154.0, 0.02050193847114411
155.0, 0.022749414365101313
156.0, 0.022912957670877223
157.0, 0.015753844674577196
158.0, 0.008796159490054741
159.0, 0.01159931931557598
160.0, 0.018187626642004538
161.0, 0.013705831048409
162.0, 0.0077403918107379005
163.0, 0.009770529245077667
164.0, 0.01050382457645358
165.0, 0.01796986405614153
166.0, 0.023952623860547972
167.0, 0.02376091097561414
168.0, 0.02403200947952658
169.0, 0.026013006993208604
170.0, 0.0308269528862221
171.0, 0.03548553359764423
172.0, 0.034384491990393756
173.0, 0.027955453717300925
174.0, 0.028369043805597922
175.0, 0.03093235102267439
176.0, 0.02571699499947816
177.0, 0.02454487432870885
178.0, 0.027307450245098938
179.0, 0.03202273578731448
180.0, 0.03424720632361538
181.0, 0.03544027924043648
182.0, 0.04768852581383627
183.0, 0.060226202840170634
184.0, 0.06222649618217946
185.0, 0.058824350480481145
186.0, 0.06309494881613932
187.0, 0.06363079027332827
188.0, 0.05924668717612124
189.0, 0.05765332765815933
190.0, 0.05807228975129641
191.0, 0.057574121454442476
192.0, 0.05663155493448936
193.0, 0.056283813356197664
194.0, 0.053981808467462075
195.0, 0.05530186100191796
196.0, 0.06057103183737897
197.0, 0.0647977823183598
198.0, 0.060087882276151465
199.0, 0.06182957397567068
200.0, 0.059924461085923246
201.0, 0.053819414662785385
202.0, 0.05419619790008138
203.0, 0.04919817062221465
204.0, 0.04141117500679433
205.0, 0.033285084542732934
206.0, 0.025636107374289247
207.0, 0.018915219839862423
208.0, 0.013069078512111741
209.0, 0.003312232389293627
210.0, 0.007200215344665362
211.0, 0.0025226660690005035
212.0, 0.0013389199953898383
213.0, 0.003172790442277696
214.0, 0.0032718643778774418
215.0, 0.002348142479651251
216.0, 0.001053569348691335
217.0, 0.003853933204051619
218.0, 0.007535118182679811
219.0, 0.008020611524769444
220.0, 0.005050285797325112
221.0, 0.003982602588404045
222.0, 0.0020873189965494206
223.0, 0.0022032463019736213
224.0, 0.005936811855753038
225.0, 0.0007367919420519242
226.0, 0.003935471029603081
227.0, 0.012443209648728186
228.0, 0.010392655293166898
229.0, 0.013409756111911924
230.0, 0.014724059805365978
231.0, 0.01774357343796447
232.0, 0.025528431289495005
233.0, 0.02950540993194285
234.0, 0.026026708554519107
235.0, 0.0257784502246623
236.0, 0.030626959506833196
237.0, 0.03170670774512352
238.0, 0.03701682224748841
239.0, 0.04116233450681524
240.0, 0.04369311153991562
241.0, 0.046145419271086445
242.0, 0.04395420141760488
243.0, 0.048839075907043866
244.0, 0.054355584843322986
245.0, 0.054590029748333296
246.0, 0.05224261014486204
247.0, 0.056850461481750755
248.0, 0.05605370198989236
249.0, 0.0531698255316306
250.0, 0.05869197726618901
251.0, 0.05466053502873273
252.0, 0.056105936072080496
253.0, 0.059111091969858566
254.0, 0.05815619687939954
255.0, 0.057000403471553586
256.0, 0.06534921899517004
257.0, 0.07080810525072244
258.0, 0.06960726453936916
259.0, 0.0668658449591685
260.0, 0.0641472082011514
261.0, 0.06738999006944532
262.0, 0.07191459354178077
263.0, 0.07215141257025687
264.0, 0.07015065844098062
265.0, 0.06772507631786137
266.0, 0.06358700113227518
267.0, 0.057961802176101605
268.0, 0.05204510830245524
269.0, 0.05274817054211101
270.0, 0.05128486233476493
271.0, 0.0488046068758216
272.0, 0.0472324869192962
273.0, 0.039979938703008006
274.0, 0.03724209279984859
275.0, 0.03333408700956094
276.0, 0.02849027927354002
277.0, 0.02906109840262443
278.0, 0.026367443597843748
279.0, 0.02854517547984784
280.0, 0.029631989822040537
281.0, 0.024086532523253035
282.0, 0.021507520385221905
283.0, 0.020887796930446047
284.0, 0.01944878950803981
285.0, 0.019788993937647936
286.0, 0.024850094270396094
287.0, 0.018990688210592865
288.0, 0.019958376878246382
289.0, 0.02095443657614496
290.0, 0.014972077846430136
291.0, 0.01428414602845383
292.0, 0.01612500210761846
293.0, 0.015022278147711746
294.0, 0.012893146945827291
295.0, 0.014794565502877083
296.0, 0.017989942860604978
297.0, 0.015111157954694884
298.0, 0.016287340423337505
299.0, 0.021894279072912186
300.0, 0.015359283299722202
301.0, 0.015371331075452573
302.0, 0.020069271155179525
303.0, 0.02254641987125442
304.0, 0.020291427952330483
305.0, 0.02013168648747113
306.0, 0.021917272112877775
307.0, 0.021628943376699093
308.0, 0.01934446415787273
309.0, 0.019476990091183703
310.0, 0.023474756630729027
311.0, 0.02417956388044846
312.0, 0.021188594021943966
313.0, 0.020182796608865797
314.0, 0.029724955563631975
315.0, 0.031207324726800923
316.0, 0.03136007470524703
317.0, 0.035143746901407355
318.0, 0.040302094931007275
319.0, 0.04063790094211855
320.0, 0.046111583439836325
321.0, 0.046855391515527915
322.0, 0.04048208028119481
323.0, 0.041808497900002656
324.0, 0.0448803213441966
325.0, 0.05137213239372362
326.0, 0.054715277636907214
327.0, 0.0500466033688662
328.0, 0.052265128360430395
329.0, 0.052589818556417756
330.0, 0.05254451771255407
331.0, 0.053172501627172394
332.0, 0.05370937778339714
333.0, 0.06130192550067671
334.0, 0.05186664034781251
335.0, 0.04431964974561894
336.0, 0.0507631369309748
337.0, 0.04626489469232198
338.0, 0.03788163609534322
339.0, 0.03357809846527826
340.0, 0.03386570986053877
341.0, 0.03545537400429709
342.0, 0.03659148540067533
343.0, 0.031680102979028665
344.0, 0.03249947808165846
345.0, 0.03669251775643161
346.0, 0.03194635279250543
347.0, 0.03861007156283908
348.0, 0.034928836633674826
349.0, 0.030118795277152777
350.0, 0.028792386024896168
351.0, 0.016400190059425095
352.0, 0.020240074561469756
353.0, 0.020952352407079596
354.0, 0.016153101695390366
355.0, 0.014111019909125364
356.0, 0.015034121801110968
357.0, 0.013609504063113589
358.0, 0.012274247319516136
359.0, 0.013733822465820432
360.0, 0.01660641143929154
361.0, 0.010539771455227087
362.0, 0.005590248732289358
363.0, 0.007492390786442456
364.0, 0.010664704483339206
365.0, 0.0032412618543910506
366.0, 0.004993924546912949
367.0, 0.0044566217441011045
368.0, 0.005137408892658873
369.0, 0.008745504693125202
370.0, 0.005227638153308055
371.0, 0.00852170577372489
372.0, 0.012942588186945162
373.0, 0.01077057109777022
374.0, 0.0022742091209633063
375.0, 0.005524255416230635
376.0, 0.0020727142353693735
377.0, 0.0028298588629112912
378.0, 0.004353621023907205
379.0, 0.002747107446757593
380.0, 0.003022421232111299
381.0, 0.001452465078646335
382.0, 0.00213854174800602
383.0, 0.0023237826981764593
384.0, 0.0043414004713196105
385.0, 0.005635595002055642
386.0, 0.006736371485277061
387.0, 0.007054302517013715
388.0, 0.006987033225209648
389.0, 0.009590491282031403
390.0, 0.002128773364457189
391.0, 0.0015622709221672344
392.0, 0.0066980180156569
393.0, 0.011042576164671337
394.0, 0.012919396699979522
395.0, 0.008075384444684846
396.0, 0.0064493308388069385
397.0, 0.0025015677785770033
398.0, 0.006549169659228328
399.0, 0.003923534592498934
400.0, 0.0040645065382009975
401.0, 0.0028267446072616498
402.0, 0.008195184212816805
403.0, 0.0032374183725337197
404.0, 0.010844300512068588
405.0, 0.01679123518866513
406.0, 0.01105650052972078
407.0, 0.0029534800366522733
408.0, 0.006782857598976484
409.0, 0.006126791732183876
410.0, 0.007816293276301544
411.0, 0.0067780728435428515
412.0, 0.0041905649892150214
413.0, 0.005639252407269151
414.0, 0.004734979759324556
415.0, 0.007682050532484696
416.0, 0.016212339241141478
417.0, 0.024204827396282755
418.0, 0.024309729756125432
419.0, 0.027323774424399806
420.0, 0.022947627819176232
421.0, 0.02511359871597305
422.0, 0.03242716806527724
423.0, 0.027512981728480882
424.0, 0.031072912369068145
425.0, 0.03140368474288683
426.0, 0.03324868396794131
427.0, 0.03983181172360387
428.0, 0.047017906239595356
429.0, 0.05108601973306173
430.0, 0.06179580848854236
431.0, 0.06718922121420211
432.0, 0.06488341923513022
433.0, 0.0716646932805215
434.0, 0.07483549213213803
435.0, 0.07706271811343987
436.0, 0.07259918851016858
437.0, 0.06740582481738935
438.0, 0.07789434774652935
439.0, 0.08690051046873554
440.0, 0.08463173568965433
441.0, 0.08406636483002412
442.0, 0.09028356578839539
443.0, 0.09025087870351524
444.0, 0.08615196113787812
445.0, 0.08560136360389375
446.0, 0.08494700523554015
447.0, 0.08239938632976185
448.0, 0.08270520505221887
449.0, 0.07724779674709256
450.0, 0.07182797671164054
451.0, 0.06669870803261053
452.0, 0.06122465549983597
453.0, 0.056826766213557325
454.0, 0.0504027544440258
455.0, 0.04179778386064474
456.0, 0.038187369566141376
457.0, 0.04116373331693318
458.0, 0.03947999957011606
459.0, 0.03296037569736082
460.0, 0.025634631017492106
461.0, 0.02263530563795503
462.0, 0.02379773137058954
463.0, 0.023823801863947478
464.0, 0.021941259186124232
465.0, 0.01802651505350642
466.0, 0.015993498046689043
467.0, 0.016522688137681877
468.0, 0.01683034946920566
469.0, 0.02020559001107119
470.0, 0.01878430326775772
471.0, 0.014361193126077698
472.0, 0.011697042272001886
473.0, 0.013269251035391406
474.0, 0.009361833526839152
475.0, 0.00443831051348678
476.0, 0.0033953253818238423
477.0, 0.005400205618535493
478.0, 0.005674285204318667
479.0, 0.0019441312974299559
480.0, 0.0042758961574517
481.0, 0.005359667064054411
482.0, 0.0066411951738571395
483.0, 0.012803525247223285
484.0, 0.008601137965965634
485.0, 0.00780722312303289
486.0, 0.0033477953631700693
487.0, 0.0012297256822774677
488.0, 0.00401636089279303
489.0, 0.0017418718853478034
490.0, 0.0035955013652044752
491.0, 0.0016825907210225896
492.0, 0.00017796262781049092
493.0, 0.0007023361985331893
494.0, 0.0006952850145611055
495.0, 0.0023987142367365164
496.0, 0.002208349120178335
497.0, 0.007215338120684582
498.0, 0.005585879310189048
499.0, 0.0027272115713339886
500.0, 0.002006768228295152
501.0, 0.0040720848967674824
502.0, 0.001759631483223855
503.0, 0.000498757634624915
504.0, 0.0034855092207349667
505.0, 0.005421646031976135
506.0, 0.006851142736551806
507.0, 0.008990966674800831
508.0, 0.0115761728233727
509.0, 0.014319517220046643
510.0, 0.02052372926013665
511.0, 0.01865151578910361
512.0, 0.01528521991757149
513.0, 0.014600446407579508
514.0, 0.015705299102423034
515.0, 0.01620573094509289
516.0, 0.009922541004510146
517.0, 0.01620153841565099
518.0, 0.019507749347220518
519.0, 0.009086998255185894
520.0, 0.010578378067305981
521.0, 0.017398020090002006
522.0, 0.015485424595865684
523.0, 0.013762830648700469
524.0, 0.01762334448344803
525.0, 0.018350014317786746
526.0, 0.01899168090107091
527.0, 0.013615226152849082
528.0, 0.015019539365323476
529.0, 0.022716703086803628
530.0, 0.023720430001260832
531.0, 0.01887249786148553
532.0, 0.030513909543937175
533.0, 0.031062578548591915
534.0, 0.022442645900670282
535.0, 0.022238071524944267
536.0, 0.030969272581281106
537.0, 0.03083741440128966
538.0, 0.030213328635106125
539.0, 0.030216326526767853
540.0, 0.029811911503764894
541.0, 0.03073278868527192
542.0, 0.03616172805764204
543.0, 0.032806249028185165
544.0, 0.028560052736027516
545.0, 0.03209870994535788
546.0, 0.040380744011822726
547.0, 0.039910660532682045
548.0, 0.042118996897008106
549.0, 0.04548644866603392
550.0, 0.04427128196874429
551.0, 0.03750232382978832
552.0, 0.03667486271266896
553.0, 0.03376977502236379
554.0, 0.0303751449774995
555.0, 0.028177690505452487
556.0, 0.026357971954863346
557.0, 0.023616539888871007
558.0, 0.02667664719160899
559.0, 0.029103002625908297
560.0, 0.024840229630737377
561.0, 0.018933706823323595
562.0, 0.01952300300187566
563.0, 0.02610316941335939
564.0, 0.029505041655924307
565.0, 0.0209929394082501
566.0, 0.014735925539868796
567.0, 0.01952218622783707
568.0, 0.022339378882672765
569.0, 0.022678503909256114
570.0, 0.021970213605338268
571.0, 0.017842607871693075
572.0, 0.014594532840164291
573.0, 0.01574113949423451
574.0, 0.010574400888367525
575.0, 0.014518503179134699
576.0, 0.013450872102450457
577.0, 0.009556724841905444
578.0, 0.010502168079747467
579.0, 0.01662285235143939
580.0, 0.01454378357770793
581.0, 0.012211561196584538
582.0, 0.007972215403802139
583.0, 0.004642572170891596
584.0, 0.007758600851869337
585.0, 0.011221976446878121
586.0, 0.013979491944699133
587.0, 0.012749021374743381
588.0, 0.011867497037068702
589.0, 0.01308009560748153
590.0, 0.010966713546372134
591.0, 0.007903939651435196
592.0, 0.0019644872435367715
593.0, 0.000654236467740139
594.0, 0.0012731216867490854
595.0, 0.002233075975347541
596.0, 0.0006573261909333387
597.0, 0.0029089757326047337
598.0, 0.0021951923572510594
599.0, 0.0029339924272291954
600.0, 0.0011131568822955011
601.0, 0.0101244546420699
602.0, 0.012331839658635482
603.0, 0.005363044123402035
604.0, 0.005103005804468145
605.0, 0.008514175965039884
606.0, 0.006190260414766896
607.0, 0.005807925764070485
608.0, 0.007390976702160617
609.0, 0.01182836228563928
610.0, 0.011598508362397373
611.0, 0.007990844970388464
612.0, 0.008899623236103214
613.0, 0.006356088106060105
614.0, 0.006722424343509435
615.0, 0.0062388154598592895
616.0, 0.006137346254349503
617.0, 0.00732967412996997
618.0, 0.006086367941421529
619.0, 0.00958719792466978
620.0, 0.0052699675911278485
621.0, 0.0004654963203042299
622.0, 0.0014602577616562567
623.0, 0.006665538247480812
624.0, 0.0025968248825817206
625.0, 0.0036274203274197425
626.0, 0.0011292797716776636
627.0, 0.0007674794468414878
628.0, 0.006012210532179228
629.0, 0.011484807182358503
630.0, 0.00624803230086006
631.0, 0.00833336301981365
632.0, 0.012528641331547451
633.0, 0.009553423970921229
634.0, 0.0036232602384244344
635.0, 0.010029324789979843
636.0, 0.008117770982904393
637.0, 0.007286075349791904
638.0, 0.007197775726235707
639.0, 0.005679596953343012
640.0, 0.0014057608661914897
641.0, 0.003642362458787614
642.0, 0.0024356697653551435
643.0, 0.002411665758284253
644.0, 0.005461578076962234
645.0, 0.00933719719184821
646.0, 0.006535365807437295
647.0, 0.0061490378259868375
648.0, 0.014215759347545074
649.0, 0.010415008889282795
650.0, 0.0067609998923385565
651.0, 0.01029510010609228
652.0, 0.00996228673146994
653.0, 0.0044349398592366555
654.0, 0.0019891254824089175
655.0, 0.008148968905562716
656.0, 0.008653502628407294
657.0, 0.003661986428685761
658.0, 0.009840620524555501
659.0, 0.010418311859854427
660.0, 0.010237643009383053
661.0, 0.011622052334989148
662.0, 0.012008610483573831
663.0, 0.009309678873633988
664.0, 0.005945600741020631
665.0, 0.00657005980873076
666.0, 0.006680097835643939
667.0, 0.008047659066954215
668.0, 0.006955650168243561
669.0, 0.004076037279959362
670.0, 0.0076457385761731465
671.0, 0.012098285785715573
672.0, 0.0059701563380442245
673.0, 0.009880045748688372
674.0, 0.015130431458498725
675.0, 0.008984727640501325
676.0, 0.0053019713174749196
677.0, 0.008618641883413507
678.0, 0.01184123050711398
679.0, 0.012126153158088354
680.0, 0.011100585734084314
681.0, 0.011117372887977458
682.0, 0.010636170751061982
683.0, 0.0017350180002529104
684.0, 0.002671353573385457
685.0, 0.003534517479697693
686.0, 0.0008690278920827832
687.0, 0.004639885793819229
688.0, 0.0038007690355412595
689.0, 0.006190282933190708
690.0, 0.005143269578719672
691.0, 0.0035948742291210907
692.0, 0.004314231660964678
693.0, 0.0044977347404132
694.0, 0.0018708033534592385
695.0, 0.007839398063500813
696.0, 0.009485467987834456
697.0, 0.0019656566408111156
698.0, 0.00023330406880019182
699.0, 0.008258803371891324
700.0, 0.005629174025662719
701.0, 0.0019471003822871525
702.0, 0.0021311516627937526
703.0, 0.002058513773606966
704.0, 0.002997575263388616
705.0, 0.003482040880531142
706.0, 0.0032567622831199115
707.0, 0.0016066867796856895
708.0, 0.0055485119055999526
709.0, 0.004541183013244356
710.0, 0.0038880896003747655
711.0, 0.006904406932156076
712.0, 0.008882180668698572
713.0, 0.009110242130828027
714.0, 0.00788281066336313
715.0, 0.008838908050421848
716.0, 0.007976629312468795
717.0, 0.005353134658966099
718.0, 0.007587355059274928
719.0, 0.006306579320893499
720.0, 0.0062479390595472075
721.0, 0.002193410930802383
722.0, 0.002704008665886914
723.0, 0.00042390926426896856
724.0, 0.003979708991797812
725.0, 0.0018194261703002278
726.0, 0.0005247193838599144
727.0, 0.002064389638607914
728.0, 0.005295298935738071
729.0, 0.005381769046678447
730.0, 0.000852601929480576
731.0, 0.0061155616266188075
732.0, 0.006522552598889157
733.0, 0.004329617554076794
734.0, 0.004914193899407549
735.0, 0.006227723028119527
736.0, 0.007516792477445791
737.0, 0.014750339860019729
738.0, 0.013511277360998592
739.0, 0.015344237673480369
740.0, 0.01845971354894376
741.0, 0.019316417089709027
742.0, 0.018467001005817458
743.0, 0.018441926105864887
744.0, 0.01316320978274279
745.0, 0.0112831717480568
746.0, 0.007955825185253108
747.0, 0.008096679886536697
748.0, 0.012215722808554519
749.0, 0.012587622742619244
750.0, 0.014413698172803484
751.0, 0.012758371576475453
752.0, 0.008234425890325258
753.0, 0.007977477416391127
754.0, 0.010122152800518994
755.0, 0.009905953115941866
756.0, 0.010266931307556154
757.0, 0.006783712552769787
758.0, 0.001664627740105468
759.0, 0.0013178639190721962
760.0, 0.005907348948471704
761.0, 0.008096253018473573
762.0, 0.003167355802936462
763.0, 0.002523172647776251
764.0, 0.001900238151896956
765.0, 0.0018536285936561578
766.0, 0.0011034827865457847
767.0, 0.003355094936111641
768.0, 0.005031919651235115
769.0, 0.0033932741147399857
770.0, 0.007853823312123275
771.0, 0.005725321310980438
772.0, 0.004657072396943121
773.0, 0.006519490189577024
774.0, 0.009555119244992395
775.0, 0.01735582117819314
776.0, 0.018455600590348828
777.0, 0.01987974698644273
778.0, 0.026233597378611924
779.0, 0.025234717806927976
780.0, 0.021039204766952025
781.0, 0.02964738331762235
782.0, 0.03619644656004305
783.0, 0.03922945763779437
784.0, 0.045166762413970565
785.0, 0.04843935576872368
786.0, 0.05006748037373674
787.0, 0.054549581513512364
788.0, 0.06080523244208718
789.0, 0.07153075637408456
790.0, 0.08240139938968856
791.0, 0.08848868911256783
792.0, 0.09565233029661149
793.0, 0.10717764817787498
794.0, 0.11839368561354398
795.0, 0.1235920135699415
796.0, 0.1259412369027626
797.0, 0.13722873146435882
798.0, 0.1453736009490345
799.0, 0.15422196432303711
800.0, 0.16432987969778404
801.0, 0.16508442626343917
802.0, 0.17222244818155213
803.0, 0.18396718802587222
804.0, 0.19035389804223138
805.0, 0.1948825266927438
806.0, 0.20123302398881918
807.0, 0.21006911346729285
808.0, 0.22089589945363158
809.0, 0.22760872066100862
810.0, 0.23832543601557415
811.0, 0.2488883127989368
812.0, 0.26429029833530465
813.0, 0.28713839687312015
814.0, 0.3109545978216399
815.0, 0.3309430418580872
816.0, 0.35447934327816494
817.0, 0.3842596443859579
818.0, 0.4174765697195881
819.0, 0.45509888312053104
820.0, 0.49814485124491903
821.0, 0.5440840687628374
822.0, 0.5878249298863126
823.0, 0.6328566947557922
824.0, 0.6784921016264143
825.0, 0.7296829802932518
826.0, 0.7826203542227808
827.0, 0.8315017386737559
828.0, 0.8774977383686886
829.0, 0.920770658738259
830.0, 0.9558935546406852
831.0, 0.9874587239593617
832.0, 0.9999208482733241
833.0, 0.9956675818853473
834.0, 0.9798092785587111
835.0, 0.9385902426167415
836.0, 0.8834974638800964
837.0, 0.8282279566664478
838.0, 0.76863424769169
839.0, 0.7047570910196103
840.0, 0.6375466349807493
841.0, 0.5687254818555197
842.0, 0.5030956288504679
843.0, 0.4323753731167248
844.0, 0.3697220907596151
845.0, 0.3164273334970388
846.0, 0.2602734423185028
847.0, 0.21294021002593078
848.0, 0.1847020921345991
849.0, 0.14707606004200965
850.0, 0.1238424259226997
851.0, 0.10135654091969033
852.0, 0.0909612754293176
853.0, 0.0793915113240569
854.0, 0.06447572237677635
855.0, 0.05673167355081521
856.0, 0.04869629361844402
857.0, 0.038264292449565945
858.0, 0.040431829525279316
859.0, 0.03701122913466851
860.0, 0.02650774008855541
861.0, 0.019349982933680503
862.0, 0.019072452801126197
863.0, 0.01659452575637203
864.0, 0.013668307610621875
865.0, 0.013256315815105885
866.0, 0.014136687695104622
867.0, 0.012808405547436945
868.0, 0.01150021212887393
869.0, 0.010541462910761952
870.0, 0.004649597790999786
871.0, 0.0038268422290899723
872.0, 0.002564914529478538
873.0, 0.0031145779893664714
874.0, 0.005584704070301158
875.0, 0.001720149817217264
876.0, 0.0017550368613517878
877.0, 0.004034005600788033
878.0, 0.001296911457130166
879.0, 0.0015894847562519007
880.0, 0.0018151433944709405
881.0, 0.0012903445870134974
882.0, 0.004277605740842408
883.0, 0.0027843774061004543
884.0, 0.0035282214852709742
885.0, 0.004841483359773713
886.0, 0.002685679457475349
887.0, 0.0025701334228778816
888.0, 0.004085752844567762
889.0, 0.0014517501934145543
890.0, 0.0024559614973304602
891.0, 0.0013033862297178798
892.0, 0.00018139066349937783
893.0, 0.0012517961605711236
894.0, 0.004413302108350468
895.0, 0.001394410191808038
896.0, 0.0014169142162552026
897.0, 0.0027140222055995833
898.0, 0.00045954673714003783
899.0, 0.0022717834209733207
900.0, 0.00452744039776223
901.0, 0.0007490419088934326
902.0, 0.0014396942035520442
903.0, 0.0012380438693119704
904.0, 0.0011331160139897867
905.0, 0.004516167811770706
906.0, 0.000614652962175788
907.0, 0.001228563635325777
908.0, 0.003108304120291401
909.0, 0.0023090455708806457
910.0, 0.0020680806337567705
911.0, 0.0015336746532247686
912.0, 0.0007077776957262736
913.0, 0.0029406359684735683
914.0, 0.0047392360880064354
915.0, 0.00453654120350803
916.0, 0.011178072763973607
917.0, 0.009239059181161583
918.0, 0.00743296364103338
919.0, 0.008758116403023736
920.0, 0.00802804756794954
921.0, 0.006677510548427507
922.0, 0.004253588696595255
923.0, 0.0036916290516564947
924.0, 0.0065066642768894425
925.0, 0.0060071202481775145
926.0, 0.0046422984133338676
927.0, 0.004521441897975023
928.0, 0.00465842417684314
929.0, 0.007422083074012462
930.0, 0.007611459239150528
931.0, 0.01055000875360949
932.0, 0.01085234927085735
933.0, 0.007645220797385594
934.0, 0.0059767668493675985
935.0, 0.007607599052154327
936.0, 0.008734395252390819
937.0, 0.008544043077525192
938.0, 0.009650663055256161
939.0, 0.006034346938868315
940.0, 0.01006999906944906
941.0, 0.012428441229726543
942.0, 0.00873168669881389
943.0, 0.006280807400998657
944.0, 0.006656496795672278
945.0, 0.008152965842837338
946.0, 0.006350978143735736
947.0, 0.0062506414421224215
948.0, 0.0065252016756954054
949.0, 0.004788233019643788
950.0, 0.002865700661672124
951.0, 0.0024964975366089715
952.0, 0.0014855120025711308
953.0, 0.007629467533954005
954.0, 0.003849296534142528
955.0, 0.006084326910690664
956.0, 0.0035912484184401033
957.0, 0.0038052082049947087
958.0, 0.007595183069612497
959.0, 0.005551532731757434
960.0, 0.005725846781271609
961.0, 0.00088425057394464
962.0, 0.0027357446469141473
963.0, 0.0013473989880343007
964.0, 0.0010496635282063699
965.0, 0.0035574127103594278
966.0, 0.005654553071167789
967.0, 0.0063094333810096125
968.0, 0.003610548029605975
969.0, 0.003085870817054557
970.0, 0.004505636102107375
971.0, 0.007291380530744549
972.0, 0.00576026703912924
973.0, 0.002430948434677433
974.0, 0.00414929453714054
975.0, 0.0074603210971971685
976.0, 0.001641341580423165
977.0, 0.0031726297654023116
978.0, 0.007398151302514246
979.0, 0.004034929426974976
980.0, 0.00016497936527489247
981.0, 0.0015458300435080372
982.0, 0.008458988122381286
983.0, 0.014273708400456869
984.0, 0.009864912511340338
985.0, 0.014093574062810775
986.0, 0.009302281799602213
987.0, 0.00853101601596319
988.0, 0.008566849470264292
989.0, 0.007832118076668967
990.0, 0.007218816291290196
991.0, 0.005904559128243173
992.0, 0.004677728783639982
993.0, 0.0029106956292701265
994.0, 0.004015506577199345
995.0, 0.011755252491120338
996.0, 0.0064442312740139104
997.0, 0.002521599251236557
998.0, 0.004341327378749064
999.0, 0.003165586604122471
1000.0, 0.003248515195543867
1001.0, 0.006100475172587995
1002.0, 0.00878955458257475
1003.0, 0.007907751794557426
1004.0, 0.006566294156041304
1005.0, 0.005384985755680718
1006.0, 0.007076591660579688
1007.0, 0.008321465189131783
1008.0, 0.0033560292807129077
1009.0, 0.0022066470308201437
1010.0, 0.0016163074739277672
1011.0, 0.001348789208307966
1012.0, 0.0029828069119252547
1013.0, 0.006251780218356173
1014.0, 0.005759954383724702
1015.0, 0.0036834886346566566
1016.0, 0.005439006294113616
1017.0, 0.005326213076039783
1018.0, 0.003582599248758327
1019.0, 0.0008525770620591407
1020.0, 0.0005712595304812646
1021.0, 0.005205803156521601
1022.0, 0.0016248177907469035
1023.0, 0.0031789501938166405
1024.0, 0.002086844455678906
1025.0, 0.005993344420543447
1026.0, 0.005726244106239291
1027.0, 0.009765275312142583
1028.0, 0.004903174536142197
1029.0, 0.004700509797802041
1030.0, 0.0061309367474861945
1031.0, 0.006879535900827581
1032.0, 0.0076488152371789984
1033.0, 0.007197100315782189
1034.0, 0.005615273605090696
1035.0, 0.006038502834545382
1036.0, 0.0006989170020406443
1037.0, 0.0035345344452454948
1038.0, 0.005671601081749966
1039.0, 0.002708266386024116
1040.0, 0.0004159899589873745
1041.0, 0.002445589704811815
1042.0, 0.004305061426210521
1043.0, 0.0025007309538727616
1044.0, 0.0001602479276269725
1045.0, 0.0029927310642075713
1046.0, 0.0023097871782229275
1047.0, 0.0014312263203365878
1048.0, 0.00011833899143652864
1049.0, 0.005603808331639487
1050.0, 0.01245565759687569
1051.0, 0.005570332111754712
1052.0, 0.004577604287504712
1053.0, 0.0076293697553461515
1054.0, 0.006417530390468689
1055.0, 0.008114374173260943
1056.0, 0.0025798258078112246
1057.0, 0.00271514760147583
1058.0, 0.006545781404250858
1059.0, 0.004403914674925477
1060.0, 0.0027642644313059443
1061.0, 0.0028166890028961437
1062.0, 0.001061337665306076
1063.0, 0.0038270044834430262
1064.0, 0.0043044645454659485
1065.0, 0.002567682590115131
1066.0, 0.0006302539367070751
1067.0, 0.00047625414070018166
1068.0, 0.0016892356470085532
1069.0, 0.0037153337345904444
1070.0, 0.008911000540174512
1071.0, 0.008769223779755973
1072.0, 0.004968027076551525
1073.0, 0.0043539717859115935
1074.0, 0.00566223976926268
1075.0, 0.009592510970215844
1076.0, 0.010974015146210554
1077.0, 0.00723021203513724
1078.0, 0.004790607939062705
1079.0, 0.006278005060323782
1080.0, 0.003089535168635396
1081.0, 0.0016983183196052458
1082.0, 0.005332556248803001
1083.0, 0.0019246118882318896
1084.0, 0.0018913974584096362
1085.0, 0.0036515927919259657
1086.0, 0.003365206979176636
1087.0, 0.005250233305053705
1088.0, 0.004485006977229988
1089.0, 0.007026842203781127
1090.0, 0.009937042989780013
1091.0, 0.002773058348491837
1092.0, 0.005815050030953835
1093.0, 0.006408711042895272
1094.0, 0.00596505179974323
1095.0, 0.004951015709205005
1096.0, 0.001412151467745625
1097.0, 0.0034510424538613197
1098.0, 0.005299945644299779
1099.0, 0.0025540671907439533
1100.0, 0.0032719097080279717
1101.0, 0.0013334163133893844
1102.0, 0.0016593922112599
1103.0, 0.0030131060937877707
1104.0, 0.0056491616315024465
1105.0, 0.006181615291804501
1106.0, 0.003266123352337654
1107.0, 0.004839186377292681
1108.0, 0.0005624151383812118
1109.0, 0.0015557790760414106
1110.0, 0.0076627951372772755
1111.0, 0.004533534274992924
1112.0, 0.005360801997467824
1113.0, 0.001946804081134517
1114.0, 0.0013615703700994059
1115.0, 0.0019114500741497502
1116.0, 0.0027489352851481448
1117.0, 0.002497224912896446
1118.0, 0.004089129450771346
1119.0, 0.002981281616229601
1120.0, 0.002554055879619082
1121.0, 0.006634268200327591
1122.0, 0.0042032779412663306
1123.0, 0.0011363319418785749
1124.0, 0.002784270819416223
1125.0, 0.0031060986427366506
1126.0, 0.0027103177061035006
1127.0, 0.0062626136795913305
1128.0, 0.002338111949484192
1129.0, 0.004583424540895368
1130.0, 0.0008527785473238926
1131.0, 0.007205064775721063
1132.0, 0.005045969686030963
1133.0, 0.00200788190579876
1134.0, 0.004757481305161474
1135.0, 0.005825317280918702
1136.0, 0.007004770112539641
1137.0, 0.01153257578715356
1138.0, 0.005683236162392778
1139.0, 0.005908273468137685
1140.0, 0.009790545845737245
1141.0, 0.006491006532003225
1142.0, 0.003494184654179222
1143.0, 0.0017983612196316124
1144.0, 0.002193651066158031
1145.0, 0.0028092871548347173
1146.0, 0.006298663036410426
1147.0, 0.008716459288834143
1148.0, 0.0003350289626450224
1149.0, 0.004266453580233671
1150.0, 0.0031130148074321445
1151.0, 0.00940573527592544
1152.0, 0.009652978831319119
1153.0, 0.005906258306958303
1154.0, 0.005219330192169456
1155.0, 0.005752929475263303
1156.0, 0.004019924783266438
1157.0, 0.002631691159877503
1158.0, 0.010654564078223645
1159.0, 0.0047278166360787705
1160.0, 0.002103686326705025
1161.0, 0.0019642391816416384
1162.0, 0.002689377549620595
1163.0, 0.0036553959136384285
1164.0, 0.0024112389390696367
1165.0, 0.003750995520735837
1166.0, 0.005624191611643808
1167.0, 0.002919886350430989
1168.0, 0.006395546705979611
1169.0, 0.00774268622053524
1170.0, 0.0050881059482829494
1171.0, 0.00605583237265636
1172.0, 0.0065671491583474675
1173.0, 0.0039158639414343475
1174.0, 0.005659427244692216
1175.0, 0.006728351281313276
1176.0, 0.0055166704798528254
1177.0, 0.0053058860055556845
1178.0, 0.003953669687196875
1179.0, 0.007943727253022323
1180.0, 0.010733466903266865
1181.0, 0.007058948520375371
1182.0, 0.01016248521188672
1183.0, 0.0124605059181945
1184.0, 0.010722203465863802
1185.0, 0.007929785645739304
1186.0, 0.007611544237676895
1187.0, 0.007899221436317716
1188.0, 0.007301221908155983
1189.0, 0.008856045833008615
1190.0, 0.008130816098601926
1191.0, 0.00468508080935576
1192.0, 0.006467329405935943
1193.0, 0.0062310371562662595
1194.0, 0.010714007932645948
1195.0, 0.008654134595957812
1196.0, 0.0005942900654108056
1197.0, 0.00039232592069315237
1198.0, 0.004791668567522594
1199.0, 0.0057885894906546855
1200.0, 0.006461654966502299
1201.0, 0.008991266599912569
1202.0, 0.009639738510057923
1203.0, 0.007650413593090033
1204.0, 0.007679689595184958
1205.0, 0.005967403395025392
1206.0, 0.009256690163418235
1207.0, 0.011393026519554234
1208.0, 0.005030070573095982
1209.0, 0.0040094197932127665
1210.0, 0.010153864726473604
1211.0, 0.007289087901375262
1212.0, 0.0025767231369766682
1213.0, 0.012057546417843217
1214.0, 0.01171604655062726
1215.0, 0.00910111949888184
1216.0, 0.007475111722009996
1217.0, 0.010009351004134371
1218.0, 0.013406445620576569
1219.0, 0.012675886832674583
1220.0, 0.011991837217784027
1221.0, 0.011344925884693956
1222.0, 0.008678515645938075
1223.0, 0.009183560979332383
1224.0, 0.011075819379754156
1225.0, 0.0069112255260509094
1226.0, 0.0046474012359519696
1227.0, 0.001425290510845081
1228.0, 0.002825354735436465
1229.0, 0.005932887588067526
1230.0, 0.0025549161593678804
1231.0, 0.0024403381164356253
1232.0, 0.00152226167232304
1233.0, 0.003469326584713668
1234.0, 0.0017977536760096185
1235.0, 0.0016957812539284468
1236.0, 0.006563610598129357
1237.0, 0.003976562465491396
1238.0, 0.004851914986129075
1239.0, 0.004595792356454522
1240.0, 0.003182301748578844
1241.0, 0.0043235816005647585
1242.0, 0.004604866976069299
1243.0, 0.0040427543116008284
1244.0, 0.0026685354057404635
1245.0, 0.0009309875903018432
1246.0, 0.0012435564222919998
1247.0, 0.00619221608984219
1248.0, 0.007861712325095192
1249.0, 0.002644693405898559
1250.0, 0.007629373001261444
1251.0, 0.008288626584822023
1252.0, 0.008230081353088742
1253.0, 0.004068756060986249
1254.0, 0.009128785405517698
1255.0, 0.010431554487023485
1256.0, 0.006886086381858505
1257.0, 0.007606401669951911
1258.0, 0.009402559919792485
1259.0, 0.008874373008248844
1260.0, 0.0070024434556128865
1261.0, 0.006883419811213499
1262.0, 0.009292364874292492
1263.0, 0.00603210400416133
1264.0, 0.005596395924532403
1265.0, 0.007122236204144174
1266.0, 0.004144737788875685
1267.0, 0.0010463596158390314
1268.0, 0.0005987621254967169
1269.0, 0.00041414548479648896
1270.0, 0.002067492449650956
1271.0, 0.0038557988778063633
1272.0, 0.0027398621352616773
1273.0, 0.0043405983260092155
1274.0, 0.0051882553488653855
1275.0, 0.007815851324833895
1276.0, 0.002396145318717248
1277.0, 0.000827819978903335
1278.0, 0.00041587192357908263
1279.0, 0.002089374549160156
1280.0, 0.005306195208840624
1281.0, 0.005535180614320758
1282.0, 0.003908716679749375
1283.0, 0.0010479067751577758
1284, 0.0
1285, 0.0
1286, 0.0
1287, 0.0
1288, 0.0
1289, 0.0
1290, 0.0
1291, 0.0
1292, 0.0
1293, 0.0
1294, 0.0
1295, 0.0
1296, 0.0
1297, 0.0
1298, 0.0
1299, 0.0
1300, 0.0
1301, 0.0
1302, 0.0
1303, 0.0
1304, 0.0
1305, 0.0
1306, 0.0
1307, 0.0
1308, 0.0
1309, 0.0
1310, 0.0
1311, 0.0
1312, 0.0
1313, 0.0
1314, 0.0
1315, 0.0
1316, 0.0
1317, 0.0
1318, 0.0
1319, 0.0
1320, 0.0
1321, 0.0
1322, 0.0
1323, 0.0
1324, 0.0
1325, 0.0
1326, 0.0
1327, 0.0
1328, 0.0
1329, 0.0
1330, 0.0
1331, 0.0
1332, 0.0
1333, 0.0
1334, 0.0
1335, 0.0
1336, 0.0
1337, 0.0
1338, 0.0
1339, 0.0
1340, 0.0
1341, 0.0
1342, 0.0
1343, 0.0
1344, 0.0
1345, 0.0
1346, 0.0
1347, 0.0
1348, 0.0
1349, 0.0
1350, 0.0
1351, 0.0
1352, 0.0
1353, 0.0
1354, 0.0
1355, 0.0
1356, 0.0
1357, 0.0
1358, 0.0
1359, 0.0
1360, 0.0
1361, 0.0
1362, 0.0
1363, 0.0
1364, 0.0
1365, 0.0
1366, 0.0
1367, 0.0
1368, 0.0
1369, 0.0
1370, 0.0
1371, 0.0
1372, 0.0
1373, 0.0
1374, 0.0
1375, 0.0
1376, 0.0
1377, 0.0
1378, 0.0
1379, 0.0
1380, 0.0
1381, 0.0
1382, 0.0
1383, 0.0
1384, 0.0
1385, 0.0
1386, 0.0
1387, 0.0
1388, 0.0
1389, 0.0
1390, 0.0
1391, 0.0
1392, 0.0
1393, 0.0
1394, 0.0
1395, 0.0
1396, 0.0
1397, 0.0
1398, 0.0
1399, 0.0
1400, 0.0
1401, 0.0
1402, 0.0
1403, 0.0
1404, 0.0
1405, 0.0
1406, 0.0
1407, 0.0
1408, 0.0
1409, 0.0
1410, 0.0
1411, 0.0
1412, 0.0
1413, 0.0
1414, 0.0
1415, 0.0
1416, 0.0
1417, 0.0
1418, 0.0
1419, 0.0
1420, 0.0
1421, 0.0
1422, 0.0
1423, 0.0
1424, 0.0
1425, 0.0
1426, 0.0
1427, 0.0
1428, 0.0
1429, 0.0
1430, 0.0
1431, 0.0
1432, 0.0
1433, 0.0
1434, 0.0
1435, 0.0
1436, 0.0
1437, 0.0
1438, 0.0
1439, 0.0
1440, 0.0
1441, 0.0
1442, 0.0
1443, 0.0
1444, 0.0
1445, 0.0
1446, 0.0
1447, 0.0
1448, 0.0
1449, 0.0
1450, 0.0
1451, 0.0
1452, 0.0
1453, 0.0
1454, 0.0
1455, 0.0
1456, 0.0
1457, 0.0
1458, 0.0
1459, 0.0
1460, 0.0
1461, 0.0
1462, 0.0
1463, 0.0
1464, 0.0
1465, 0.0
1466, 0.0
1467, 0.0
1468, 0.0
1469, 0.0
1470, 0.0
1471, 0.0
1472, 0.0
1473, 0.0
1474, 0.0
1475, 0.0
1476, 0.0
1477, 0.0
1478, 0.0
1479, 0.0
1480, 0.0
1481, 0.0
1482, 0.0
1483, 0.0
1484, 0.0
1485, 0.0
1486, 0.0
1487, 0.0
1488, 0.0
1489, 0.0
1490, 0.0
1491, 0.0
1492, 0.0
1493, 0.0
1494, 0.0
1495, 0.0
1496, 0.0
1497, 0.0
1498, 0.0
1499, 0.0
1500, 0.0
1501, 0.0
1502, 0.0
1503, 0.0
1504, 0.0
1505, 0.0
1506, 0.0
1507, 0.0
1508, 0.0
1509, 0.0
1510, 0.0
1511, 0.0
1512, 0.0
1513, 0.0
1514, 0.0
1515, 0.0
1516, 0.0
1517, 0.0
1518, 0.0
1519, 0.0
1520, 0.0
1521, 0.0
1522, 0.0
1523, 0.0
1524, 0.0
1525, 0.0
1526, 0.0
1527, 0.0
1528, 0.0
1529, 0.0
1530, 0.0
1531, 0.0
1532, 0.0
1533, 0.0
1534, 0.0
1535, 0.0
1536, 0.0
1537, 0.0
1538, 0.0
1539, 0.0
1540, 0.0
1541, 0.0
1542, 0.0
1543, 0.0
1544, 0.0
1545, 0.0
1546, 0.0
1547, 0.0
1548, 0.0
1549, 0.0
1550, 0.0
1551, 0.0
1552, 0.0
1553, 0.0
1554, 0.0
1555, 0.0
1556, 0.0
1557, 0.0
1558, 0.0
1559, 0.0
1560, 0.0
1561, 0.0
1562, 0.0
1563, 0.0
1564, 0.0
1565, 0.0
1566, 0.0
1567, 0.0
1568, 0.0
1569, 0.0
1570, 0.0
1571, 0.0
1572, 0.0
1573, 0.0
1574, 0.0
1575, 0.0
1576, 0.0
1577, 0.0
1578, 0.0
1579, 0.0
1580, 0.0
1581, 0.0
1582, 0.0
1583, 0.0
1584, 0.0
1585, 0.0
1586, 0.0
1587, 0.0
1588, 0.0
1589, 0.0
1590, 0.0
1591, 0.0
1592, 0.0
1593, 0.0
1594, 0.0
1595, 0.0
1596, 0.0
1597, 0.0
1598, 0.0
1599, 0.0
