30, 0.0
31, 0.0
32, 0.0
33, 0.0
34, 0.0
35, 0.0
36, 0.0
37, 0.0
38, 0.0
39, 0.0
40, 0.0
41, 0.0
42, 0.0
43, 0.0
44, 0.0
45, 0.0
46, 0.0
47, 0.0
48, 0.0
49, 0.0
50, 0.0
51, 0.0
52, 0.0
53, 0.0
54, 0.0
55, 0.0
56, 0.0
57, 0.0
58, 0.0
59, 0.0
60, 0.0
61, 0.0
62, 0.0
63, 0.0
64, 0.0
65, 0.0
66, 0.0
67, 0.0
68, 0.0
69, 0.0
70, 0.0
71, 0.0
72, 0.0
73, 0.0
74, 0.0
75, 0.0
76, 0.0
77, 0.0
78, 0.0
79, 0.0
80, 0.0
81, 0.0
82, 0.0
83, 0.0
84, 0.0
85, 0.0
86, 0.0
87, 0.0
88, 0.0
89, 0.0
90, 0.0
91, 0.0
92, 0.0
93, 0.0
94, 0.0
95, 0.0
96.0, 0.0003181682288425188
97.0, 0.00020886731532334245
98.0, 0.001659416283400401
99.0, 0.007032023578018295
100.0, 0.01331471137579792
101.0, 0.019620501866494163
102.0, 0.02552889507119154
103.0, 0.025691193306032093
104.0, 0.026172703637310276
105.0, 0.026833061454423653
106.0, 0.025944116066063314
107.0, 0.026289853914360582
108.0, 0.02645107392454202
109.0, 0.025515796030902305
110.0, 0.023270395253644306
111.0, 0.020355091346830643
112.0, 0.018060648374029965
113.0, 0.01587990586953412
114.0, 0.013982112986915603
115.0, 0.013045817444045118
116.0, 0.0102526726505255
117.0, 0.008759176679715026
118.0, 0.009002576422772173
119.0, 0.009327463134962197
120.0, 0.009223169463551117
121.0, 0.009278687881788312
122.0, 0.009341177082169952
123.0, 0.008952926463438622
124.0, 0.008859857981515057
125.0, 0.00944513089162981
126.0, 0.01020570216177206
127.0, 0.010462609513884401
128.0, 0.01034205306630869
129.0, 0.01072708449137936
130.0, 0.011662461487787202
131.0, 0.01280784926886605
132.0, 0.0138656125657384
133.0, 0.016735698822693306
134.0, 0.019402925015250226
135.0, 0.02099446463083935
136.0, 0.02440221708864124
137.0, 0.027867497135217027
138.0, 0.03097443655094734
139.0, 0.03387657549858521
140.0, 0.0370499211191875
141.0, 0.041320408968317505
142.0, 0.04463003488851603
143.0, 0.04681941307824453
144.0, 0.05061759948038047
145.0, 0.05427209604680574
146.0, 0.05795486788932006
147.0, 0.061571343332021064
148.0, 0.06480110249005228
149.0, 0.06872291852907661
150.0, 0.07265156225918465
151.0, 0.07596632345838027
152.0, 0.07854147130359136
153.0, 0.08099039258352828
154.0, 0.08422822577116158
155.0, 0.08742233436357831
156.0, 0.0891816536487555
157.0, 0.09026758927653006
158.0, 0.09089774098146154
159.0, 0.09076010166855546
160.0, 0.0901037901082286
161.0, 0.08994150074209177
162.0, 0.08834735031645688
163.0, 0.08664014420825762
164.0, 0.08493997237055634
165.0, 0.08241914886631188
166.0, 0.08205233419390384
167.0, 0.08191757343679112
168.0, 0.08079621433887647
169.0, 0.07886263232223
170.0, 0.07819475484568003
171.0, 0.07743248187684651
172.0, 0.07648723977783425
173.0, 0.07566572600206663
174.0, 0.07465925887668398
175.0, 0.07477283243344326
176.0, 0.07473262885286047
177.0, 0.07446500058664335
178.0, 0.07613180678791782
179.0, 0.07610022223764891
180.0, 0.07598535912507651
181.0, 0.07732556483009101
182.0, 0.0804435814539939
183.0, 0.08131869330594924
184.0, 0.08296738242408351
185.0, 0.08592682161101182
186.0, 0.08908929285547734
187.0, 0.09292329221647937
188.0, 0.09606649809924382
189.0, 0.09840887722104784
190.0, 0.1006164607287792
191.0, 0.10383572166524146
192.0, 0.10719221698519847
193.0, 0.10986961465818901
194.0, 0.11212861956194574
195.0, 0.11547247827516816
196.0, 0.11784818133248423
197.0, 0.1188669658827039
198.0, 0.11809428975648584
199.0, 0.11564888784039036
200.0, 0.11464467584526858
201.0, 0.11221125160003319
202.0, 0.10777999077396296
203.0, 0.10238896190734809
204.0, 0.09667013134639549
205.0, 0.08880222903798324
206.0, 0.0810676884483119
207.0, 0.07389056702030877
208.0, 0.06569587509226617
209.0, 0.05833140427665808
210.0, 0.05187371380568748
211.0, 0.045614611092087684
212.0, 0.03899705429435653
213.0, 0.031889671460478726
214.0, 0.02737444853461025
215.0, 0.023103775903447827
216.0, 0.01778348111091699
217.0, 0.013634019240266543
218.0, 0.010063163154828197
219.0, 0.007215083778139723
220.0, 0.004683322857928775
221.0, 0.001541793568435595
222.0, 0.001555775362371383
223.0, 0.002762518726182938
224.0, 0.0033381729897470317
225.0, 0.004708568597458423
226.0, 0.004295610113524367
227.0, 0.004428972030003739
228.0, 0.00424162357754662
229.0, 0.0031345216893734432
230.0, 0.0020000952694175446
231.0, 0.0009491272635873138
232.0, 0.00027676487234820244
233.0, 0.0009303932081616997
234.0, 0.0034818347432605526
235.0, 0.005603661609892513
236.0, 0.007811804414320528
237.0, 0.010363754684029747
238.0, 0.013029612791082118
239.0, 0.014786349716595095
240.0, 0.016924563179100578
241.0, 0.01945452359076292
242.0, 0.02175197297842289
243.0, 0.023312690297915727
244.0, 0.024838141756968732
245.0, 0.02611342224975636
246.0, 0.02776027940127253
247.0, 0.029635672084811483
248.0, 0.030292227382459635
249.0, 0.031064151818342555
250.0, 0.032784552451440484
251.0, 0.03453830298452782
252.0, 0.0354588182353481
253.0, 0.03868066568418774
254.0, 0.04121535293209098
255.0, 0.042700852024928286
256.0, 0.044202862627424684
257.0, 0.04681675095830737
258.0, 0.048682060513828354
259.0, 0.050143980229283666
260.0, 0.05163001233108472
261.0, 0.0531115186814806
262.0, 0.05005454097434907
263.0, 0.048433766882017136
264.0, 0.047166371804345575
265.0, 0.04450337662845968
266.0, 0.04189795806277469
267.0, 0.037971798884926626
268.0, 0.03418470680761968
269.0, 0.030793483763182937
270.0, 0.02703992917306317
271.0, 0.02415450873748687
272.0, 0.02213281755161832
273.0, 0.019273763021862945
274.0, 0.015856933042446997
275.0, 0.014302501280136187
276.0, 0.012466898021966348
277.0, 0.011085498475467472
278.0, 0.010321466374171601
279.0, 0.009706329390895796
280.0, 0.00853436120409184
281.0, 0.007350551290218078
282.0, 0.006211053602876711
283.0, 0.005130003574445458
284.0, 0.0045898072156998395
285.0, 0.003482971495140001
286.0, 0.0026986368260649343
287.0, 0.0022155209507349846
288.0, 0.0016367665567655798
289.0, 0.0011932908887253304
290.0, 0.0006696396498216036
291.0, 0.00016155792076320315
292.0, 0.00037777166981613826
293.0, 0.0005667366499985753
294.0, 0.00011681578430689455
295.0, 0.00021368502185254183
296.0, 0.00037399534204761133
297.0, 0.0002607107127599986
298.0, 0.0005837412903761277
299.0, 0.0006245485227309993
300.0, 0.0005984040221964374
301.0, 0.0013172560636464312
302.0, 0.0029563479589068712
303.0, 0.004173154186082619
304.0, 0.0040628872266480895
305.0, 0.005238936062113054
306.0, 0.007345491075016395
307.0, 0.008032012147173546
308.0, 0.008879771982145825
309.0, 0.011196364905461624
310.0, 0.013316758113447085
311.0, 0.014348872866822179
312.0, 0.015592396253579865
313.0, 0.018335228172274384
314.0, 0.020515417418073018
315.0, 0.022517544537506266
316.0, 0.02549988560489363
317.0, 0.027779328022827603
318.0, 0.030053616165651012
319.0, 0.03255209645277805
320.0, 0.03448537069932355
321.0, 0.03535317771848359
322.0, 0.038333909622311875
323.0, 0.03994284146112942
324.0, 0.040399760613076666
325.0, 0.041050360817413326
326.0, 0.04209072009409307
327.0, 0.0435554431733738
328.0, 0.04451053061821573
329.0, 0.04509328269822822
330.0, 0.04565646239123343
331.0, 0.04573846056545264
332.0, 0.04599172489840633
333.0, 0.04566014074270903
334.0, 0.045182283351940286
335.0, 0.045303200483496925
336.0, 0.04414381726451391
337.0, 0.04307615169029836
338.0, 0.04198746776847181
339.0, 0.04043664188312645
340.0, 0.03846079457400355
341.0, 0.03669955265064246
342.0, 0.035069776410764995
343.0, 0.03318867856378145
344.0, 0.03117738865866645
345.0, 0.02959352528623519
346.0, 0.028362739811293215
347.0, 0.025746366054821803
348.0, 0.023881875947939266
349.0, 0.02364534386136002
350.0, 0.02215004533711985
351.0, 0.019331916364649628
352.0, 0.0182768718512478
353.0, 0.01760171417980379
354.0, 0.015319760842802708
355.0, 0.013582197958684346
356.0, 0.012421222792967939
357.0, 0.011306212755981239
358.0, 0.010061440968439802
359.0, 0.008886417024614549
360.0, 0.008116876687253922
361.0, 0.006928320981689931
362.0, 0.005809868847585726
363.0, 0.004970015908208226
364.0, 0.003936726163507261
365.0, 0.00283319163177708
366.0, 0.0018832025609778224
367.0, 0.0017156525193937617
368.0, 0.0018591342733519569
369.0, 0.0012137774402262405
370.0, 0.00017841452118093487
371.0, 0.0006226909861274832
372.0, 0.0007028001322623339
373.0, 0.0007535594480194054
374.0, 0.00031958855516292
375.0, 0.00032619004010414057
376.0, 0.0007826207434485196
377.0, 0.0006897948821863364
378.0, 0.0003642176482062635
379.0, 0.0012487304049826438
380.0, 0.0005236118254728288
381.0, 0.00011194961053134534
382.0, 0.00031867037851192467
383.0, 0.0005357977950590565
384.0, 0.0008837430229373918
385.0, 0.0009225519674867801
386.0, 0.001192766895413455
387.0, 0.0016546778316166174
388.0, 0.001962037504159613
389.0, 0.001997119711744357
390.0, 0.0034537224197716994
391.0, 0.0040974387866038395
392.0, 0.0045671651830080815
393.0, 0.005515704630886142
394.0, 0.00538556654992426
395.0, 0.006731958488663894
396.0, 0.008011171014423451
397.0, 0.008503519456444297
398.0, 0.008536735032560007
399.0, 0.009978588563086168
400.0, 0.010448049272301814
401.0, 0.010876091033865597
402.0, 0.011610197008015258
403.0, 0.012264711069267258
404.0, 0.012554145995707934
405.0, 0.013123398079927386
406.0, 0.013696833167031883
407.0, 0.014019925705821239
408.0, 0.014129613995169661
409.0, 0.014285157805882324
410.0, 0.0150082935729822
411.0, 0.015764551042508658
412.0, 0.016713911229935326
413.0, 0.017660062505167613
414.0, 0.017636782710481257
415.0, 0.018467706372020536
416.0, 0.01906003442936372
417.0, 0.02011363737581754
418.0, 0.02190057806272515
419.0, 0.022903414906977886
420.0, 0.024107417090159605
421.0, 0.02595284533313854
422.0, 0.02805167904306509
423.0, 0.029807271329101048
424.0, 0.031222075093798873
425.0, 0.03418008940005989
426.0, 0.03643496195766238
427.0, 0.03828375565831626
428.0, 0.04080376164774357
429.0, 0.0443875084523552
430.0, 0.047715398225658796
431.0, 0.050526714614174045
432.0, 0.053829905872865125
433.0, 0.057347781030812
434.0, 0.06038189090142813
435.0, 0.06468906466339523
436.0, 0.06792838772503813
437.0, 0.07032405379508234
438.0, 0.07331772358391792
439.0, 0.07744527522473427
440.0, 0.08047821105968309
441.0, 0.08215913566054898
442.0, 0.08406882728176031
443.0, 0.08619968917296028
444.0, 0.0879515929635608
445.0, 0.08963953731424684
446.0, 0.09001901979287308
447.0, 0.08892267932545715
448.0, 0.08732676516343311
449.0, 0.08564740442325118
450.0, 0.08241478285909434
451.0, 0.07913236150728073
452.0, 0.07577470359077686
453.0, 0.07208214587871467
454.0, 0.0682359746510386
455.0, 0.06441481717315782
456.0, 0.05784387519827062
457.0, 0.05390469719691153
458.0, 0.049954106587175466
459.0, 0.0447174341061134
460.0, 0.04068486005918365
461.0, 0.03675762329780019
462.0, 0.03210187156219184
463.0, 0.028237537722624793
464.0, 0.02541750533168229
465.0, 0.022771379163211612
466.0, 0.019744336899735208
467.0, 0.016988284883195977
468.0, 0.015458657650045695
469.0, 0.013840738279840697
470.0, 0.011055098906347913
471.0, 0.009368049262593743
472.0, 0.00830273451510345
473.0, 0.007330236009347728
474.0, 0.00597596784484909
475.0, 0.004571845582036784
476.0, 0.0037781226269340126
477.0, 0.002910870464655026
478.0, 0.0026286666596415462
479.0, 0.0020608915965383266
480.0, 0.001070539089854198
481.0, 0.00042379205847882604
482.0, 0.000582029961469696
483.0, 0.00021752814840272447
484.0, 0.0004604640312663192
485.0, 0.0004839280287446691
486.0, 0.0008302356055891578
487.0, 0.0005711253746442872
488.0, 0.00053489653833654
489.0, 0.0008360073121343424
490.0, 0.0006449823012671186
491.0, 0.00022047972723634386
492.0, 0.0003970624651488078
493.0, 0.0004012419027026386
494.0, 0.00038304948767606945
495.0, 0.00035769987617281936
496.0, 0.00019310070873474567
497.0, 0.0003101969770926863
498.0, 0.0011272701942468106
499.0, 0.0010210619830414145
500.0, 0.001200844996462973
501.0, 0.0015617511040408817
502.0, 0.0018537068036255423
503.0, 0.0023850514606122662
504.0, 0.002431296194486369
505.0, 0.0026007679860784888
506.0, 0.003210909692443069
507.0, 0.003832352307648697
508.0, 0.004141689154424957
509.0, 0.004539724271601138
510.0, 0.004766775911825459
511.0, 0.005252791262085297
512.0, 0.005842654283259364
513.0, 0.006330859152597775
514.0, 0.006765084819718801
515.0, 0.006868878123338356
516.0, 0.007694135471638771
517.0, 0.008366102850803438
518.0, 0.00883622704675356
519.0, 0.00937646724279721
520.0, 0.009484670510612863
521.0, 0.010522129427229125
522.0, 0.011062542308371077
523.0, 0.011275226981759898
524.0, 0.011832805509948073
525.0, 0.012795078631078321
526.0, 0.01339038876985244
527.0, 0.014233880774998865
528.0, 0.015612915953246561
529.0, 0.01690360384590193
530.0, 0.01743189390969432
531.0, 0.01746494834149397
532.0, 0.018896073962714262
533.0, 0.019323820196110994
534.0, 0.020085041845815405
535.0, 0.021290346537978427
536.0, 0.02193918332650356
537.0, 0.02320023116756627
538.0, 0.023547636498511302
539.0, 0.024804370963319604
540.0, 0.02584620867005002
541.0, 0.026049105572740913
542.0, 0.027279214387455147
543.0, 0.02861920284471564
544.0, 0.029260479055047802
545.0, 0.029790982156017817
546.0, 0.030527240967038936
547.0, 0.03126587802023847
548.0, 0.031685104454581316
549.0, 0.03183733614892772
550.0, 0.03146280549304463
551.0, 0.031812668688281316
552.0, 0.03241569248290061
553.0, 0.03204209709538089
554.0, 0.03216307983389314
555.0, 0.0305228616368832
556.0, 0.030212973457333155
557.0, 0.03044549211603758
558.0, 0.029465013785805953
559.0, 0.027692454248387243
560.0, 0.026977059926177417
561.0, 0.025386363097911847
562.0, 0.02436819090041126
563.0, 0.023827823513436732
564.0, 0.023105874455325064
565.0, 0.022332449749574296
566.0, 0.020715706161089562
567.0, 0.019865334386921008
568.0, 0.018531537649284075
569.0, 0.017059553425303235
570.0, 0.016457316351131516
571.0, 0.01557529643587799
572.0, 0.014510365254684666
573.0, 0.013821469516559675
574.0, 0.012764958337860326
575.0, 0.011600429370602839
576.0, 0.010957557906288266
577.0, 0.010188753266696377
578.0, 0.009420608346712243
579.0, 0.009461453215764666
580.0, 0.008853547883645946
581.0, 0.0076114398965070745
582.0, 0.007192784389840788
583.0, 0.006599048303760716
584.0, 0.00656188480266794
585.0, 0.0053956431776885335
586.0, 0.004862435565017454
587.0, 0.0050505950240969984
588.0, 0.004219606167283461
589.0, 0.0035201450170837803
590.0, 0.0036047985692187643
591.0, 0.003138601720512508
592.0, 0.002907005239380765
593.0, 0.0026879699368915215
594.0, 0.002565906630856135
595.0, 0.002371959796755529
596.0, 0.002223006739872797
597.0, 0.001970858086505454
598.0, 0.001551675762590474
599.0, 0.0015724441241155612
600.0, 0.001350293645042169
601.0, 0.0008597767717973617
602.0, 0.0008643114950634394
603.0, 0.0006208428811530559
604.0, 0.0005083079209150629
605.0, 0.00044149947355781496
606.0, 0.0002791411545046519
607.0, 0.00018430697498018737
608.0, 5.53246827148067e-05
609.0, 4.428421089991811e-05
610.0, 0.00015339588330612656
611.0, 0.0002619019447196032
612.0, 0.00022846963091372575
613.0, 0.00041659001392926334
614.0, 0.00033397002438588193
615.0, 6.021532945712604e-05
616.0, 7.952504890944836e-05
617.0, 6.453820608641039e-05
618.0, 2.945140383483751e-05
619.0, 5.742918664175693e-05
620.0, 0.00014744054633860664
621.0, 9.877697259009247e-05
622.0, 0.000147452469703268
623.0, 0.00018698471127968016
624.0, 0.00031276925325776856
625.0, 0.00012120572542540146
626.0, 0.00014576950105814402
627.0, 0.0001440912224882233
628.0, 0.00014929392229660863
629.0, 0.000313103866166478
630.0, 0.00041502083784683027
631.0, 0.000430727747749297
632.0, 0.00042654728078082675
633.0, 0.0005555124885992296
634.0, 0.0009200300990493583
635.0, 0.001077125951982796
636.0, 0.0008261976076410091
637.0, 0.0010232908410176256
638.0, 0.0010791712475554719
639.0, 0.0011106266956608388
640.0, 0.0012655405731321105
641.0, 0.0013402702430233605
642.0, 0.0012351844085379921
643.0, 0.0013883724863775783
644.0, 0.001737703729750068
645.0, 0.0014018022435866567
646.0, 0.0012646390726131012
647.0, 0.0013478898424543026
648.0, 0.001591248775669038
649.0, 0.0022525749443461306
650.0, 0.0024666577260303935
651.0, 0.0022528651526270028
652.0, 0.0023441086339220786
653.0, 0.002424628074110732
654.0, 0.0024700064217856553
655.0, 0.0027726761018148746
656.0, 0.003014251353106711
657.0, 0.003355649844447457
658.0, 0.003178564389750701
659.0, 0.003260329103122487
660.0, 0.0036718620677012263
661.0, 0.0039382694223729095
662.0, 0.0037659344950288554
663.0, 0.004061368062974526
664.0, 0.0041096073189023944
665.0, 0.0038639185467329476
666.0, 0.003790643235523464
667.0, 0.003978782413591907
668.0, 0.004142947918250433
669.0, 0.004218752712595278
670.0, 0.004217815847636331
671.0, 0.004277349146964077
672.0, 0.004366248957772519
673.0, 0.0042973667708267405
674.0, 0.004056678111163946
675.0, 0.003923871676293889
676.0, 0.0037511551849740135
677.0, 0.00384051634387731
678.0, 0.0038887817762280757
679.0, 0.0037511153326159224
680.0, 0.003561985787078214
681.0, 0.0034585534176606926
682.0, 0.00347605470443591
683.0, 0.0032880343611974188
684.0, 0.0031046151120179763
685.0, 0.003115710774765366
686.0, 0.0030120914746848237
687.0, 0.0026117484758233674
688.0, 0.002613662129219886
689.0, 0.002745933807270746
690.0, 0.0027129649350226283
691.0, 0.002262335857243934
692.0, 0.0018920716996562157
693.0, 0.0019333664342699168
694.0, 0.0021162974031962403
695.0, 0.0018519639900586218
696.0, 0.001820083358245034
697.0, 0.0013492111356005147
698.0, 0.001209592347506698
699.0, 0.0013079263572502002
700.0, 0.0011859902619266972
701.0, 0.001198713886003339
702.0, 0.0008602030791735425
703.0, 0.0009121082986041854
704.0, 0.0006856060743659108
705.0, 0.0001194668575956993
706.0, 8.886767285111356e-05
707.0, 0.00029019478007878105
708.0, 5.099121969971309e-05
709.0, 6.25475864553077e-05
710.0, 3.77108984406098e-05
711.0, 0.00033328844580917224
712.0, 0.00044981256391191435
713.0, 0.00047030288411443793
714.0, 0.0006767650690218329
715.0, 0.0003093116425806199
716.0, 0.0007196142381816854
717.0, 0.0005600636411730749
718.0, 0.0007723131953042692
719.0, 0.0009392036145732971
720.0, 0.0008345770452612684
721.0, 0.0010647440476221706
722.0, 0.0007431649580633952
723.0, 0.001015420854682162
724.0, 0.0012687693775228083
725.0, 0.0009832344229396023
726.0, 0.0007905090535336671
727.0, 0.0010745614362346115
728.0, 0.0009512537928453772
729.0, 0.0007712832684300035
730.0, 0.00043673582749381625
731.0, 0.00032654633355029056
732.0, 0.00022272269121521951
733.0, 0.00016513972646820413
734.0, 0.00024943104436953175
735.0, 0.00010356688451415225
736.0, 6.241951167759285e-05
737.0, 0.000488601359994274
738.0, 0.0006548652238821865
739.0, 0.0008643826370194648
740.0, 0.001200252719843251
741.0, 0.0012873083217091945
742.0, 0.0010792221103178288
743.0, 0.0012278663647834807
744.0, 0.0020782672223817336
745.0, 0.002658527216604507
746.0, 0.002622447464245038
747.0, 0.0025103013444786985
748.0, 0.002703542415199254
749.0, 0.0028346372794797376
750.0, 0.0029221985748300707
751.0, 0.0029702466366005385
752.0, 0.0028814515148834234
753.0, 0.0027221245988581456
754.0, 0.0026989025416310295
755.0, 0.0028323291547587867
756.0, 0.0030126302450737188
757.0, 0.00319381412023358
758.0, 0.0027727576337367625
759.0, 0.0029877603490345746
760.0, 0.002864793347128269
761.0, 0.0029104085370130037
762.0, 0.0033997602313204467
763.0, 0.0031942631663086757
764.0, 0.0030192620947199524
765.0, 0.0033971294756672057
766.0, 0.0039276055366979255
767.0, 0.004367361750559855
768.0, 0.0046253562947141625
769.0, 0.004707076205328232
770.0, 0.004983219455111242
771.0, 0.0060557757142447495
772.0, 0.006699932814673416
773.0, 0.007281446608960777
774.0, 0.00806400856159997
775.0, 0.008772855265864195
776.0, 0.009265588116618699
777.0, 0.010141160784225728
778.0, 0.012041381177758475
779.0, 0.013978455485788662
780.0, 0.01440998268042799
781.0, 0.015711671780506153
782.0, 0.01763547322996849
783.0, 0.019675882028290074
784.0, 0.022120113590143084
785.0, 0.024944934871639693
786.0, 0.02776057859086409
787.0, 0.0325699615853614
788.0, 0.035683016544032026
789.0, 0.03999654789742014
790.0, 0.044927556130120776
791.0, 0.049262145228261466
792.0, 0.05398533771883123
793.0, 0.060217737543481954
794.0, 0.06779875321190805
795.0, 0.07334247243634974
796.0, 0.07987272719694483
797.0, 0.0869635145269666
798.0, 0.09328938391174399
799.0, 0.09982381205581053
800.0, 0.10773849651326303
801.0, 0.11267404389180465
802.0, 0.11862637453368544
803.0, 0.1238431884476074
804.0, 0.1286430131482681
805.0, 0.13317138508256324
806.0, 0.13784296174309552
807.0, 0.14334095484627926
808.0, 0.14962476111891204
809.0, 0.15590257741469304
810.0, 0.16383894962974316
811.0, 0.17065097022426573
812.0, 0.1792832978659222
813.0, 0.1909543192300419
814.0, 0.20343765692729865
815.0, 0.21643292423240046
816.0, 0.2331108929715207
817.0, 0.2524989703757163
818.0, 0.2766287118788183
819.0, 0.3058460787402136
820.0, 0.33953974139991183
821.0, 0.3778994915408692
822.0, 0.421057865568825
823.0, 0.46982388575352857
824.0, 0.5277504288943351
825.0, 0.5892195819926295
826.0, 0.6585429409289838
827.0, 0.7276022051562755
828.0, 0.7974958682986297
829.0, 0.8673816036299771
830.0, 0.9291331061517227
831.0, 0.973581355236028
832.0, 0.995701593898678
833.0, 0.9982859306570543
834.0, 0.9796374461523457
835.0, 0.939071915013403
836.0, 0.8822863121400645
837.0, 0.8184783634962312
838.0, 0.7513960840611641
839.0, 0.6791389440344426
840.0, 0.6036904139750291
841.0, 0.5329836943818409
842.0, 0.46167645951370195
843.0, 0.39592615124081176
844.0, 0.3345746374327324
845.0, 0.2780254140114363
846.0, 0.23105955168533587
847.0, 0.19307311080241132
848.0, 0.16173561760397123
849.0, 0.13601483498190542
850.0, 0.11516663282663092
851.0, 0.09862547223643187
852.0, 0.08549822882640853
853.0, 0.07427102314864366
854.0, 0.06449813209668293
855.0, 0.05678967892815805
856.0, 0.04953670087561881
857.0, 0.042698032658787695
858.0, 0.03745793729361943
859.0, 0.03331648168815753
860.0, 0.03014741213749971
861.0, 0.027299975848457426
862.0, 0.024202387959259598
863.0, 0.021036186345892344
864.0, 0.017975740244336662
865.0, 0.016338941500906378
866.0, 0.015183082546692152
867.0, 0.013110487024995333
868.0, 0.01112968756448158
869.0, 0.009805525822414524
870.0, 0.008900809730767381
871.0, 0.008123007288685414
872.0, 0.007080426427428771
873.0, 0.005974360193783641
874.0, 0.005399704492120979
875.0, 0.004544785590396188
876.0, 0.004001033953447274
877.0, 0.0036608851643177465
878.0, 0.00330402454853456
879.0, 0.00286104710627496
880.0, 0.0022808133213588918
881.0, 0.0018861330580818882
882.0, 0.0016890821642519852
883.0, 0.0016696060739239706
884.0, 0.00160980210025595
885.0, 0.001426734880529858
886.0, 0.0013108267625629925
887.0, 0.0011689844609111496
888.0, 0.0006858879052852863
889.0, 0.00024172943937811794
890.0, 8.842968188068588e-05
891.0, 0.00035552594422006
892.0, 0.0007304658030311327
893.0, 0.001077778888407185
894.0, 0.0012931694842917031
895.0, 0.001509874546886709
896.0, 0.001586776539496613
897.0, 0.0013026020991166332
898.0, 0.0011897599899179563
899.0, 0.0012561753453583116
900.0, 0.0009845526950887937
901.0, 0.0010674472152725437
902.0, 0.001048189493926954
903.0, 0.0008799497062404087
904.0, 0.0007737188040396995
905.0, 0.0006911008595676716
906.0, 0.0006111513308405387
907.0, 0.0004693305983735325
908.0, 0.0007365045630091459
909.0, 0.00029597169379558995
910.0, 0.00019036181600060108
911.0, 6.251080784185019e-05
912.0, 0.00018615126207200425
913.0, 3.303409892682353e-05
914.0, 0.0001412239081097888
915.0, 0.00017728746186058156
916.0, 0.00010863753896509788
917.0, 0.0005193649718670852
918.0, 0.0007349186985926165
919.0, 0.0006590030889347266
920.0, 0.0006449035077215959
921.0, 0.0009072084503531792
922.0, 0.0011129607324664203
923.0, 0.0011225700764858646
924.0, 0.0013587098003646123
925.0, 0.001620279421339236
926.0, 0.0015405151111664757
927.0, 0.0018409613776838186
928.0, 0.0018659859171620686
929.0, 0.0018615571577494912
930.0, 0.0020999072967039256
931.0, 0.0024073142997074613
932.0, 0.0026221440995514425
933.0, 0.0027920405822712724
934.0, 0.002962717541345636
935.0, 0.003136673409851183
936.0, 0.0035546421518389314
937.0, 0.0037250660508890265
938.0, 0.003991819764238171
939.0, 0.004243051009407473
940.0, 0.00439475866423463
941.0, 0.004348681752010675
942.0, 0.0040848826123831726
943.0, 0.0042326499840853815
944.0, 0.004460888432103751
945.0, 0.003988621306382418
946.0, 0.004158632918375613
947.0, 0.003916975472714615
948.0, 0.003735047964752401
949.0, 0.00384520653111551
950.0, 0.003910434792728974
951.0, 0.0037412585037916606
952.0, 0.003520837697958413
953.0, 0.0035055848834342302
954.0, 0.003720553495964341
955.0, 0.0034642913085023196
956.0, 0.00325740969960918
957.0, 0.003426841070351044
958.0, 0.0033538555626845814
959.0, 0.0031114088027214383
960.0, 0.002894605625368854
961.0, 0.002697776791238296
962.0, 0.0029648564033334436
963.0, 0.002412627786815746
964.0, 0.002662221613507572
965.0, 0.002567290603709297
966.0, 0.002721209714572645
967.0, 0.002769045423797124
968.0, 0.0028117461191464557
969.0, 0.0025771420060875187
970.0, 0.0021165791124134296
971.0, 0.002063660519290363
972.0, 0.0022341498577147807
973.0, 0.002097387889774222
974.0, 0.002060881993204997
975.0, 0.0016520166854498827
976.0, 0.0020431509585653166
977.0, 0.0019052363074236142
978.0, 0.001600039553259349
979.0, 0.0017545419240565076
980.0, 0.0018600922699892296
981.0, 0.0016846361136100701
982.0, 0.001773229806133926
983.0, 0.0018202852935548428
984.0, 0.0017627797282945745
985.0, 0.0018852681723897304
986.0, 0.0015923757289835665
987.0, 0.0014544009597733081
988.0, 0.0012767551652492271
989.0, 0.0013781077725336076
990.0, 0.0016917056163014478
991.0, 0.0016177768188691294
992.0, 0.001486957383243515
993.0, 0.0012252373728548805
994.0, 0.0013998274518639343
995.0, 0.0013685269981954223
996.0, 0.0012933399762958403
997.0, 0.0013303373658386014
998.0, 0.0012651439546966558
999.0, 0.0014128667999254217
1000.0, 0.001311283864117109
1001.0, 0.0015014080223915607
1002.0, 0.0014823634508123287
1003.0, 0.0012463320284482257
1004.0, 0.0013370318786354734
1005.0, 0.00138191485412417
1006.0, 0.001380365881950769
1007.0, 0.0011977785752956339
1008.0, 0.00111822591971663
1009.0, 0.0011306082282336702
1010.0, 0.001222340620705997
1011.0, 0.0011257775043706792
1012.0, 0.0010520811819400631
1013.0, 0.0010772410892292393
1014.0, 0.0010865139035650033
1015.0, 0.0008980142810578531
1016.0, 0.0009819543626771515
1017.0, 0.0010422986572961588
1018.0, 0.0010901058208711706
1019.0, 0.000878344378703958
1020.0, 0.0007881146617654238
1021.0, 0.0008561423485340004
1022.0, 0.0009072424554830987
1023.0, 0.0008954364784185792
1024.0, 0.0007267892436423796
1025.0, 0.0008418762132068418
1026.0, 0.0008956523321202825
1027.0, 0.0007080526152385888
1028.0, 0.0006471591912104558
1029.0, 0.0006654329866013899
1030.0, 0.0006105145096856285
1031.0, 0.0007620072510954667
1032.0, 0.0008417261360699968
1033.0, 0.0007895602825414601
1034.0, 0.0008793005889911409
1035.0, 0.0008189737221665815
1036.0, 0.000793377324642193
1037.0, 0.0007047134141002702
1038.0, 0.0006543101263372781
1039.0, 0.00028149991619574345
1040.0, 0.00048804528382916107
1041.0, 0.000488925113923945
1042.0, 0.0005775258136649266
1043.0, 0.0005865380768933025
1044.0, 0.0005809701282394992
1045.0, 0.0007766379045617396
1046.0, 0.0008224001773102996
1047.0, 0.00046391456998986797
1048.0, 3.730789669904142e-05
1049.0, 0.00028608517924604194
1050.0, 0.00048124829687530796
1051.0, 0.0006745538822828602
1052.0, 0.0005336424615288895
1053.0, 0.00042684947167165907
1054.0, 0.00047826490865462474
1055.0, 0.0006236156749107221
1056.0, 0.0004936754997299172
1057.0, 0.0002824285960297416
1058.0, 0.00040340733115782945
1059.0, 0.0003852040379073352
1060.0, 0.0007618348489302736
1061.0, 0.0005115277056138183
1062.0, 0.00023688307180323685
1063.0, 0.0002682721627161711
1064.0, 0.0002187528253370082
1065.0, 0.00025986576688606335
1066.0, 0.00039607295580539883
1067.0, 0.00042863479921793934
1068.0, 0.0002395167081513006
1069.0, 0.00010638397807221492
1070.0, 0.00030112171075153473
1071.0, 0.000438961223160716
1072.0, 0.00014413723663858554
1073.0, 4.271328872471833e-05
1074.0, 5.1298774994031734e-05
1075.0, 0.0003003557629059194
1076.0, 0.0003218216699935626
1077.0, 0.0005017369876537924
1078.0, 0.00030068842744810774
1079.0, 0.0002736349401825
1080.0, 0.0004394980219740778
1081.0, 0.00031985375053508253
1082.0, 0.0002100212673374425
1083.0, 0.0002566701162967236
1084.0, 0.0001238156108266423
1085.0, 0.0002720542446375729
1086.0, 3.199586372064299e-05
1087.0, 0.0001178466554459361
1088.0, 0.0001284314925643404
1089.0, 8.588049628602716e-05
1090.0, 8.171931706266887e-05
1091.0, 0.00010579471290568298
1092.0, 0.00014341850469753458
1093.0, 9.270104682366748e-05
1094.0, 6.97343541628699e-05
1095.0, 0.00016477549462265683
1096.0, 9.547770654155914e-05
1097.0, 1.9811533749192594e-05
1098.0, 0.00024461516785931537
1099.0, 6.127844257992246e-05
1100.0, 5.5158508868148183e-05
1101.0, 5.644661667019608e-05
1102.0, 0.00017136447617406762
1103.0, 3.8573639099273e-05
1104.0, 0.00010416518740665813
1105.0, 8.482597935477031e-05
1106.0, 8.425503256565034e-05
1107.0, 1.4193058910343352e-05
1108.0, 0.00019079502926429022
1109.0, 0.0001785313147974759
1110.0, 4.4576915702203694e-05
1111.0, 6.218943618431699e-05
1112.0, 0.00019166814557436775
1113.0, 0.00018597699157921478
1114.0, 0.00010183140639972988
1115.0, 1.9992124521123933e-05
1116.0, 2.8168946798032847e-05
1117.0, 0.00014144812554584585
1118.0, 0.00023344871082278746
1119.0, 0.00021029906382027293
1120.0, 0.00014479078869597867
1121.0, 0.0001780576924576801
1122.0, 6.162603987714909e-06
1123.0, 0.0001010428708236612
1124.0, 7.83280421336345e-05
1125.0, 7.00251699559985e-05
1126.0, 3.6045497768583064e-05
1127.0, 3.841252335875853e-05
1128.0, 6.925728046535593e-05
1129.0, 0.00019995209804299192
1130.0, 0.00020391055140871916
1131.0, 6.362865477050693e-05
1132.0, 0.00013225300153090798
1133.0, 0.00013957401863996268
1134.0, 0.0001311568810248954
1135.0, 0.00014813703633053814
1136.0, 1.334174591168213e-05
1137.0, 2.828772015112256e-05
1138.0, 2.541025055182316e-05
1139.0, 2.4887247657339326e-05
1140.0, 6.198881934319397e-06
1141.0, 2.592511758671365e-05
1142.0, 0.00013851210690244914
1143.0, 0.000259877552546206
1144.0, 0.00022776040516296595
1145.0, 0.00022635081268852672
1146.0, 0.00015323277778622144
1147.0, 0.00021500418876685968
1148.0, 0.0003065048189993919
1149.0, 0.00027657587136367966
1150.0, 0.00022171881320027167
1151.0, 0.00015196135697901966
1152.0, 6.209704039366819e-05
1153.0, 4.8574892036961434e-05
1154.0, 0.00015507403171000734
1155.0, 0.0004934774864348981
1156.0, 0.00032987132279455663
1157.0, 3.5049819101671536e-05
1158.0, 0.00014272235038302643
1159.0, 0.00011582299245302595
1160.0, 0.00020576780314646203
1161.0, 0.00013035728333978498
1162.0, 3.9623095611837766e-05
1163.0, 0.0002614228250758585
1164.0, 0.0002906796991519469
1165.0, 0.00015470844935121415
1166.0, 0.00015494910206375294
1167.0, 0.00010718041060709486
1168.0, 0.0001696462410706141
1169.0, 8.580366672776756e-05
1170.0, 0.00015871649511590633
1171.0, 6.209815316754236e-05
1172.0, 0.00016422969972081878
1173.0, 0.00028604965626072596
1174.0, 0.0002460663924021701
1175.0, 0.0001519185837161676
1176.0, 0.0003111375805627029
1177.0, 7.558999855930137e-05
1178.0, 0.00026697694369424047
1179.0, 0.00023848339534672042
1180.0, 2.127146766576281e-05
1181.0, 4.144441759692692e-05
1182.0, 2.9580347114185005e-05
1183.0, 0.00020974517021803233
1184.0, 0.0004939504043322637
1185.0, 0.00024129934661565566
1186.0, 0.0001399098001212879
1187.0, 0.00016492433633247085
1188.0, 0.0001741038734546647
1189.0, 0.00020753402729513072
1190.0, 0.0004032933884541808
1191.0, 0.00014326567337390747
1192.0, 7.204978056196081e-05
1193.0, 0.0004160736182911008
1194.0, 0.0003173173575089896
1195.0, 0.0004881940402685824
1196.0, 0.000354371351188743
1197.0, 0.00017706500614846128
1198.0, 0.00016734753776523163
1199.0, 0.0002768249312198651
1200.0, 0.0003897507408047176
1201.0, 9.120135991517913e-05
1202.0, 0.00010489681021857477
1203.0, 0.00040912092305782805
1204.0, 0.00042138426769557633
1205.0, 0.00034290842024445507
1206.0, 0.00016453045346601216
1207.0, 0.00010372478597565726
1208.0, 0.00022754966214565969
1209.0, 0.00046863204912347864
1210.0, 0.00035115866493334576
1211.0, 0.0006207259116224646
1212.0, 0.00032271209737445123
1213.0, 0.0002570884247937375
1214.0, 0.000353053207286423
1215.0, 7.876439328497523e-05
1216.0, 0.00015431246681259513
1217.0, 0.0003537277856159814
1218.0, 0.000325484348609515
1219.0, 0.0005058248669978535
1220.0, 0.0006462886913947292
1221.0, 0.0003664600644981956
1222.0, 0.0002600390623398746
1223.0, 0.0001994143738536646
1224.0, 0.0002982853245227124
1225.0, 0.0002630632209629613
1226.0, 0.00022344509796288407
1227.0, 0.0004502182589830251
1228.0, 0.00047060957238571
1229.0, 0.0005355017629264252
1230.0, 0.0005042743526015789
1231.0, 0.00016493897975398364
1232.0, 0.0004625080403584642
1233.0, 0.000336602827423388
1234.0, 0.0001784499689688594
1235.0, 6.613896482607622e-05
1236.0, 0.00019508181248632117
1237.0, 0.0003713010740743355
1238.0, 0.0002964584854784659
1239.0, 0.00019900121309638017
1240.0, 0.00022857582458291637
1241.0, 0.00030810935923090494
1242.0, 0.00015680200256011637
1243.0, 0.0002334555246744339
1244.0, 0.0003837351763468851
1245.0, 0.00030065121441457906
1246.0, 0.0003086741484586165
1247.0, 0.0002546532235212479
1248.0, 0.00013145465956519725
1249.0, 0.0002532141361254358
1250.0, 0.00019582640325130666
1251.0, 0.00027842050769325536
1252.0, 0.00031380983082234876
1253.0, 0.0003315412960467333
1254.0, 0.000309863473675117
1255.0, 7.618912356072613e-05
1256.0, 0.0001686413539022378
1257.0, 0.00014611030127874977
1258.0, 0.0001486198280897591
1259.0, 0.0002388575283756497
1260.0, 9.382050799294969e-05
1261.0, 0.00042589086307578234
1262.0, 0.0001470873493300622
1263.0, 0.00018193189987181463
1264.0, 0.00023710864235430279
1265.0, 0.00027079723342539536
1266.0, 0.0003220876222629269
1267.0, 0.00033981217369560135
1268.0, 0.00035781944173961434
1269.0, 0.00019597311421626172
1270.0, 0.00035242483243953706
1271.0, 0.0003754860394742448
1272.0, 6.834529426353456e-05
1273.0, 0.00036817934516784325
1274.0, 0.00036434210535924116
1275.0, 0.00041457748965596515
1276.0, 0.00038580411974592065
1277.0, 0.00010020231152246417
1278.0, 9.32202582935111e-06
1279.0, 0.00013743067192592242
1280.0, 4.098722950375101e-05
1281, 0.0
1282, 0.0
1283, 0.0
1284, 0.0
1285, 0.0
1286, 0.0
1287, 0.0
1288, 0.0
1289, 0.0
1290, 0.0
1291, 0.0
1292, 0.0
1293, 0.0
1294, 0.0
1295, 0.0
1296, 0.0
1297, 0.0
1298, 0.0
1299, 0.0
1300, 0.0
1301, 0.0
1302, 0.0
1303, 0.0
1304, 0.0
1305, 0.0
1306, 0.0
1307, 0.0
1308, 0.0
1309, 0.0
1310, 0.0
1311, 0.0
1312, 0.0
1313, 0.0
1314, 0.0
1315, 0.0
1316, 0.0
1317, 0.0
1318, 0.0
1319, 0.0
1320, 0.0
1321, 0.0
1322, 0.0
1323, 0.0
1324, 0.0
1325, 0.0
1326, 0.0
1327, 0.0
1328, 0.0
1329, 0.0
1330, 0.0
1331, 0.0
1332, 0.0
1333, 0.0
1334, 0.0
1335, 0.0
1336, 0.0
1337, 0.0
1338, 0.0
1339, 0.0
1340, 0.0
1341, 0.0
1342, 0.0
1343, 0.0
1344, 0.0
1345, 0.0
1346, 0.0
1347, 0.0
1348, 0.0
1349, 0.0
1350, 0.0
1351, 0.0
1352, 0.0
1353, 0.0
1354, 0.0
1355, 0.0
1356, 0.0
1357, 0.0
1358, 0.0
1359, 0.0
1360, 0.0
1361, 0.0
1362, 0.0
1363, 0.0
1364, 0.0
1365, 0.0
1366, 0.0
1367, 0.0
1368, 0.0
1369, 0.0
1370, 0.0
1371, 0.0
1372, 0.0
1373, 0.0
1374, 0.0
1375, 0.0
1376, 0.0
1377, 0.0
1378, 0.0
1379, 0.0
1380, 0.0
1381, 0.0
1382, 0.0
1383, 0.0
1384, 0.0
1385, 0.0
1386, 0.0
1387, 0.0
1388, 0.0
1389, 0.0
1390, 0.0
1391, 0.0
1392, 0.0
1393, 0.0
1394, 0.0
1395, 0.0
1396, 0.0
1397, 0.0
1398, 0.0
1399, 0.0
1400, 0.0
1401, 0.0
1402, 0.0
1403, 0.0
1404, 0.0
1405, 0.0
1406, 0.0
1407, 0.0
1408, 0.0
1409, 0.0
1410, 0.0
1411, 0.0
1412, 0.0
1413, 0.0
1414, 0.0
1415, 0.0
1416, 0.0
1417, 0.0
1418, 0.0
1419, 0.0
1420, 0.0
1421, 0.0
1422, 0.0
1423, 0.0
1424, 0.0
1425, 0.0
1426, 0.0
1427, 0.0
1428, 0.0
1429, 0.0
1430, 0.0
1431, 0.0
1432, 0.0
1433, 0.0
1434, 0.0
1435, 0.0
1436, 0.0
1437, 0.0
1438, 0.0
1439, 0.0
1440, 0.0
1441, 0.0
1442, 0.0
1443, 0.0
1444, 0.0
1445, 0.0
1446, 0.0
1447, 0.0
1448, 0.0
1449, 0.0
1450, 0.0
1451, 0.0
1452, 0.0
1453, 0.0
1454, 0.0
1455, 0.0
1456, 0.0
1457, 0.0
1458, 0.0
1459, 0.0
1460, 0.0
1461, 0.0
1462, 0.0
1463, 0.0
1464, 0.0
1465, 0.0
1466, 0.0
1467, 0.0
1468, 0.0
1469, 0.0
1470, 0.0
1471, 0.0
1472, 0.0
1473, 0.0
1474, 0.0
1475, 0.0
1476, 0.0
1477, 0.0
1478, 0.0
1479, 0.0
1480, 0.0
1481, 0.0
1482, 0.0
1483, 0.0
1484, 0.0
1485, 0.0
1486, 0.0
1487, 0.0
1488, 0.0
1489, 0.0
1490, 0.0
1491, 0.0
1492, 0.0
1493, 0.0
1494, 0.0
1495, 0.0
1496, 0.0
1497, 0.0
1498, 0.0
1499, 0.0
1500, 0.0
1501, 0.0
1502, 0.0
1503, 0.0
1504, 0.0
1505, 0.0
1506, 0.0
1507, 0.0
1508, 0.0
1509, 0.0
1510, 0.0
1511, 0.0
1512, 0.0
1513, 0.0
1514, 0.0
1515, 0.0
1516, 0.0
1517, 0.0
1518, 0.0
1519, 0.0
1520, 0.0
1521, 0.0
1522, 0.0
1523, 0.0
1524, 0.0
1525, 0.0
1526, 0.0
1527, 0.0
1528, 0.0
1529, 0.0
1530, 0.0
1531, 0.0
1532, 0.0
1533, 0.0
1534, 0.0
1535, 0.0
1536, 0.0
1537, 0.0
1538, 0.0
1539, 0.0
1540, 0.0
1541, 0.0
1542, 0.0
1543, 0.0
1544, 0.0
1545, 0.0
1546, 0.0
1547, 0.0
1548, 0.0
1549, 0.0
1550, 0.0
1551, 0.0
1552, 0.0
1553, 0.0
1554, 0.0
1555, 0.0
1556, 0.0
1557, 0.0
1558, 0.0
1559, 0.0
1560, 0.0
1561, 0.0
1562, 0.0
1563, 0.0
1564, 0.0
1565, 0.0
1566, 0.0
1567, 0.0
1568, 0.0
1569, 0.0
1570, 0.0
1571, 0.0
1572, 0.0
1573, 0.0
1574, 0.0
1575, 0.0
1576, 0.0
1577, 0.0
1578, 0.0
1579, 0.0
1580, 0.0
1581, 0.0
1582, 0.0
1583, 0.0
1584, 0.0
1585, 0.0
1586, 0.0
1587, 0.0
1588, 0.0
1589, 0.0
1590, 0.0
1591, 0.0
1592, 0.0
1593, 0.0
1594, 0.0
1595, 0.0
1596, 0.0
1597, 0.0
1598, 0.0
1599, 0.0
