30, 0.0
31, 0.0
32, 0.0
33, 0.0
34, 0.0
35, 0.0
36, 0.0
37, 0.0
38, 0.0
39, 0.0
40, 0.0
41, 0.0
42, 0.0
43, 0.0
44, 0.0
45, 0.0
46, 0.0
47, 0.0
48, 0.0
49, 0.0
50, 0.0
51, 0.0
52, 0.0
53, 0.0
54, 0.0
55, 0.0
56, 0.0
57, 0.0
58, 0.0
59, 0.0
60, 0.0
61, 0.0
62, 0.0
63, 0.0
64, 0.0
65, 0.0
66, 0.0
67, 0.0
68, 0.0
69, 0.0
70, 0.0
71, 0.0
72, 0.0
73, 0.0
74, 0.0
75, 0.0
76, 0.0
77, 0.0
78, 0.0
79, 0.0
80, 0.0
81, 0.0
82, 0.0
83, 0.0
84, 0.0
85, 0.0
86, 0.0
87, 0.0
88, 0.0
89, 0.0
90, 0.0
91, 0.0
92, 0.0
93, 0.0
94, 0.0
95, 0.0
96, 0.0
97, 0.0
98, 0.0
99, 0.0
100, 0.0
101, 0.0
102, 0.0
103, 0.0
104, 0.0
105, 0.0
106, 0.0
107, 0.0
108, 0.0
109, 0.0
110, 0.0
111, 0.0
112, 0.0
113, 0.0
114, 0.0
115, 0.0
116, 0.0
117, 0.0
118, 0.0
119, 0.0
120, 0.0
121, 0.0
122, 0.0
123, 0.0
124, 0.0
125, 0.0
126, 0.0
127, 0.0
128, 0.0
129, 0.0
130.0, 0.0005857293395894101
131.0, 0.0020582222722749155
132.0, 0.003498388127470777
133.0, 0.0045794964569119
134.0, 0.005096794695776532
135.0, 0.003618692611942298
136.0, 0.0018833394644497449
137.0, 0.0006174854408165028
138.0, 0.00046213128569516936
139.0, 0.0004624142754084915
140.0, 0.0006029354471914965
141.0, 0.0025657973527342206
142.0, 0.005152121824355842
143.0, 0.008018189648945588
144.0, 0.01173141093381527
145.0, 0.016520721399174525
146.0, 0.02097272504072846
147.0, 0.0235514869190503
148.0, 0.02542318259890544
149.0, 0.02653259913755891
150.0, 0.028133943486974063
151.0, 0.029353896026902616
152.0, 0.025549953379720183
153.0, 0.020893352012626095
154.0, 0.01761428453387684
155.0, 0.01576193308433439
156.0, 0.014425603196806159
157.0, 0.014554982541512695
158.0, 0.015875776599864826
159.0, 0.017147460414639874
160.0, 0.018259669264794654
161.0, 0.022470218463253682
162.0, 0.025129924766944353
163.0, 0.02867932037218611
164.0, 0.03496220527996858
165.0, 0.042413226067963904
166.0, 0.05327369416963788
167.0, 0.06960201565274057
168.0, 0.08372668103045494
169.0, 0.08463412891755762
170.0, 0.06494641171128267
171.0, 0.04356679610025662
172.0, 0.029580116617304256
173.0, 0.0230052905510815
174.0, 0.019838563737900303
175.0, 0.01736910896269015
176.0, 0.015750976463011008
177.0, 0.014854042532865727
178.0, 0.014082327072171857
179.0, 0.01310864521313613
180.0, 0.013508959081378632
181.0, 0.013831661705664328
182.0, 0.012876349913658647
183.0, 0.011922717920040854
184.0, 0.011868901212831526
185.0, 0.011548961342507352
186.0, 0.010866387204568301
187.0, 0.010801870093766682
188.0, 0.011839357995112767
189.0, 0.012098729047805396
190.0, 0.011400044982109711
191.0, 0.010435430498503276
192.0, 0.009850961260903414
193.0, 0.010151775746464626
194.0, 0.010080352140260677
195.0, 0.009568786342830121
196.0, 0.009019384167152138
197.0, 0.007958757822724495
198.0, 0.008249567789970132
199.0, 0.009082312728848798
200.0, 0.009354730150459949
201.0, 0.008454152399960078
202.0, 0.007826141504700417
203.0, 0.007215316642529964
204.0, 0.0067901417226110235
205.0, 0.006878852455538414
206.0, 0.007122024449671475
207.0, 0.007525680641259603
208.0, 0.007373238571800228
209.0, 0.006876807059125034
210.0, 0.006975126581187142
211.0, 0.005245824088475867
212.0, 0.005088044030801548
213.0, 0.00536442469947222
214.0, 0.004524220279404763
215.0, 0.005096705359369365
216.0, 0.004672545773044595
217.0, 0.0048702537784271836
218.0, 0.0059110099161513215
219.0, 0.006647006851591212
220.0, 0.007373561358902955
221.0, 0.007833333905210547
222.0, 0.007590266774610112
223.0, 0.007758552130225914
224.0, 0.010543870665843218
225.0, 0.01119683550485436
226.0, 0.012434631427565138
227.0, 0.014796046154921411
228.0, 0.017228498441319802
229.0, 0.019291265897876612
230.0, 0.022286491718197174
231.0, 0.02474373655643064
232.0, 0.025764127684497564
233.0, 0.025428127640385573
234.0, 0.025304303615490856
235.0, 0.022856827521965033
236.0, 0.018506464235111656
237.0, 0.014548079735761327
238.0, 0.012917279926174557
239.0, 0.011048594481946554
240.0, 0.008950410372405354
241.0, 0.007131414453966026
242.0, 0.005890356486592083
243.0, 0.004974004892694337
244.0, 0.00517072073300819
245.0, 0.005021827751274749
246.0, 0.004097992783647922
247.0, 0.0032799932555946367
248.0, 0.002842977994795691
249.0, 0.002357730610636312
250.0, 0.002023184324711495
251.0, 0.0021059033378426433
252.0, 0.0022832000027667903
253.0, 0.0008903455366823693
254.0, 0.0005823764848401045
255.0, 0.001031073285564919
256.0, 0.000827508350999181
257.0, 0.00013822806023312592
258.0, 0.0009139736526628296
259.0, 0.001750769650857745
260.0, 0.001711620757303685
261.0, 0.0010251630175808705
262.0, 0.001422313921674063
263.0, 0.001977333465776682
264.0, 0.002553587004068082
265.0, 0.0028460129267707354
266.0, 0.0025728578090600802
267.0, 0.002969060753445133
268.0, 0.002590633503350205
269.0, 0.0018449598781766436
270.0, 0.0013595164087024435
271.0, 0.0013178382886402454
272.0, 0.0005245860858083951
273.0, 0.0004576314128418493
274.0, 0.0010408872518260558
275.0, 0.0014998041453999824
276.0, 0.0013664621787521966
277.0, 0.0005814520102337566
278.0, 0.0006943228801388109
279.0, 0.0011456435378022262
280.0, 0.0009354621002884891
281.0, 0.00166874387913015
282.0, 0.00029027556730293737
283.0, 0.00011301991017285945
284.0, 0.0012399641823920623
285.0, 0.0015089602225779669
286.0, 0.00047906480117902565
287.0, 0.0010570602956494297
288.0, 0.0006328804540685116
289.0, 0.0011348299483203968
290.0, 0.0011534306102728837
291.0, 0.0002858027899683347
292.0, 0.00016214753318828009
293.0, 0.00015898125713729018
294.0, 0.0006410412333647826
295.0, 0.000621064594143883
296.0, 0.0005871426808669733
297.0, 0.0007118466200680986
298.0, 0.0004928153863475713
299.0, 7.248685876991745e-05
300.0, 0.00023235644203365075
301.0, 0.00031947061779492506
302.0, 0.0010432305410050552
303.0, 0.0012516273509616917
304.0, 0.0007456149041623524
305.0, 0.0010356754089685413
306.0, 0.0012120528084333592
307.0, 0.0012151484945246184
308.0, 0.00046413552667527985
309.0, 0.0005612291194012966
310.0, 0.001225574812485264
311.0, 0.0010579240236136963
312.0, 0.0007058618324488153
313.0, 0.0007747585353516823
314.0, 0.001059065343301152
315.0, 0.000863596017426025
316.0, 0.00020571241930972945
317.0, 0.0005294866741410061
318.0, 0.0004909556725181362
319.0, 0.0001791727796541597
320.0, 1.507204181278807e-05
321.0, 0.00017647441398077854
322.0, 0.0004390514827233614
323.0, 0.0006937818238822253
324.0, 4.8102647727001275e-05
325.0, 3.436953656898333e-05
326.0, 0.0008660466595377763
327.0, 0.0012226583829844813
328.0, 0.0011429466357404919
329.0, 0.0010944907361847291
330.0, 0.0008344575190628172
331.0, 0.001647568318849015
332.0, 0.0014437546035936802
333.0, 0.0005325213889081691
334.0, 0.0002984941191714529
335.0, 0.000725743185178595
336.0, 0.000836999975200778
337.0, 0.001372444101712607
338.0, 0.0008674211242988251
339.0, 0.0004274582737578744
340.0, 0.0006316171493703489
341.0, 0.0004569092506785427
342.0, 0.00018209856448626844
343.0, 0.0004705852598456794
344.0, 0.000965439054112564
345.0, 0.0009089615807700807
346.0, 0.000838881252500312
347.0, 0.0008712078363876996
348.0, 0.0008562176834324984
349.0, 0.0008766441002790125
350.0, 0.0012647440630042665
351.0, 0.0015574817461135508
352.0, 0.0017557128163910615
353.0, 0.001571880165936626
354.0, 0.0010709742605606752
355.0, 0.0008522354946488174
356.0, 0.0003004303119297099
357.0, 0.0007369217550282347
358.0, 0.0007597683233596106
359.0, 0.00028396674516027764
360.0, 0.0007961001507414403
361.0, 0.0011220508392963285
362.0, 0.00045467033941183556
363.0, 0.0001517768670349549
364.0, 0.000370693183086056
365.0, 0.00012526886168980943
366.0, 0.00025422405442956236
367.0, 0.0007109204427056284
368.0, 0.0009284192279772922
369.0, 0.000809899604798234
370.0, 0.0006218586182400506
371.0, 0.00012173513721275845
372.0, 0.00016977188442359657
373.0, 0.0006536042985326292
374.0, 0.0012327716891659087
375.0, 0.002078670344409615
376.0, 0.002912782602588517
377.0, 0.001987802037201942
378.0, 0.0012519727993785604
379.0, 0.0010161902962301445
380.0, 0.0009422322404962188
381.0, 0.001107207901068075
382.0, 0.0004904163713453928
383.0, 0.0004452828503924958
384.0, 0.0006754829065360961
385.0, 0.0005496750196004028
386.0, 0.0003211132051458055
387.0, 0.0002760658427618146
388.0, 0.0013312915434128786
389.0, 0.0012728744935440266
390.0, 0.0005899801627161917
391.0, 0.0010506325305286402
392.0, 0.0010258080878836374
393.0, 0.0014624066543629023
394.0, 0.001220091642518752
395.0, 0.001195230446823987
396.0, 0.001771770448879604
397.0, 0.0010160703500667382
398.0, 0.001120108367088369
399.0, 0.0018744348711196017
400.0, 0.0018821412857702323
401.0, 0.0011232649736556614
402.0, 0.0011859843515701612
403.0, 0.0013213263486743958
404.0, 0.0014655388210783398
405.0, 0.0012848378387503813
406.0, 0.0010430018862568958
407.0, 0.0010956733301116953
408.0, 0.0009599294723824471
409.0, 0.0005596190549621979
410.0, 0.0002917434538537061
411.0, 0.0010977849147215117
412.0, 0.002631854116305394
413.0, 0.002862575722096889
414.0, 0.003849834390731322
415.0, 0.005655455093889689
416.0, 0.007054663038398357
417.0, 0.0069917785608281015
418.0, 0.00529713296928639
419.0, 0.003336756004435515
420.0, 0.0027860965780136756
421.0, 0.002246072606668464
422.0, 0.002020380865955178
423.0, 0.0025310719837712465
424.0, 0.0021424112722597285
425.0, 0.0009035056716629816
426.0, 0.0006560254704048218
427.0, 0.00043691494648074805
428.0, 0.00018945870752962206
429.0, 4.663162758339689e-05
430.0, 3.6188230252074656e-05
431.0, 6.622569633273114e-05
432.0, 0.00027268505500742976
433.0, 0.0003338725537296084
434.0, 0.00023225112908922916
435.0, 0.0007351694691283683
436.0, 0.0006204893235171303
437.0, 0.0005515632711777861
438.0, 0.00034453925586859496
439.0, 1.5761449190620166e-05
440.0, 0.00021020860005048326
441.0, 0.000399834400373693
442.0, 0.0010755780398780989
443.0, 0.0009885325631202836
444.0, 0.000253862230377601
445.0, 0.00010634570879114282
446.0, 0.0011668744322751725
447.0, 0.0002135970902343251
448.0, 9.140979517344812e-05
449.0, 0.0001795697344115469
450.0, 0.00020158298657011514
451.0, 0.0007619288574869605
452.0, 0.0002651188524430386
453.0, 0.00036811953941110246
454.0, 0.0007519322404045234
455.0, 0.00048126984225628516
456.0, 0.0003031516532710533
457.0, 0.0005400158068447729
458.0, 0.0004380008469703014
459.0, 0.0007099975460337598
460.0, 0.0006036859958420484
461.0, 0.0007851193641621111
462.0, 0.0011568191807000477
463.0, 0.00170479327699392
464.0, 0.0010409560689572611
465.0, 0.0007823327977537005
466.0, 0.0011606785962817035
467.0, 0.0013865050448778043
468.0, 0.0011405377472461322
469.0, 0.0012094689923008706
470.0, 0.0017246663790940397
471.0, 0.001747759665825438
472.0, 0.0014505468195453208
473.0, 0.0016383082602657733
474.0, 0.0018482057561217352
475.0, 0.0009544341371842278
476.0, 0.0013379655381078768
477.0, 0.002448919577616747
478.0, 0.002907908967530767
479.0, 0.0026982405306503394
480.0, 0.003338696451631629
481.0, 0.004551674359481216
482.0, 0.005694372738218086
483.0, 0.006693832531418474
484.0, 0.00767512086669052
485.0, 0.008775424653858457
486.0, 0.011303462126149987
487.0, 0.01310868943417965
488.0, 0.015599704719770211
489.0, 0.019157908660623425
490.0, 0.023685938291984066
491.0, 0.030119828863132428
492.0, 0.03739140797291619
493.0, 0.044280556310176244
494.0, 0.05269615941433099
495.0, 0.06258546803564317
496.0, 0.0724449358001925
497.0, 0.0820479026032222
498.0, 0.0888791420481753
499.0, 0.0903050295575126
500.0, 0.08358397243379177
501.0, 0.0702780866708376
502.0, 0.05600475393291274
503.0, 0.04298344813112172
504.0, 0.032487086899503304
505.0, 0.024973025301485142
506.0, 0.01925583381552978
507.0, 0.014825093277025993
508.0, 0.01205257000335827
509.0, 0.01029878175493445
510.0, 0.008009790569939102
511.0, 0.006371994756314549
512.0, 0.0050568888136156495
513.0, 0.004015397404721438
514.0, 0.004106693857068459
515.0, 0.0032745730265010997
516.0, 0.0024802683656226982
517.0, 0.0018924946538662962
518.0, 0.0012206611200263416
519.0, 0.0010818546933966263
520.0, 0.002029197886039905
521.0, 0.001384732889484071
522.0, 0.0010400281907050604
523.0, 0.0005165315723671902
524.0, 0.0007527682467790498
525.0, 0.0018663877521750182
526.0, 0.0017218218412337954
527.0, 0.0010328078495250098
528.0, 0.0011195325237260403
529.0, 0.0010909912040656757
530.0, 0.0009456019794185091
531.0, 0.0007694679241514667
532.0, 0.00044317572868126097
533.0, 0.0011956406649643115
534.0, 0.0006347330684945966
535.0, 0.00019630996154072243
536.0, 0.0005208804659737923
537.0, 0.0009428617540711025
538.0, 0.0009712487705419607
539.0, 0.0007862613590170207
540.0, 0.0008712950254473699
541.0, 0.0010174062846635477
542.0, 0.0012548497371271381
543.0, 0.001412944762580405
544.0, 0.0011491419151306989
545.0, 0.0007867654483858569
546.0, 0.00024003243524056412
547.0, 0.0004988853457481307
548.0, 0.0004110369131938017
549.0, 0.0004917297025835982
550.0, 0.0006153932795700851
551.0, 0.0012596254552772067
552.0, 0.0009300050186114844
553.0, 0.0004253703021306595
554.0, 0.00053916619517983
555.0, 0.001054094428377407
556.0, 0.0012097196374466958
557.0, 0.0009355559995757732
558.0, 0.0002998580024260282
559.0, 0.0004660901760297444
560.0, 0.0005905501268325023
561.0, 0.0007776229015529761
562.0, 0.0019049914886142376
563.0, 0.002147163077074583
564.0, 0.001142009004402195
565.0, 0.0005072456690474828
566.0, 0.00041714803827181356
567.0, 0.000513885715629794
568.0, 0.00045627573726297443
569.0, 0.0002581211406354225
570.0, 0.000751494019614461
571.0, 0.00018426661552002816
572.0, 0.0003349778081937601
573.0, 0.0005019218540131624
574.0, 0.0006489043706234068
575.0, 0.0004134871922088564
576.0, 0.00026356334672788156
577.0, 0.00012004232296630264
578.0, 0.00020134836659203148
579.0, 0.00032061393782229874
580.0, 0.0004310050444089724
581.0, 0.0006373291018962027
582.0, 0.0007625516884654647
583.0, 0.0001005381463821487
584.0, 0.0004287903043634967
585.0, 0.0005144290741101229
586.0, 0.0004815383953381344
587.0, 7.513303285808468e-05
588.0, 7.222645667371712e-05
589.0, 0.00017337447018171085
590.0, 0.0002528416931931561
591.0, 0.0007528420088844275
592.0, 0.0010809045692343616
593.0, 0.0010238468284607942
594.0, 0.0009542718247707426
595.0, 0.00036042901135068244
596.0, 0.0009674841507921696
597.0, 0.000725834245076537
598.0, 0.0004529096995756871
599.0, 0.0007482111892699983
600.0, 0.0009080592977790827
601.0, 0.0014219930448889266
602.0, 0.0007877935413087812
603.0, 0.0014988594830808684
604.0, 0.0019442416153485783
605.0, 0.002183584700909964
606.0, 0.002635221581635589
607.0, 0.002423749553875778
608.0, 0.0018256145460285053
609.0, 0.0030040158621560506
610.0, 0.0030471096506465884
611.0, 0.002678810879578596
612.0, 0.003370820311648168
613.0, 0.004603165316415434
614.0, 0.0047873283215051085
615.0, 0.006406693298123961
616.0, 0.007869705054822151
617.0, 0.010986683891119528
618.0, 0.015097588542771032
619.0, 0.020764176180838187
620.0, 0.02990989152656968
621.0, 0.04002216791296476
622.0, 0.05267285483133393
623.0, 0.06764654419870712
624.0, 0.08697083956707438
625.0, 0.11657069960854857
626.0, 0.1626491499083996
627.0, 0.21299510511421274
628.0, 0.21888407609817118
629.0, 0.1552706501520673
630.0, 0.08375648227920422
631.0, 0.04033022333114146
632.0, 0.02142537712935516
633.0, 0.013061681574828768
634.0, 0.008660823766235283
635.0, 0.006785007314895676
636.0, 0.004985350167347236
637.0, 0.0035307694621329543
638.0, 0.0033547866757667336
639.0, 0.0034390400554491227
640.0, 0.0023827665522035894
641.0, 0.0017755380550130233
642.0, 0.0018076208915968517
643.0, 0.0015499616129372325
644.0, 0.001156907512860136
645.0, 0.0011114996779771284
646.0, 0.0010002671565420187
647.0, 0.000256304255304028
648.0, 3.165872483150818e-05
649.0, 0.0004541565045171586
650.0, 0.0002965714764819374
651.0, 0.0003882676067952369
652.0, 0.0004435126586289375
653.0, 0.0005809731810031472
654.0, 0.0013139401843041032
655.0, 0.0005712887299325276
656.0, 0.001545539741666973
657.0, 0.001873460498376832
658.0, 0.0015732079036234455
659.0, 0.001636442794647252
660.0, 0.0021224301014299988
661.0, 0.002672138445605579
662.0, 0.0031231075123272795
663.0, 0.0031973395921982063
664.0, 0.004917345842429099
665.0, 0.007205213089027471
666.0, 0.010566012322568229
667.0, 0.016054306905838665
668.0, 0.022700062409482455
669.0, 0.031096572327386076
670.0, 0.04111686166273936
671.0, 0.055901875049318615
672.0, 0.07547709214998244
673.0, 0.1011456322245161
674.0, 0.13354038295197357
675.0, 0.16541793144288952
676.0, 0.16731487201414086
677.0, 0.11811094441663687
678.0, 0.0636419868610456
679.0, 0.03151186931205459
680.0, 0.017995188752327723
681.0, 0.011380067720416128
682.0, 0.007420189063185477
683.0, 0.005166672880553387
684.0, 0.0034505650367109082
685.0, 0.0027529818445736704
686.0, 0.0032040781923006367
687.0, 0.0026960911253368193
688.0, 0.0012404675723327162
689.0, 0.0007207217527856959
690.0, 0.0011504809422251436
691.0, 0.0007156127865146524
692.0, 0.0006403270614432393
693.0, 0.0007147624591754822
694.0, 0.0009623205216267723
695.0, 0.001268099169783225
696.0, 0.0012282464939893912
697.0, 0.0011642679430843765
698.0, 0.0011542309364533292
699.0, 0.0015165054209303108
700.0, 0.0012273024526885808
701.0, 0.0010655460399010405
702.0, 0.0007789524830881922
703.0, 0.00015353993815244482
704.0, 0.000618577895845634
705.0, 0.00017014205751501494
706.0, 0.00015238662108514763
707.0, 0.00023589887057819985
708.0, 0.00037350036967576317
709.0, 0.0002598338887653282
710.0, 0.00017917892040135485
711.0, 0.00035204701968055414
712.0, 0.0006728846634510219
713.0, 0.000777417558725088
714.0, 0.0004863358072278798
715.0, 0.000748269695444031
716.0, 0.0009002270612172899
717.0, 0.0007844300517115603
718.0, 0.0008125991576627123
719.0, 0.0010459870294760487
720.0, 0.0012150038606420683
721.0, 0.0012659504037237116
722.0, 0.0015479537914032686
723.0, 0.001893671250501274
724.0, 0.0011960909042507057
725.0, 0.00030747224109334596
726.0, 0.0009333431833389357
727.0, 0.0015990615501850095
728.0, 0.0010460880694010029
729.0, 0.0001658680128379828
730.0, 0.00019212818755786007
731.0, 0.0011747345713786126
732.0, 0.001646403219517034
733.0, 0.0013419137731571697
734.0, 0.0008480195390690811
735.0, 0.0014439916457380856
736.0, 0.0006616898622782828
737.0, 0.00016001197532711456
738.0, 3.213874317921996e-05
739.0, 7.863052798900474e-05
740.0, 0.0003398303918099404
741.0, 0.0008436661935755494
742.0, 0.00048661113624720294
743.0, 0.000654002120945152
744.0, 0.0008253087319043966
745.0, 9.394382805178978e-05
746.0, 0.00032671127393460025
747.0, 0.0040578141258129415
748.0, 0.007360867838041975
749.0, 0.0027759308648855974
750.0, 0.0010801669196655662
751.0, 0.000981310737113887
752.0, 0.00021810565505721424
753.0, 0.000531283934947621
754.0, 0.0008037374498147806
755.0, 0.00044609269261811497
756.0, 0.0005373212408918501
757.0, 0.001080539829372952
758.0, 0.0010110466058820457
759.0, 0.0013043074363712913
760.0, 0.0008644141168212327
761.0, 0.00016666102616131728
762.0, 0.0004354178195305211
763.0, 0.0007257944594009697
764.0, 0.0006118828217718476
765.0, 0.0008734964473035734
766.0, 0.0009322876776879603
767.0, 0.001009653204795355
768.0, 0.0004785468419521521
769.0, 0.0006920776146299605
770.0, 0.0004072781349301124
771.0, 0.0003292597213641655
772.0, 0.002035728102603976
773.0, 0.00015504906584627124
774.0, 0.0010486226195643724
775.0, 0.0012303920489476596
776.0, 0.0011242922892939092
777.0, 0.001065731917448868
778.0, 0.0011355818733757047
779.0, 0.0011945250013733848
780.0, 0.0015281820843470397
781.0, 0.0020774045887204016
782.0, 0.0019244253067556823
783.0, 0.0023529511543667167
784.0, 0.0021769700677319
785.0, 0.002110870565954798
786.0, 0.0018618370366673932
787.0, 0.0016073417683637196
788.0, 0.0016455105588762092
789.0, 0.0015033243556769249
790.0, 0.0008302906840201878
791.0, 0.0010291302448723364
792.0, 0.0011338645617874482
793.0, 0.0013852479304163738
794.0, 0.001962911209190098
795.0, 0.0017676580026258694
796.0, 0.0012852624468108749
797.0, 0.0013990126913790966
798.0, 0.0016535793075270217
799.0, 0.0011442588655022397
800.0, 0.0005163922891396867
801.0, 0.0010753694973374107
802.0, 0.001576321491075147
803.0, 0.0016401609619117966
804.0, 0.0011686634856034812
805.0, 0.0007870462580816547
806.0, 0.0008646188335765082
807.0, 0.0012366474948401563
808.0, 0.0024403723485419584
809.0, 0.0016797439044258157
810.0, 0.0008423623721432379
811.0, 0.0009050163928020672
812.0, 0.0009191949356022936
813.0, 0.0008258961557646119
814.0, 0.0010089250950272655
815.0, 0.0012051305046604944
816.0, 0.0010710106321313066
817.0, 0.0008973449456572745
818.0, 0.0015845175629615705
819.0, 0.0015721850347377455
820.0, 0.0017605990812248353
821.0, 0.0017126516206097907
822.0, 0.0012913822110228782
823.0, 0.0010556941158058888
824.0, 0.0010748854025201058
825.0, 0.0011979599775674094
826.0, 0.0007598577930611927
827.0, 0.00036064585341525485
828.0, 8.50570073836208e-05
829.0, 0.0005097082504071644
830.0, 0.0015896790058467381
831.0, 0.0019484234122294655
832.0, 0.0016438810156231341
833.0, 0.0011623904120403726
834.0, 0.0004580305511728285
835.0, 0.0014333361314401226
836.0, 0.000937728851535129
837.0, 0.0005771239712163895
838.0, 0.0009852842586108065
839.0, 0.001044879126203841
840.0, 0.0007485555152689856
841.0, 0.0008213762933277345
842.0, 0.0007220316164721256
843.0, 0.0006992976953215617
844.0, 0.0006562095782702658
845.0, 0.0012230749924484093
846.0, 0.0008448771724937296
847.0, 0.0008492664646250235
848.0, 0.0014486793193732033
849.0, 0.0014533017263308817
850.0, 0.0007108818761663667
851.0, 0.00025283039722232226
852.0, 0.000546028606637592
853.0, 0.0010234368740158087
854.0, 0.00035829168046172733
855.0, 0.000712323127651327
856.0, 0.0008061809556222277
857.0, 0.0006442264745856419
858.0, 0.0007814853406323931
859.0, 0.0010899220892000268
860.0, 0.001089676134011739
861.0, 6.546316957503524e-05
862.0, 0.000377747322858648
863.0, 0.0009992879049193677
864.0, 0.0004250670619880962
865.0, 0.0005437401790036491
866.0, 0.0005188765659373216
867.0, 0.0008869311816092836
868.0, 0.0012970677558277407
869.0, 0.000666116506644759
870.0, 0.0003741148378727884
871.0, 0.0005922628622585796
872.0, 0.0010342034084661607
873.0, 0.00043821199416625375
874.0, 4.100667504264244e-05
875.0, 5.2935800475182606e-05
876.0, 0.00010248106848103817
877.0, 0.00017091454980258054
878.0, 0.0007750289355911218
879.0, 0.0008071931663280882
880.0, 0.0001964536011392656
881.0, 0.0004141303069376368
882.0, 0.00045853555954716965
883.0, 0.0002087842105026798
884.0, 0.00015734935070511676
885.0, 0.0006222408251142374
886.0, 0.0006810819392472206
887.0, 0.00015300892152705426
888.0, 0.00014335824918600967
889.0, 0.0011818580724359364
890.0, 0.0011156051918086757
891.0, 0.0009573835078098708
892.0, 0.0010864667043181256
893.0, 0.0008097010930778032
894.0, 0.0008941724131005142
895.0, 0.000709241544621951
896.0, 0.000468647413560972
897.0, 0.0002965563971208911
898.0, 0.00010617243419739273
899.0, 0.0001229207804064313
900.0, 0.00022637878272425854
901.0, 0.0006303432884835004
902.0, 0.0001870205966428648
903.0, 0.00033849998576755214
904.0, 0.0006007628514538918
905.0, 0.0005061437095214974
906.0, 0.0007710719258173782
907.0, 0.0011348242680522048
908.0, 0.0011228718694856082
909.0, 0.0011697927620661337
910.0, 0.0006630962589690887
911.0, 0.0004427332484666551
912.0, 0.0003196909126882304
913.0, 0.0005011710549726982
914.0, 0.00020261850667592748
915.0, 1.1310592954724409e-05
916.0, 0.0005940305139772552
917.0, 0.0007992342446148202
918.0, 9.607146145483773e-05
919.0, 0.0005388490486328597
920.0, 0.0006282555217115605
921.0, 0.000478904036026357
922.0, 0.0003802387764706791
923.0, 0.0003108415456897892
924.0, 0.0005807960755310375
925.0, 0.00012965453596087354
926.0, 0.0007286696492912757
927.0, 0.0009833196619363621
928.0, 0.0005096930497650817
929.0, 0.0005940572758606576
930.0, 0.000869399098918911
931.0, 0.001096352582627854
932.0, 0.000888367783275935
933.0, 0.0008475455372653126
934.0, 0.000551236571627209
935.0, 0.0002431280830649809
936.0, 0.00045501895584288446
937.0, 0.000889585029422305
938.0, 0.0002557024679354818
939.0, 0.00011598212127519696
940.0, 0.00042351892643529795
941.0, 0.000370110332067633
942.0, 0.0006803163241274895
943.0, 0.000517493547583705
944.0, 2.82698533607615e-05
945.0, 0.00019102794643962207
946.0, 0.0009579897574148084
947.0, 0.0002011927912608206
948.0, 0.00019962016498122352
949.0, 0.0004657937843855543
950.0, 0.0002813331939321543
951.0, 0.00031374766093041604
952.0, 0.0004076050994636785
953.0, 0.00011487103774275027
954.0, 0.001477893607997306
955.0, 0.0006881916015381946
956.0, 0.00015324121991504302
957.0, 0.00023063993496776444
958.0, 0.0005812004910244559
959.0, 0.001821056483289194
960.0, 0.0014858970964325086
961.0, 0.0007820132409744947
962.0, 0.0009481081101742011
963.0, 0.000529095155089836
964.0, 0.000873019452576278
965.0, 0.001953532754302059
966.0, 0.0009245586690640243
967.0, 0.0023885650371786842
968.0, 0.0017525765129159094
969.0, 0.0006448654839137156
970.0, 0.000700409141690084
971.0, 0.001562307341955906
972.0, 0.0016645279013963333
973.0, 0.001916420814707
974.0, 0.0023102666166600738
975.0, 0.0011483577227282857
976.0, 0.0017552980452235957
977.0, 0.002001581098800059
978.0, 0.002437138586890501
979.0, 0.0023300431683601196
980.0, 0.002812358436279394
981.0, 0.0022430735489013245
982.0, 0.0024642641554513665
983.0, 0.0028552784906868346
984.0, 0.00278113533174922
985.0, 0.002547724229401387
986.0, 0.0027966315304971583
987.0, 0.00381804264361399
988.0, 0.004244437499476442
989.0, 0.0039364221278279906
990.0, 0.0035866576709641398
991.0, 0.005372593184964197
992.0, 0.0048307743038741024
993.0, 0.006315648876164572
994.0, 0.007683495217351839
995.0, 0.009311283321985673
996.0, 0.011298176208373418
997.0, 0.01306744247155835
998.0, 0.01566172947185674
999.0, 0.018815756362389545
1000.0, 0.020617729273847196
1001.0, 0.0218299529742134
1002.0, 0.02297063047906188
1003.0, 0.024558378819807512
1004.0, 0.029055436380052924
1005.0, 0.03529255963140854
1006.0, 0.04418700096345671
1007.0, 0.05703408374638505
1008.0, 0.0755062694842765
1009.0, 0.1031371849866787
1010.0, 0.14414456443891951
1011.0, 0.20247721312974137
1012.0, 0.28200699977715454
1013.0, 0.38693917073292194
1014.0, 0.5205875950306396
1015.0, 0.706053382269375
1016.0, 0.9101670226901543
1017.0, 0.9945019141407481
1018.0, 0.8439836111571183
1019.0, 0.567364841654629
1020.0, 0.3395479712107545
1021.0, 0.20586508438839837
1022.0, 0.134257612194576
1023.0, 0.09425625526716828
1024.0, 0.07027591590287469
1025.0, 0.05461339514042753
1026.0, 0.04313626750384843
1027.0, 0.034601309130780196
1028.0, 0.028288772277407732
1029.0, 0.024714469715700477
1030.0, 0.020701028690339334
1031.0, 0.01729898540943409
1032.0, 0.014748907292485795
1033.0, 0.013172060577134315
1034.0, 0.011209739167254826
1035.0, 0.009434369773914585
1036.0, 0.008457650771571573
1037.0, 0.008281953365363545
1038.0, 0.008257855557127852
1039.0, 0.007154462828299506
1040.0, 0.005727858741949716
1041.0, 0.004903886649686281
1042.0, 0.004699227937314246
1043.0, 0.004018981696722867
1044.0, 0.003390273694413989
1045.0, 0.002719074049693307
1046.0, 0.002236169186300193
1047.0, 0.003284001718066048
1048.0, 0.0028252530349667715
1049.0, 0.0020505439481268077
1050.0, 0.0021186121596784343
1051.0, 0.0019128719070189528
1052.0, 0.0016882158743234457
1053.0, 0.0016976838256794813
1054.0, 0.002317693704319128
1055.0, 0.0011116652991886575
1056.0, 0.0009566231896555948
1057.0, 0.0010674874455289564
1058.0, 0.0009142577249011912
1059.0, 0.001317118511398349
1060.0, 0.0015919403905137852
1061.0, 0.0011463691159056609
1062.0, 0.00015270357099620192
1063.0, 0.0003452714452613062
1064.0, 0.0008371493452580717
1065.0, 0.00042925059780250156
1066.0, 0.00032739394911806847
1067.0, 0.0005740465660575165
1068.0, 6.07175286633789e-05
1069.0, 0.00037707876716181306
1070.0, 0.0003533683565146665
1071.0, 0.0006947059868588814
1072.0, 0.00017599723604536918
1073.0, 0.0003504777245155479
1074.0, 8.301088695415133e-05
1075.0, 5.2445773022219556e-05
1076.0, 0.00013416173945784233
1077.0, 0.000676319354546998
1078.0, 0.0002550666801302264
1079.0, 0.00011870818515452918
1080.0, 0.00012840412389691206
1081.0, 0.0002747385761421129
1082.0, 4.13272048101246e-05
1083.0, 6.830535795926201e-05
1084.0, 0.00039939027980475273
1085.0, 0.0009226892325142774
1086.0, 0.0009294383282442879
1087.0, 0.0011142446468787551
1088.0, 0.0010660971923689443
1089.0, 0.00022193262888441068
1090.0, 0.0005242450831671799
1091.0, 0.00013397429554368127
1092.0, 0.00010346998167116072
1093.0, 0.00025999754405233117
1094.0, 0.00019938001920236727
1095.0, 0.0004961565255146099
1096.0, 0.0007567822760501549
1097.0, 0.0006922160767374958
1098.0, 0.0005406752302748407
1099.0, 0.00016488246727512429
1100.0, 0.00034852184454524875
1101.0, 0.0006375207123948909
1102.0, 0.0005701494042556854
1103.0, 0.0012660357500821062
1104.0, 0.0006618416370373097
1105.0, 0.002113564731004842
1106.0, 0.0022430757630074387
1107.0, 0.002673016301345588
1108.0, 0.003016005790856431
1109.0, 0.004158037367837439
1110.0, 0.004672559904867644
1111.0, 0.005017305872809833
1112.0, 0.0056395834649531325
1113.0, 0.0071345857779653065
1114.0, 0.008887054143086506
1115.0, 0.00995265070625194
1116.0, 0.011267390135719578
1117.0, 0.01356096475295215
1118.0, 0.017523098972065162
1119.0, 0.023355707241740062
1120.0, 0.03177897657723971
1121.0, 0.04451240614171941
1122.0, 0.06370146095093283
1123.0, 0.09367901083092346
1124.0, 0.13454466122989353
1125.0, 0.19265616833262153
1126.0, 0.26872719057656175
1127.0, 0.3622167394202966
1128.0, 0.45645482393540404
1129.0, 0.4733880665655396
1130.0, 0.37711225405549537
1131.0, 0.23965341369769458
1132.0, 0.13547138160435904
1133.0, 0.07781285074198721
1134.0, 0.04975937694673628
1135.0, 0.03423456764204474
1136.0, 0.024437158490518803
1137.0, 0.01923037578033964
1138.0, 0.015170406221688632
1139.0, 0.013629914313818338
1140.0, 0.01142164688938486
1141.0, 0.008797303908408565
1142.0, 0.008244055783943903
1143.0, 0.006690692526046159
1144.0, 0.005979966566506457
1145.0, 0.0054831096167894415
1146.0, 0.005585183915397568
1147.0, 0.00560963585329806
1148.0, 0.00571357161840272
1149.0, 0.006217100133777545
1150.0, 0.00702157756446771
1151.0, 0.008405666351988186
1152.0, 0.010364277822311795
1153.0, 0.014065096335754241
1154.0, 0.020282954360980616
1155.0, 0.02953424830506927
1156.0, 0.04344187641683814
1157.0, 0.06079956147970671
1158.0, 0.08447607552887418
1159.0, 0.11316707683374913
1160.0, 0.12969194573622764
1161.0, 0.11449276037542153
1162.0, 0.07530075825236163
1163.0, 0.04230619288433873
1164.0, 0.02534061801139218
1165.0, 0.016063790268866306
1166.0, 0.010678740843644646
1167.0, 0.008251852458327408
1168.0, 0.006048462998677313
1169.0, 0.004729631463050018
1170.0, 0.003983209603023219
1171.0, 0.003255970525985061
1172.0, 0.0031308305856913494
1173.0, 0.0025955599067521555
1174.0, 0.0020848794358401565
1175.0, 0.0016211931533232468
1176.0, 0.0006268913702764496
1177.0, 0.0007392691626871544
1178.0, 0.0005190752855644455
1179.0, 0.0004263200280557638
1180.0, 0.0003703957019690595
1181.0, 0.00039036056370449917
1182.0, 0.00036061447210670544
1183.0, 0.00015875190567095669
1184.0, 0.00015592832380260076
1185.0, 0.00018079082987357167
1186.0, 0.0010003031990978885
1187.0, 0.0012544219679012114
1188.0, 0.00025660972275284215
1189.0, 0.0008000843089269078
1190.0, 0.00016576329478357288
1191.0, 0.0003721137693559949
1192.0, 0.0007293846678103863
1193.0, 0.0006433853569624917
1194.0, 0.0007764078416244122
1195.0, 0.001196322740455152
1196.0, 0.0012683568778156821
1197.0, 0.00046894894238632084
1198.0, 0.0006331874213051179
1199.0, 0.001765932226980373
1200.0, 0.0017603369529288235
1201.0, 0.0012466277751238316
1202.0, 0.0005244210392491174
1203.0, 0.0012957007868828858
1204.0, 0.0003793311037974565
1205.0, 0.00047192036092035694
1206.0, 0.00017137716656141807
1207.0, 0.00043199134513640096
1208.0, 0.001204799796780094
1209.0, 0.0010095886522536487
1210.0, 0.001477731342210937
1211.0, 0.0018071951268892816
1212.0, 0.0020404935440134237
1213.0, 0.0024551664886040244
1214.0, 0.001992858167049552
1215.0, 0.0011585977602478546
1216.0, 0.0017166252680557632
1217.0, 0.002084379145717954
1218.0, 0.0023778761466241734
1219.0, 0.00212736651400356
1220.0, 0.002435360316533313
1221.0, 0.0025879586517385724
1222.0, 0.0021640043341284807
1223.0, 0.0015813971549386886
1224.0, 0.0016950110968342114
1225.0, 0.0014900117102528768
1226.0, 0.0006818925780376602
1227.0, 0.001096888547358856
1228.0, 0.001564624996611482
1229.0, 0.00096842944913119
1230.0, 0.0009008726489201978
1231.0, 0.0008948653694108406
1232.0, 0.000833238143780905
1233.0, 0.0008869714855758766
1234.0, 0.0004676175780520101
1235.0, 0.0006378477796170725
1236.0, 0.00013060446813583344
1237.0, 0.00022718650018927608
1238.0, 0.0002442769188271945
1239.0, 0.000978991625174357
1240.0, 0.00041502736795978764
1241.0, 0.00015627434192755124
1242.0, 0.0009055697214416789
1243.0, 0.0008598071760949843
1244.0, 0.000581196047423637
1245.0, 0.0004491262054527924
1246.0, 0.0016255556162387992
1247.0, 0.0013858553535751133
1248.0, 0.0013095298839002317
1249.0, 0.0017398611781623697
1250.0, 0.001258465970864502
1251.0, 0.00040607665016640824
1252.0, 6.517662349981093e-05
1253.0, 0.0010895908241616266
1254.0, 0.0009897707271009227
1255.0, 0.0005863364909396598
1256.0, 0.0010859714740975078
1257.0, 0.0006753206886960727
1258.0, 5.5384152264318935e-05
1259.0, 0.0003625138431706365
1260.0, 0.0007217792823176223
1261.0, 0.0005742918059607161
1262.0, 9.403354229509906e-05
1263, 0.0
1264, 0.0
1265, 0.0
1266, 0.0
1267, 0.0
1268, 0.0
1269, 0.0
1270, 0.0
1271, 0.0
1272, 0.0
1273, 0.0
1274, 0.0
1275, 0.0
1276, 0.0
1277, 0.0
1278, 0.0
1279, 0.0
1280, 0.0
1281, 0.0
1282, 0.0
1283, 0.0
1284, 0.0
1285, 0.0
1286, 0.0
1287, 0.0
1288, 0.0
1289, 0.0
1290, 0.0
1291, 0.0
1292, 0.0
1293, 0.0
1294, 0.0
1295, 0.0
1296, 0.0
1297, 0.0
1298, 0.0
1299, 0.0
1300, 0.0
1301, 0.0
1302, 0.0
1303, 0.0
1304, 0.0
1305, 0.0
1306, 0.0
1307, 0.0
1308, 0.0
1309, 0.0
1310, 0.0
1311, 0.0
1312, 0.0
1313, 0.0
1314, 0.0
1315, 0.0
1316, 0.0
1317, 0.0
1318, 0.0
1319, 0.0
1320, 0.0
1321, 0.0
1322, 0.0
1323, 0.0
1324, 0.0
1325, 0.0
1326, 0.0
1327, 0.0
1328, 0.0
1329, 0.0
1330, 0.0
1331, 0.0
1332, 0.0
1333, 0.0
1334, 0.0
1335, 0.0
1336, 0.0
1337, 0.0
1338, 0.0
1339, 0.0
1340, 0.0
1341, 0.0
1342, 0.0
1343, 0.0
1344, 0.0
1345, 0.0
1346, 0.0
1347, 0.0
1348, 0.0
1349, 0.0
1350, 0.0
1351, 0.0
1352, 0.0
1353, 0.0
1354, 0.0
1355, 0.0
1356, 0.0
1357, 0.0
1358, 0.0
1359, 0.0
1360, 0.0
1361, 0.0
1362, 0.0
1363, 0.0
1364, 0.0
1365, 0.0
1366, 0.0
1367, 0.0
1368, 0.0
1369, 0.0
1370, 0.0
1371, 0.0
1372, 0.0
1373, 0.0
1374, 0.0
1375, 0.0
1376, 0.0
1377, 0.0
1378, 0.0
1379, 0.0
1380, 0.0
1381, 0.0
1382, 0.0
1383, 0.0
1384, 0.0
1385, 0.0
1386, 0.0
1387, 0.0
1388, 0.0
1389, 0.0
1390, 0.0
1391, 0.0
1392, 0.0
1393, 0.0
1394, 0.0
1395, 0.0
1396, 0.0
1397, 0.0
1398, 0.0
1399, 0.0
1400, 0.0
1401, 0.0
1402, 0.0
1403, 0.0
1404, 0.0
1405, 0.0
1406, 0.0
1407, 0.0
1408, 0.0
1409, 0.0
1410, 0.0
1411, 0.0
1412, 0.0
1413, 0.0
1414, 0.0
1415, 0.0
1416, 0.0
1417, 0.0
1418, 0.0
1419, 0.0
1420, 0.0
1421, 0.0
1422, 0.0
1423, 0.0
1424, 0.0
1425, 0.0
1426, 0.0
1427, 0.0
1428, 0.0
1429, 0.0
1430, 0.0
1431, 0.0
1432, 0.0
1433, 0.0
1434, 0.0
1435, 0.0
1436, 0.0
1437, 0.0
1438, 0.0
1439, 0.0
1440, 0.0
1441, 0.0
1442, 0.0
1443, 0.0
1444, 0.0
1445, 0.0
1446, 0.0
1447, 0.0
1448, 0.0
1449, 0.0
1450, 0.0
1451, 0.0
1452, 0.0
1453, 0.0
1454, 0.0
1455, 0.0
1456, 0.0
1457, 0.0
1458, 0.0
1459, 0.0
1460, 0.0
1461, 0.0
1462, 0.0
1463, 0.0
1464, 0.0
1465, 0.0
1466, 0.0
1467, 0.0
1468, 0.0
1469, 0.0
1470, 0.0
1471, 0.0
1472, 0.0
1473, 0.0
1474, 0.0
1475, 0.0
1476, 0.0
1477, 0.0
1478, 0.0
1479, 0.0
1480, 0.0
1481, 0.0
1482, 0.0
1483, 0.0
1484, 0.0
1485, 0.0
1486, 0.0
1487, 0.0
1488, 0.0
1489, 0.0
1490, 0.0
1491, 0.0
1492, 0.0
1493, 0.0
1494, 0.0
1495, 0.0
1496, 0.0
1497, 0.0
1498, 0.0
1499, 0.0
1500, 0.0
1501, 0.0
1502, 0.0
1503, 0.0
1504, 0.0
1505, 0.0
1506, 0.0
1507, 0.0
1508, 0.0
1509, 0.0
1510, 0.0
1511, 0.0
1512, 0.0
1513, 0.0
1514, 0.0
1515, 0.0
1516, 0.0
1517, 0.0
1518, 0.0
1519, 0.0
1520, 0.0
1521, 0.0
1522, 0.0
1523, 0.0
1524, 0.0
1525, 0.0
1526, 0.0
1527, 0.0
1528, 0.0
1529, 0.0
1530, 0.0
1531, 0.0
1532, 0.0
1533, 0.0
1534, 0.0
1535, 0.0
1536, 0.0
1537, 0.0
1538, 0.0
1539, 0.0
1540, 0.0
1541, 0.0
1542, 0.0
1543, 0.0
1544, 0.0
1545, 0.0
1546, 0.0
1547, 0.0
1548, 0.0
1549, 0.0
1550, 0.0
1551, 0.0
1552, 0.0
1553, 0.0
1554, 0.0
1555, 0.0
1556, 0.0
1557, 0.0
1558, 0.0
1559, 0.0
1560, 0.0
1561, 0.0
1562, 0.0
1563, 0.0
1564, 0.0
1565, 0.0
1566, 0.0
1567, 0.0
1568, 0.0
1569, 0.0
1570, 0.0
1571, 0.0
1572, 0.0
1573, 0.0
1574, 0.0
1575, 0.0
1576, 0.0
1577, 0.0
1578, 0.0
1579, 0.0
1580, 0.0
1581, 0.0
1582, 0.0
1583, 0.0
1584, 0.0
1585, 0.0
1586, 0.0
1587, 0.0
1588, 0.0
1589, 0.0
1590, 0.0
1591, 0.0
1592, 0.0
1593, 0.0
1594, 0.0
1595, 0.0
1596, 0.0
1597, 0.0
1598, 0.0
1599, 0.0
