30, 0.0
31, 0.0
32, 0.0
33, 0.0
34, 0.0
35, 0.0
36, 0.0
37, 0.0
38, 0.0
39, 0.0
40, 0.0
41, 0.0
42, 0.0
43, 0.0
44, 0.0
45, 0.0
46, 0.0
47, 0.0
48, 0.0
49, 0.0
50, 0.0
51, 0.0
52, 0.0
53, 0.0
54, 0.0
55, 0.0
56, 0.0
57, 0.0
58, 0.0
59, 0.0
60, 0.0
61, 0.0
62, 0.0
63, 0.0
64, 0.0
65, 0.0
66, 0.0
67, 0.0
68, 0.0
69, 0.0
70, 0.0
71, 0.0
72, 0.0
73, 0.0
74, 0.0
75, 0.0
76, 0.0
77, 0.0
78, 0.0
79, 0.0
80, 0.0
81, 0.0
82, 0.0
83, 0.0
84, 0.0
85, 0.0
86, 0.0
87, 0.0
88, 0.0
89, 0.0
90, 0.0
91, 0.0
92.0, 1.493499109226997e-05
93.0, 0.0008009871538430971
94.0, 0.0009035481809583636
95.0, 0.0006347825532844976
96.0, 0.0004943524619158574
97.0, 0.00081821731959031
98.0, 0.0010823029480588817
99.0, 0.0011305174706364644
100.0, 0.0006258008951226233
101.0, 0.00024555414614368666
102.0, 0.0001770103334773053
103.0, 0.0007846982720734399
104.0, 0.00045284397163094587
105.0, 0.0007659796083832498
106.0, 0.0017660465328428218
107.0, 0.0013597970883174805
108.0, 0.0013009535406018405
109.0, 0.0011003681066143944
110.0, 0.00024986222510811184
111.0, 0.00025177348476855473
112.0, 0.0002526231050430248
113.0, 0.00032559156644611643
114.0, 0.001296939122100592
115.0, 0.0021297335646901306
116.0, 0.0028671962555833395
117.0, 0.003517543779992199
118.0, 0.005057993120997703
119.0, 0.0072523825512371175
120.0, 0.009823528722015943
121.0, 0.012040109208639448
122.0, 0.012651656021052305
123.0, 0.01231556668697107
124.0, 0.011186130620171876
125.0, 0.00946184489179987
126.0, 0.009112987513143005
127.0, 0.01038116436455971
128.0, 0.014194914803118009
129.0, 0.019392761490115505
130.0, 0.023126879955023043
131.0, 0.02458975502519327
132.0, 0.022237328439694302
133.0, 0.01738006462277906
134.0, 0.012074728737148795
135.0, 0.008308001684530232
136.0, 0.005437547900758248
137.0, 0.0036187774476597167
138.0, 0.0027915439902934797
139.0, 0.002748509164777923
140.0, 0.0025665782754443344
141.0, 0.0020587882626580366
142.0, 0.0010720740606613884
143.0, 0.0011118981089719411
144.0, 0.0012551477756228746
145.0, 0.00139813874041682
146.0, 0.0013256370674407155
147.0, 0.0013679135718172087
148.0, 0.0012486288481683618
149.0, 0.000931859279095171
150.0, 0.0011937763805245957
151.0, 0.0016157532404243726
152.0, 0.0019046020736928528
153.0, 0.0016745967663203839
154.0, 0.001470472350307997
155.0, 0.0014010768690507392
156.0, 0.0014036763078742404
157.0, 0.0010923626235050633
158.0, 0.0009159659874607142
159.0, 0.0007993593386722989
160.0, 0.0007092030332474168
161.0, 0.0006066316990161502
162.0, 0.0009034497043364146
163.0, 0.0012720196134926227
164.0, 0.0009701327945376562
165.0, 0.0011009873694587669
166.0, 0.001287879500481863
167.0, 0.00139388978769534
168.0, 0.0008909016822327855
169.0, 0.001080013577413606
170.0, 0.00131778399487934
171.0, 0.0009809018566634983
172.0, 0.0006756579703370533
173.0, 0.0005352036054629219
174.0, 0.0005245274032973812
175.0, 0.0004930066351947875
176.0, 0.00029080871120823015
177.0, 0.00018255279988495503
178.0, 0.00027434079407742326
179.0, 0.00017950103945722196
180.0, 0.0002696530177248478
181.0, 0.0003664134764165549
182.0, 0.00020168036918003797
183.0, 0.00036476910052199066
184.0, 0.00038010966027045404
185.0, 0.00021639396893685761
186.0, 9.101620484032038e-05
187.0, 0.0003635401304397791
188.0, 0.0005482239461639236
189.0, 0.00035630000798740093
190.0, 0.0001658314079052643
191.0, 0.0002199563821705601
192.0, 0.00032231784942649905
193.0, 7.905150945919015e-05
194.0, 4.7921701535120886e-05
195.0, 4.230101691599445e-05
196.0, 3.202639784103915e-05
197.0, 7.508862062310768e-05
198.0, 0.00024919292293652676
199.0, 0.000377358864277135
200.0, 0.00032632976760023683
201.0, 0.00023607574025049304
202.0, 0.00025298988184171295
203.0, 0.0003834024005623533
204.0, 0.0006564207668604224
205.0, 0.000284249151674114
206.0, 0.00013072199197814864
207.0, 0.0003681522312242368
208.0, 0.000622285425820644
209.0, 0.0007753222463300652
210.0, 0.0006783172229741141
211.0, 0.00017416074690608627
212.0, 0.00046283657789984034
213.0, 0.0005148670163719602
214.0, 0.000374309669319744
215.0, 0.0002041468704355374
216.0, 0.0007460021725539125
217.0, 0.0010700662213695086
218.0, 0.0010323423685740425
219.0, 0.001388847846435538
220.0, 0.0017103472360867622
221.0, 0.0019291245873568033
222.0, 0.001979599124164422
223.0, 0.0028370018240911257
224.0, 0.0034328050510028974
225.0, 0.0037842684048359685
226.0, 0.003948398552509456
227.0, 0.0040815554652518585
228.0, 0.0040453184898586285
229.0, 0.003876505508521218
230.0, 0.004065555945162015
231.0, 0.004164333723589771
232.0, 0.004252999495558254
233.0, 0.004379951213584867
234.0, 0.0036122909341009517
235.0, 0.003170318827526361
236.0, 0.002906436843187829
237.0, 0.0025764713184579457
238.0, 0.0022234637699129287
239.0, 0.0020591343925089817
240.0, 0.0020753818113690347
241.0, 0.00206894642119031
242.0, 0.0019114023202263797
243.0, 0.0016404187624985203
244.0, 0.0012804638936302298
245.0, 0.0013578786063503574
246.0, 0.0013549463340253329
247.0, 0.001400057352163167
248.0, 0.0016630680972309993
249.0, 0.0012542838423896595
250.0, 0.0011915264296106884
251.0, 0.0014044726375109092
252.0, 0.0013872662594797483
253.0, 0.0014359324584990484
254.0, 0.00156973702125055
255.0, 0.0017499820447786914
256.0, 0.0014593650113896104
257.0, 0.001610773528749105
258.0, 0.001907967962214791
259.0, 0.0021402590248098146
260.0, 0.0018034362777360673
261.0, 0.0020672048190900653
262.0, 0.0024418322516012955
263.0, 0.0019277596478588926
264.0, 0.0024773563441817677
265.0, 0.002529165788402788
266.0, 0.002051420114457253
267.0, 0.002176211821596569
268.0, 0.0018840216911884542
269.0, 0.0016552834885450603
270.0, 0.0017102457884584019
271.0, 0.002181984493285197
272.0, 0.0026119245775316478
273.0, 0.0027047193582504254
274.0, 0.0021008899134743264
275.0, 0.002418728881513909
276.0, 0.0025290909079502865
277.0, 0.0023533850886487523
278.0, 0.001812985053758751
279.0, 0.0018273072198174583
280.0, 0.0019478451825944445
281.0, 0.002098142329049906
282.0, 0.002372702109970883
283.0, 0.0018735166832606303
284.0, 0.0014497597699429632
285.0, 0.001506355871915004
286.0, 0.001689485291627154
287.0, 0.0015523343148004553
288.0, 0.0014250433683979764
289.0, 0.0016660770550739321
290.0, 0.001488298741981661
291.0, 0.0017071333163889428
292.0, 0.002015969883730844
293.0, 0.0015916175754932898
294.0, 0.0018283230261759622
295.0, 0.0019345938614903691
296.0, 0.0018560061505533349
297.0, 0.002124521829566856
298.0, 0.0017571238475565752
299.0, 0.0014676448389059852
300.0, 0.001551002381791153
301.0, 0.0016562174113631109
302.0, 0.002046048891205144
303.0, 0.0022654678288726903
304.0, 0.0018871242698492313
305.0, 0.0023843873924324454
306.0, 0.0023189114851887354
307.0, 0.0020473286393638246
308.0, 0.002279504940540587
309.0, 0.0025882640797507627
310.0, 0.002579476550168497
311.0, 0.0023084659881167976
312.0, 0.002158299834475037
313.0, 0.002183584487794455
314.0, 0.002222476970425026
315.0, 0.0022573457496787783
316.0, 0.002550058891649861
317.0, 0.002415987371345436
318.0, 0.0022274276442464085
319.0, 0.0021901669825880876
320.0, 0.0018414254242035233
321.0, 0.001962768609831948
322.0, 0.0023251525703239817
323.0, 0.002694684514417014
324.0, 0.002271523675762897
325.0, 0.0018991061410543117
326.0, 0.0016763275091340893
327.0, 0.0017312528497437215
328.0, 0.0016324827781028987
329.0, 0.0016289942403035819
330.0, 0.0017152129561200835
331.0, 0.00171644061236974
332.0, 0.0017426874119248962
333.0, 0.0017787991414866674
334.0, 0.001815985103499678
335.0, 0.0018188230823411348
336.0, 0.001836777389625705
337.0, 0.0017884199010119682
338.0, 0.001643015625073135
339.0, 0.001960463829767519
340.0, 0.00184855178298461
341.0, 0.0018603363970651425
342.0, 0.0025587857972897755
343.0, 0.0023221874737800836
344.0, 0.002036394185382617
345.0, 0.0018554763036308633
346.0, 0.002005680607923211
347.0, 0.0018392334638656117
348.0, 0.0019519456170110632
349.0, 0.0021958952594988233
350.0, 0.0019642631818309973
351.0, 0.0016851495972775303
352.0, 0.0012758116816739724
353.0, 0.0008647028914011031
354.0, 0.0011927673643677484
355.0, 0.0009464611077850215
356.0, 0.0007711672947582244
357.0, 0.0008606905166196663
358.0, 0.0006986037157589502
359.0, 0.0007450416366469459
360.0, 0.0006781533238722742
361.0, 0.00032490435905539023
362.0, 0.0005924756344659095
363.0, 0.0005013949214963097
364.0, 0.0002596578308138512
365.0, 5.6638188870650967e-05
366.0, 0.00013506999170447318
367.0, 9.629797234280594e-05
368.0, 5.347361526941223e-05
369.0, 0.00019189049335568671
370.0, 0.00012971701044757976
371.0, 7.169081781619141e-05
372.0, 4.202924281545443e-05
373.0, 5.9169872198167885e-05
374.0, 0.00010377660167878357
375.0, 0.00018021739418232392
376.0, 0.0002920358712299366
377.0, 0.0004517015280241026
378.0, 0.0005766179914900503
379.0, 0.0007097895340478898
380.0, 0.0008502748280092033
381.0, 0.0009316095207820358
382.0, 0.0009172701091090138
383.0, 0.0009344635277964434
384.0, 0.0010026241287432547
385.0, 0.0008340174915547058
386.0, 0.0009982741459509301
387.0, 0.0011559949470710546
388.0, 0.0011438855076891428
389.0, 0.0014779134383863324
390.0, 0.0014548632248293431
391.0, 0.0013414300040138303
392.0, 0.0013420697612416496
393.0, 0.0014757155375684
394.0, 0.0012496818400999537
395.0, 0.0011041358792134145
396.0, 0.0015347569034892853
397.0, 0.001125139160907907
398.0, 0.001213261861048456
399.0, 0.0012801057880835992
400.0, 0.0004706893680916888
401.0, 0.0006420314138793823
402.0, 0.0005922019483652891
403.0, 0.0004433788896163576
404.0, 0.0006226687678446529
405.0, 0.00036722240367734475
406.0, 0.00022663811175003553
407.0, 0.0001867035982997165
408.0, 2.9622131239872602e-05
409.0, 0.00065548404252613
410.0, 0.0010022087496513162
411.0, 0.0011771389978922188
412.0, 0.0022453103145436844
413.0, 0.0037601857680997814
414.0, 0.005466964513344448
415.0, 0.007114641735102465
416.0, 0.007813630452897768
417.0, 0.00691246567155667
418.0, 0.005103831160434568
419.0, 0.0028268241996851776
420.0, 0.0015418157653717
421.0, 0.0006152888472441948
422.0, 0.00010960679967587141
423.0, 5.015430193923949e-05
424.0, 0.00032947911087953904
425.0, 0.00041942353661318193
426.0, 0.0003235463169864054
427.0, 6.939075762278298e-05
428.0, 4.073951283214084e-05
429.0, 0.00015387215567012156
430.0, 0.0001870005332850076
431.0, 5.837480862685865e-05
432.0, 0.0007430642049931311
433.0, 0.000669337875950608
434.0, 0.0004537966998767162
435.0, 0.0005076738940024846
436.0, 0.0001615152892859152
437.0, 0.00018547617205222987
438.0, 0.0003878736843349561
439.0, 0.0006087026042050534
440.0, 0.0004220794538045071
441.0, 0.0002942549411793947
442.0, 0.0004200492970808659
443.0, 0.0009928411124755462
444.0, 0.0006860943084063363
445.0, 0.0005544365238781924
446.0, 0.0006067290648248845
447.0, 0.0008536100760086162
448.0, 0.0003431789513394903
449.0, 0.0004521559467681329
450.0, 0.000875650492928008
451.0, 0.001222311896000424
452.0, 0.0011331931955138512
453.0, 0.0010476602031001202
454.0, 0.001082003015222782
455.0, 0.0013779264965395738
456.0, 0.0014363516033185145
457.0, 0.001243533882740673
458.0, 0.001327096023099856
459.0, 0.0024597163149517737
460.0, 0.0018362219401081659
461.0, 0.0018580408735770434
462.0, 0.0020727926156392596
463.0, 0.001595777593104182
464.0, 0.0016857779354915907
465.0, 0.0020665867192780837
466.0, 0.0024866895126710786
467.0, 0.0025734161159473756
468.0, 0.0026818817034020433
469.0, 0.002731952471433212
470.0, 0.0027601884684435338
471.0, 0.0028349627835275596
472.0, 0.003005002171665737
473.0, 0.003155495029238865
474.0, 0.003312615767261812
475.0, 0.003534567697850009
476.0, 0.003699354680209076
477.0, 0.003845868376632392
478.0, 0.003985968649857142
479.0, 0.004134330677385021
480.0, 0.004937167062347561
481.0, 0.005505425778116934
482.0, 0.005758133711679135
483.0, 0.005656703039323797
484.0, 0.007080713715471255
485.0, 0.007991154132343482
486.0, 0.00890723699749213
487.0, 0.0108913191753576
488.0, 0.012463160217504005
489.0, 0.014537791916972732
490.0, 0.017463315727977196
491.0, 0.02171292064697048
492.0, 0.027398733012658157
493.0, 0.03446404101062011
494.0, 0.04328363324204752
495.0, 0.05445009321045756
496.0, 0.06412733098215284
497.0, 0.0730549913431699
498.0, 0.07909687319006323
499.0, 0.07926938089673054
500.0, 0.06960490719707117
501.0, 0.05931404901015474
502.0, 0.04866738670661906
503.0, 0.037607227701559144
504.0, 0.029296254824178664
505.0, 0.022867176209779533
506.0, 0.017965719450007373
507.0, 0.014219852134915533
508.0, 0.011229694359644712
509.0, 0.009613058871426855
510.0, 0.008495273575329048
511.0, 0.007004154327007174
512.0, 0.005648838800103797
513.0, 0.004633174083273586
514.0, 0.004132441343680745
515.0, 0.004275589672569687
516.0, 0.0042220482437790915
517.0, 0.0037737566992676287
518.0, 0.0032824198531849046
519.0, 0.003021609587332642
520.0, 0.0031444912008163576
521.0, 0.0027152975232606776
522.0, 0.0023677115398830907
523.0, 0.0024348190746643224
524.0, 0.0019037465354746902
525.0, 0.001539366281943712
526.0, 0.001494720798186204
527.0, 0.0018205118137346406
528.0, 0.0021803889495395946
529.0, 0.0020025812628554473
530.0, 0.0017206765013718722
531.0, 0.0015453916224578048
532.0, 0.0015924282517072966
533.0, 0.0014319620915546473
534.0, 0.0012393853317644698
535.0, 0.0011316955914749886
536.0, 0.0013796280405983911
537.0, 0.0015982484090563906
538.0, 0.0016274613863161865
539.0, 0.0014056593145133091
540.0, 0.0008751063701464891
541.0, 0.0010787682562191526
542.0, 0.0009576552367671197
543.0, 0.000699022080499302
544.0, 0.0015417112949146126
545.0, 0.0011485860854854946
546.0, 0.0008648648566751037
547.0, 0.0008498042408916264
548.0, 0.0009835092673954409
549.0, 0.0011152619839247637
550.0, 0.0008044987875381198
551.0, 0.0005351717107123209
552.0, 0.0012185816074410363
553.0, 0.001101197607844783
554.0, 0.0010832970703380641
555.0, 0.0012581903216290103
556.0, 0.0016762560649119136
557.0, 0.001244100833801349
558.0, 0.0010620443848077322
559.0, 0.0010092598648295977
560.0, 0.0009624815151504172
561.0, 0.001638236973810747
562.0, 0.001754444439225019
563.0, 0.001829452450173987
564.0, 0.0021760524763819906
565.0, 0.0018262631477033158
566.0, 0.0016452943913559694
567.0, 0.0017913861036772578
568.0, 0.0022223912389225426
569.0, 0.001970919026260735
570.0, 0.001747550338410862
571.0, 0.001709819236054766
572.0, 0.0018334509492452067
573.0, 0.0017184741935438634
574.0, 0.0020121909354715224
575.0, 0.00201445391819869
576.0, 0.0018586576287708098
577.0, 0.002526508738921529
578.0, 0.002530048049841656
579.0, 0.0022494959054364405
580.0, 0.0020261755429330877
581.0, 0.0024519827718429876
582.0, 0.0023037933967822487
583.0, 0.0028181157094748213
584.0, 0.003470507624268197
585.0, 0.003353877295368462
586.0, 0.0032361243978673974
587.0, 0.003659318313273219
588.0, 0.004059897186715918
589.0, 0.00386844802952624
590.0, 0.003242300019742294
591.0, 0.0031225938095281584
592.0, 0.003176912487343025
593.0, 0.0032176415011632626
594.0, 0.0036304369287283892
595.0, 0.003896809989954796
596.0, 0.0043540378423301135
597.0, 0.005001403339626162
598.0, 0.005049203340939843
599.0, 0.006159354849478069
600.0, 0.0072624771606855775
601.0, 0.00846095628108683
602.0, 0.010990923061457561
603.0, 0.01613669160566178
604.0, 0.025187298172102156
605.0, 0.0409382164254354
606.0, 0.0684347045926755
607.0, 0.104565982022883
608.0, 0.12931336361231502
609.0, 0.13275634064784733
610.0, 0.10519012037148875
611.0, 0.06365783872609766
612.0, 0.03540797865525373
613.0, 0.019099193034406034
614.0, 0.012887476383889552
615.0, 0.010345507073339385
616.0, 0.00911589216288794
617.0, 0.008339955598657162
618.0, 0.007697873457316887
619.0, 0.007706012846344931
620.0, 0.007505589267399778
621.0, 0.008367043155195599
622.0, 0.01007521996592859
623.0, 0.01090913394388709
624.0, 0.011958528787801818
625.0, 0.012983213978902262
626.0, 0.01379918156841027
627.0, 0.01414995077331688
628.0, 0.012818866947136605
629.0, 0.010878652306111526
630.0, 0.009102095649526357
631.0, 0.008188125896696473
632.0, 0.006656269520874096
633.0, 0.005610583185026598
634.0, 0.005135499240919569
635.0, 0.005136160255627897
636.0, 0.004532759874871442
637.0, 0.004627075934247665
638.0, 0.004839282036640001
639.0, 0.00512282539973764
640.0, 0.0060332315097610095
641.0, 0.006500148606052726
642.0, 0.006557305402751885
643.0, 0.0065756075962332345
644.0, 0.007257167366762686
645.0, 0.007370554401849767
646.0, 0.007592367940647719
647.0, 0.007856067925972168
648.0, 0.00804486706062622
649.0, 0.008086917990825978
650.0, 0.008080211307215736
651.0, 0.00800420270217157
652.0, 0.007834815080070038
653.0, 0.007483825563858914
654.0, 0.006876568526974095
655.0, 0.006104895782743597
656.0, 0.005326514657792503
657.0, 0.004949764326202867
658.0, 0.004697153602981345
659.0, 0.004311602417055939
660.0, 0.003954047677629088
661.0, 0.003946674515303566
662.0, 0.003878865577567202
663.0, 0.003798372233535663
664.0, 0.003922149805053487
665.0, 0.004406222897121528
666.0, 0.004794210775732301
667.0, 0.005462436023102514
668.0, 0.007799577343183061
669.0, 0.0123039954639954
670.0, 0.01830061445208636
671.0, 0.02962570052939221
672.0, 0.04808798896224967
673.0, 0.07248461687201514
674.0, 0.0992367979248261
675.0, 0.10974355894562549
676.0, 0.10068614873550823
677.0, 0.07704075914802244
678.0, 0.04583595848891891
679.0, 0.026252313579650473
680.0, 0.015024801188654879
681.0, 0.009089701886583515
682.0, 0.006291930556879792
683.0, 0.004990609685688299
684.0, 0.00336197912413954
685.0, 0.002220376634800257
686.0, 0.0015955545125017577
687.0, 0.0010100916686270884
688.0, 0.0008501204461888069
689.0, 0.000645880381223086
690.0, 0.0006034189841741305
691.0, 0.0009875983961739525
692.0, 0.000657564846848044
693.0, 0.0007530699526187779
694.0, 0.0010182990842521132
695.0, 0.0011662667582700123
696.0, 0.00042102112232096357
697.0, 0.0001239744366635283
698.0, 5.601544957262003e-05
699.0, 8.622876122253157e-05
700.0, 3.94426869675176e-05
701.0, 0.00029672329264892325
702.0, 0.0002552850591904988
703.0, 0.00013004640783757446
704.0, 0.00021501331734412874
705.0, 0.00016357172089762078
706.0, 0.00022549450913583675
707.0, 0.0004022985240675375
708.0, 0.0005750470942183785
709.0, 0.00013955492303144824
710.0, 0.0006672412489193182
711.0, 0.0007229023850844471
712.0, 0.0004352101399911233
713.0, 0.0007455819871698945
714.0, 0.0004815786147247507
715.0, 0.00065297478887354
716.0, 0.0007349742011162291
717.0, 0.0002700816431619252
718.0, 0.0004537254911574258
719.0, 0.0004502064612884491
720.0, 0.0002809972449233359
721.0, 4.081352799505715e-05
722.0, 3.6082946606419644e-05
723.0, 0.00021821344094042537
724.0, 0.0002517072812205803
725.0, 0.00030007100363625206
726.0, 0.0006807010991682807
727.0, 0.0002523279257858695
728.0, 0.0007177933070765048
729.0, 0.0012562005528945156
730.0, 0.0013030437070061399
731.0, 0.0009627060865207976
732.0, 0.0009074723925048046
733.0, 0.000841674579971538
734.0, 0.0007315299870116591
735.0, 0.0006890305215218106
736.0, 0.0005173718072304956
737.0, 0.000533420923771256
738.0, 0.000596381727141912
739.0, 0.0005399641677425113
740.0, 0.00031459211581891255
741.0, 0.00018823832909078449
742.0, 0.00029465524680987755
743.0, 0.0004935418182486699
744.0, 0.00012600605221858155
745.0, 0.0006226996339712232
746.0, 0.0009029966972982744
747.0, 0.000965328380367828
748.0, 0.0010085758134971868
749.0, 0.0009885761805970886
750.0, 0.0007711156460452184
751.0, 0.0005084616663725349
752.0, 0.000295245291513853
753.0, 0.00015885587979330202
754.0, 0.00023251572447967998
755.0, 0.00029416203516150223
756.0, 0.0004229307772217619
757.0, 0.0008207041925755573
758.0, 0.0002959053651641128
759.0, 0.00036172228252224163
760.0, 0.0004893082370264515
761.0, 0.00036933458062858023
762.0, 0.0005678719112508825
763.0, 0.0003161607224279585
764.0, 0.00026562834187287204
765.0, 0.00041969197039765105
766.0, 0.0004421680306446638
767.0, 0.0005795633617689932
768.0, 0.0007246397241242909
769.0, 0.0009563496555889306
770.0, 0.001277013296593649
771.0, 0.0011818782360870537
772.0, 0.0013217305851581699
773.0, 0.00129442690602506
774.0, 0.001078103812633009
775.0, 0.0009012082195006753
776.0, 0.0009700113698201571
777.0, 0.000768703835597419
778.0, 0.0004331364247806187
779.0, 0.00014380127148701021
780.0, 0.00016068129671556792
781.0, 0.0005417552706785239
782.0, 0.0008640670289638435
783.0, 0.0009079189526635949
784.0, 0.0004844555590272016
785.0, 0.0009430140736347362
786.0, 0.0006594625215094891
787.0, 0.0005675383246396061
788.0, 0.0013387608908786584
789.0, 0.0007591596312159649
790.0, 0.0008575451888706779
791.0, 0.0013225081020379345
792.0, 0.001692112668904764
793.0, 0.0011507734004522552
794.0, 0.0016831952602838925
795.0, 0.0019752613440054425
796.0, 0.0017326150210917766
797.0, 0.0009720201122194054
798.0, 0.0011566424268939738
799.0, 0.0012351811106979865
800.0, 0.0012000558276704246
801.0, 0.001157507319314491
802.0, 0.0013289988600449548
803.0, 0.0013624243609759586
804.0, 0.0010180882180059008
805.0, 0.0007989292033783484
806.0, 0.0009569309585969564
807.0, 0.0006351750966741272
808.0, 0.001019625171541562
809.0, 0.0015201712882073708
810.0, 0.0017009899082122014
811.0, 0.001080180766873637
812.0, 0.001000276770708603
813.0, 0.0013497417223540492
814.0, 0.0018439911890900226
815.0, 0.0021094689292438253
816.0, 0.0012800809273974007
817.0, 0.001037205056418088
818.0, 0.001242244809442909
819.0, 0.0015279723143764164
820.0, 0.0014380513487406406
821.0, 0.001778339821765522
822.0, 0.0023226161675163363
823.0, 0.002413636330597709
824.0, 0.0019497859492124555
825.0, 0.0016654720497024825
826.0, 0.0026693196109258918
827.0, 0.0029522292908022354
828.0, 0.0028103580346058627
829.0, 0.0028529433993111928
830.0, 0.003427532366888892
831.0, 0.0030017496232409087
832.0, 0.0029091028157283757
833.0, 0.00322000040157924
834.0, 0.0030133976125965582
835.0, 0.003680269967221637
836.0, 0.0038539648045005336
837.0, 0.003808958394056669
838.0, 0.0038399955677100093
839.0, 0.004076338911369401
840.0, 0.004122654385104689
841.0, 0.004181810237572148
842.0, 0.0043328192684581645
843.0, 0.004627307691355876
844.0, 0.005356984618022755
845.0, 0.005932928989503635
846.0, 0.005656702370627444
847.0, 0.004884679133408241
848.0, 0.005954928492949146
849.0, 0.005709889161093987
850.0, 0.005916937139042832
851.0, 0.006106223589929098
852.0, 0.005730813915284491
853.0, 0.0058950906132091176
854.0, 0.006933388830707422
855.0, 0.008032812054724845
856.0, 0.008613872017921445
857.0, 0.00807665939494087
858.0, 0.00866832964769643
859.0, 0.008933350011489233
860.0, 0.009509490054464064
861.0, 0.010316372150656457
862.0, 0.009360984848784842
863.0, 0.009104777592525794
864.0, 0.00848757094705172
865.0, 0.007585602303973607
866.0, 0.006718224735754436
867.0, 0.006488553415860925
868.0, 0.005898237131535393
869.0, 0.00519563793716931
870.0, 0.004660749701416559
871.0, 0.004678522226146257
872.0, 0.004736220636070264
873.0, 0.00427868475942894
874.0, 0.003760912064250521
875.0, 0.0034705666988926152
876.0, 0.0033333073179168623
877.0, 0.003823762995594333
878.0, 0.003826334206879883
879.0, 0.0035818083862174145
880.0, 0.0035173871541121257
881.0, 0.0034515069051246523
882.0, 0.0030809462084396486
883.0, 0.002996812804260586
884.0, 0.0031730072476413938
885.0, 0.00321453966026254
886.0, 0.00270790599606048
887.0, 0.0027545959812907625
888.0, 0.0029404286432623762
889.0, 0.0030258581162228974
890.0, 0.003040525843763085
891.0, 0.0030197174227983006
892.0, 0.0031571499622726185
893.0, 0.0034217460345160053
894.0, 0.00369607657231424
895.0, 0.003526025111324587
896.0, 0.0036040211231296404
897.0, 0.00382015557731103
898.0, 0.003906683502994961
899.0, 0.0035448236286573466
900.0, 0.003233361583929804
901.0, 0.003153867361333422
902.0, 0.0032760249915615384
903.0, 0.0033608027461797686
904.0, 0.0028911255724703958
905.0, 0.003296385353098065
906.0, 0.003520828960707649
907.0, 0.003516091905024643
908.0, 0.0033455085769096378
909.0, 0.0032542455996364314
910.0, 0.003118791111714185
911.0, 0.003093623344037572
912.0, 0.0030350886391294265
913.0, 0.0028234308688020945
914.0, 0.0028005905279168994
915.0, 0.0023511416136025925
916.0, 0.0017558904795474041
917.0, 0.0012661407019731495
918.0, 0.0011590343623923654
919.0, 0.00189813567528834
920.0, 0.001271250283952047
921.0, 0.0007212678420430767
922.0, 0.0007686824912395444
923.0, 0.0012348253563286551
924.0, 0.0006308690797772935
925.0, 0.0011334810307019113
926.0, 0.001381213030704074
927.0, 0.0008928539342421154
928.0, 0.0009510263090824443
929.0, 0.0008512313168864997
930.0, 0.001207302574870183
931.0, 0.0013515834330428424
932.0, 0.0008412329587318646
933.0, 0.0005824594678155591
934.0, 0.0015515795695425982
935.0, 0.0014877197147192467
936.0, 0.0012003960391715066
937.0, 0.0018673356919917147
938.0, 0.001227111401337818
939.0, 0.0012146287754751543
940.0, 0.0011556690053030846
941.0, 0.0011819642380071103
942.0, 0.0017098361140086295
943.0, 0.0009770108502713476
944.0, 0.0009491840678458325
945.0, 0.0012354753676288165
946.0, 0.0014194511109677128
947.0, 0.000990182629971748
948.0, 0.0007183215519557414
949.0, 0.0010650520815140654
950.0, 0.0015468131927811428
951.0, 0.0019400839269966496
952.0, 0.0023963575717350586
953.0, 0.002460125628529066
954.0, 0.002454530084946494
955.0, 0.002407601377765196
956.0, 0.0022832231782587823
957.0, 0.0019072041797837747
958.0, 0.001748090639151996
959.0, 0.0015326388666843335
960.0, 0.0014629085908859178
961.0, 0.001589993177375246
962.0, 0.0011214153285894369
963.0, 0.0019389392021519208
964.0, 0.0017878285315774047
965.0, 0.0015733079022458379
966.0, 0.0024126716694977115
967.0, 0.0022884216059584858
968.0, 0.0017846010875099047
969.0, 0.0022115429849717946
970.0, 0.002705152571172244
971.0, 0.0019716725823554875
972.0, 0.0022583668240413923
973.0, 0.0020162485838867137
974.0, 0.0020679762612133314
975.0, 0.0023359650322869376
976.0, 0.0023424510076796305
977.0, 0.002298407979581881
978.0, 0.002536590991075008
979.0, 0.0026882591028609777
980.0, 0.0025028703484229926
981.0, 0.0018572967657191867
982.0, 0.003431892506120254
983.0, 0.003036002217337111
984.0, 0.003039019255770791
985.0, 0.003963081869122402
986.0, 0.004768638401715735
987.0, 0.004181054395570341
988.0, 0.00493964790619935
989.0, 0.0051859309861981406
990.0, 0.0048979255611820115
991.0, 0.006129340318627515
992.0, 0.00540344088002421
993.0, 0.005988942057381714
994.0, 0.00735204283093497
995.0, 0.008784359075752823
996.0, 0.00937948003160185
997.0, 0.011903778898083604
998.0, 0.015233015844821339
999.0, 0.02018353409962803
1000.0, 0.025761782521575023
1001.0, 0.02787239332679565
1002.0, 0.03087462297044792
1003.0, 0.031076097636679213
1004.0, 0.030817077311396462
1005.0, 0.03152150415333697
1006.0, 0.032518450493997465
1007.0, 0.03719545689681241
1008.0, 0.04513639228851441
1009.0, 0.0567114029481049
1010.0, 0.07320245777421466
1011.0, 0.09827246879561782
1012.0, 0.14037798241393018
1013.0, 0.21378656970466595
1014.0, 0.3362618188659408
1015.0, 0.5217620094256895
1016.0, 0.7839067021163963
1017.0, 0.9503095751521092
1018.0, 0.9229506316012027
1019.0, 0.749241471798871
1020.0, 0.5080886785356697
1021.0, 0.3160504681674271
1022.0, 0.2087115803979473
1023.0, 0.14311201629221101
1024.0, 0.10305601728535925
1025.0, 0.07679650232233202
1026.0, 0.05915260838080195
1027.0, 0.047497821836360365
1028.0, 0.03903825296358915
1029.0, 0.032120379891101856
1030.0, 0.02600719345200896
1031.0, 0.021662014763456278
1032.0, 0.018835602099707978
1033.0, 0.01661533778796126
1034.0, 0.014266129177158748
1035.0, 0.011851369494414505
1036.0, 0.010800551466716402
1037.0, 0.009840404290115623
1038.0, 0.008140132061810693
1039.0, 0.007107241605083964
1040.0, 0.0068266969174203
1041.0, 0.005278163444162887
1042.0, 0.0055522896804374175
1043.0, 0.00539103719200804
1044.0, 0.004606199464872344
1045.0, 0.0036595802646110266
1046.0, 0.0037443785214141554
1047.0, 0.0027726433781223385
1048.0, 0.00276146494578125
1049.0, 0.0025622835597410077
1050.0, 0.002029073264910999
1051.0, 0.0020793173904858795
1052.0, 0.0019468365376916349
1053.0, 0.002191819333761251
1054.0, 0.0019548073291136407
1055.0, 0.0013984740391757378
1056.0, 0.0014636884145159427
1057.0, 0.0008408358625516079
1058.0, 0.0007632716754387093
1059.0, 0.0011038669577378745
1060.0, 0.0011585439168428882
1061.0, 0.00010090341979514304
1062.0, 0.0008749429173057364
1063.0, 0.000658178778247098
1064.0, 0.00026187063587728413
1065.0, 2.4339079777849263e-05
1066.0, 7.59110215389385e-05
1067.0, 0.0006047183708228227
1068.0, 0.0005619354780416849
1069.0, 0.0004321881314182017
1070.0, 0.0005646058367733039
1071.0, 0.0010173707556324232
1072.0, 0.00044769958758538234
1073.0, 0.0008576302796458588
1074.0, 0.0014143882595102925
1075.0, 0.0015925435623239902
1076.0, 0.0013008591196009543
1077.0, 0.0017773850615103353
1078.0, 0.0027754325626490202
1079.0, 0.0032775478295939907
1080.0, 0.0035731685416092985
1081.0, 0.0039111470321086745
1082.0, 0.0039855824124615385
1083.0, 0.004996819356158468
1084.0, 0.005453783538072048
1085.0, 0.005729778046330112
1086.0, 0.005954476327006789
1087.0, 0.0056665997946115584
1088.0, 0.004153003778181654
1089.0, 0.0031444984461443696
1090.0, 0.0024073205572936623
1091.0, 0.001923725495764149
1092.0, 0.001904647619104284
1093.0, 0.001872509998101565
1094.0, 0.0014703657331842264
1095.0, 0.0011300152306097152
1096.0, 0.001023300310298184
1097.0, 0.0011838597572540817
1098.0, 0.001918506947991682
1099.0, 0.0025635050212920747
1100.0, 0.0024053123016990617
1101.0, 0.001926578239256276
1102.0, 0.0019139933487787508
1103.0, 0.0025284392516686325
1104.0, 0.0043088011673065064
1105.0, 0.006207371921231257
1106.0, 0.009262247356010231
1107.0, 0.014374881231332872
1108.0, 0.021239500293747132
1109.0, 0.03441414417430092
1110.0, 0.04545828319900816
1111.0, 0.0509983735962433
1112.0, 0.050004875814817454
1113.0, 0.044182540603249214
1114.0, 0.036808893836816445
1115.0, 0.030317797885409135
1116.0, 0.02452165116488026
1117.0, 0.019474506225484634
1118.0, 0.015422734604297607
1119.0, 0.012521112059198314
1120.0, 0.012174488805397248
1121.0, 0.01373502757852733
1122.0, 0.01623553978651893
1123.0, 0.01890240103915368
1124.0, 0.02313507418379115
1125.0, 0.03187897177308062
1126.0, 0.0484015774454654
1127.0, 0.07619353943171607
1128.0, 0.11459135113473384
1129.0, 0.15356183315350505
1130.0, 0.15798630568411237
1131.0, 0.12977356660782638
1132.0, 0.08892378997834084
1133.0, 0.05251043444423726
1134.0, 0.030612171557650614
1135.0, 0.02036726922675574
1136.0, 0.013746708848722177
1137.0, 0.010024212506119514
1138.0, 0.007773174904359309
1139.0, 0.005455016955407991
1140.0, 0.004087894053137273
1141.0, 0.0025697578074504227
1142.0, 0.0014391137725906762
1143.0, 0.0010289283873059622
1144.0, 0.0012301579826409456
1145.0, 0.0007952123580215773
1146.0, 0.00049825639612889
1147.0, 0.0003821386847110477
1148.0, 0.0003203774788969991
1149.0, 0.0002531661828431267
1150.0, 0.0002372087566986877
1151.0, 0.00017753663828550678
1152.0, 0.00040798597452886644
1153.0, 0.00047649108229329447
1154.0, 0.0003275462802974442
1155.0, 0.00018279324627414994
1156.0, 0.0004232471736682134
1157.0, 0.0006078448673762535
1158.0, 0.0011670674637395341
1159.0, 0.0021140594433412315
1160.0, 0.003032191916137945
1161.0, 0.0026505847681889574
1162.0, 0.0029345736865668127
1163.0, 0.0020636310859724278
1164.0, 0.0014998222636308256
1165.0, 0.0013334179661797134
1166.0, 3.383812930199333e-05
1167.0, 0.0006894703887481128
1168.0, 0.0006735025473228459
1169.0, 0.0006359718049588795
1170.0, 0.0005448065483267546
1171.0, 0.00021442735627686738
1172.0, 0.0002529762031104906
1173.0, 0.00018183457172022302
1174.0, 0.00027979868171467223
1175.0, 0.0006658205707051549
1176.0, 0.0010409593050583537
1177.0, 0.00047597904162044317
1178.0, 0.0006355970527389042
1179.0, 0.00038515650560029703
1180.0, 0.0003828388147748904
1181.0, 0.000737581876490628
1182.0, 0.001054846972069572
1183.0, 0.00018267908384415215
1184.0, 0.000445361171381304
1185.0, 0.0005812709928418974
1186.0, 0.0006834764310194352
1187.0, 0.000818339855032781
1188.0, 0.00023678135119046374
1189.0, 0.000659819222115564
1190.0, 0.0004529340444960412
1191.0, 0.00014950736497011482
1192.0, 0.00010847741434683486
1193.0, 0.00035391942978129157
1194.0, 0.00010622866926698074
1195.0, 0.00015066123652832282
1196.0, 0.00012827523500289633
1197.0, 7.966149740503937e-05
1198.0, 0.00010769871876164956
1199.0, 0.00016235325166370673
1200.0, 0.00010378554571787358
1201.0, 8.88612683975692e-05
1202.0, 0.0005070737581382519
1203.0, 0.0008713711132776451
1204.0, 0.00016174680703731677
1205.0, 0.0004860367262130966
1206.0, 0.00030607475890060006
1207.0, 0.0003449448098548322
1208.0, 0.00033883148352580533
1209.0, 5.070919140073122e-05
1210.0, 0.00012191916593547473
1211.0, 0.0005075359981142784
1212.0, 0.00034523867699368826
1213.0, 0.0004177740868881693
1214.0, 0.0008846792987970678
1215.0, 0.0012880379547966785
1216.0, 0.0014785644488468487
1217.0, 0.00188245036505244
1218.0, 0.0013168283460422256
1219.0, 0.0007989616024166561
1220.0, 0.0009464404478873906
1221.0, 0.00012491007280477306
1222.0, 0.0005650432159097136
1223.0, 0.0003606051799914672
1224.0, 0.00019017562408453804
1225.0, 0.00019886534055702006
1226.0, 0.000128733172733129
1227.0, 0.0001943098524869441
1228.0, 0.00017583609517543604
1229.0, 0.00010069125598909467
1230.0, 0.0006003872504835572
1231.0, 0.0014999853644003603
1232.0, 0.0011738925725441494
1233.0, 0.0016086148428504433
1234.0, 0.002302634167539665
1235.0, 0.002324215447449329
1236.0, 0.0024511852728518082
1237.0, 0.003563112435284117
1238.0, 0.0032459709976417187
1239.0, 0.0031802117570044765
1240.0, 0.0035212322567363843
1241.0, 0.0033063812233231865
1242.0, 0.002572048287828301
1243.0, 0.002485881786064307
1244.0, 0.002373733449253592
1245.0, 0.002857863995425397
1246.0, 0.0032960460531590292
1247.0, 0.003296611668476865
1248.0, 0.003076886286326618
1249.0, 0.004033219834808921
1250.0, 0.0034533274449087743
1251.0, 0.0029277820222057853
1252.0, 0.0032831040055376452
1253.0, 0.0037749057157250654
1254.0, 0.0030913625018767527
1255.0, 0.002334526500549146
1256.0, 0.0026279021363745632
1257.0, 0.002727576407937975
1258.0, 0.0028339044270736915
1259.0, 0.0030709688754735204
1260.0, 0.003188680817943986
1261.0, 0.0028123319349649826
1262.0, 0.003283232515813811
1263.0, 0.0034507034519924333
1264.0, 0.003436532900297864
1265.0, 0.0037679714478713847
1266.0, 0.004863477030185462
1267.0, 0.00436020470331956
1268.0, 0.004580557886191889
1269.0, 0.0045522175159411335
1270.0, 0.004532521043559104
1271.0, 0.0052355691471061665
1272.0, 0.0056996253973784685
1273.0, 0.005989326047615124
1274.0, 0.006036980327258282
1275.0, 0.006501534699187935
1276.0, 0.0067111077610788805
1277.0, 0.005190468206908608
1278.0, 0.006601918201719343
1279.0, 0.006235482932908406
1280.0, 0.005303490948112477
1281.0, 0.004650635252656701
1282.0, 0.00447634172994889
1283.0, 0.004076227999778797
1284.0, 0.00355433708317897
1285.0, 0.004078710290399556
1286.0, 0.004083455399243701
1287.0, 0.003510758710117475
1288.0, 0.0030060678778228898
1289.0, 0.0032687162505006286
1290.0, 0.0039974191419684555
1291.0, 0.004142632370187514
1292.0, 0.004326235610171463
1293.0, 0.0044582521623597665
1294.0, 0.004218595628667324
1295.0, 0.00446910018723753
1296.0, 0.004920153535405988
1297.0, 0.004853409513657169
1298.0, 0.0044442340612834835
1299.0, 0.004062763189366365
1300.0, 0.003957832237472914
1301.0, 0.003057514019031863
1302.0, 0.0035706611992297106
1303.0, 0.0039630116622830815
1304.0, 0.003906819358728417
1305.0, 0.003732098759830581
1306.0, 0.004115493615094102
1307.0, 0.0034347050872994577
1308.0, 0.003639329130941647
1309.0, 0.004475056631203233
1310.0, 0.005205839634771585
1311.0, 0.005473208838404314
1312.0, 0.005756209868708912
1313.0, 0.005843282334915883
1314.0, 0.00647492454289074
1315.0, 0.006490088914086949
1316.0, 0.006007136049481195
1317.0, 0.005464242990634778
1318.0, 0.004911037000063391
1319.0, 0.006439233320885895
1320.0, 0.0070242082471765515
1321.0, 0.0067058953051351245
1322.0, 0.006062508081609544
1323.0, 0.005601512807529076
1324.0, 0.005004100526840725
1325.0, 0.004515971361494566
1326.0, 0.004100644600462043
1327.0, 0.003679173014513956
1328.0, 0.003275568562477329
1329.0, 0.0029406959028784436
1330.0, 0.00261957311235108
1331.0, 0.0022187871137325796
1332.0, 0.0013960947130870185
1333.0, 0.001058149729574771
1334.0, 0.0009546422913740953
1335.0, 0.0004708239226117177
1336.0, 0.0006476171989961699
1337.0, 0.0002748131125792369
1338.0, 0.00030216613099731714
1339.0, 0.0002466893870511608
1340.0, 7.34427379123724e-05
1341.0, 7.626348292957613e-05
1342.0, 0.00021272194856839194
1343.0, 0.0004774555564430107
1344.0, 0.0002924272004152816
1345.0, 7.524983347846185e-05
1346.0, 9.254544835052019e-05
1347.0, 0.0003480878302036201
1348.0, 0.0006126644481295815
1349.0, 0.0007429554763370835
1350.0, 0.0010256129337968816
1351.0, 0.0012426220412920569
1352.0, 0.0014178042656631433
1353.0, 0.0016049692777048922
1354.0, 0.0009483414958105167
1355.0, 0.0003194473483719387
1356.0, 0.0005215114773869274
1357.0, 0.0005853832090311445
1358.0, 0.0006029973376495293
1359.0, 0.001196466277201727
1360.0, 0.0010807701911258903
1361.0, 0.0011492558142975158
1362.0, 0.000970373355108984
1363.0, 0.0009166793427090766
1364.0, 0.0010030801491324227
1365.0, 0.0009923627762310893
1366.0, 0.0009477020765253083
1367.0, 0.0011113213161140117
1368.0, 0.0011543070751660754
1369.0, 0.0012206795842065806
1370.0, 0.001436318670724699
1371.0, 0.0017401832542140818
1372.0, 0.001585520350732906
1373.0, 0.0014857182607720294
1374.0, 0.0011557961087895704
1375.0, 0.0015684088008930915
1376.0, 0.0019327612733401696
1377.0, 0.0011663799241999316
1378.0, 0.0005963308834679846
1379.0, 0.002007720390778632
1380.0, 0.0020604453825215875
1381.0, 0.001760551650363654
1382.0, 0.0020268560678108217
1383.0, 0.002897520724699716
1384.0, 0.002762561463105671
1385.0, 0.0018697444849605403
1386.0, 0.0016250604710066495
1387.0, 0.0020661174834035296
1388.0, 0.00219232512166662
1389.0, 0.0017296707271847755
1390.0, 0.0024770778532407856
1391.0, 0.0017743477981138932
1392.0, 0.002125705450239323
1393.0, 0.001925927492201868
1394.0, 0.001770225987907193
1395.0, 0.002072005417088691
1396.0, 0.0018661542242937544
1397.0, 0.0012253694826389757
1398.0, 0.0011362236359888742
1399.0, 0.0009879912273679761
1400.0, 0.000646305376745759
1401.0, 0.00026017294611907976
1402.0, 0.00014079287966525615
1403.0, 0.00045382102007956115
1404.0, 0.0004864009730732591
1405.0, 0.0008907123684143805
1406.0, 0.0010651492157245925
1407.0, 0.0008361448933916521
1408.0, 0.0007372894016715364
1409.0, 0.001848292703092387
1410.0, 0.0011272632507964117
1411.0, 0.0015848654283272534
1412.0, 0.0015207418389420987
1413.0, 0.0009778111613746444
1414.0, 0.0009570458928191086
1415.0, 0.0009162537023473309
1416.0, 0.0004961839480116003
1417.0, 0.00016235847174694487
1418.0, 0.0006219090347179948
1419.0, 0.0011210812789173754
1420.0, 0.0010917973403733513
1421.0, 0.0015341221698776022
1422.0, 0.0006131503387015089
1423.0, 0.00067322086700584
1424.0, 0.0003426463008790744
1425, 0.0
1426, 0.0
1427, 0.0
1428, 0.0
1429, 0.0
1430, 0.0
1431, 0.0
1432, 0.0
1433, 0.0
1434, 0.0
1435, 0.0
1436, 0.0
1437, 0.0
1438, 0.0
1439, 0.0
1440, 0.0
1441, 0.0
1442, 0.0
1443, 0.0
1444, 0.0
1445, 0.0
1446, 0.0
1447, 0.0
1448, 0.0
1449, 0.0
1450, 0.0
1451, 0.0
1452, 0.0
1453, 0.0
1454, 0.0
1455, 0.0
1456, 0.0
1457, 0.0
1458, 0.0
1459, 0.0
1460, 0.0
1461, 0.0
1462, 0.0
1463, 0.0
1464, 0.0
1465, 0.0
1466, 0.0
1467, 0.0
1468, 0.0
1469, 0.0
1470, 0.0
1471, 0.0
1472, 0.0
1473, 0.0
1474, 0.0
1475, 0.0
1476, 0.0
1477, 0.0
1478, 0.0
1479, 0.0
1480, 0.0
1481, 0.0
1482, 0.0
1483, 0.0
1484, 0.0
1485, 0.0
1486, 0.0
1487, 0.0
1488, 0.0
1489, 0.0
1490, 0.0
1491, 0.0
1492, 0.0
1493, 0.0
1494, 0.0
1495, 0.0
1496, 0.0
1497, 0.0
1498, 0.0
1499, 0.0
1500, 0.0
1501, 0.0
1502, 0.0
1503, 0.0
1504, 0.0
1505, 0.0
1506, 0.0
1507, 0.0
1508, 0.0
1509, 0.0
1510, 0.0
1511, 0.0
1512, 0.0
1513, 0.0
1514, 0.0
1515, 0.0
1516, 0.0
1517, 0.0
1518, 0.0
1519, 0.0
1520, 0.0
1521, 0.0
1522, 0.0
1523, 0.0
1524, 0.0
1525, 0.0
1526, 0.0
1527, 0.0
1528, 0.0
1529, 0.0
1530, 0.0
1531, 0.0
1532, 0.0
1533, 0.0
1534, 0.0
1535, 0.0
1536, 0.0
1537, 0.0
1538, 0.0
1539, 0.0
1540, 0.0
1541, 0.0
1542, 0.0
1543, 0.0
1544, 0.0
1545, 0.0
1546, 0.0
1547, 0.0
1548, 0.0
1549, 0.0
1550, 0.0
1551, 0.0
1552, 0.0
1553, 0.0
1554, 0.0
1555, 0.0
1556, 0.0
1557, 0.0
1558, 0.0
1559, 0.0
1560, 0.0
1561, 0.0
1562, 0.0
1563, 0.0
1564, 0.0
1565, 0.0
1566, 0.0
1567, 0.0
1568, 0.0
1569, 0.0
1570, 0.0
1571, 0.0
1572, 0.0
1573, 0.0
1574, 0.0
1575, 0.0
1576, 0.0
1577, 0.0
1578, 0.0
1579, 0.0
1580, 0.0
1581, 0.0
1582, 0.0
1583, 0.0
1584, 0.0
1585, 0.0
1586, 0.0
1587, 0.0
1588, 0.0
1589, 0.0
1590, 0.0
1591, 0.0
1592, 0.0
1593, 0.0
1594, 0.0
1595, 0.0
1596, 0.0
1597, 0.0
1598, 0.0
1599, 0.0
