30, 0.0
31, 0.0
32, 0.0
33, 0.0
34, 0.0
35, 0.0
36, 0.0
37, 0.0
38, 0.0
39, 0.0
40, 0.0
41, 0.0
42, 0.0
43, 0.0
44, 0.0
45, 0.0
46, 0.0
47, 0.0
48, 0.0
49, 0.0
50, 0.0
51, 0.0
52, 0.0
53, 0.0
54, 0.0
55, 0.0
56, 0.0
57, 0.0
58, 0.0
59, 0.0
60, 0.0
61, 0.0
62, 0.0
63, 0.0
64, 0.0
65, 0.0
66, 0.0
67, 0.0
68, 0.0
69, 0.0
70, 0.0
71, 0.0
72, 0.0
73, 0.0
74, 0.0
75, 0.0
76, 0.0
77, 0.0
78, 0.0
79, 0.0
80, 0.0
81, 0.0
82, 0.0
83, 0.0
84, 0.0
85, 0.0
86, 0.0
87, 0.0
88, 0.0
89, 0.0
90, 0.0
91, 0.0
92, 0.0
93, 0.0
94.0, 1.3923858050684126e-06
95.0, 0.00012519893960909764
96.0, 0.0006514730349830697
97.0, 0.0008320419163239196
98.0, 0.0009604546796920752
99.0, 0.0011311712236668344
100.0, 0.0017429807725197063
101.0, 0.0016568053675503301
102.0, 0.0012717731539836792
103.0, 0.0010525640630864544
104.0, 0.0011634292104972025
105.0, 0.0017048094958950699
106.0, 0.0025688135858116887
107.0, 0.002578673981950147
108.0, 0.002697377443094788
109.0, 0.0028663087964555856
110.0, 0.0030432478432476087
111.0, 0.002239860301981268
112.0, 0.0019333663295941304
113.0, 0.0022794957362284687
114.0, 0.0034391214348799557
115.0, 0.004269227451029104
116.0, 0.00556096216941887
117.0, 0.007890738801348473
118.0, 0.011205000947069521
119.0, 0.01618167285277057
120.0, 0.02185925016169911
121.0, 0.025374742316294087
122.0, 0.02755805154854794
123.0, 0.027340863684498916
124.0, 0.02409985466579724
125.0, 0.01915063188926758
126.0, 0.014941772850577628
127.0, 0.011651069493996245
128.0, 0.009880128866389712
129.0, 0.009334330872696273
130.0, 0.00847443634923524
131.0, 0.007035724990118844
132.0, 0.00584675441947141
133.0, 0.004172358555676907
134.0, 0.0027821145504415834
135.0, 0.0025394082646317435
136.0, 0.0013632514172845114
137.0, 0.0009138970241695588
138.0, 0.0011555228204400256
139.0, 0.001226546085649054
140.0, 0.001361418954780831
141.0, 0.0015228841024605456
142.0, 0.0016947294411423074
143.0, 0.0014828666682597995
144.0, 0.0014622533155736256
145.0, 0.0015848673349766783
146.0, 0.0017481941054632566
147.0, 0.0013006859757394495
148.0, 0.0013428505561635222
149.0, 0.002109223578291916
150.0, 0.0020470221475123772
151.0, 0.0020375562137855082
152.0, 0.0019143890430771814
153.0, 0.0014484544885141068
154.0, 0.0016798080692115881
155.0, 0.0016716844616417544
156.0, 0.0013802295327317838
157.0, 0.0011270541304960868
158.0, 0.0010838497016700268
159.0, 0.0010846553351705958
160.0, 0.0010431234728700575
161.0, 0.0011624460904188336
162.0, 0.0013656564277941144
163.0, 0.0015516710199718375
164.0, 0.001488102720052487
165.0, 0.0016163885119055371
166.0, 0.0014054431684477518
167.0, 0.0008179908267942687
168.0, 0.0011328938644044372
169.0, 0.0011095767937824416
170.0, 0.0010986633662943169
171.0, 0.0014487347993654125
172.0, 0.0007603807269101867
173.0, 0.0005709225269025165
174.0, 0.0007929675898701404
175.0, 0.0006934676518091405
176.0, 0.000560745787776036
177.0, 0.0005342601563792695
178.0, 0.0006696770405695298
179.0, 0.0005547824330267969
180.0, 0.0004502478469310831
181.0, 0.000360927152178315
182.0, 0.0002979220900172558
183.0, 0.0002227993001664866
184.0, 0.0001422119657522669
185.0, 9.879683627820769e-05
186.0, 0.0003344880796730627
187.0, 0.00038999610659310016
188.0, 0.00040199580798929075
189.0, 0.00044272606348004284
190.0, 0.0005065805203738991
191.0, 0.0005224896091723574
192.0, 0.0005248024184983607
193.0, 0.0005817733003490904
194.0, 0.000341296234402393
195.0, 0.00021317716408247484
196.0, 0.0002682357958275523
197.0, 0.0003909789182101596
198.0, 0.00022131304862818535
199.0, 5.5042389548648336e-05
200.0, 0.00010293680483989965
201.0, 0.00013490976753833032
202.0, 0.00019246940649773745
203.0, 0.00023674130926422426
204.0, 0.00016971256899166485
205.0, 0.0001374192019145868
206.0, 0.0002913106711030525
207.0, 0.0005995753423170148
208.0, 0.00039329539292217455
209.0, 0.0003621420871575172
210.0, 0.00040141717541339095
211.0, 0.0004419009739590708
212.0, 0.00015436747092351663
213.0, 0.00013437016686358664
214.0, 0.0002624764950698075
215.0, 0.00022333398835233754
216.0, 0.0003371480555445396
217.0, 0.0004001450433349511
218.0, 0.0003742842364672062
219.0, 0.0003693539827668421
220.0, 0.0004582795709749246
221.0, 0.0005896820849115172
222.0, 0.0007320402911098854
223.0, 0.0008391603594834136
224.0, 0.001040629123338054
225.0, 0.0013002483600277443
226.0, 0.0015414771948278642
227.0, 0.001617294930257253
228.0, 0.0015449840217193272
229.0, 0.0013588107089838176
230.0, 0.0012947532327886513
231.0, 0.0018199533895406949
232.0, 0.002166736351308649
233.0, 0.0018402060807036272
234.0, 0.0015957242340905182
235.0, 0.0017368275107321667
236.0, 0.0019138944332109892
237.0, 0.001506012709438986
238.0, 0.0017699491390571653
239.0, 0.0018947071490884625
240.0, 0.001817973247556521
241.0, 0.0018605024258327425
242.0, 0.00175360585405636
243.0, 0.0016275593595723762
244.0, 0.001548819012439176
245.0, 0.001746229577424008
246.0, 0.0014563368398446104
247.0, 0.0013448978467622574
248.0, 0.0022798765320933435
249.0, 0.0017492828106172003
250.0, 0.001536137771429103
251.0, 0.0018048961675574914
252.0, 0.0026157502531082236
253.0, 0.00233043279917306
254.0, 0.0022471012544268143
255.0, 0.002645715813895864
256.0, 0.002161015143494679
257.0, 0.0021093802433189536
258.0, 0.0022696281998108303
259.0, 0.00249855414114134
260.0, 0.0026770126471631866
261.0, 0.0029002096671920416
262.0, 0.002976495828612572
263.0, 0.002500158114569676
264.0, 0.0028629960670561623
265.0, 0.0027391421786068554
266.0, 0.0022287581436902758
267.0, 0.0029324999219290542
268.0, 0.0028875390671741154
269.0, 0.002934398281246361
270.0, 0.003392897841718506
271.0, 0.0031671311968036213
272.0, 0.00295836590172149
273.0, 0.002675553506456717
274.0, 0.0022125746869819944
275.0, 0.002733671107406899
276.0, 0.0028143786220279853
277.0, 0.0025710352682126966
278.0, 0.0024279076858080887
279.0, 0.00253870246762215
280.0, 0.0029340572307102585
281.0, 0.0033687587678821605
282.0, 0.0023353801451631274
283.0, 0.0024120890850062005
284.0, 0.0023553559839127255
285.0, 0.0016058096463005612
286.0, 0.0015943343114575856
287.0, 0.0014416139590013176
288.0, 0.0012963648431734347
289.0, 0.001320499475978106
290.0, 0.001515502052764025
291.0, 0.0014226428730492475
292.0, 0.0013112660493231883
293.0, 0.0018774727157312848
294.0, 0.0012556552244522652
295.0, 0.0011921716879463398
296.0, 0.0017560128641075506
297.0, 0.0014981360449460013
298.0, 0.0011583083240742993
299.0, 0.0011928846211688654
300.0, 0.0017589671768062207
301.0, 0.0017510581471608833
302.0, 0.001742928536794148
303.0, 0.0017946116098534108
304.0, 0.001966838222459788
305.0, 0.0022890324427889317
306.0, 0.002311676840722384
307.0, 0.0022934226348748886
308.0, 0.0027307296934328366
309.0, 0.002329116986770375
310.0, 0.002248863038171557
311.0, 0.002471759984381294
312.0, 0.0023652811374313687
313.0, 0.0027633371700548303
314.0, 0.0029377107860326175
315.0, 0.002735161953730398
316.0, 0.002803472831644964
317.0, 0.0027623619292340253
318.0, 0.0028320903333191576
319.0, 0.0031352947990868547
320.0, 0.002960715883751882
321.0, 0.0025617886588925483
322.0, 0.002309324159375152
323.0, 0.00264373895799983
324.0, 0.0023205428101457644
325.0, 0.0021175371400516834
326.0, 0.002055999777832297
327.0, 0.0021060483175242553
328.0, 0.002029157510410493
329.0, 0.0018671731764482902
330.0, 0.0017268467748406836
331.0, 0.00200642286094852
332.0, 0.001918041350887216
333.0, 0.001926639106738759
334.0, 0.002108530192302644
335.0, 0.0018565454124063623
336.0, 0.0017431461888999095
337.0, 0.0016847463931456265
338.0, 0.001643925460822783
339.0, 0.001791747632263964
340.0, 0.00184460821257618
341.0, 0.0018376619579760513
342.0, 0.0017998900233609067
343.0, 0.0020927835450388487
344.0, 0.0023306743063464283
345.0, 0.002510018477321079
346.0, 0.0026398365826973955
347.0, 0.0023730452443832405
348.0, 0.0019743002175603847
349.0, 0.0016123443394960516
350.0, 0.00168876571206171
351.0, 0.0021434322152895065
352.0, 0.0019708466427522386
353.0, 0.0012220752591565233
354.0, 0.001279603960887411
355.0, 0.001058350199266761
356.0, 0.0007441509787735094
357.0, 0.000430678381569376
358.0, 0.00038629235177974443
359.0, 0.00039747507215393685
360.0, 0.00042593067031563734
361.0, 0.0004547242115298102
362.0, 0.0006441911737967138
363.0, 0.00038273740098980865
364.0, 9.930263842346015e-05
365.0, 0.00020758162163150352
366.0, 0.0001685632329439513
367.0, 0.00037486235216519854
368.0, 0.000548201779806988
369.0, 0.00024945266964072194
370.0, 0.00018575526884310632
371.0, 0.00028908616654954084
372.0, 0.000414304944664849
373.0, 0.00024329372612957176
374.0, 0.00014332255801894603
375.0, 0.00021375604576155663
376.0, 0.00037993882794109634
377.0, 0.00032971166251692907
378.0, 0.000526168445082536
379.0, 0.0005005975030965787
380.0, 0.0002176799289924331
381.0, 0.0001621134426561569
382.0, 0.0003688503063422591
383.0, 0.0008840770397983648
384.0, 0.0016367620852259423
385.0, 0.0017077220983998443
386.0, 0.001779561293225573
387.0, 0.001977291621839768
388.0, 0.002346573845985373
389.0, 0.002303313239774925
390.0, 0.0026108744801327218
391.0, 0.002858046457652781
392.0, 0.002723002838130054
393.0, 0.002718553025318389
394.0, 0.002324277342566834
395.0, 0.002094860964000252
396.0, 0.0026587074840408124
397.0, 0.002378800303400792
398.0, 0.0019169175133147707
399.0, 0.001536956617590203
400.0, 0.0016122940108650636
401.0, 0.0011480336534661882
402.0, 0.001210785931239085
403.0, 0.0015130060961969238
404.0, 0.0013262905412456324
405.0, 0.001151055007280215
406.0, 0.0008380278080954717
407.0, 0.0005185187148997859
408.0, 0.0005958385616960948
409.0, 0.00030555813865418627
410.0, 0.00011199635395825769
411.0, 6.567836746715493e-05
412.0, 4.9594255991950057e-05
413.0, 0.0005742738280799514
414.0, 0.0006423145129472104
415.0, 0.00025020469444759043
416.0, 0.0005530075617575383
417.0, 0.00048428099770630035
418.0, 0.000399259858466474
419.0, 0.00038360946286801435
420.0, 0.00026398151795172187
421.0, 0.00022728416255727094
422.0, 0.0003993436627773802
423.0, 0.0008106148398491165
424.0, 0.0012347624111560716
425.0, 0.0012577371153486374
426.0, 0.0010636456315725282
427.0, 0.0007434288806861909
428.0, 0.00038328561957207667
429.0, 0.0007607479709592691
430.0, 0.001206078662678905
431.0, 0.001345325464297049
432.0, 0.0016488184863798798
433.0, 0.0013779582626666492
434.0, 0.0013298130840722659
435.0, 0.002039000142054798
436.0, 0.002245859228444565
437.0, 0.001996734894234963
438.0, 0.0019161462619779893
439.0, 0.0025077475907500637
440.0, 0.0020788741615961007
441.0, 0.0025428905785040345
442.0, 0.002973316196709333
443.0, 0.0024797623578336927
444.0, 0.002563883564021781
445.0, 0.0027728984941976192
446.0, 0.002985415442630218
447.0, 0.003069351006463818
448.0, 0.003192149246346492
449.0, 0.0031951672755279044
450.0, 0.003237694665202625
451.0, 0.0035191083460092646
452.0, 0.0036922572749533205
453.0, 0.003885734121196769
454.0, 0.004174214538951341
455.0, 0.004656001339235094
456.0, 0.005147362721131711
457.0, 0.005773180487700515
458.0, 0.006220710853056154
459.0, 0.006023798151728254
460.0, 0.006393284825935392
461.0, 0.006703645392066815
462.0, 0.006880907388129986
463.0, 0.006857076852137213
464.0, 0.008124698777342619
465.0, 0.00859563244982854
466.0, 0.00874645094411094
467.0, 0.009534705033490637
468.0, 0.009573813598383543
469.0, 0.009718054387891393
470.0, 0.009983705473580436
471.0, 0.01030612414286546
472.0, 0.011015384597285911
473.0, 0.011446843286750078
474.0, 0.011809947468311063
475.0, 0.012533920551016254
476.0, 0.012511297347515568
477.0, 0.013726315548515848
478.0, 0.015328576529215486
479.0, 0.015666363033152914
480.0, 0.01721258907620015
481.0, 0.01883412076900333
482.0, 0.020442704614542482
483.0, 0.02202942714999304
484.0, 0.025079718734995177
485.0, 0.028316083585060475
486.0, 0.031917275861865095
487.0, 0.03632716077169218
488.0, 0.04259531548199027
489.0, 0.04974368595320215
490.0, 0.05901092050148648
491.0, 0.0724695246712098
492.0, 0.09020294038528583
493.0, 0.11292023784680577
494.0, 0.14049715896449538
495.0, 0.1728231553797089
496.0, 0.20584764912294018
497.0, 0.23590214678519847
498.0, 0.2573808344786244
499.0, 0.26278686060362155
500.0, 0.24464777948180527
501.0, 0.2174382212775278
502.0, 0.18455475134255933
503.0, 0.14950441545108695
504.0, 0.11975139671661184
505.0, 0.09578807210765285
506.0, 0.07649905929776026
507.0, 0.06063883851609053
508.0, 0.048943144016889074
509.0, 0.04020599424838087
510.0, 0.0330256594707813
511.0, 0.02603131021702474
512.0, 0.02192383221629845
513.0, 0.01935020493163841
514.0, 0.017320240431444655
515.0, 0.014983826327124052
516.0, 0.013101597592542811
517.0, 0.011835988263620008
518.0, 0.010540552836259721
519.0, 0.008833764476347527
520.0, 0.008848421968408033
521.0, 0.00820905208018966
522.0, 0.007557304222425147
523.0, 0.00728106126336183
524.0, 0.007029623755853073
525.0, 0.006280245021550527
526.0, 0.005724542769386182
527.0, 0.005591167679599684
528.0, 0.0045083981709421
529.0, 0.004553516890759337
530.0, 0.004442587287096127
531.0, 0.0038065619656344972
532.0, 0.004051535043027402
533.0, 0.004029507453916214
534.0, 0.0038016022050820107
535.0, 0.0034779020936440393
536.0, 0.003512404589399319
537.0, 0.0031392616247021055
538.0, 0.003046974104670707
539.0, 0.0031190708276381957
540.0, 0.0021430622214128853
541.0, 0.002360742033312487
542.0, 0.0022495840138190876
543.0, 0.0017867186884295853
544.0, 0.001885821977712066
545.0, 0.0020267211242940546
546.0, 0.002226552956433233
547.0, 0.002454836471137375
548.0, 0.0026372412529001217
549.0, 0.0022007824257593857
550.0, 0.002325407360709042
551.0, 0.0026641171365320276
552.0, 0.0024092578744052545
553.0, 0.0029927853161680566
554.0, 0.003176169452087224
555.0, 0.0030040677512673288
556.0, 0.0026322162073689017
557.0, 0.002444140163401115
558.0, 0.0024110669925754163
559.0, 0.002544849268171511
560.0, 0.002845233561392282
561.0, 0.0028812377891527215
562.0, 0.0028840639060813025
563.0, 0.0026930902543255628
564.0, 0.0023049850548257826
565.0, 0.003333147291638117
566.0, 0.0030488605138270543
567.0, 0.0028722696902202427
568.0, 0.0033903185113556516
569.0, 0.0033255289904832214
570.0, 0.0033327249699054203
571.0, 0.003264769724651135
572.0, 0.0032055304756209127
573.0, 0.0038137103399466027
574.0, 0.003480776168873172
575.0, 0.0031485135820002756
576.0, 0.0029165177389454513
577.0, 0.002337355898636915
578.0, 0.0029857956407517362
579.0, 0.0034817131880131836
580.0, 0.003820265115884889
581.0, 0.004464996995321854
582.0, 0.0041144970270573815
583.0, 0.004127222701567723
584.0, 0.004479992024740581
585.0, 0.004966192427138236
586.0, 0.005200865378976012
587.0, 0.005588218768961973
588.0, 0.005850648458902623
589.0, 0.00572049182465158
590.0, 0.0057347082106866
591.0, 0.005575996574833205
592.0, 0.005620077528578702
593.0, 0.0060673998048162885
594.0, 0.006391321389023678
595.0, 0.006663433010444573
596.0, 0.006566196875353534
597.0, 0.006263893095071145
598.0, 0.007370383277101196
599.0, 0.00816576614868462
600.0, 0.008193491846792283
601.0, 0.007734701607011042
602.0, 0.008058005978391116
603.0, 0.009654641307657814
604.0, 0.012265598032279312
605.0, 0.01591573841303317
606.0, 0.020736393912249535
607.0, 0.02719641926477715
608.0, 0.03230876084747581
609.0, 0.03377839404580765
610.0, 0.029189599436253093
611.0, 0.022808391128520754
612.0, 0.017220989774312377
613.0, 0.013468962274457038
614.0, 0.012144409611817883
615.0, 0.010844990146733478
616.0, 0.010627180563107231
617.0, 0.010898176970143959
618.0, 0.0113442271366807
619.0, 0.011801901015878087
620.0, 0.012326118282895385
621.0, 0.013975454150623508
622.0, 0.016490193514997087
623.0, 0.0181932521482525
624.0, 0.02024519899570585
625.0, 0.02215252759136783
626.0, 0.02345688615803689
627.0, 0.02349451892384232
628.0, 0.022467488946678674
629.0, 0.02043598060221695
630.0, 0.018240853644202235
631.0, 0.01668688324692489
632.0, 0.013581027512687291
633.0, 0.011881609763844623
634.0, 0.010658982030822165
635.0, 0.009457123450494698
636.0, 0.009263532425273328
637.0, 0.00929606116688391
638.0, 0.009446248137917366
639.0, 0.009634661853336422
640.0, 0.009711655831974206
641.0, 0.010381825738931549
642.0, 0.011457238756349911
643.0, 0.012508889129240582
644.0, 0.012775501075149036
645.0, 0.013814548341803635
646.0, 0.01465983140811812
647.0, 0.015319332825705547
648.0, 0.01583703086599883
649.0, 0.0151935627906611
650.0, 0.014677463401801562
651.0, 0.01432896525262866
652.0, 0.014134943245542202
653.0, 0.013844134075280996
654.0, 0.013029207998175812
655.0, 0.012099619190624633
656.0, 0.01117549265014888
657.0, 0.010218960362757995
658.0, 0.009213444218125462
659.0, 0.008042869638633899
660.0, 0.006743354929599106
661.0, 0.005405208298297135
662.0, 0.004277657266433949
663.0, 0.0033564255637213575
664.0, 0.0028459569147133374
665.0, 0.0028643765586215237
666.0, 0.0026397984983616393
667.0, 0.0022503644427600204
668.0, 0.002202084598733824
669.0, 0.0025448579027772464
670.0, 0.002401357335112491
671.0, 0.0026146808640195958
672.0, 0.0028485439187907508
673.0, 0.0032999996067265623
674.0, 0.004558868523136082
675.0, 0.004718849870857651
676.0, 0.004581301715141268
677.0, 0.003915313109729262
678.0, 0.0024751154353962823
679.0, 0.0018266740682487377
680.0, 0.0011479598400360841
681.0, 0.0007612903228421517
682.0, 0.000722547322536472
683.0, 0.0002855362859571586
684.0, 8.262895798315974e-05
685.0, 0.00014959571629889602
686.0, 0.00037443518425571854
687.0, 0.0004523394870848361
688.0, 0.0002789951871996
689.0, 0.00034782911195865737
690.0, 0.0004581347023697943
691.0, 0.00033526470708969836
692.0, 0.000933208536578622
693.0, 0.0008124465602161174
694.0, 0.0007095809682650141
695.0, 0.0009129982915692936
696.0, 0.0004347145607273235
697.0, 0.000665427547388021
698.0, 0.0006895376343593532
699.0, 0.00042063674625177126
700.0, 0.0002576613732612724
701.0, 0.000563898416234829
702.0, 0.0009843908853222581
703.0, 0.0010485963922092071
704.0, 0.00031970766480337345
705.0, 0.00017167864591226316
706.0, 0.0002259605943943182
707.0, 0.0005444264129163267
708.0, 0.0009686976715305694
709.0, 0.0005355618272704729
710.0, 0.0004140095038681976
711.0, 0.0004626967947977714
712.0, 0.0006218693656719798
713.0, 0.0008328642907937906
714.0, 0.00023640234166282288
715.0, 0.0006681230108903431
716.0, 0.0009902512344848388
717.0, 0.0001832208777124212
718.0, 0.000272982661681241
719.0, 0.00013170126335627515
720.0, 0.0001667609200427266
721.0, 0.00037436906090955116
722.0, 0.00010916191507653525
723.0, 6.055984018230454e-05
724.0, 0.00014357696191099855
725.0, 0.00040284789991945093
726.0, 0.0009143763732146286
727.0, 0.0011930865530087676
728.0, 0.0009029986676402155
729.0, 0.0009220576873746754
730.0, 0.0016181452802625797
731.0, 0.0014166502595569321
732.0, 0.0016878559978985952
733.0, 0.0021125783064317233
734.0, 0.002377071975526464
735.0, 0.001969408910614436
736.0, 0.0016520087626352277
737.0, 0.0014557405293458394
738.0, 0.0015072851219412084
739.0, 0.0018622569287395012
740.0, 0.0017285362019566904
741.0, 0.0015418078192351813
742.0, 0.0013523282528418844
743.0, 0.0013149768545536143
744.0, 0.0018808680345945154
745.0, 0.001845349719826365
746.0, 0.002028193244372867
747.0, 0.0021796707676771648
748.0, 0.001847939775235637
749.0, 0.0019468815759273298
750.0, 0.0020958217055808766
751.0, 0.0018481830020112599
752.0, 0.0011566550973742908
753.0, 0.0009804755759318903
754.0, 0.0017113656959816695
755.0, 0.0017829321792989486
756.0, 0.0013420106905458631
757.0, 0.0011793305675161059
758.0, 0.0007451928151490356
759.0, 0.001256504210610086
760.0, 0.001798653855292989
761.0, 0.001808207136451287
762.0, 0.0019752645353829606
763.0, 0.0021650908823818257
764.0, 0.0020990525959381457
765.0, 0.0020790660478907817
766.0, 0.0028518744172056024
767.0, 0.0020458324257440113
768.0, 0.0016914640997542107
769.0, 0.0017374560695189265
770.0, 0.0019818071640780436
771.0, 0.001804197330234926
772.0, 0.0018755163915712227
773.0, 0.00222454094354282
774.0, 0.002548987840476776
775.0, 0.002150709155664071
776.0, 0.002419965112614848
777.0, 0.0026055485808022232
778.0, 0.002414486318205047
779.0, 0.0017705459201362282
780.0, 0.0018543453193993159
781.0, 0.0018353364661018055
782.0, 0.0016950842370442101
783.0, 0.0015924266220741154
784.0, 0.001910483746313591
785.0, 0.0022417779128777343
786.0, 0.0023639863759974205
787.0, 0.0022698765464625953
788.0, 0.00200825994149978
789.0, 0.0018847469771110766
790.0, 0.002205828853207625
791.0, 0.002857301348426723
792.0, 0.0036093616228615125
793.0, 0.004024246440170762
794.0, 0.003913152771310887
795.0, 0.00398771414705503
796.0, 0.004082851268499147
797.0, 0.003993447184263679
798.0, 0.0034685764872711654
799.0, 0.003463076454259716
800.0, 0.003581293982942213
801.0, 0.003578121869786902
802.0, 0.0031913728580276056
803.0, 0.003753550079836604
804.0, 0.0032508635308754787
805.0, 0.00291409714691979
806.0, 0.0035134636576148307
807.0, 0.00363798464853508
808.0, 0.00321840213564201
809.0, 0.003138228264929252
810.0, 0.003358237043752781
811.0, 0.0034274416680457557
812.0, 0.003208272485887009
813.0, 0.0033903175067890876
814.0, 0.0035518445112669816
815.0, 0.0035615584692839535
816.0, 0.004101382772010466
817.0, 0.0041004709333856935
818.0, 0.004139267642040838
819.0, 0.004319142571603678
820.0, 0.004606603797579389
821.0, 0.004273963524941469
822.0, 0.00506935623666133
823.0, 0.005483348599300554
824.0, 0.005197045711853408
825.0, 0.005654412803884385
826.0, 0.005671135354912414
827.0, 0.006000768693171
828.0, 0.00631321321193401
829.0, 0.006224293101784587
830.0, 0.0064261408031756504
831.0, 0.006472630913770124
832.0, 0.006525200141525636
833.0, 0.006608928052653717
834.0, 0.006650028527353831
835.0, 0.006801222715067027
836.0, 0.007127320708290328
837.0, 0.00736471259849796
838.0, 0.007375009650253872
839.0, 0.007552746623178911
840.0, 0.007856675152692864
841.0, 0.00835491724204457
842.0, 0.008736837488500319
843.0, 0.008550206987668008
844.0, 0.009551645218739168
845.0, 0.010075823369198902
846.0, 0.010061107385622891
847.0, 0.009765112052238671
848.0, 0.010110663693657465
849.0, 0.011035578605188603
850.0, 0.01135386727518308
851.0, 0.011351182453206243
852.0, 0.011487403006872145
853.0, 0.012035595349715
854.0, 0.01306630581662992
855.0, 0.013989169975831646
856.0, 0.01475737849163084
857.0, 0.015627652617374914
858.0, 0.016654669246222203
859.0, 0.01771985525555529
860.0, 0.018559159776918365
861.0, 0.01889912947863078
862.0, 0.018266655857736385
863.0, 0.018105015658449606
864.0, 0.016629090449770175
865.0, 0.014753725600827276
866.0, 0.013748134423217366
867.0, 0.01283326797095404
868.0, 0.011658724496042137
869.0, 0.010814283530369093
870.0, 0.010189676713668583
871.0, 0.009153456331936169
872.0, 0.009110707901937586
873.0, 0.008831601627740026
874.0, 0.008280188342399408
875.0, 0.007580312936912434
876.0, 0.007221322599220752
877.0, 0.007627390731557804
878.0, 0.007193166904807838
879.0, 0.00665911077299142
880.0, 0.006974298726196531
881.0, 0.007020559229391046
882.0, 0.007786895876922313
883.0, 0.00815592206014112
884.0, 0.00785982731743987
885.0, 0.007083212103836168
886.0, 0.00682068953147467
887.0, 0.007209104724757254
888.0, 0.007345657361169876
889.0, 0.007043736537401157
890.0, 0.007411977403759667
891.0, 0.007191134481003618
892.0, 0.007460375562230537
893.0, 0.007929508264149709
894.0, 0.008177959286468323
895.0, 0.007904174200087884
896.0, 0.007677348341620063
897.0, 0.007916256324055343
898.0, 0.00810765079556889
899.0, 0.007455765776155462
900.0, 0.007895521166523173
901.0, 0.007905670772151692
902.0, 0.007610994436184833
903.0, 0.007106038055643515
904.0, 0.0064828068198808115
905.0, 0.006981899793454797
906.0, 0.007002058667416994
907.0, 0.006418111826135082
908.0, 0.0055458916077756396
909.0, 0.00574897922075886
910.0, 0.005386295814629078
911.0, 0.005756225158284084
912.0, 0.006087841898147206
913.0, 0.0056081765479628785
914.0, 0.005658169119853911
915.0, 0.004843818390773373
916.0, 0.0046482206580876
917.0, 0.004654714638547212
918.0, 0.003762096730465942
919.0, 0.0033641250152584828
920.0, 0.003714075735386471
921.0, 0.003365007733316952
922.0, 0.0024157968207404994
923.0, 0.0023686853941505995
924.0, 0.002225566407836376
925.0, 0.0023612310640283994
926.0, 0.0027670378456412644
927.0, 0.0030880426739919383
928.0, 0.002199743958695307
929.0, 0.002425217029676367
930.0, 0.0027716406313770168
931.0, 0.0028156942796756313
932.0, 0.0023951270099205387
933.0, 0.002096438836466214
934.0, 0.0029705657193144935
935.0, 0.0030822893110439616
936.0, 0.0029165175656949635
937.0, 0.003287796640776827
938.0, 0.0026662836337415148
939.0, 0.0027132030178869415
940.0, 0.0029855027829186905
941.0, 0.0030195817962468795
942.0, 0.0023492031007565526
943.0, 0.0018684599170987965
944.0, 0.001779671764265332
945.0, 0.002043028265104107
946.0, 0.0023599825629421556
947.0, 0.002160819304327444
948.0, 0.0021431253805374107
949.0, 0.002558706862976355
950.0, 0.0028099256828493808
951.0, 0.002801683730326108
952.0, 0.0031942679954521593
953.0, 0.003814070755555251
954.0, 0.003864249660338384
955.0, 0.0036458939278153283
956.0, 0.0035011172896776627
957.0, 0.003753808040673309
958.0, 0.0030057776674237537
959.0, 0.0032070263283297965
960.0, 0.0032420384488872616
961.0, 0.0023497067766910422
962.0, 0.002701936590523153
963.0, 0.0032514893224250504
964.0, 0.003611922349799754
965.0, 0.0033518650040558176
966.0, 0.0024096411783239707
967.0, 0.003115521807253223
968.0, 0.002690800534905824
969.0, 0.0030985763834067742
970.0, 0.003675934793182685
971.0, 0.0031848707593756546
972.0, 0.0038067821367132825
973.0, 0.0026811650080210306
974.0, 0.0024578634554597995
975.0, 0.0030002698655767065
976.0, 0.0029161149483576134
977.0, 0.0025085285386392715
978.0, 0.0031810278540957975
979.0, 0.003173555436089161
980.0, 0.002642573074387852
981.0, 0.0029809666046386497
982.0, 0.0038454675707346266
983.0, 0.0033684840747650675
984.0, 0.0035191564875195077
985.0, 0.004547742014771904
986.0, 0.005229072944034515
987.0, 0.005939399872709653
988.0, 0.006238358074969653
989.0, 0.006619644533733589
990.0, 0.007221012515617447
991.0, 0.00778869425756063
992.0, 0.007299143075723411
993.0, 0.007322971312850533
994.0, 0.008355584161039929
995.0, 0.010131487456009638
996.0, 0.011367251056053797
997.0, 0.014778049509595
998.0, 0.018544199785476553
999.0, 0.024407243813257266
1000.0, 0.03171907337417281
1001.0, 0.035770460564519053
1002.0, 0.04088129076217234
1003.0, 0.04193521204202497
1004.0, 0.040990736196021095
1005.0, 0.040200281496976194
1006.0, 0.041345716318003364
1007.0, 0.044503376314267255
1008.0, 0.0515351753238312
1009.0, 0.06245569654879674
1010.0, 0.07785785201640759
1011.0, 0.10029288930592455
1012.0, 0.14327876989274538
1013.0, 0.21332699006807831
1014.0, 0.3317278549110725
1015.0, 0.5132912741402601
1016.0, 0.7651735886019893
1017.0, 0.9455110588124901
1018.0, 0.9487046590887207
1019.0, 0.807778427514717
1020.0, 0.5879621550254542
1021.0, 0.3931054159229458
1022.0, 0.27185340063914765
1023.0, 0.19187469083451256
1024.0, 0.13786584583150904
1025.0, 0.09931843108358318
1026.0, 0.0746696367916769
1027.0, 0.059242311279002396
1028.0, 0.04800782052117883
1029.0, 0.039186363715066924
1030.0, 0.03193636227752202
1031.0, 0.026962832657284108
1032.0, 0.022678598434532536
1033.0, 0.020138153536209128
1034.0, 0.017440187534640796
1035.0, 0.014032906920003566
1036.0, 0.011942780245626842
1037.0, 0.011381804444341375
1038.0, 0.010702134004550579
1039.0, 0.00979005278700531
1040.0, 0.00865821851648348
1041.0, 0.007392413427698781
1042.0, 0.005906343867890526
1043.0, 0.005921950844717462
1044.0, 0.005898671382753359
1045.0, 0.00523680053331053
1046.0, 0.004640439377571585
1047.0, 0.004874040348159365
1048.0, 0.00462066610988279
1049.0, 0.004018278542285584
1050.0, 0.003635122827213823
1051.0, 0.004433583775766033
1052.0, 0.005076602061620697
1053.0, 0.003494718109436515
1054.0, 0.0025657327304886104
1055.0, 0.0026780310737017214
1056.0, 0.002210503622282361
1057.0, 0.0017572685997788357
1058.0, 0.0015608296257077908
1059.0, 0.0013272883184300358
1060.0, 0.0009353821212840289
1061.0, 0.0004571082204500058
1062.0, 0.001263358487294084
1063.0, 0.0008618708780811158
1064.0, 0.0004652233669964856
1065.0, 0.0003447094033226077
1066.0, 0.0003401316828534779
1067.0, 0.00032311158892207875
1068.0, 0.0005377954589843044
1069.0, 0.0003384765525387019
1070.0, 0.00028310360266429395
1071.0, 0.0010195819634963375
1072.0, 0.0014519805635564418
1073.0, 0.0016111953136993499
1074.0, 0.0018374167861382133
1075.0, 0.0022877021132873647
1076.0, 0.002788770929640456
1077.0, 0.0020930947873677684
1078.0, 0.0030639209895436128
1079.0, 0.003918092531174474
1080.0, 0.004973343217586322
1081.0, 0.00625855075810586
1082.0, 0.006420680852391989
1083.0, 0.007067507388391539
1084.0, 0.007393925523973706
1085.0, 0.007504834186166569
1086.0, 0.007421706910602474
1087.0, 0.006926144256497019
1088.0, 0.0064451301348675705
1089.0, 0.005518128382665276
1090.0, 0.004536800412819383
1091.0, 0.003757161047309409
1092.0, 0.0032716887949475635
1093.0, 0.003162996360735848
1094.0, 0.003099519434533992
1095.0, 0.0023418322396900116
1096.0, 0.0015476738626211883
1097.0, 0.0019610493530815717
1098.0, 0.002268161344317682
1099.0, 0.001452404743495075
1100.0, 0.0012242419630896623
1101.0, 0.0017820902580549401
1102.0, 0.002624775274583148
1103.0, 0.002459440110800798
1104.0, 0.0038783032208364915
1105.0, 0.004197297428035287
1106.0, 0.004860809388454589
1107.0, 0.0072606195338920316
1108.0, 0.010682381568523618
1109.0, 0.01680637651339893
1110.0, 0.02211366288066463
1111.0, 0.02493340243600813
1112.0, 0.024957483486543936
1113.0, 0.02358756201048094
1114.0, 0.020123402812938375
1115.0, 0.01646850747208032
1116.0, 0.013101951020084969
1117.0, 0.010282820319311256
1118.0, 0.008052351342289267
1119.0, 0.006061296878808525
1120.0, 0.004987809415742874
1121.0, 0.004395483813174135
1122.0, 0.0038402963583784597
1123.0, 0.0030742766950688943
1124.0, 0.0030115199125295825
1125.0, 0.002873429698537052
1126.0, 0.0032347752622973766
1127.0, 0.00395270437157704
1128.0, 0.004904282236082179
1129.0, 0.006421711634270805
1130.0, 0.005942435585623875
1131.0, 0.0055006140030201345
1132.0, 0.004410678360327241
1133.0, 0.0028292342433158474
1134.0, 0.0021089915715994806
1135.0, 0.001700460657834749
1136.0, 0.0010105830451683578
1137.0, 0.0006777401767791485
1138.0, 0.0006668903430467813
1139.0, 0.0005642572210925905
1140.0, 0.00026791325475518347
1141.0, 0.0005747385378210368
1142.0, 0.0011282678439323009
1143.0, 0.0015944753074599027
1144.0, 0.0017110779830078633
1145.0, 0.001416798195494019
1146.0, 0.0009485519972582237
1147.0, 0.0010313316784999417
1148.0, 0.0008175402458060879
1149.0, 0.00030949922811245273
1150.0, 0.000819473102693486
1151.0, 0.0008718948388968555
1152.0, 0.0007785997481024262
1153.0, 0.0005489790488272985
1154.0, 0.00032373239977845895
1155.0, 0.0002857430156529899
1156.0, 0.0003529395682008941
1157.0, 0.00035581991516667503
1158.0, 0.0015761846151717495
1159.0, 0.003247839298719873
1160.0, 0.004350414991168231
1161.0, 0.004629831971781193
1162.0, 0.004404559773097307
1163.0, 0.0037155299200775033
1164.0, 0.0025582358205202918
1165.0, 0.001473404430039932
1166.0, 0.0014914755231301095
1167.0, 0.0018866218790406922
1168.0, 0.0010487928157473388
1169.0, 0.001265040805084775
1170.0, 0.001771224927278351
1171.0, 0.0011007852979593316
1172.0, 0.0012797106444822808
1173.0, 0.001626791450881985
1174.0, 0.0020705796043013034
1175.0, 0.002123356787066003
1176.0, 0.0016177403290015737
1177.0, 0.0010441811725202072
1178.0, 0.0012016701921598284
1179.0, 0.001498604253910601
1180.0, 0.001165450662027767
1181.0, 0.000944552776864781
1182.0, 0.0020429592192054854
1183.0, 0.0012807983007422996
1184.0, 0.0009683860083654181
1185.0, 0.0006627196558544703
1186.0, 0.0007032042003546953
1187.0, 0.0010825219691556263
1188.0, 0.0005809338352152661
1189.0, 0.0007912572216310119
1190.0, 0.0006207613453091689
1191.0, 0.00044168104218121114
1192.0, 0.00044381079182594313
1193.0, 0.0005733805053327664
1194.0, 0.0006219698015145671
1195.0, 0.00046225521897155005
1196.0, 0.0004986429494890318
1197.0, 0.0006718228688951941
1198.0, 0.0008365233298037393
1199.0, 0.0010012032920462223
1200.0, 0.0008532785007407258
1201.0, 0.0011942118357456592
1202.0, 0.0013899628355034275
1203.0, 0.001314058694093957
1204.0, 0.0013388013214840734
1205.0, 0.0010100073573910842
1206.0, 0.0007194623603249136
1207.0, 0.0005201564918075173
1208.0, 0.0003425680998593775
1209.0, 0.00013710835475296893
1210.0, 1.1434864308801476e-05
1211.0, 0.00012132830736342134
1212.0, 0.0008718515396674216
1213.0, 0.0017721018896318544
1214.0, 0.002431303453494154
1215.0, 0.0026501237651821627
1216.0, 0.002422089354508188
1217.0, 0.0029130649706165974
1218.0, 0.0031434569966190596
1219.0, 0.002945612827309339
1220.0, 0.0025149940590524114
1221.0, 0.0023312496056275187
1222.0, 0.002401506772217843
1223.0, 0.00195230848174281
1224.0, 0.002280857432878761
1225.0, 0.0026440025516839146
1226.0, 0.001449482440038091
1227.0, 0.0016870200745880163
1228.0, 0.002295217230654954
1229.0, 0.0024455148683359684
1230.0, 0.0019668288524774
1231.0, 0.0014751299382517544
1232.0, 0.0025422367279726633
1233.0, 0.0035514695659580584
1234.0, 0.0034705389150863648
1235.0, 0.003969962043778541
1236.0, 0.004878037250671719
1237.0, 0.00530040342642173
1238.0, 0.0055090808201841215
1239.0, 0.005731331478487326
1240.0, 0.005657591979411245
1241.0, 0.005628277292220831
1242.0, 0.005716680875554754
1243.0, 0.005630927943514083
1244.0, 0.005431135237179471
1245.0, 0.005412080320059802
1246.0, 0.005194340075793928
1247.0, 0.004905527497890295
1248.0, 0.0047566795898035235
1249.0, 0.004761291740004198
1250.0, 0.005633994481590869
1251.0, 0.005086463362426066
1252.0, 0.005284521790051527
1253.0, 0.006143374215394757
1254.0, 0.006161791094740542
1255.0, 0.0050556285016625305
1256.0, 0.004831259752229377
1257.0, 0.004713926366369423
1258.0, 0.005146968498113791
1259.0, 0.005822263612059668
1260.0, 0.0054387197237960126
1261.0, 0.004794848717313538
1262.0, 0.005467764326922569
1263.0, 0.005738451852469648
1264.0, 0.005915876603165838
1265.0, 0.00654335636898031
1266.0, 0.007088136560287764
1267.0, 0.007604679598467317
1268.0, 0.007963329183147062
1269.0, 0.007966324779822299
1270.0, 0.00825689752246858
1271.0, 0.009391226041273166
1272.0, 0.009278094979522004
1273.0, 0.008829196954687537
1274.0, 0.009591234724871259
1275.0, 0.01066671712678999
1276.0, 0.011048786774147905
1277.0, 0.010281411039293573
1278.0, 0.01049096126268507
1279.0, 0.01013547448445515
1280.0, 0.00952447815937623
1281.0, 0.008746080372875997
1282.0, 0.0079906005289312
1283.0, 0.007647936511541163
1284.0, 0.007206813885478151
1285.0, 0.006461714814131723
1286.0, 0.006052028407837299
1287.0, 0.0058514876044020074
1288.0, 0.0056084552070723905
1289.0, 0.005623885780889798
1290.0, 0.005401693846164412
1291.0, 0.005802457944540278
1292.0, 0.006207335488956558
1293.0, 0.006467420687100969
1294.0, 0.006860295545947706
1295.0, 0.007951723300501807
1296.0, 0.00700270944900012
1297.0, 0.00712551892013919
1298.0, 0.007313106413954523
1299.0, 0.006818519881759258
1300.0, 0.005860560450508246
1301.0, 0.006658755601065052
1302.0, 0.005632427378912694
1303.0, 0.005232807063245125
1304.0, 0.005327615107194484
1305.0, 0.005527115043433412
1306.0, 0.005774891021473831
1307.0, 0.006632227157781071
1308.0, 0.007188470434334203
1309.0, 0.007483978808974942
1310.0, 0.00806495238809378
1311.0, 0.00899627830190601
1312.0, 0.009395321873834203
1313.0, 0.009716905636822553
1314.0, 0.009166440679298001
1315.0, 0.009563765566732918
1316.0, 0.0100855007594349
1317.0, 0.009766476211902702
1318.0, 0.00945127744859417
1319.0, 0.010049004265782485
1320.0, 0.010524493182146986
1321.0, 0.01012568280608188
1322.0, 0.00970379201074539
1323.0, 0.00999817826816358
1324.0, 0.009484409703176084
1325.0, 0.009416587156447236
1326.0, 0.0083116871766099
1327.0, 0.007442005353864429
1328.0, 0.006780802328897958
1329.0, 0.005803654861353856
1330.0, 0.005008613650189675
1331.0, 0.003902397135739978
1332.0, 0.0027827543985836957
1333.0, 0.002184671520623129
1334.0, 0.001848578375138474
1335.0, 0.0013857804461445745
1336.0, 0.0019001824579513247
1337.0, 0.0013148664703897849
1338.0, 0.0008188667016520532
1339.0, 0.00092650483304223
1340.0, 0.0010959369985509416
1341.0, 0.0005666450891025472
1342.0, 0.0006098869114592302
1343.0, 0.00029360687939232065
1344.0, 0.0001292195743392745
1345.0, 0.00015009832789377703
1346.0, 0.0005832592196384303
1347.0, 0.001395601975673813
1348.0, 0.0006691965289869374
1349.0, 0.0005485989956454782
1350.0, 0.0011416797734415099
1351.0, 0.0009059038014152259
1352.0, 0.00018011995562954106
1353.0, 0.0004162531675149639
1354.0, 0.0008703914196181961
1355.0, 0.0004159609845667285
1356.0, 0.0006216670469895079
1357.0, 0.0005528802608612951
1358.0, 0.00017622323261503735
1359.0, 0.0001837995613924747
1360.0, 0.0005010932892350133
1361.0, 0.0001671273226631849
1362.0, 0.0004055925656414424
1363.0, 0.000655135208815032
1364.0, 0.0005026786692281432
1365.0, 5.043066509886584e-05
1366.0, 0.0003932127493462319
1367.0, 0.00034740343272525806
1368.0, 0.0007978725963606837
1369.0, 0.0010266176582155876
1370.0, 0.0008499034893377591
1371.0, 0.0007343155397007803
1372.0, 0.0017473726632318486
1373.0, 0.0018261093692528625
1374.0, 0.0019981808689034136
1375.0, 0.0017617553010381049
1376.0, 0.0016280363842417754
1377.0, 0.0019764930376510326
1378.0, 0.0008869549265138015
1379.0, 0.002587756879040173
1380.0, 0.002789441130223497
1381.0, 0.0031335179240518846
1382.0, 0.0032266142418208724
1383.0, 0.002615076332399785
1384.0, 0.003514672980188092
1385.0, 0.0021170121832565615
1386.0, 0.00230916438779996
1387.0, 0.0022044752898558004
1388.0, 0.0019506330107134991
1389.0, 0.002240998748327102
1390.0, 0.002904685331176728
1391.0, 0.0016102937825545791
1392.0, 0.001939748200353348
1393.0, 0.0024258344662767503
1394.0, 0.0022245637391855176
1395.0, 0.0014421703028814467
1396.0, 0.0011259605117945066
1397.0, 0.00041947509338934497
1398.0, 0.00027136334482112445
1399.0, 0.0005366439314174873
1400.0, 0.0004887473312404034
1401.0, 0.00020699773968897763
1402.0, 0.0006057267131467591
1403.0, 0.00031289478977456663
1404.0, 0.0002590331000644581
1405.0, 0.000578270465988541
1406.0, 0.0005397404927819556
1407.0, 0.0005592603527472563
1408.0, 0.0015264739799714512
1409.0, 0.0011694380330507627
1410.0, 0.0010824035790720304
1411.0, 0.0010404128890942033
1412.0, 0.0009356223994319464
1413.0, 0.0007830586269693307
1414.0, 0.0006548712367948901
1415.0, 0.0005579185754163537
1416.0, 0.0004552411118584759
1417.0, 0.00019027673603172991
1418.0, 0.00021622814401715115
1419.0, 0.00025566568806311183
1420.0, 0.00010434879633664166
1421.0, 0.000316521499642512
1422.0, 4.929814829914971e-05
1423.0, 0.0003877703300485141
1424.0, 0.0002463286466729964
1425, 0.0
1426, 0.0
1427, 0.0
1428, 0.0
1429, 0.0
1430, 0.0
1431, 0.0
1432, 0.0
1433, 0.0
1434, 0.0
1435, 0.0
1436, 0.0
1437, 0.0
1438, 0.0
1439, 0.0
1440, 0.0
1441, 0.0
1442, 0.0
1443, 0.0
1444, 0.0
1445, 0.0
1446, 0.0
1447, 0.0
1448, 0.0
1449, 0.0
1450, 0.0
1451, 0.0
1452, 0.0
1453, 0.0
1454, 0.0
1455, 0.0
1456, 0.0
1457, 0.0
1458, 0.0
1459, 0.0
1460, 0.0
1461, 0.0
1462, 0.0
1463, 0.0
1464, 0.0
1465, 0.0
1466, 0.0
1467, 0.0
1468, 0.0
1469, 0.0
1470, 0.0
1471, 0.0
1472, 0.0
1473, 0.0
1474, 0.0
1475, 0.0
1476, 0.0
1477, 0.0
1478, 0.0
1479, 0.0
1480, 0.0
1481, 0.0
1482, 0.0
1483, 0.0
1484, 0.0
1485, 0.0
1486, 0.0
1487, 0.0
1488, 0.0
1489, 0.0
1490, 0.0
1491, 0.0
1492, 0.0
1493, 0.0
1494, 0.0
1495, 0.0
1496, 0.0
1497, 0.0
1498, 0.0
1499, 0.0
1500, 0.0
1501, 0.0
1502, 0.0
1503, 0.0
1504, 0.0
1505, 0.0
1506, 0.0
1507, 0.0
1508, 0.0
1509, 0.0
1510, 0.0
1511, 0.0
1512, 0.0
1513, 0.0
1514, 0.0
1515, 0.0
1516, 0.0
1517, 0.0
1518, 0.0
1519, 0.0
1520, 0.0
1521, 0.0
1522, 0.0
1523, 0.0
1524, 0.0
1525, 0.0
1526, 0.0
1527, 0.0
1528, 0.0
1529, 0.0
1530, 0.0
1531, 0.0
1532, 0.0
1533, 0.0
1534, 0.0
1535, 0.0
1536, 0.0
1537, 0.0
1538, 0.0
1539, 0.0
1540, 0.0
1541, 0.0
1542, 0.0
1543, 0.0
1544, 0.0
1545, 0.0
1546, 0.0
1547, 0.0
1548, 0.0
1549, 0.0
1550, 0.0
1551, 0.0
1552, 0.0
1553, 0.0
1554, 0.0
1555, 0.0
1556, 0.0
1557, 0.0
1558, 0.0
1559, 0.0
1560, 0.0
1561, 0.0
1562, 0.0
1563, 0.0
1564, 0.0
1565, 0.0
1566, 0.0
1567, 0.0
1568, 0.0
1569, 0.0
1570, 0.0
1571, 0.0
1572, 0.0
1573, 0.0
1574, 0.0
1575, 0.0
1576, 0.0
1577, 0.0
1578, 0.0
1579, 0.0
1580, 0.0
1581, 0.0
1582, 0.0
1583, 0.0
1584, 0.0
1585, 0.0
1586, 0.0
1587, 0.0
1588, 0.0
1589, 0.0
1590, 0.0
1591, 0.0
1592, 0.0
1593, 0.0
1594, 0.0
1595, 0.0
1596, 0.0
1597, 0.0
1598, 0.0
1599, 0.0
