30, 0.0
31, 0.0
32, 0.0
33, 0.0
34, 0.0
35, 0.0
36, 0.0
37, 0.0
38, 0.0
39, 0.0
40, 0.0
41, 0.0
42, 0.0
43, 0.0
44, 0.0
45, 0.0
46, 0.0
47, 0.0
48, 0.0
49, 0.0
50, 0.0
51, 0.0
52, 0.0
53, 0.0
54, 0.0
55, 0.0
56, 0.0
57, 0.0
58, 0.0
59, 0.0
60, 0.0
61, 0.0
62, 0.0
63, 0.0
64, 0.0
65, 0.0
66, 0.0
67, 0.0
68, 0.0
69, 0.0
70, 0.0
71, 0.0
72, 0.0
73, 0.0
74, 0.0
75, 0.0
76, 0.0
77, 0.0
78, 0.0
79, 0.0
80, 0.0
81, 0.0
82, 0.0
83, 0.0
84, 0.0
85, 0.0
86, 0.0
87, 0.0
88, 0.0
89, 0.0
90, 0.0
91, 0.0
92, 0.0
93, 0.0
94, 0.0
95, 0.0
96, 0.0
97, 0.0
98, 0.0
99, 0.0
100, 0.0
101, 0.0
102, 0.0
103, 0.0
104, 0.0
105, 0.0
106, 0.0
107, 0.0
108, 0.0
109, 0.0
110, 0.0
111, 0.0
112, 0.0
113, 0.0
114, 0.0
115, 0.0
116, 0.0
117, 0.0
118, 0.0
119, 0.0
120, 0.0
121, 0.0
122, 0.0
123, 0.0
124, 0.0
125, 0.0
126, 0.0
127, 0.0
128, 0.0
129, 0.0
130, 0.0
131, 0.0
132, 0.0
133, 0.0
134, 0.0
135, 0.0
136, 0.0
137, 0.0
138, 0.0
139, 0.0
140, 0.0
141, 0.0
142, 0.0
143, 0.0
144, 0.0
145, 0.0
146, 0.0
147, 0.0
148, 0.0
149, 0.0
150, 0.0
151, 0.0
152, 0.0
153, 0.0
154, 0.0
155, 0.0
156, 0.0
157, 0.0
158, 0.0
159, 0.0
160, 0.0
161, 0.0
162, 0.0
163, 0.0
164, 0.0
165, 0.0
166, 0.0
167, 0.0
168, 0.0
169, 0.0
170, 0.0
171, 0.0
172, 0.0
173, 0.0
174, 0.0
175, 0.0
176, 0.0
177, 0.0
178, 0.0
179, 0.0
180, 0.0
181, 0.0
182, 0.0
183, 0.0
184, 0.0
185, 0.0
186, 0.0
187, 0.0
188, 0.0
189, 0.0
190, 0.0
191, 0.0
192, 0.0
193, 0.0
194, 0.0
195, 0.0
196, 0.0
197, 0.0
198, 0.0
199, 0.0
200, 0.0
201, 0.0
202, 0.0
203, 0.0
204, 0.0
205, 0.0
206, 0.0
207, 0.0
208, 0.0
209, 0.0
210, 0.0
211, 0.0
212, 0.0
213, 0.0
214, 0.0
215, 0.0
216, 0.0
217, 0.0
218, 0.0
219, 0.0
220, 0.0
221, 0.0
222, 0.0
223, 0.0
224, 0.0
225, 0.0
226, 0.0
227, 0.0
228, 0.0
229, 0.0
230, 0.0
231, 0.0
232, 0.0
233, 0.0
234, 0.0
235, 0.0
236, 0.0
237, 0.0
238, 0.0
239, 0.0
240, 0.0
241, 0.0
242, 0.0
243, 0.0
244, 0.0
245.0, 9.816601761021057e-06
246.0, 3.827051990890828e-05
247.0, 0.006672462321582128
248.0, 0.00680443730287745
249.0, 0.005494826438715385
250.0, 0.0135087911152783
251.0, 0.010185505862682642
252.0, 0.00785420096934852
253.0, 0.008441005424099507
254.0, 0.010295786937048149
255.0, 0.0049341879519447665
256.0, 0.003962340135093053
257.0, 0.012723053012412484
258.0, 0.00619680917015155
259.0, 0.006003533736836797
260.0, 0.0072516673790994045
261.0, 0.00408442886193032
262.0, 0.0028618599100667845
263.0, 0.005756579764064927
264.0, 0.00944060348715496
265.0, 0.0032469800020978185
266.0, 0.0056542339140804405
267.0, 0.005292158161061334
268.0, 0.00040661467010925847
269.0, 0.004210344432139485
270.0, 0.002570414798541676
271.0, 0.0005922111526378082
272.0, 0.0016336032473995205
273.0, 0.006753961438043763
274.0, 0.005641049681438108
275.0, 0.003383396429031285
276.0, 0.008051743577749574
277.0, 0.0064372409441776635
278.0, 0.007059718925587346
279.0, 0.009560634925255006
280.0, 0.008954164535573246
281.0, 0.007041109700667082
282.0, 0.007474955972156614
283.0, 0.010754488006157905
284.0, 0.008565174791718625
285.0, 0.011161184888744364
286.0, 0.014321116661903253
287.0, 0.015063391423499467
288.0, 0.013340802200195142
289.0, 0.016445251425800243
290.0, 0.019670323649040193
291.0, 0.015301626247760533
292.0, 0.02010914236308773
293.0, 0.020686185744593504
294.0, 0.018223053703242523
295.0, 0.02211410027249185
296.0, 0.02237894593320077
297.0, 0.021308771203533357
298.0, 0.020300284087623
299.0, 0.025820783312107787
300.0, 0.023453195153422465
301.0, 0.022688599120436456
302.0, 0.029328437116757713
303.0, 0.028114499152101492
304.0, 0.02959515223827474
305.0, 0.03241797546159697
306.0, 0.03500678684614815
307.0, 0.033885423821195575
308.0, 0.03808892123828816
309.0, 0.0439273718164876
310.0, 0.04026843846761629
311.0, 0.0447496498091291
312.0, 0.04840801253511881
313.0, 0.05026635171812692
314.0, 0.05525691095094116
315.0, 0.0633747511135042
316.0, 0.06697324294684542
317.0, 0.0640513636118361
318.0, 0.07803754481837098
319.0, 0.08447205737569247
320.0, 0.08807616470198232
321.0, 0.09242851382557558
322.0, 0.10002389551731111
323.0, 0.10073091170035733
324.0, 0.10165709392298175
325.0, 0.11422788020542149
326.0, 0.11311263582861927
327.0, 0.1187847472496399
328.0, 0.12765623195589096
329.0, 0.12363566214578867
330.0, 0.1263977628308999
331.0, 0.131055650549065
332.0, 0.1348196138188183
333.0, 0.12827527415550996
334.0, 0.1354785765684381
335.0, 0.13783746940506902
336.0, 0.12879735123638295
337.0, 0.13013152037980094
338.0, 0.12993769908158684
339.0, 0.12566230615789756
340.0, 0.11511546020998635
341.0, 0.11497430220035988
342.0, 0.10927826249805296
343.0, 0.10252990314417484
344.0, 0.10061070201371641
345.0, 0.09720788694146298
346.0, 0.09151185821556596
347.0, 0.08559539112591326
348.0, 0.08415054204864686
349.0, 0.07422522551361593
350.0, 0.06861298928377689
351.0, 0.0668359811767984
352.0, 0.05941982585753423
353.0, 0.05986353677159925
354.0, 0.05906799705686325
355.0, 0.054659141927888774
356.0, 0.04876458460967926
357.0, 0.05014528732644637
358.0, 0.04798117738069297
359.0, 0.038442473974032394
360.0, 0.0459446929476014
361.0, 0.04386889874940047
362.0, 0.03920114944570519
363.0, 0.037077159509977274
364.0, 0.03650537755413821
365.0, 0.03115657362906418
366.0, 0.027975716450820153
367.0, 0.03567262416109295
368.0, 0.027134631548195922
369.0, 0.026141952349944705
370.0, 0.028658448379263936
371.0, 0.025177786067909217
372.0, 0.022824963775675822
373.0, 0.023504012070519737
374.0, 0.02462889293533113
375.0, 0.018233840287079233
376.0, 0.02240008309318079
377.0, 0.02418460456393638
378.0, 0.021900821632579885
379.0, 0.019812140662425273
380.0, 0.022723722912106017
381.0, 0.022827153187588732
382.0, 0.01952187156372595
383.0, 0.02648923263273371
384.0, 0.022891352977372395
385.0, 0.020955199101542008
386.0, 0.025487109325837153
387.0, 0.023901435529210348
388.0, 0.02337421534092181
389.0, 0.02517784063535066
390.0, 0.02989949665763238
391.0, 0.023890257253896402
392.0, 0.026525683138886487
393.0, 0.03136981512443324
394.0, 0.03254356144005082
395.0, 0.030001627757279478
396.0, 0.033543491640992865
397.0, 0.036886376837070745
398.0, 0.031627459176268725
399.0, 0.03639164505969848
400.0, 0.03590674013382436
401.0, 0.03412949354335272
402.0, 0.03934297899916355
403.0, 0.044405412656778484
404.0, 0.04552414249897563
405.0, 0.045421068891575864
406.0, 0.051245421810248215
407.0, 0.05010198733636533
408.0, 0.05089129177525274
409.0, 0.05485046500327603
410.0, 0.06175795251628988
411.0, 0.0615617844116066
412.0, 0.06416351621787819
413.0, 0.06939777212254264
414.0, 0.06796907367190681
415.0, 0.0768309007788989
416.0, 0.08424465540397155
417.0, 0.0877167101010782
418.0, 0.09176416953221164
419.0, 0.10011861252935939
420.0, 0.10568808005214611
421.0, 0.10823211114374735
422.0, 0.12494441031088756
423.0, 0.1298459964951473
424.0, 0.1355546550968922
425.0, 0.1474078077344621
426.0, 0.1614244189198011
427.0, 0.16744998920337392
428.0, 0.17839975446376852
429.0, 0.19982816766091893
430.0, 0.20650794904185052
431.0, 0.22451642503389727
432.0, 0.24167078280466847
433.0, 0.2507763918906995
434.0, 0.2706676726525746
435.0, 0.2970190421827889
436.0, 0.31894318167506697
437.0, 0.32877493296301763
438.0, 0.36623707324647065
439.0, 0.39126919766994145
440.0, 0.4113582960445427
441.0, 0.433124828301271
442.0, 0.4658373703376627
443.0, 0.4887020196073959
444.0, 0.5145537444400617
445.0, 0.5567176074041692
446.0, 0.5716383869298358
447.0, 0.6047572609571186
448.0, 0.6419687803639729
449.0, 0.6663933995168387
450.0, 0.6953283078840414
451.0, 0.7245045947727471
452.0, 0.7483089583503181
453.0, 0.7594671542268489
454.0, 0.7851879827161597
455.0, 0.7985486104553806
456.0, 0.8075379392773159
457.0, 0.8245004521718534
458.0, 0.8428869423419756
459.0, 0.841038949304226
460.0, 0.8373419724744129
461.0, 0.8606194479236817
462.0, 0.8498799791249562
463.0, 0.8507202141415492
464.0, 0.8567198418606171
465.0, 0.8538295572855618
466.0, 0.8477687000552442
467.0, 0.8587897192303072
468.0, 0.873220114290818
469.0, 0.8667046899940555
470.0, 0.8898568762042071
471.0, 0.9016543742127019
472.0, 0.9035611338342047
473.0, 0.9024737290426168
474.0, 0.9420947669109553
475.0, 0.9545372865039652
476.0, 0.9571421712774416
477.0, 0.9870656321145055
478.0, 0.9901128774346973
479.0, 0.9842776974604911
480.0, 0.9813435540902166
481.0, 0.9988943028294298
482.0, 0.9644843831148748
483.0, 0.9413937159263049
484.0, 0.9261018608090885
485.0, 0.905690080959984
486.0, 0.8654063835991178
487.0, 0.8333922545133735
488.0, 0.7998824064962645
489.0, 0.7464849632003447
490.0, 0.7149339590571469
491.0, 0.6727254691438936
492.0, 0.6278778737919591
493.0, 0.5951652846201645
494.0, 0.5557443062459656
495.0, 0.5140704251185787
496.0, 0.4770831757855225
497.0, 0.45427954165726614
498.0, 0.41613142268492925
499.0, 0.3860487373604749
500.0, 0.3616142632684036
501.0, 0.33855757263188685
502.0, 0.3095361329314056
503.0, 0.2904424901407664
504.0, 0.272260156562195
505.0, 0.24392628679960798
506.0, 0.22938961909649308
507.0, 0.21393412796492514
508.0, 0.1984388394271572
509.0, 0.18404826366347327
510.0, 0.17386602934046355
511.0, 0.15911684415868685
512.0, 0.14729764807403584
513.0, 0.14503867098535295
514.0, 0.13102762436207094
515.0, 0.11837920025194783
516.0, 0.11011296206162961
517.0, 0.10803905552781543
518.0, 0.09462927656016834
519.0, 0.09220276363988643
520.0, 0.0905205164839571
521.0, 0.08289821170653251
522.0, 0.07735095385683312
523.0, 0.07242700915506987
524.0, 0.06816218670556501
525.0, 0.06480725187375605
526.0, 0.06468891410605329
527.0, 0.056878652005744636
528.0, 0.05080949908460363
529.0, 0.050525515679153955
530.0, 0.050992692221368485
531.0, 0.046833648587588914
532.0, 0.04438367663217016
533.0, 0.04423850858602133
534.0, 0.03495856702455437
535.0, 0.03644701201293497
536.0, 0.0372461058179762
537.0, 0.034811573592887536
538.0, 0.03430883238828783
539.0, 0.03394323212854711
540.0, 0.030553572229659057
541.0, 0.025409884361098613
542.0, 0.025472348908012997
543.0, 0.02561334644165772
544.0, 0.02375941180898048
545.0, 0.02114077140808546
546.0, 0.021933055551049553
547.0, 0.019885290258844383
548.0, 0.01921800634991652
549.0, 0.018633047559868332
550.0, 0.014483015551041893
551.0, 0.013077666015742714
552.0, 0.013598344233604636
553.0, 0.013434756153548772
554.0, 0.008788810881272424
555.0, 0.012965977392162724
556.0, 0.009306816442152813
557.0, 0.005424245145503109
558.0, 0.0105106381277053
559.0, 0.009075400281782778
560.0, 0.006357053482512015
561.0, 0.0060881569802426
562.0, 0.010870812148151698
563.0, 0.008357456564712549
564.0, 0.007162346671277702
565.0, 0.00773366210167744
566.0, 0.009505524075179943
567.0, 0.003938129701793752
568.0, 0.00596729323249683
569.0, 0.005609339712214938
570.0, 0.0009486743105501121
571.0, 0.007394144859508989
572.0, 0.006495835931083291
573.0, 0.004182374978725929
574.0, 0.003208307067118054
575.0, 0.007056237528959531
576.0, 0.0034273062529215186
577.0, 0.002129638232600278
578.0, 0.0036425772617776683
579.0, 0.003997124453104635
580.0, 0.0045658457883595875
581.0, 0.0054359238159983995
582.0, 0.005653456502420502
583.0, 0.003536241037624059
584.0, 0.004706322315573474
585.0, 0.006431573236807449
586.0, 0.006577625250393872
587.0, 0.0028527375139789707
588.0, 0.0060084784790645955
589.0, 0.004343398965768866
590.0, 0.00278721194218118
591.0, 0.0048932131094376365
592.0, 0.001780445819876066
593.0, 0.001742816759984594
594.0, 0.0038404431958481097
595.0, 0.006484119224946275
596.0, 0.0019405382466675886
597.0, 0.0008461416525389298
598.0, 0.0007432542585643427
599.0, 0.0007025851208078132
600.0, 0.00044855712186130526
601.0, 0.0007692943484034841
602.0, 0.0020698687540929945
603.0, 0.003053296014016033
604.0, 0.00032013061740085056
605.0, 0.0007490518851205872
606.0, 0.002936933122172044
607.0, 0.004456925790652707
608.0, 0.001855846863627852
609.0, 0.004469474996738454
610.0, 0.004886650892958259
611.0, 0.004020303747946832
612.0, 0.003103487131935852
613.0, 0.004387525204975883
614.0, 0.0036068829755249014
615.0, 0.003252413186474147
616.0, 0.0041661958233504305
617.0, 0.0007468808393688642
618.0, 0.0004343933267818213
619.0, 0.00179011364422314
620.0, 0.0032211347077309768
621.0, 0.00044533065893220336
622.0, 0.003391657290376729
623.0, 0.004163803165036972
624.0, 0.002653377215516316
625.0, 0.002299622290071101
626.0, 0.0008369968882654295
627.0, 0.0012999692072927513
628.0, 0.0020638391390586618
629.0, 0.0006137991166657952
630.0, 0.0009479749184505739
631.0, 0.0009489849850713014
632.0, 0.0007762127442848886
633.0, 0.0007163060051745248
634.0, 0.002589123668162422
635.0, 0.0014780554315712766
636.0, 0.0026605013125399505
637.0, 0.006621338911606538
638.0, 0.003239889919178652
639.0, 0.004908725059189892
640.0, 0.004744779144788817
641.0, 0.0031986328193269664
642.0, 0.005953881293818946
643.0, 0.009712714349536754
644.0, 0.008231084815629236
645.0, 0.006451042905112566
646.0, 0.012394534611915848
647.0, 0.011958469753952983
648.0, 0.009268366079878434
649.0, 0.008566168488165587
650.0, 0.012420212771825149
651.0, 0.010224212913816207
652.0, 0.00981620966699323
653.0, 0.010948481857655293
654.0, 0.01250727848265239
655.0, 0.0098845422065286
656.0, 0.01118050673689382
657.0, 0.010881542392397693
658.0, 0.00950310727449661
659.0, 0.011026776744854685
660.0, 0.010143809732586247
661.0, 0.010115416421867822
662.0, 0.010614716703850892
663.0, 0.010901583109987144
664.0, 0.010317955460058556
665.0, 0.010222398851270699
666.0, 0.009910714021419572
667.0, 0.009016572324919363
668.0, 0.00827241887802762
669.0, 0.007350252611168354
670.0, 0.005440250707608486
671.0, 0.0037985725689585487
672.0, 0.007191295047699308
673.0, 0.008989344824608595
674.0, 0.007816435051209705
675.0, 0.0060893834493557335
676.0, 0.0078012397402650105
677.0, 0.00744496295822575
678.0, 0.006679054077292835
679.0, 0.0062570843112198385
680.0, 0.006473847547531125
681.0, 0.004260084266492903
682.0, 0.006849547046022405
683.0, 0.00800578715512273
684.0, 0.00675939522387442
685.0, 0.00877840507189194
686.0, 0.009114084104933404
687.0, 0.008873252150661974
688.0, 0.009155255310368463
689.0, 0.011492054591966302
690.0, 0.009275248207739005
691.0, 0.008645080917389683
692.0, 0.009351709295608445
693.0, 0.010933386064773485
694.0, 0.012943842381055618
695.0, 0.01333287705935774
696.0, 0.013395985289085411
697.0, 0.013923343893100263
698.0, 0.015853430572074122
699.0, 0.017074228880816767
700.0, 0.01683950544553508
701.0, 0.016961168931442776
702.0, 0.020571099128051235
703.0, 0.019900481740322124
704.0, 0.019803288185991842
705.0, 0.020283024786141125
706.0, 0.020880852280020665
707.0, 0.01819243607188153
708.0, 0.021785596092671597
709.0, 0.022769865854047996
710.0, 0.020575323284723963
711.0, 0.02353861579206644
712.0, 0.02280416110381779
713.0, 0.02171103816757403
714.0, 0.022643847902951434
715.0, 0.02799006700565696
716.0, 0.019664060782506262
717.0, 0.022970975994731618
718.0, 0.026203822829902284
719.0, 0.023144533414515334
720.0, 0.023118695951420114
721.0, 0.02600533215486766
722.0, 0.026631766470227754
723.0, 0.02509574378932615
724.0, 0.024828420192070624
725.0, 0.02512865586641556
726.0, 0.026320981547791562
727.0, 0.02764359384387473
728.0, 0.027984036399979612
729.0, 0.022389320736543122
730.0, 0.024543679234526963
731.0, 0.025415811535094243
732.0, 0.023162768850050648
733.0, 0.02601857904619451
734.0, 0.025126344186015784
735.0, 0.022537785623388505
736.0, 0.02163910025517801
737.0, 0.02676294288256842
738.0, 0.02752140700896463
739.0, 0.024144462332170765
740.0, 0.022669081864102946
741.0, 0.025830071657852057
742.0, 0.02605280503669446
743.0, 0.025788989748411005
744.0, 0.026766610714180968
745.0, 0.028164569936014513
746.0, 0.02737665908533919
747.0, 0.029256216218081464
748.0, 0.029840237375104276
749.0, 0.030162883168907532
750.0, 0.031194739684632163
751.0, 0.03177518763653039
752.0, 0.031409945393833474
753.0, 0.03244304501545278
754.0, 0.03477338250778052
755.0, 0.03585908077922108
756.0, 0.03569411485471049
757.0, 0.03699244702795974
758.0, 0.03772096796351093
759.0, 0.035807200525855905
760.0, 0.03767902836708472
761.0, 0.03838414947959272
762.0, 0.03816845849993533
763.0, 0.03796168130101045
764.0, 0.04052409238513639
765.0, 0.03939835051199234
766.0, 0.039759605666679715
767.0, 0.04045976931917899
768.0, 0.03933496991973234
769.0, 0.04066863263991922
770.0, 0.04046495298289137
771.0, 0.03853865236381561
772.0, 0.036259718073174824
773.0, 0.03927014291128555
774.0, 0.03919261820599556
775.0, 0.037533632408073586
776.0, 0.036247606336498504
777.0, 0.03757459577587452
778.0, 0.037659206257809795
779.0, 0.037902380153830746
780.0, 0.03712858799031364
781.0, 0.03527669823739448
782.0, 0.03473532870912023
783.0, 0.037271546719356646
784.0, 0.03777396487972389
785.0, 0.03748003374447149
786.0, 0.03931961747663744
787.0, 0.04089214101147444
788.0, 0.03750781506863
789.0, 0.03595752343702994
790.0, 0.03838211005044096
791.0, 0.03818977515090445
792.0, 0.03666511090669403
793.0, 0.035637250230923505
794.0, 0.03351867023537613
795.0, 0.02813519412790694
796.0, 0.030254835117407557
797.0, 0.028314032835331102
798.0, 0.02470439978973959
799.0, 0.022090469993931477
800.0, 0.025604231009391017
801.0, 0.02299299732927587
802.0, 0.02309512689522378
803.0, 0.022607819941088812
804.0, 0.016493599131090234
805.0, 0.014337423602911209
806.0, 0.013096572405719993
807.0, 0.01077594409796743
808.0, 0.008385097643259062
809.0, 0.011830968168637266
810.0, 0.007186212886737146
811.0, 0.004883746071014619
812.0, 0.005484052721834203
813.0, 0.0076816465199051245
814.0, 0.003857169291034577
815.0, 0.0035504481594310407
816.0, 0.0055233831510917075
817.0, 0.006951377384082478
818.0, 0.002143497565938592
819.0, 0.0022352117262364494
820.0, 0.0020849660405733565
821.0, 0.002528778663033464
822.0, 0.004089478603113102
823.0, 0.0037116308173506894
824.0, 0.001801014400680059
825.0, 0.0006933737773627616
826.0, 0.00051819119249939
827.0, 0.00035852360536245935
828.0, 0.0018497564610782506
829.0, 0.0016832704298362915
830.0, 0.0016256755652097085
831.0, 0.0023385655685278285
832.0, 0.001541225214385441
833.0, 0.0014062523129925216
834.0, 0.0020222909127173743
835.0, 0.002156993953193223
836.0, 0.0005332455960585483
837.0, 0.003938560925044064
838.0, 0.0026107397328404653
839.0, 0.001202545303491062
840.0, 0.0013509349541021983
841.0, 0.0018599492027589152
842.0, 0.002203557286266638
843.0, 0.002893719930619876
844.0, 0.0025599166647059697
845.0, 0.0007823715964585276
846.0, 0.0037902387684663453
847.0, 0.0016850535721833798
848.0, 0.0008703306974508857
849.0, 0.0013719513420674206
850.0, 0.00022883868591667424
851.0, 0.0009346646695906128
852.0, 0.0008198265866883871
853.0, 0.0007363651629844675
854.0, 0.0012600808168187687
855.0, 0.0026453842864838295
856.0, 0.0024081923299740086
857.0, 0.001406451384691375
858.0, 0.000995765197685577
859.0, 0.0021873430099619176
860.0, 0.001498764732237526
861.0, 0.002188389965331747
862.0, 0.0017735186675876234
863.0, 0.0006378746273009673
864.0, 0.0011994247927286802
865.0, 0.0007985943748401323
866.0, 0.0008214956713628789
867.0, 0.0011778168967111118
868.0, 0.0016646156789907353
869.0, 0.0018141467214851062
870.0, 0.0010200184920909434
871.0, 0.0006896134910207336
872.0, 0.0008700622574679306
873.0, 0.0013160252390539474
874.0, 0.001556702487076729
875.0, 0.0014741266331012054
876.0, 0.001464553519777062
877.0, 0.0013983019420843333
878.0, 0.0007677128194508326
879.0, 0.0008342932132911682
880.0, 0.002400239509880338
881.0, 0.0026797446200408003
882.0, 0.0009714523533690731
883.0, 0.0010899778540455047
884.0, 0.002407969243501439
885.0, 0.001711254151640433
886.0, 0.0005152679364006158
887.0, 0.0009061183133430703
888.0, 0.0037965136701824122
889.0, 0.0017276339240550184
890.0, 0.0011518630138677036
891.0, 0.002895154581254152
892.0, 0.005162977786845229
893.0, 0.0019187964273609684
894.0, 0.003283069445956745
895.0, 0.004558454033411325
896.0, 0.004403277230542556
897.0, 0.005829879945845854
898.0, 0.00209905086114172
899.0, 0.004259198721684166
900.0, 0.007360713379168599
901.0, 0.0066667962120390825
902.0, 0.0019099708726892433
903.0, 0.004371963513878863
904.0, 0.005697277450906112
905.0, 0.004742960811287951
906.0, 0.002507739066922396
907.0, 0.004345504975306758
908.0, 0.0028709833139886503
909.0, 0.004556843925857923
910.0, 0.007652037231387968
911.0, 0.004899304450268633
912.0, 0.004809691619529573
913.0, 0.00670412318020676
914.0, 0.008128408018154698
915.0, 0.008671242628354387
916.0, 0.01111765139264027
917.0, 0.006039937236052025
918.0, 0.004977756438376832
919.0, 0.00539044753627839
920.0, 0.004686559993436124
921.0, 0.00394927787916923
922.0, 0.005816921944824877
923.0, 0.006320704784493176
924.0, 0.005907900847314823
925.0, 0.005988159558294177
926.0, 0.007659455685543929
927.0, 0.006203715337710716
928.0, 0.006276104776187232
929.0, 0.0077930240581147595
930.0, 0.008435358245523107
931.0, 0.007353628424924627
932.0, 0.009158110483078614
933.0, 0.009663560312410578
934.0, 0.008229136819670628
935.0, 0.0075651587014539156
936.0, 0.010218732982312951
937.0, 0.011330250991841657
938.0, 0.011084814861878385
939.0, 0.01059657377412306
940.0, 0.01275727278235254
941.0, 0.013253338049151159
942.0, 0.01174747889761971
943.0, 0.010723609793759251
944.0, 0.011860429574701278
945.0, 0.013389890488232506
946.0, 0.017026496863857585
947.0, 0.015578410929510313
948.0, 0.013842847342803912
949.0, 0.017005613228076935
950.0, 0.01644869307767967
951.0, 0.01646876416766716
952.0, 0.016067337581841527
953.0, 0.016597823350803495
954.0, 0.019758855779904914
955.0, 0.020021072946251085
956.0, 0.01770925559950785
957.0, 0.01856387475399652
958.0, 0.02137105724651892
959.0, 0.020886095424012822
960.0, 0.019635186998431597
961.0, 0.02222850599678885
962.0, 0.023763303692424406
963.0, 0.023247344669635756
964.0, 0.02319102995088157
965.0, 0.02263384434006212
966.0, 0.025388243151182006
967.0, 0.02784744147705301
968.0, 0.028180811561956797
969.0, 0.026945080528879103
970.0, 0.030031146768054153
971.0, 0.03109884737675479
972.0, 0.030570294283879706
973.0, 0.029639850913781567
974.0, 0.03051633301263718
975.0, 0.031534133131808584
976.0, 0.0317530913779451
977.0, 0.03250553565043186
978.0, 0.034476081644385766
979.0, 0.036038441353717726
980.0, 0.03592691644529377
981.0, 0.03847171622361417
982.0, 0.039322123947895526
983.0, 0.03652236785719151
984.0, 0.04204629505287184
985.0, 0.03865050059634775
986.0, 0.03934964817186109
987.0, 0.04253838609312372
988.0, 0.04387235167376629
989.0, 0.03933590759067651
990.0, 0.04138219368118071
991.0, 0.042504479518796
992.0, 0.043026068390901
993.0, 0.04492102954787395
994.0, 0.04851478097226528
995.0, 0.04898888454302535
996.0, 0.05068904237808866
997.0, 0.052153534505343824
998.0, 0.05100032240068636
999.0, 0.05177570736754189
1000.0, 0.057359331672221195
1001.0, 0.05854910894055604
1002.0, 0.05777956430421159
1003.0, 0.06051702829433937
1004.0, 0.0599975419397595
1005.0, 0.06292015753666484
1006.0, 0.06166365331025606
1007.0, 0.05884602921943308
1008.0, 0.06036030624194339
1009.0, 0.061279918710915045
1010.0, 0.062109080960279554
1011.0, 0.06320720920836666
1012.0, 0.06429933817071762
1013.0, 0.06498468400261663
1014.0, 0.06679721915473151
1015.0, 0.06732524214080224
1016.0, 0.06808973804377663
1017.0, 0.06827898886483055
1018.0, 0.06654731313919904
1019.0, 0.06789525164688154
1020.0, 0.06893022694052564
1021.0, 0.07088243465552456
1022.0, 0.07279910806014847
1023.0, 0.07288304048299248
1024.0, 0.07142657152697705
1025.0, 0.07092070713678583
1026.0, 0.07027236170498251
1027.0, 0.07011773630106823
1028.0, 0.07169739250772322
1029.0, 0.0747257457955848
1030.0, 0.07417810457769648
1031.0, 0.07271325950207241
1032.0, 0.07311876553442542
1033.0, 0.07679598742158637
1034.0, 0.07111174983328894
1035.0, 0.07361241765540505
1036.0, 0.0751033853701852
1037.0, 0.07488241779935441
1038.0, 0.07509380547916375
1039.0, 0.07584382811570411
1040.0, 0.07726421911819727
1041.0, 0.07538001994099566
1042.0, 0.0737405017474864
1043.0, 0.07670607913620077
1044.0, 0.07822142862456571
1045.0, 0.07502261630621529
1046.0, 0.07568377646608435
1047.0, 0.07804418601863547
1048.0, 0.07847020897441272
1049.0, 0.08070456022364786
1050.0, 0.08065545681996976
1051.0, 0.08170832903214253
1052.0, 0.08337676608929849
1053.0, 0.08486716299091918
1054.0, 0.08748951952945251
1055.0, 0.0879981990297516
1056.0, 0.0903466864786451
1057.0, 0.09189351709805796
1058.0, 0.09184044504074282
1059.0, 0.09794354404289182
1060.0, 0.09771045487601755
1061.0, 0.09777486727704342
1062.0, 0.10178439152674942
1063.0, 0.10795309769390991
1064.0, 0.1033842659399201
1065.0, 0.111145582555225
1066.0, 0.11153602487239168
1067.0, 0.11170132946862948
1068.0, 0.11548766415571932
1069.0, 0.11874934240611412
1070.0, 0.1193408939017708
1071.0, 0.12253738154203149
1072.0, 0.12541683315960062
1073.0, 0.12599685768684024
1074.0, 0.12375131686587831
1075.0, 0.13195681126048037
1076.0, 0.13354398158663558
1077.0, 0.13398366078488796
1078.0, 0.13594428316960516
1079.0, 0.13946404207307106
1080.0, 0.13672833335005255
1081.0, 0.13859941963202208
1082.0, 0.14047165634869535
1083.0, 0.14032332208764495
1084.0, 0.1384559635275974
1085.0, 0.1443258347908633
1086.0, 0.14144627540885077
1087.0, 0.1423665564739182
1088.0, 0.14638711761128997
1089.0, 0.14862893566313026
1090.0, 0.14454079364366496
1091.0, 0.14521722837933754
1092.0, 0.14797389194879537
1093.0, 0.1492088821217987
1094.0, 0.1480018002639713
1095.0, 0.15156258685475868
1096.0, 0.14723609431045948
1097.0, 0.1469143468700058
1098.0, 0.14717684198658856
1099.0, 0.14569304047459467
1100.0, 0.1443412665103203
1101.0, 0.1454287457489346
1102.0, 0.14181722056431234
1103.0, 0.14068021199350933
1104.0, 0.14319608869455747
1105.0, 0.14430459384188998
1106.0, 0.14082575706224412
1107.0, 0.13846034792758635
1108.0, 0.1381725343177827
1109.0, 0.13791696622484897
1110.0, 0.1350694231449132
1111.0, 0.136642283112885
1112.0, 0.1338235246453755
1113.0, 0.12911132162899333
1114.0, 0.1273468820975898
1115.0, 0.13044083347195357
1116.0, 0.12606863345136307
1117.0, 0.13050049265201075
1118.0, 0.1292081570477564
1119.0, 0.1240617339563369
1120.0, 0.1201823551397507
1121.0, 0.12428908665712442
1122.0, 0.11961631870025606
1123.0, 0.11879760962870098
1124.0, 0.12051602290181554
1125.0, 0.11954945022823
1126.0, 0.10863318830179633
1127.0, 0.11162265814958451
1128.0, 0.11038852519905255
1129.0, 0.10808816452040053
1130.0, 0.10641102330658596
1131.0, 0.10556712385153033
1132.0, 0.10094281958654736
1133.0, 0.10283412798531882
1134.0, 0.10303783847644438
1135.0, 0.09913587960610425
1136.0, 0.09381360312574599
1137.0, 0.10040738299082122
1138.0, 0.0938090397199865
1139.0, 0.09420601590711934
1140.0, 0.09478672978733862
1141.0, 0.09070776630475559
1142.0, 0.08330348143494623
1143.0, 0.09106972745555786
1144.0, 0.0841266831852574
1145.0, 0.07988666540362936
1146.0, 0.08099967614714733
1147.0, 0.08056698345663497
1148.0, 0.0738810260033732
1149.0, 0.07421802991631433
1150.0, 0.07428858858475622
1151.0, 0.07237965697583824
1152.0, 0.07012281826722708
1153.0, 0.07469160583930445
1154.0, 0.06391011683810371
1155.0, 0.06154077453712998
1156.0, 0.06260572721882822
1157.0, 0.06220171001223816
1158.0, 0.05919644798269363
1159.0, 0.05555536824438008
1160.0, 0.056347037189359815
1161.0, 0.05421430896115857
1162.0, 0.05167093614493575
1163.0, 0.05388637406761845
1164.0, 0.04718216560721764
1165.0, 0.04322383152775539
1166.0, 0.04123363089761833
1167.0, 0.03980134286559326
1168.0, 0.038717133484064886
1169.0, 0.04089079918011694
1170.0, 0.04308414376824049
1171.0, 0.03544681113338823
1172.0, 0.03259826008968729
1173.0, 0.03965388692779257
1174.0, 0.04996880440294742
1175.0, 0.03320780699122698
1176.0, 0.03372152486282955
1177.0, 0.029972203262346557
1178.0, 0.02511563271485724
1179.0, 0.026363523264904935
1180.0, 0.02487863748456752
1181.0, 0.01966124500217937
1182.0, 0.019846769363568658
1183.0, 0.01929765315861865
1184.0, 0.015967177449296106
1185.0, 0.014838898089392044
1186.0, 0.017700943452810737
1187.0, 0.015534952190126754
1188.0, 0.013463300103219129
1189.0, 0.01334112290637797
1190.0, 0.014223593668749845
1191.0, 0.00985361237723521
1192.0, 0.011024054300588476
1193.0, 0.011445754517796404
1194.0, 0.009007578622274283
1195.0, 0.005393114337742235
1196.0, 0.00659030447457732
1197.0, 0.003731778849226163
1198.0, 0.003373636945892838
1199.0, 0.007474242811889277
1200.0, 0.009434936023015447
1201.0, 0.0031367611167405045
1202.0, 0.00814209830672587
1203.0, 0.006911876688503925
1204.0, 0.004774697293109239
1205.0, 0.004682204413723231
1206.0, 0.00558334694857626
1207.0, 0.0011884202736544573
1208.0, 0.0007749821389438593
1209.0, 0.004326710935335831
1210.0, 0.003584436450909742
1211.0, 0.0019386600472599358
1212.0, 0.00581254091975718
1213.0, 0.005600236617965852
1214.0, 0.0024317282344509797
1215.0, 0.004863706914110444
1216.0, 0.005012309156019582
1217.0, 0.0008432963595142403
1218.0, 0.0014456386591277719
1219.0, 0.004314730533531875
1220.0, 0.0029839982580232237
1221.0, 0.004192675925963339
1222.0, 0.005984898391050813
1223.0, 0.004287550052183786
1224.0, 0.0023079247456723913
1225.0, 0.0029779366632634733
1226.0, 0.0014613774967426557
1227.0, 0.002095065643360377
1228.0, 0.004315171973501845
1229.0, 0.0019279481248322028
1230.0, 0.0003972984242031506
1231.0, 0.00398329383102018
1232.0, 0.00705246410166503
1233.0, 0.00595798235000231
1234.0, 0.002446388287042223
1235.0, 0.010051401947549797
1236.0, 0.004966457735845923
1237.0, 0.0043938024970048995
1238.0, 0.006761501528732126
1239.0, 0.007002626617732684
1240.0, 0.0011186232973199304
1241.0, 0.004977472788326457
1242.0, 0.003647523839157445
1243.0, 0.0013580064162611164
1244.0, 0.002301205166829679
1245.0, 0.005075319808898262
1246, 0.0
1247, 0.0
1248, 0.0
1249, 0.0
1250, 0.0
1251, 0.0
1252, 0.0
1253, 0.0
1254, 0.0
1255, 0.0
1256, 0.0
1257, 0.0
1258, 0.0
1259, 0.0
1260, 0.0
1261, 0.0
1262, 0.0
1263, 0.0
1264, 0.0
1265, 0.0
1266, 0.0
1267, 0.0
1268, 0.0
1269, 0.0
1270, 0.0
1271, 0.0
1272, 0.0
1273, 0.0
1274, 0.0
1275, 0.0
1276, 0.0
1277, 0.0
1278, 0.0
1279, 0.0
1280, 0.0
1281, 0.0
1282, 0.0
1283, 0.0
1284, 0.0
1285, 0.0
1286, 0.0
1287, 0.0
1288, 0.0
1289, 0.0
1290, 0.0
1291, 0.0
1292, 0.0
1293, 0.0
1294, 0.0
1295, 0.0
1296, 0.0
1297, 0.0
1298, 0.0
1299, 0.0
1300, 0.0
1301, 0.0
1302, 0.0
1303, 0.0
1304, 0.0
1305, 0.0
1306, 0.0
1307, 0.0
1308, 0.0
1309, 0.0
1310, 0.0
1311, 0.0
1312, 0.0
1313, 0.0
1314, 0.0
1315, 0.0
1316, 0.0
1317, 0.0
1318, 0.0
1319, 0.0
1320, 0.0
1321, 0.0
1322, 0.0
1323, 0.0
1324, 0.0
1325, 0.0
1326, 0.0
1327, 0.0
1328, 0.0
1329, 0.0
1330, 0.0
1331, 0.0
1332, 0.0
1333, 0.0
1334, 0.0
1335, 0.0
1336, 0.0
1337, 0.0
1338, 0.0
1339, 0.0
1340, 0.0
1341, 0.0
1342, 0.0
1343, 0.0
1344, 0.0
1345, 0.0
1346, 0.0
1347, 0.0
1348, 0.0
1349, 0.0
1350, 0.0
1351, 0.0
1352, 0.0
1353, 0.0
1354, 0.0
1355, 0.0
1356, 0.0
1357, 0.0
1358, 0.0
1359, 0.0
1360, 0.0
1361, 0.0
1362, 0.0
1363, 0.0
1364, 0.0
1365, 0.0
1366, 0.0
1367, 0.0
1368, 0.0
1369, 0.0
1370, 0.0
1371, 0.0
1372, 0.0
1373, 0.0
1374, 0.0
1375, 0.0
1376, 0.0
1377, 0.0
1378, 0.0
1379, 0.0
1380, 0.0
1381, 0.0
1382, 0.0
1383, 0.0
1384, 0.0
1385, 0.0
1386, 0.0
1387, 0.0
1388, 0.0
1389, 0.0
1390, 0.0
1391, 0.0
1392, 0.0
1393, 0.0
1394, 0.0
1395, 0.0
1396, 0.0
1397, 0.0
1398, 0.0
1399, 0.0
1400, 0.0
1401, 0.0
1402, 0.0
1403, 0.0
1404, 0.0
1405, 0.0
1406, 0.0
1407, 0.0
1408, 0.0
1409, 0.0
1410, 0.0
1411, 0.0
1412, 0.0
1413, 0.0
1414, 0.0
1415, 0.0
1416, 0.0
1417, 0.0
1418, 0.0
1419, 0.0
1420, 0.0
1421, 0.0
1422, 0.0
1423, 0.0
1424, 0.0
1425, 0.0
1426, 0.0
1427, 0.0
1428, 0.0
1429, 0.0
1430, 0.0
1431, 0.0
1432, 0.0
1433, 0.0
1434, 0.0
1435, 0.0
1436, 0.0
1437, 0.0
1438, 0.0
1439, 0.0
1440, 0.0
1441, 0.0
1442, 0.0
1443, 0.0
1444, 0.0
1445, 0.0
1446, 0.0
1447, 0.0
1448, 0.0
1449, 0.0
1450, 0.0
1451, 0.0
1452, 0.0
1453, 0.0
1454, 0.0
1455, 0.0
1456, 0.0
1457, 0.0
1458, 0.0
1459, 0.0
1460, 0.0
1461, 0.0
1462, 0.0
1463, 0.0
1464, 0.0
1465, 0.0
1466, 0.0
1467, 0.0
1468, 0.0
1469, 0.0
1470, 0.0
1471, 0.0
1472, 0.0
1473, 0.0
1474, 0.0
1475, 0.0
1476, 0.0
1477, 0.0
1478, 0.0
1479, 0.0
1480, 0.0
1481, 0.0
1482, 0.0
1483, 0.0
1484, 0.0
1485, 0.0
1486, 0.0
1487, 0.0
1488, 0.0
1489, 0.0
1490, 0.0
1491, 0.0
1492, 0.0
1493, 0.0
1494, 0.0
1495, 0.0
1496, 0.0
1497, 0.0
1498, 0.0
1499, 0.0
1500, 0.0
1501, 0.0
1502, 0.0
1503, 0.0
1504, 0.0
1505, 0.0
1506, 0.0
1507, 0.0
1508, 0.0
1509, 0.0
1510, 0.0
1511, 0.0
1512, 0.0
1513, 0.0
1514, 0.0
1515, 0.0
1516, 0.0
1517, 0.0
1518, 0.0
1519, 0.0
1520, 0.0
1521, 0.0
1522, 0.0
1523, 0.0
1524, 0.0
1525, 0.0
1526, 0.0
1527, 0.0
1528, 0.0
1529, 0.0
1530, 0.0
1531, 0.0
1532, 0.0
1533, 0.0
1534, 0.0
1535, 0.0
1536, 0.0
1537, 0.0
1538, 0.0
1539, 0.0
1540, 0.0
1541, 0.0
1542, 0.0
1543, 0.0
1544, 0.0
1545, 0.0
1546, 0.0
1547, 0.0
1548, 0.0
1549, 0.0
1550, 0.0
1551, 0.0
1552, 0.0
1553, 0.0
1554, 0.0
1555, 0.0
1556, 0.0
1557, 0.0
1558, 0.0
1559, 0.0
1560, 0.0
1561, 0.0
1562, 0.0
1563, 0.0
1564, 0.0
1565, 0.0
1566, 0.0
1567, 0.0
1568, 0.0
1569, 0.0
1570, 0.0
1571, 0.0
1572, 0.0
1573, 0.0
1574, 0.0
1575, 0.0
1576, 0.0
1577, 0.0
1578, 0.0
1579, 0.0
1580, 0.0
1581, 0.0
1582, 0.0
1583, 0.0
1584, 0.0
1585, 0.0
1586, 0.0
1587, 0.0
1588, 0.0
1589, 0.0
1590, 0.0
1591, 0.0
1592, 0.0
1593, 0.0
1594, 0.0
1595, 0.0
1596, 0.0
1597, 0.0
1598, 0.0
1599, 0.0
