30, 0.0
31, 0.0
32, 0.0
33, 0.0
34, 0.0
35, 0.0
36, 0.0
37, 0.0
38, 0.0
39, 0.0
40, 0.0
41, 0.0
42, 0.0
43, 0.0
44, 0.0
45, 0.0
46, 0.0
47, 0.0
48, 0.0
49, 0.0
50, 0.0
51, 0.0
52, 0.0
53, 0.0
54, 0.0
55, 0.0
56, 0.0
57, 0.0
58, 0.0
59, 0.0
60, 0.0
61, 0.0
62, 0.0
63, 0.0
64, 0.0
65, 0.0
66, 0.0
67, 0.0
68, 0.0
69, 0.0
70, 0.0
71, 0.0
72, 0.0
73, 0.0
74, 0.0
75, 0.0
76, 0.0
77, 0.0
78, 0.0
79, 0.0
80, 0.0
81, 0.0
82, 0.0
83, 0.0
84, 0.0
85, 0.0
86, 0.0
87, 0.0
88, 0.0
89, 0.0
90, 0.0
91, 0.0
92, 0.0
93, 0.0
94, 0.0
95, 0.0
96, 0.0
97, 0.0
98, 0.0
99, 0.0
100, 0.0
101, 0.0
102, 0.0
103, 0.0
104, 0.0
105, 0.0
106, 0.0
107, 0.0
108, 0.0
109, 0.0
110, 0.0
111, 0.0
112, 0.0
113, 0.0
114, 0.0
115, 0.0
116, 0.0
117, 0.0
118, 0.0
119, 0.0
120, 0.0
121, 0.0
122, 0.0
123, 0.0
124, 0.0
125, 0.0
126, 0.0
127, 0.0
128, 0.0
129, 0.0
130, 0.0
131, 0.0
132, 0.0
133, 0.0
134, 0.0
135, 0.0
136, 0.0
137, 0.0
138, 0.0
139, 0.0
140, 0.0
141, 0.0
142, 0.0
143, 0.0
144, 0.0
145, 0.0
146, 0.0
147, 0.0
148, 0.0
149.0, 0.0007272501403517079
150.0, 0.0037576121604739306
151.0, 0.014100170500536585
152.0, 0.023324423879409854
153.0, 0.03541737724147261
154.0, 0.05151961761600662
155.0, 0.060246152581665595
156.0, 0.06690072252380669
157.0, 0.07360669953189891
158.0, 0.07860907294628466
159.0, 0.07759027944652415
160.0, 0.08397229794638898
161.0, 0.08492743651261508
162.0, 0.0827502529749195
163.0, 0.08738956017100824
164.0, 0.08883063063288502
165.0, 0.08999866991464489
166.0, 0.09255333914223
167.0, 0.0960061559981631
168.0, 0.09652124664861737
169.0, 0.10586506975763184
170.0, 0.11453787700963088
171.0, 0.11771932996882767
172.0, 0.122500233722215
173.0, 0.12100514676115767
174.0, 0.12145527819308304
175.0, 0.12335712567836925
176.0, 0.12024030358376822
177.0, 0.1236288475619635
178.0, 0.12458109134729549
179.0, 0.12118243828694723
180.0, 0.11668676637190795
181.0, 0.11375160394410141
182.0, 0.11220130068808577
183.0, 0.1105015738892606
184.0, 0.10687443083726068
185.0, 0.10052332100816487
186.0, 0.10211549668013067
187.0, 0.10289443710396964
188.0, 0.09999333431943001
189.0, 0.101389068083651
190.0, 0.09544655324824258
191.0, 0.09248314561564215
192.0, 0.09444939956404819
193.0, 0.09733772819596334
194.0, 0.09550704039645555
195.0, 0.08873255858083492
196.0, 0.08569219452204374
197.0, 0.08682536842321242
198.0, 0.07932229220471664
199.0, 0.0783886761128941
200.0, 0.07407888951396015
201.0, 0.0679138459500735
202.0, 0.06885771710900962
203.0, 0.055633175288995154
204.0, 0.049543532884014245
205.0, 0.049755169236476715
206.0, 0.04700370029666201
207.0, 0.039101016302493005
208.0, 0.03725903331478207
209.0, 0.037594631961927874
210.0, 0.03559592084450674
211.0, 0.0298426889508403
212.0, 0.029684290132084176
213.0, 0.024301313812896352
214.0, 0.018699115299313993
215.0, 0.021055113645443043
216.0, 0.017481317162367727
217.0, 0.013789189274008526
218.0, 0.01093095008758294
219.0, 0.009452654969339157
220.0, 0.011771647905863025
221.0, 0.007106012837209398
222.0, 0.003015938282091217
223.0, 0.001294785900402569
224.0, 0.0007700771439328447
225.0, 0.0038213879461340395
226.0, 0.0015422433377781858
227.0, 0.0010307589766253738
228.0, 0.003049254525965177
229.0, 0.005087672470425886
230.0, 0.0019237729392274736
231.0, 0.00023596141308634676
232.0, 0.0011218934064087856
233.0, 0.0017432924889055003
234.0, 0.008809453244047064
235.0, 0.0071108674292811504
236.0, 0.005163838956810322
237.0, 0.010014657452329904
238.0, 0.0033632892895337726
239.0, 0.00230290670343023
240.0, 0.0016357279267253427
241.0, 0.0016191081411007567
242.0, 0.005848534593478261
243.0, 0.0018258539838533
244.0, 0.0012827197584927203
245.0, 0.0014737588205028474
246.0, 0.0016545061816486658
247.0, 0.0006514752180450536
248.0, 0.0025988446539498087
249.0, 0.005843522733842676
250.0, 0.00586325559998805
251.0, 0.0037156656874852956
252.0, 0.004372274770440657
253.0, 0.008507535700736198
254.0, 0.008932002821191599
255.0, 0.0035207710858086347
256.0, 0.00715189657629042
257.0, 0.011499841555804767
258.0, 0.014401608367958355
259.0, 0.015870541806161965
260.0, 0.01627682235308045
261.0, 0.016060991609033803
262.0, 0.014709533272012628
263.0, 0.012947425356155026
264.0, 0.013214611624102288
265.0, 0.022226196128169583
266.0, 0.023465530240618232
267.0, 0.02043209294654438
268.0, 0.018977895206271852
269.0, 0.02185519652545423
270.0, 0.02280760419042571
271.0, 0.028363367538279
272.0, 0.027565698621456292
273.0, 0.018605156373236016
274.0, 0.02183136672643424
275.0, 0.029190097162940857
276.0, 0.03523146212715449
277.0, 0.0373297384668502
278.0, 0.035393168830736725
279.0, 0.034565879122773
280.0, 0.039196109112510875
281.0, 0.04313869805744151
282.0, 0.04276518511876906
283.0, 0.041767387320654964
284.0, 0.04351140355651789
285.0, 0.04761434355215302
286.0, 0.04944620816863229
287.0, 0.04759212739602351
288.0, 0.05044186611189422
289.0, 0.05249512259526273
290.0, 0.05455186070332728
291.0, 0.05725029987429709
292.0, 0.058682471128268285
293.0, 0.06028974077713408
294.0, 0.057408847744968385
295.0, 0.05426124871302786
296.0, 0.05618042035693094
297.0, 0.058333805578798935
298.0, 0.0571161910950169
299.0, 0.05806654063555215
300.0, 0.06016043518795525
301.0, 0.061566766429570735
302.0, 0.062256097957971865
303.0, 0.06485934037960299
304.0, 0.06723415460816644
305.0, 0.06844639288445611
306.0, 0.0711924546918834
307.0, 0.07234350814395621
308.0, 0.07044584688208949
309.0, 0.07356315676615655
310.0, 0.08357499566272154
311.0, 0.08813092847795544
312.0, 0.08979308093270405
313.0, 0.09067348280024516
314.0, 0.09446002666057848
315.0, 0.10200098662994364
316.0, 0.10342470565745346
317.0, 0.10843823278135048
318.0, 0.11176196602821453
319.0, 0.11568147170305153
320.0, 0.12878561756598547
321.0, 0.12779842884115164
322.0, 0.12564612211410817
323.0, 0.12761835860985676
324.0, 0.13303797073627913
325.0, 0.13924281069673514
326.0, 0.1392376743488528
327.0, 0.13817734669408113
328.0, 0.13819309439084526
329.0, 0.13893053279649573
330.0, 0.13969397301922243
331.0, 0.13954589719938218
332.0, 0.1375943868602515
333.0, 0.1332285530450687
334.0, 0.12706723173328882
335.0, 0.12772286963928284
336.0, 0.12544005249118378
337.0, 0.119593503110651
338.0, 0.1134217008884956
339.0, 0.10930690382820962
340.0, 0.10491600713525452
341.0, 0.10323977677189582
342.0, 0.1018334840936342
343.0, 0.09765776135346683
344.0, 0.09250291509959704
345.0, 0.0877582308817283
346.0, 0.08361274643858509
347.0, 0.07996042061159299
348.0, 0.07495149060269116
349.0, 0.06449963186980268
350.0, 0.06173243075477653
351.0, 0.06438919829871591
352.0, 0.06254817465144792
353.0, 0.05235556795478999
354.0, 0.05050960325226695
355.0, 0.048146910337529915
356.0, 0.04292639997291499
357.0, 0.0377119391067515
358.0, 0.03653918468252303
359.0, 0.03774018176964972
360.0, 0.0363636642567039
361.0, 0.03207293442819789
362.0, 0.02786939825352622
363.0, 0.02780198050596476
364.0, 0.028379456703966834
365.0, 0.023036581572428882
366.0, 0.020249022317383694
367.0, 0.024025968838124738
368.0, 0.018868912980095222
369.0, 0.018580251698566464
370.0, 0.02021656789812312
371.0, 0.017916725852405724
372.0, 0.009159650588937784
373.0, 0.009381401028448463
374.0, 0.011420569136891367
375.0, 0.012207621743294409
376.0, 0.010748893795075945
377.0, 0.00826401528666411
378.0, 0.008780578818904835
379.0, 0.010496710800237232
380.0, 0.007464836635168408
381.0, 0.0032411305150362654
382.0, 0.004702556595844039
383.0, 0.00023384336208189644
384.0, 0.004152766378177905
385.0, 0.0040220994618480966
386.0, 0.0008951087519929301
387.0, 0.00436986771830111
388.0, 0.0030849626708264054
389.0, 0.001243566731140541
390.0, 0.0020215503403649623
391.0, 0.00459458512394313
392.0, 0.0013698707473471692
393.0, 0.0022273020562619157
394.0, 0.00533993580417432
395.0, 0.00694186322105692
396.0, 0.005425131371137697
397.0, 8.877639749678626e-05
398.0, 0.003084597502591142
399.0, 0.008892202037310656
400.0, 0.012437096760668951
401.0, 0.010862531870013202
402.0, 0.005445474557570921
403.0, 0.004884125553224931
404.0, 0.005625079645940554
405.0, 0.004899749231871967
406.0, 0.0013975114745801334
407.0, 0.004499820708920283
408.0, 0.0028505356736136574
409.0, 0.004562254777510936
410.0, 0.007498893801902733
411.0, 0.008836302737309712
412.0, 0.01636733098272035
413.0, 0.02009172906145059
414.0, 0.027297586038341756
415.0, 0.03348667378956356
416.0, 0.03500665578294381
417.0, 0.039382592875596395
418.0, 0.04106920759414047
419.0, 0.05211150081146381
420.0, 0.06780955281919974
421.0, 0.07857954827643251
422.0, 0.0808064890819434
423.0, 0.09452263176460746
424.0, 0.1066409753978095
425.0, 0.11788292273724069
426.0, 0.13310870217638912
427.0, 0.15231807588097956
428.0, 0.15958990239112633
429.0, 0.17618469450060986
430.0, 0.19725365142317589
431.0, 0.21145846196716983
432.0, 0.2249382809208825
433.0, 0.2515072499576874
434.0, 0.2776716940089644
435.0, 0.2987702257897987
436.0, 0.3177799696186709
437.0, 0.3391202223062981
438.0, 0.3662790612736993
439.0, 0.3920338855192552
440.0, 0.41611293819628226
441.0, 0.4409761054103346
442.0, 0.4679365715109186
443.0, 0.49315187942577743
444.0, 0.5237053759746217
445.0, 0.5517298970174564
446.0, 0.5732312511737395
447.0, 0.5967179411832948
448.0, 0.629404156530161
449.0, 0.651511336033048
450.0, 0.6726894435673988
451.0, 0.6968188287369022
452.0, 0.7140031620110063
453.0, 0.731666587092262
454.0, 0.7450730838090533
455.0, 0.7570698587925413
456.0, 0.7695033864388887
457.0, 0.7807258932979625
458.0, 0.7875446546634954
459.0, 0.7915148572788756
460.0, 0.796817769913928
461.0, 0.8046847261276977
462.0, 0.8112969858812044
463.0, 0.8025952851506569
464.0, 0.8111683897132946
465.0, 0.8181918098649741
466.0, 0.8241019749636447
467.0, 0.8395394686759441
468.0, 0.8477349614966063
469.0, 0.8550241951497877
470.0, 0.8748141111458052
471.0, 0.8956807703461277
472.0, 0.9080964770530491
473.0, 0.932887722364331
474.0, 0.9469489150608356
475.0, 0.961976628156344
476.0, 0.9759127664268483
477.0, 0.9835762913347088
478.0, 0.990393299131209
479.0, 0.9983051579062361
480.0, 0.9983454363478836
481.0, 0.9945133182398267
482.0, 0.989775718800588
483.0, 0.9785113093254235
484.0, 0.9455825105448282
485.0, 0.9216160149166694
486.0, 0.8910662058672255
487.0, 0.8557490006975205
488.0, 0.8297339655162628
489.0, 0.7850127934679516
490.0, 0.7375544312732342
491.0, 0.6965098092078806
492.0, 0.6612300606154197
493.0, 0.6248143066115063
494.0, 0.5808851936810862
495.0, 0.54806939693066
496.0, 0.5122415498688837
497.0, 0.47434243972858187
498.0, 0.4418716754183578
499.0, 0.4096004785408061
500.0, 0.3731569283063066
501.0, 0.34462998029799086
502.0, 0.3197995466924597
503.0, 0.29478575014021974
504.0, 0.2707024095910197
505.0, 0.24925000317766052
506.0, 0.2288348195233225
507.0, 0.20681539274383143
508.0, 0.1886976967637395
509.0, 0.1779170692319964
510.0, 0.15619808601316712
511.0, 0.1408706925066752
512.0, 0.1260286047736933
513.0, 0.1132186627689766
514.0, 0.10505511866280619
515.0, 0.09330261515318747
516.0, 0.08299874544070522
517.0, 0.07212221649048813
518.0, 0.06280473962566613
519.0, 0.05686471598832139
520.0, 0.052863586356948704
521.0, 0.04105950135953373
522.0, 0.03798531362433604
523.0, 0.03569512147123166
524.0, 0.030894457780304616
525.0, 0.027637758584502934
526.0, 0.022226775087253514
527.0, 0.02099222620682933
528.0, 0.0161495768831205
529.0, 0.01242859275700513
530.0, 0.012620600009888884
531.0, 0.007472140575067473
532.0, 0.006295458479873146
533.0, 0.010908358889643541
534.0, 0.01190664131733846
535.0, 0.006757565078322035
536.0, 0.0024895717656446582
537.0, 0.006079162047725257
538.0, 0.0019265348119300836
539.0, 0.00087857745457101
540.0, 0.0003765566131099396
541.0, 0.003938112638340799
542.0, 0.009013883753928947
543.0, 0.001365974943909454
544.0, 0.002808236702843384
545.0, 0.003842285578447086
546.0, 0.000834722648898354
547.0, 0.0007029041929431994
548.0, 0.001570453777622968
549.0, 0.0041038442506580045
550.0, 0.005351680535324393
551.0, 0.005025831247657669
552.0, 0.00482860083373548
553.0, 0.006147129012475208
554.0, 0.0010312558963687334
555.0, 0.0032361558756754676
556.0, 0.003824098254505505
557.0, 4.0661450431025346e-05
558.0, 0.0034762013298562685
559.0, 0.0023413576623211997
560.0, 0.001729310605341104
561.0, 0.0031366665055946523
562.0, 0.006729468487753178
563.0, 0.007895322119628028
564.0, 0.009328153013659288
565.0, 0.007886526808920359
566.0, 0.009018933681234931
567.0, 0.011618678236425664
568.0, 0.012076378082197395
569.0, 0.011611580404556265
570.0, 0.019035413132363337
571.0, 0.014365933570346712
572.0, 0.009202238854248214
573.0, 0.009672215634054902
574.0, 0.013487564692978219
575.0, 0.017270458339449152
576.0, 0.015321090657554909
577.0, 0.015019400469952666
578.0, 0.01714937845752232
579.0, 0.018325033621278183
580.0, 0.015058283347983025
581.0, 0.009078595426324648
582.0, 0.013245829920714053
583.0, 0.01682541319010912
584.0, 0.01766054905228892
585.0, 0.01782570050865242
586.0, 0.015953088446582307
587.0, 0.01538882783442965
588.0, 0.016102739196123244
589.0, 0.015123096766164936
590.0, 0.014009670178756754
591.0, 0.015633617383705833
592.0, 0.016688895124728473
593.0, 0.01169937160840268
594.0, 0.011469692401257028
595.0, 0.014855429201183051
596.0, 0.013861721273578372
597.0, 0.007844040943026062
598.0, 0.014893109079922105
599.0, 0.00960114310197683
600.0, 0.0030231189788302425
601.0, 0.002084351441191754
602.0, 0.0051496789527196935
603.0, 0.006786419822321504
604.0, 0.004816800488502257
605.0, 0.006424578100339881
606.0, 0.007748486205378738
607.0, 0.005203933383374011
608.0, 0.002019289765025751
609.0, 0.004264310985504144
610.0, 0.0035574504248192325
611.0, 0.002650801529339625
612.0, 0.0028664397915001342
613.0, 0.0021430883822590686
614.0, 0.0005442246532229579
615.0, 0.0012243726268931568
616.0, 0.002096393663041135
617.0, 0.0040957093544413585
618.0, 0.0030003605933558307
619.0, 0.0005068511236528321
620.0, 0.0019855837754492256
621.0, 0.0020212111887383233
622.0, 0.0005018952883052859
623.0, 0.00014576343650514586
624.0, 0.0006054269460374556
625.0, 0.0018964648421019026
626.0, 0.005580915150865489
627.0, 0.002237961064313233
628.0, 0.0022775567019694192
629.0, 0.002933790487228432
630.0, 0.004153929456189072
631.0, 0.006004931184324112
632.0, 0.004162489697142224
633.0, 0.0011840484976987228
634.0, 0.0031551477680043585
635.0, 0.005640766390563908
636.0, 0.0051163846364475135
637.0, 0.0034863160344642055
638.0, 0.005732834933577155
639.0, 0.006519013612230825
640.0, 0.004595775393178998
641.0, 0.0041277508108092074
642.0, 0.006823940841636643
643.0, 0.01065616905226397
644.0, 0.01227780945741435
645.0, 0.010420100734675055
646.0, 0.00930560630034506
647.0, 0.010389362354206183
648.0, 0.01211991829878147
649.0, 0.011539952322157442
650.0, 0.008108182593565539
651.0, 0.010580934534222536
652.0, 0.011270156273311816
653.0, 0.011270450471580292
654.0, 0.01138178004609283
655.0, 0.01009793730699229
656.0, 0.010529781704707128
657.0, 0.015014793739329653
658.0, 0.011939982301298351
659.0, 0.0078382613505524
660.0, 0.005812104147683827
661.0, 0.0035552001360522226
662.0, 0.009675503388533024
663.0, 0.010659557325239473
664.0, 0.009568968777654334
665.0, 0.010532345522081316
666.0, 0.011518052546203764
667.0, 0.00956763570803879
668.0, 0.009852314848443405
669.0, 0.006514242125020617
670.0, 0.0040075193630319484
671.0, 0.0024670261201686773
672.0, 0.0034056870505495703
673.0, 0.0075727751265793845
674.0, 0.007244766137111167
675.0, 0.0058726032052210525
676.0, 0.005685354925946328
677.0, 0.004277750631365911
678.0, 0.0017361167192523922
679.0, 0.0010726527356627806
680.0, 0.0005746068343778158
681.0, 0.0030371408044665158
682.0, 0.0010222507439255387
683.0, 0.0009772931939865362
684.0, 0.00434155207491992
685.0, 0.00499027656526365
686.0, 0.0010207343890188607
687.0, 0.0003437623746073657
688.0, 0.0023994892642218227
689.0, 0.0017249088313418617
690.0, 0.0010950207754325772
691.0, 0.006040622169695379
692.0, 0.003192512137707172
693.0, 0.004556149424172348
694.0, 0.006876503111098245
695.0, 0.006604701183581424
696.0, 0.008329664072925912
697.0, 0.008024575921678765
698.0, 0.010240228926108656
699.0, 0.010936772760587235
700.0, 0.009388679328851905
701.0, 0.0076255407447761514
702.0, 0.007123489146191202
703.0, 0.00753139834395504
704.0, 0.009083759655859669
705.0, 0.004832374581545021
706.0, 0.0023505648874501696
707.0, 0.005571927716498818
708.0, 0.009532159868709474
709.0, 0.011021831274869555
710.0, 0.010248036308582596
711.0, 0.004475691717412115
712.0, 0.009869190480869509
713.0, 0.00821042039633064
714.0, 0.010012809306625273
715.0, 0.008859519513908332
716.0, 0.008965697709462726
717.0, 0.010527945434012592
718.0, 0.010120193786810356
719.0, 0.01232542728436311
720.0, 0.011169449367589396
721.0, 0.014313485547447852
722.0, 0.01417531074669168
723.0, 0.008658477387634929
724.0, 0.011582517581398855
725.0, 0.008283094820027707
726.0, 0.008351664852189864
727.0, 0.009383951903275798
728.0, 0.008303773620888858
729.0, 0.01011745423681633
730.0, 0.011079530873141515
731.0, 0.011283388404900386
732.0, 0.012119993800342852
733.0, 0.011736308260981248
734.0, 0.009702905423079732
735.0, 0.008401308109229903
736.0, 0.010824541123980326
737.0, 0.012364219253798105
738.0, 0.014337886750633208
739.0, 0.014489304687901149
740.0, 0.015500081354383166
741.0, 0.016984574454076404
742.0, 0.014531927035673789
743.0, 0.018939426228488477
744.0, 0.020099277914725967
745.0, 0.02002079398117054
746.0, 0.017681435755630633
747.0, 0.016537780182810654
748.0, 0.021410450395027293
749.0, 0.02506079536152552
750.0, 0.019961086756726847
751.0, 0.019714765243000868
752.0, 0.02218715178893171
753.0, 0.025826316121192575
754.0, 0.028632287756263426
755.0, 0.027232492130455414
756.0, 0.027563602479945527
757.0, 0.026704573813796848
758.0, 0.02537573526796572
759.0, 0.026600912288125726
760.0, 0.028307495177343392
761.0, 0.028166557447853104
762.0, 0.032086317244464584
763.0, 0.030087581269391053
764.0, 0.028189569821670694
765.0, 0.03060433887318094
766.0, 0.031552232291374105
767.0, 0.03133308056316971
768.0, 0.03584774845126383
769.0, 0.032056270210935
770.0, 0.032318481829450754
771.0, 0.03020511786991862
772.0, 0.029109577778657955
773.0, 0.03038288500098527
774.0, 0.030398590802468498
775.0, 0.026791216931816693
776.0, 0.022199539550014448
777.0, 0.02404820785472513
778.0, 0.027297826385462885
779.0, 0.027902299954416857
780.0, 0.025525248755464525
781.0, 0.02266561968418157
782.0, 0.023605532213559214
783.0, 0.02298242501709271
784.0, 0.024775175094933106
785.0, 0.02028535815793992
786.0, 0.015924958821514984
787.0, 0.01913932655003331
788.0, 0.02358193658848536
789.0, 0.02323672007903143
790.0, 0.019718302604063247
791.0, 0.016356001899360175
792.0, 0.01229115588642713
793.0, 0.01025094039450909
794.0, 0.009997718246611043
795.0, 0.0059192692995610995
796.0, 0.009654497989918055
797.0, 0.00782604967601811
798.0, 0.004674777015240925
799.0, 0.005345977398782949
800.0, 0.006122326677449402
801.0, 0.0030733514941886004
802.0, 0.0029006205632233066
803.0, 0.0013725981954335407
804.0, 0.003434729790206319
805.0, 0.0016436294750150184
806.0, 0.00042865996865835976
807.0, 0.0007035113983740629
808.0, 0.0018972051189817488
809.0, 0.001652963642100401
810.0, 0.002552653890514154
811.0, 0.0016165335834429655
812.0, 0.0017316087329392752
813.0, 0.000659010592235163
814.0, 0.001583051395184041
815.0, 0.001405654472084228
816.0, 0.000911355487230397
817.0, 0.0007320802849558323
818.0, 0.0034543026854093662
819.0, 0.003548580526664348
820.0, 0.001670824500369627
821.0, 0.0005573425567446715
822.0, 0.0013588109586749845
823.0, 0.002086405387477856
824.0, 0.003710372401274969
825.0, 0.001653783646280148
826.0, 0.0011032934004364598
827.0, 0.0032090253933832005
828.0, 0.0041320993475411115
829.0, 0.00038819322561409804
830.0, 0.0006842256474614164
831.0, 0.00018283603863426383
832.0, 0.0005690523953076817
833.0, 0.0023404187291842524
834.0, 0.006348132374379348
835.0, 0.006966328927346801
836.0, 0.005050246862585383
837.0, 0.005864232938250287
838.0, 0.005433762788248787
839.0, 0.004270166160123672
840.0, 0.004943691637100706
841.0, 0.004470961101622316
842.0, 0.0042232341048894576
843.0, 0.006778203847959308
844.0, 0.001525592239171241
845.0, 0.0073106903009622975
846.0, 0.0034320412267646217
847.0, 0.006725954603497204
848.0, 0.01089004802211496
849.0, 0.009468052651094478
850.0, 0.00947876150709085
851.0, 0.009071086155973915
852.0, 0.008835574565323885
853.0, 0.008512818110395828
854.0, 0.005669971753712432
855.0, 0.0011027725917897298
856.0, 0.0028962374586474823
857.0, 0.01151875242761791
858.0, 0.009715149974959807
859.0, 0.014572177194496414
860.0, 0.009652361669753527
861.0, 0.008761155881333322
862.0, 0.011030344290884697
863.0, 0.010288086208156116
864.0, 0.00768605565437056
865.0, 0.008235766730199403
866.0, 0.008569369364974938
867.0, 0.009141507311477125
868.0, 0.00937921343607109
869.0, 0.008664065886208877
870.0, 0.00911763190335866
871.0, 0.012666386045364717
872.0, 0.015638174966172515
873.0, 0.012608197879508957
874.0, 0.008571689961917605
875.0, 0.01411312612302932
876.0, 0.011516332646393962
877.0, 0.010025818187882254
878.0, 0.013277433418677936
879.0, 0.011829484396107402
880.0, 0.010976304919121837
881.0, 0.016415604032157055
882.0, 0.009942586664788903
883.0, 0.013077618415495354
884.0, 0.017362194924953084
885.0, 0.017485948603034776
886.0, 0.016659015234148127
887.0, 0.014805358728962915
888.0, 0.012888331582141
889.0, 0.0119983047470875
890.0, 0.0119185492629484
891.0, 0.01218175346821867
892.0, 0.013207124792637272
893.0, 0.01317755965409301
894.0, 0.011629948103839141
895.0, 0.013201384165970276
896.0, 0.014385694840347286
897.0, 0.01533985560228479
898.0, 0.009378435972130141
899.0, 0.009356577364959644
900.0, 0.013039301046289512
901.0, 0.011726510170121156
902.0, 0.010446476056683725
903.0, 0.01360809621056072
904.0, 0.009513713394198679
905.0, 0.011874367302459585
906.0, 0.009306066835902928
907.0, 0.00819712087618525
908.0, 0.010901725513177175
909.0, 0.01185135177911216
910.0, 0.012741907276155033
911.0, 0.01239575391867579
912.0, 0.01159133389613011
913.0, 0.010257609063137852
914.0, 0.008959603812144739
915.0, 0.006002558873363045
916.0, 0.006151081555305606
917.0, 0.010540884126867815
918.0, 0.006178198942090849
919.0, 0.008047752180946064
920.0, 0.006903039360648118
921.0, 0.009289273897150114
922.0, 0.009478207401935767
923.0, 0.005537131994982645
924.0, 0.003148698027758243
925.0, 0.004818569104588272
926.0, 0.0026836461022164398
927.0, 0.0033149989159895086
928.0, 0.0008166124495009509
929.0, 0.0004192619402165957
930.0, 0.003115148434480541
931.0, 0.002567093535074289
932.0, 0.001435040240193142
933.0, 0.0020754780783606005
934.0, 0.003510605826044791
935.0, 0.0017848741681420698
936.0, 9.343769123991571e-05
937.0, 0.00020789208008990652
938.0, 0.0004730792590987198
939.0, 0.00176093789608815
940.0, 0.0012100799418779118
941.0, 0.005931511976748564
942.0, 0.0035419835029359883
943.0, 0.003587869929775215
944.0, 0.0011505717973197568
945.0, 0.0019505016759877492
946.0, 0.0012933962257111208
947.0, 0.00012483241490619345
948.0, 0.00042341530947942604
949.0, 0.0010753468396616692
950.0, 0.006183244253072405
951.0, 0.0003236842989366001
952.0, 0.002325330277396942
953.0, 0.004756958890016865
954.0, 0.005218336647114001
955.0, 0.003562202740211868
956.0, 0.0009688660897814616
957.0, 0.002141108979796666
958.0, 0.0012864283373525444
959.0, 0.001863018485225981
960.0, 0.00037616819229162215
961.0, 0.00464060933075987
962.0, 0.00459313720647651
963.0, 0.002984140484353991
964.0, 0.0032222889503059457
965.0, 0.002164578861895682
966.0, 0.00266885447350481
967.0, 0.0006286131553976245
968.0, 0.0061930895252213436
969.0, 0.0029330251249341634
970.0, 0.0023441217724491973
971.0, 0.005022364871914304
972.0, 0.0027382029469484436
973.0, 0.0008968277101153012
974.0, 0.007713239168204504
975.0, 0.007012621204749158
976.0, 0.006362704177900668
977.0, 0.008233577745589575
978.0, 0.00905759017320304
979.0, 0.009306759058464719
980.0, 0.008071328056701839
981.0, 0.007844734299515448
982.0, 0.014304070736139837
983.0, 0.012911298355319022
984.0, 0.009566853212839323
985.0, 0.012950433279000388
986.0, 0.013493082826314576
987.0, 0.011406485768047515
988.0, 0.009823486664013146
989.0, 0.010263190827383166
990.0, 0.012704496908552052
991.0, 0.011990567405760794
992.0, 0.012976802905506315
993.0, 0.012110086819926221
994.0, 0.010358079204843475
995.0, 0.0109830940430802
996.0, 0.011552554541275843
997.0, 0.011204091892206057
998.0, 0.011079881424663015
999.0, 0.010800366057104637
1000.0, 0.013823147067150703
1001.0, 0.006602586991572799
1002.0, 0.008357525661222094
1003.0, 0.007196254747459156
1004.0, 0.006497707422651195
1005.0, 0.005496423819166215
1006.0, 0.005562174427028694
1007.0, 0.011413108630822967
1008.0, 0.01082212626680036
1009.0, 0.006997467886215059
1010.0, 0.009737959101389209
1011.0, 0.01056090345935994
1012.0, 0.011193538856689628
1013.0, 0.00811393324454318
1014.0, 0.00574687674866641
1015.0, 0.007282156126681221
1016.0, 0.006125136180405567
1017.0, 0.0042815402637061935
1018.0, 0.004742441552854012
1019.0, 0.008276950558797921
1020.0, 0.01187606473525246
1021.0, 0.008298373898341772
1022.0, 0.004287229763153076
1023.0, 0.004006344854240746
1024.0, 0.0043104833711844195
1025.0, 0.006669202332418432
1026.0, 0.008754140817618498
1027.0, 0.006044056456722004
1028.0, 0.006423130600572806
1029.0, 0.005107343954011634
1030.0, 0.004798966542457825
1031.0, 0.006766074709763723
1032.0, 0.0063498404503202184
1033.0, 0.0018198331339928358
1034.0, 0.00123482512151508
1035.0, 0.005356868778715474
1036.0, 0.002102737821903439
1037.0, 0.0003737085215415354
1038.0, 0.0025801632662272025
1039.0, 0.003712591992174613
1040.0, 0.002982058112547767
1041.0, 0.0029274425382679777
1042.0, 0.0039765168431385575
1043.0, 0.005219767780453765
1044.0, 0.0011055590808495923
1045.0, 0.002458168960766415
1046.0, 0.002308420718944429
1047.0, 0.004100106360416835
1048.0, 0.009810270447863223
1049.0, 0.007523328280203264
1050.0, 0.00559198598184908
1051.0, 0.013807170341295036
1052.0, 0.015748644480813017
1053.0, 0.012705527025448452
1054.0, 0.0198578986448376
1055.0, 0.017704846755393938
1056.0, 0.023073821263269678
1057.0, 0.02246523870531109
1058.0, 0.02104983339972167
1059.0, 0.024224094745079427
1060.0, 0.02656955432172232
1061.0, 0.026456293277825386
1062.0, 0.030492911507870993
1063.0, 0.031040623528288198
1064.0, 0.030894047652828074
1065.0, 0.03080621331905974
1066.0, 0.03939288415120695
1067.0, 0.037649892201073905
1068.0, 0.03355633130007547
1069.0, 0.03897460753677545
1070.0, 0.044158137044302784
1071.0, 0.041858207662061254
1072.0, 0.04128026325103072
1073.0, 0.04113514998534551
1074.0, 0.03663692794384412
1075.0, 0.04219024800205526
1076.0, 0.046418499559233134
1077.0, 0.04493716604112345
1078.0, 0.04271440435280325
1079.0, 0.041333763484822456
1080.0, 0.04163839914472798
1081.0, 0.046029470093158234
1082.0, 0.042050681912314494
1083.0, 0.046776631004805606
1084.0, 0.04467834934643925
1085.0, 0.04332349409518823
1086.0, 0.0468381474704256
1087.0, 0.051463458552096365
1088.0, 0.05101114998421501
1089.0, 0.047884422068832415
1090.0, 0.04741872282563891
1091.0, 0.04280663902623212
1092.0, 0.04782715416145117
1093.0, 0.04181919692830105
1094.0, 0.047704452689523426
1095.0, 0.051685117565917954
1096.0, 0.04891520006668072
1097.0, 0.047564978752399005
1098.0, 0.04831194109286818
1099.0, 0.04841204054586749
1100.0, 0.05056891163884879
1101.0, 0.04783233276221769
1102.0, 0.0496666282778558
1103.0, 0.048858761013393634
1104.0, 0.04768762783036225
1105.0, 0.04822068486455604
1106.0, 0.04783900422531133
1107.0, 0.04911979404712124
1108.0, 0.05063891006326332
1109.0, 0.0466794270567665
1110.0, 0.04022364574059579
1111.0, 0.03984038913781296
1112.0, 0.03566281411267409
1113.0, 0.04255415545868146
1114.0, 0.04547380234706946
1115.0, 0.04030601041336957
1116.0, 0.04525651341930343
1117.0, 0.04026131039879119
1118.0, 0.039801664864358155
1119.0, 0.039618137352028626
1120.0, 0.0409106057815368
1121.0, 0.04140581618697779
1122.0, 0.043015527963841664
1123.0, 0.0426130910502348
1124.0, 0.03905334623015531
1125.0, 0.043256535875919704
1126.0, 0.03491949061315597
1127.0, 0.03395385772381134
1128.0, 0.03682585781437393
1129.0, 0.039744775221084834
1130.0, 0.04187451665149905
1131.0, 0.03482458639563245
1132.0, 0.034856865045791975
1133.0, 0.035513145959596905
1134.0, 0.029665718957025345
1135.0, 0.03166992763967953
1136.0, 0.02914459863726863
1137.0, 0.02597143820947383
1138.0, 0.026456809195975404
1139.0, 0.025903173717508655
1140.0, 0.023580995931050116
1141.0, 0.024047635289608432
1142.0, 0.023997438524735716
1143.0, 0.023530103233955435
1144.0, 0.022028039272730844
1145.0, 0.014562334897232814
1146.0, 0.017402474082165432
1147.0, 0.020925802095310555
1148.0, 0.019981625730183347
1149.0, 0.019375279794856037
1150.0, 0.017658142494289087
1151.0, 0.013162609021413765
1152.0, 0.011547597388135567
1153.0, 0.01041337468255149
1154.0, 0.013896078653822065
1155.0, 0.01060347610157482
1156.0, 0.009436113472212253
1157.0, 0.010330135324272481
1158.0, 0.010584594780611224
1159.0, 0.007939451522932758
1160.0, 0.008098893442325807
1161.0, 0.009224392641986724
1162.0, 0.00489976190504498
1163.0, 0.002008929435874822
1164.0, 0.003805171091272145
1165.0, 0.006059994892800156
1166.0, 0.001009693662558272
1167.0, 0.0007045314523264012
1168.0, 0.004055097547935392
1169.0, 0.0032211065559693787
1170.0, 0.0016368362640725583
1171.0, 0.0010268616639024003
1172.0, 0.003459328092066594
1173.0, 0.0009580739206378482
1174.0, 0.002044642258272499
1175.0, 0.0006881381205306328
1176.0, 0.0012258058780485654
1177.0, 0.0007749881065939725
1178.0, 0.0017368464196719036
1179.0, 0.006363907627025294
1180.0, 0.0028917896739634723
1181.0, 0.00042596014200634713
1182.0, 0.0005111386285429582
1183.0, 0.00047680335047530864
1184.0, 0.0025233518230400776
1185.0, 0.005063092407065188
1186.0, 0.003561810989095353
1187.0, 0.0010094901566140338
1188.0, 0.00259469083801853
1189.0, 0.0008030243870138848
1190.0, 0.004748309087284041
1191.0, 0.0020275986151435024
1192.0, 0.0006197508411855345
1193.0, 0.00250171776990388
1194.0, 0.0024110605101037874
1195.0, 0.0014558948075090988
1196.0, 0.0027001307957241786
1197.0, 0.0035329129793575534
1198.0, 0.0024967658055618045
1199.0, 0.0006169555156799737
1200.0, 0.0008405213347043526
1201.0, 0.0004614102057068241
1202.0, 0.005350393004058256
1203.0, 0.004076822472110872
1204.0, 0.0034113737989667748
1205.0, 0.005645466526513528
1206.0, 0.005745245735918973
1207.0, 0.004661385622559332
1208.0, 0.005189757294410319
1209.0, 0.0042797633861010095
1210.0, 0.0029295910406248174
1211.0, 0.00647136697417263
1212.0, 0.003627524956259067
1213.0, 0.006976842124120157
1214.0, 0.005959452394756376
1215.0, 0.008391920212611696
1216.0, 0.008993121179796513
1217.0, 0.0103450686909799
1218.0, 0.008922732040665795
1219.0, 0.00855613983867773
1220.0, 0.013937035755749108
1221.0, 0.014841292497006017
1222.0, 0.010551157366713729
1223.0, 0.00858589372725539
1224.0, 0.011300757207743917
1225.0, 0.011740940705071704
1226.0, 0.013968718486183166
1227.0, 0.015413410252258838
1228.0, 0.014643007309079425
1229.0, 0.012471673923125497
1230.0, 0.013469209545732126
1231.0, 0.013643352006424107
1232.0, 0.011950316487975614
1233.0, 0.013564989034728303
1234.0, 0.014550390933218816
1235.0, 0.012477799434496607
1236.0, 0.009021235755220748
1237.0, 0.010389980336407739
1238.0, 0.015868934525110803
1239.0, 0.013828687714168108
1240.0, 0.009352766881797963
1241.0, 0.011934507401353404
1242.0, 0.014609660502292858
1243.0, 0.012694042053523756
1244.0, 0.008223379663685604
1245.0, 0.007759614887157435
1246.0, 0.01254563697616553
1247.0, 0.012889274977955327
1248.0, 0.011626342263235626
1249.0, 0.008964258335400198
1250.0, 0.012859618994453419
1251.0, 0.015461537858583762
1252.0, 0.010379950203532346
1253.0, 0.008507730490727687
1254.0, 0.008051126174815886
1255.0, 0.00634247977752905
1256.0, 0.007952577115543185
1257.0, 0.011000500031153994
1258.0, 0.01069813819810732
1259.0, 0.0112198836829785
1260.0, 0.012626277285685751
1261.0, 0.005643243766036095
1262.0, 0.007921089105650578
1263.0, 0.015801902115519455
1264.0, 0.01260220779960211
1265.0, 0.01035325455919776
1266.0, 0.01014282215084166
1267.0, 0.00936942143009843
1268.0, 0.0059944833025032005
1269.0, 0.00862241128171093
1270.0, 0.013655753983758645
1271.0, 0.014147295586260437
1272.0, 0.011129380903217845
1273.0, 0.008246252051134783
1274.0, 0.008261808009636717
1275.0, 0.009880697154319175
1276.0, 0.011991583789716004
1277.0, 0.01339743602582999
1278.0, 0.00981068382162096
1279.0, 0.006534545269127673
1280.0, 0.0055914591046455405
1281.0, 0.005144109937087876
1282.0, 0.008861028292907717
1283.0, 0.007202117925870393
1284.0, 0.0074286680481145985
1285.0, 0.009557246220755624
1286.0, 0.007361004451760232
1287.0, 0.006504587332948663
1288.0, 0.007167056199115475
1289.0, 0.005632725156966468
1290.0, 0.005289403945918815
1291.0, 0.0065597661677152365
1292.0, 0.0030179475214614907
1293.0, 0.009436221338743228
1294.0, 0.0020289655657898796
1295.0, 0.0012856890528209098
1296.0, 0.006448403877915528
1297.0, 0.006424447338366064
1298.0, 0.006480053978166871
1299.0, 0.004896663151700903
1300.0, 0.005295923379384533
1301.0, 0.007224275475999736
1302.0, 0.003935857502522563
1303.0, 0.006203553969968599
1304.0, 0.003940798246305111
1305.0, 0.004905989485306037
1306.0, 0.0011084779298530416
1307.0, 0.004447947932859573
1308.0, 0.0032813985446927965
1309.0, 0.007896360991585024
1310.0, 0.00624673435215757
1311.0, 0.0012918295200749247
1312.0, 3.132895785025957e-05
1313.0, 0.0037747128643699822
1314.0, 0.0028413854237753842
1315, 0.0
1316, 0.0
1317, 0.0
1318, 0.0
1319, 0.0
1320, 0.0
1321, 0.0
1322, 0.0
1323, 0.0
1324, 0.0
1325, 0.0
1326, 0.0
1327, 0.0
1328, 0.0
1329, 0.0
1330, 0.0
1331, 0.0
1332, 0.0
1333, 0.0
1334, 0.0
1335, 0.0
1336, 0.0
1337, 0.0
1338, 0.0
1339, 0.0
1340, 0.0
1341, 0.0
1342, 0.0
1343, 0.0
1344, 0.0
1345, 0.0
1346, 0.0
1347, 0.0
1348, 0.0
1349, 0.0
1350, 0.0
1351, 0.0
1352, 0.0
1353, 0.0
1354, 0.0
1355, 0.0
1356, 0.0
1357, 0.0
1358, 0.0
1359, 0.0
1360, 0.0
1361, 0.0
1362, 0.0
1363, 0.0
1364, 0.0
1365, 0.0
1366, 0.0
1367, 0.0
1368, 0.0
1369, 0.0
1370, 0.0
1371, 0.0
1372, 0.0
1373, 0.0
1374, 0.0
1375, 0.0
1376, 0.0
1377, 0.0
1378, 0.0
1379, 0.0
1380, 0.0
1381, 0.0
1382, 0.0
1383, 0.0
1384, 0.0
1385, 0.0
1386, 0.0
1387, 0.0
1388, 0.0
1389, 0.0
1390, 0.0
1391, 0.0
1392, 0.0
1393, 0.0
1394, 0.0
1395, 0.0
1396, 0.0
1397, 0.0
1398, 0.0
1399, 0.0
1400, 0.0
1401, 0.0
1402, 0.0
1403, 0.0
1404, 0.0
1405, 0.0
1406, 0.0
1407, 0.0
1408, 0.0
1409, 0.0
1410, 0.0
1411, 0.0
1412, 0.0
1413, 0.0
1414, 0.0
1415, 0.0
1416, 0.0
1417, 0.0
1418, 0.0
1419, 0.0
1420, 0.0
1421, 0.0
1422, 0.0
1423, 0.0
1424, 0.0
1425, 0.0
1426, 0.0
1427, 0.0
1428, 0.0
1429, 0.0
1430, 0.0
1431, 0.0
1432, 0.0
1433, 0.0
1434, 0.0
1435, 0.0
1436, 0.0
1437, 0.0
1438, 0.0
1439, 0.0
1440, 0.0
1441, 0.0
1442, 0.0
1443, 0.0
1444, 0.0
1445, 0.0
1446, 0.0
1447, 0.0
1448, 0.0
1449, 0.0
1450, 0.0
1451, 0.0
1452, 0.0
1453, 0.0
1454, 0.0
1455, 0.0
1456, 0.0
1457, 0.0
1458, 0.0
1459, 0.0
1460, 0.0
1461, 0.0
1462, 0.0
1463, 0.0
1464, 0.0
1465, 0.0
1466, 0.0
1467, 0.0
1468, 0.0
1469, 0.0
1470, 0.0
1471, 0.0
1472, 0.0
1473, 0.0
1474, 0.0
1475, 0.0
1476, 0.0
1477, 0.0
1478, 0.0
1479, 0.0
1480, 0.0
1481, 0.0
1482, 0.0
1483, 0.0
1484, 0.0
1485, 0.0
1486, 0.0
1487, 0.0
1488, 0.0
1489, 0.0
1490, 0.0
1491, 0.0
1492, 0.0
1493, 0.0
1494, 0.0
1495, 0.0
1496, 0.0
1497, 0.0
1498, 0.0
1499, 0.0
1500, 0.0
1501, 0.0
1502, 0.0
1503, 0.0
1504, 0.0
1505, 0.0
1506, 0.0
1507, 0.0
1508, 0.0
1509, 0.0
1510, 0.0
1511, 0.0
1512, 0.0
1513, 0.0
1514, 0.0
1515, 0.0
1516, 0.0
1517, 0.0
1518, 0.0
1519, 0.0
1520, 0.0
1521, 0.0
1522, 0.0
1523, 0.0
1524, 0.0
1525, 0.0
1526, 0.0
1527, 0.0
1528, 0.0
1529, 0.0
1530, 0.0
1531, 0.0
1532, 0.0
1533, 0.0
1534, 0.0
1535, 0.0
1536, 0.0
1537, 0.0
1538, 0.0
1539, 0.0
1540, 0.0
1541, 0.0
1542, 0.0
1543, 0.0
1544, 0.0
1545, 0.0
1546, 0.0
1547, 0.0
1548, 0.0
1549, 0.0
1550, 0.0
1551, 0.0
1552, 0.0
1553, 0.0
1554, 0.0
1555, 0.0
1556, 0.0
1557, 0.0
1558, 0.0
1559, 0.0
1560, 0.0
1561, 0.0
1562, 0.0
1563, 0.0
1564, 0.0
1565, 0.0
1566, 0.0
1567, 0.0
1568, 0.0
1569, 0.0
1570, 0.0
1571, 0.0
1572, 0.0
1573, 0.0
1574, 0.0
1575, 0.0
1576, 0.0
1577, 0.0
1578, 0.0
1579, 0.0
1580, 0.0
1581, 0.0
1582, 0.0
1583, 0.0
1584, 0.0
1585, 0.0
1586, 0.0
1587, 0.0
1588, 0.0
1589, 0.0
1590, 0.0
1591, 0.0
1592, 0.0
1593, 0.0
1594, 0.0
1595, 0.0
1596, 0.0
1597, 0.0
1598, 0.0
1599, 0.0
