30, 0.0
31, 0.0
32, 0.0
33, 0.0
34, 0.0
35, 0.0
36, 0.0
37, 0.0
38, 0.0
39, 0.0
40, 0.0
41, 0.0
42, 0.0
43, 0.0
44, 0.0
45, 0.0
46, 0.0
47, 0.0
48, 0.0
49, 0.0
50, 0.0
51, 0.0
52, 0.0
53.0, 0.0001890997126911624
54.0, 0.0007301520084182113
55.0, 0.0009302690886357746
56.0, 0.0012831866416065853
57.0, 0.0010888550006197884
58.0, 0.0010536523498223351
59.0, 0.0017805206005869518
60.0, 0.0018032955251612688
61.0, 0.001595166190207714
62.0, 0.0011816113139158269
63.0, 0.0006298560201697771
64.0, 0.00020967421512968216
65.0, 0.0006570216777799673
66.0, 0.0004963851615842508
67.0, 0.00028026835679377006
68.0, 0.0007894412638942001
69.0, 0.0026356872582843577
70.0, 0.006170143719333179
71.0, 0.010282134666993207
72.0, 0.01134230708619876
73.0, 0.01012252757146949
74.0, 0.008481864335119983
75.0, 0.008927649723909479
76.0, 0.01236180255119562
77.0, 0.01654891622150256
78.0, 0.018189508578357057
79.0, 0.019513529281593747
80.0, 0.024231506939225912
81.0, 0.030250009456810247
82.0, 0.04269029167431052
83.0, 0.05841958033725075
84.0, 0.06908568221444587
85.0, 0.06714526679660605
86.0, 0.05024781578773251
87.0, 0.036866257748767894
88.0, 0.02887323758617887
89.0, 0.024982420603384164
90.0, 0.02364484412304598
91.0, 0.023677397692463485
92.0, 0.027778845902953757
93.0, 0.027728383643191332
94.0, 0.025298881805982377
95.0, 0.02348959802518624
96.0, 0.025313445996237336
97.0, 0.022782539132873404
98.0, 0.021169289890737065
99.0, 0.02156047463746993
100.0, 0.023120815038405393
101.0, 0.02406937960076692
102.0, 0.021980814727047826
103.0, 0.02179905481685763
104.0, 0.023209564574401587
105.0, 0.02583684124178568
106.0, 0.029901794288516595
107.0, 0.03724997638494722
108.0, 0.05212515460443315
109.0, 0.07248711073177265
110.0, 0.09494700562090054
111.0, 0.11869088066320765
112.0, 0.145578613274722
113.0, 0.1620267911675413
114.0, 0.13972120113694922
115.0, 0.1066604191706371
116.0, 0.07710913465007274
117.0, 0.05646618776225558
118.0, 0.043506606236328946
119.0, 0.03523366127332936
120.0, 0.0286150349915686
121.0, 0.024300679752284362
122.0, 0.02302543309726679
123.0, 0.023794373861093718
124.0, 0.02564670222483098
125.0, 0.02517702835566315
126.0, 0.024549307272845353
127.0, 0.025962242205622994
128.0, 0.03099751021088297
129.0, 0.04232845871862041
130.0, 0.06653258523689053
131.0, 0.0752544595038285
132.0, 0.08185712114495078
133.0, 0.10720282759747286
134.0, 0.07334126705384969
135.0, 0.04982289504938911
136.0, 0.03802651781495821
137.0, 0.03461200437137665
138.0, 0.03604767399434545
139.0, 0.04184453607716656
140.0, 0.04950568149102054
141.0, 0.05774515101058435
142.0, 0.06916077343904893
143.0, 0.0823490667027603
144.0, 0.0913675292415207
145.0, 0.08071159710334498
146.0, 0.06298212450757844
147.0, 0.0473191950341271
148.0, 0.036783638603041985
149.0, 0.03129377150025989
150.0, 0.029135689381594908
151.0, 0.02978170306141357
152.0, 0.03584509775461091
153.0, 0.04416616855560286
154.0, 0.05007934427508478
155.0, 0.04839414927625893
156.0, 0.04004514411668102
157.0, 0.031034803984884025
158.0, 0.024147299315186062
159.0, 0.02054812432423256
160.0, 0.02001013365751413
161.0, 0.021127600529715584
162.0, 0.023422857550562386
163.0, 0.027814405697259084
164.0, 0.03459188652106866
165.0, 0.04400573368749394
166.0, 0.056784482872606165
167.0, 0.07641069187409243
168.0, 0.1080256730102878
169.0, 0.1518254645089463
170.0, 0.20240863171507129
171.0, 0.2466458619092867
172.0, 0.22756075975173826
173.0, 0.17892643535589417
174.0, 0.12862119130006638
175.0, 0.08920068860166222
176.0, 0.06503702450995816
177.0, 0.05166534466085955
178.0, 0.04489311692784231
179.0, 0.040618349634363164
180.0, 0.0353532410443136
181.0, 0.028460850316202307
182.0, 0.02236004061552724
183.0, 0.02016999703773492
184.0, 0.01981943251886816
185.0, 0.01910364370479439
186.0, 0.019335273581376464
187.0, 0.022120881871292145
188.0, 0.025815797204556585
189.0, 0.029599469659423495
190.0, 0.0341932391127601
191.0, 0.03904247840128523
192.0, 0.043786592748229755
193.0, 0.04825740608230221
194.0, 0.04851277184847749
195.0, 0.04783210235572674
196.0, 0.04532550499586226
197.0, 0.04183514889764193
198.0, 0.03849188832341582
199.0, 0.035069066049813614
200.0, 0.033598643247483705
201.0, 0.033438260244326466
202.0, 0.03470521433083533
203.0, 0.03522339628428923
204.0, 0.030913179243921406
205.0, 0.022662890474874478
206.0, 0.014300543480316756
207.0, 0.009543197249701334
208.0, 0.008169331321493093
209.0, 0.008878127064758351
210.0, 0.011575354414185406
211.0, 0.01282924558975361
212.0, 0.014211277896707928
213.0, 0.015638029920492624
214.0, 0.01653465634131315
215.0, 0.016051782816735936
216.0, 0.013464491483832825
217.0, 0.01133803532078336
218.0, 0.009589778398265634
219.0, 0.007954953518991899
220.0, 0.006324141142341235
221.0, 0.0050489848664810435
222.0, 0.0039718512479767955
223.0, 0.0028389184627157565
224.0, 0.0020234309778704358
225.0, 0.0020998514664402027
226.0, 0.003239060599785507
227.0, 0.002602899884973078
228.0, 0.004001627999068413
229.0, 0.005252011237814069
230.0, 0.0068219691624457806
231.0, 0.00932329528588706
232.0, 0.012818196870820142
233.0, 0.01687071460326255
234.0, 0.022383855026944545
235.0, 0.03096069671749207
236.0, 0.040588458265631164
237.0, 0.04801805112900236
238.0, 0.051554057406657944
239.0, 0.052011630661076086
240.0, 0.05318507394132974
241.0, 0.058781735051201434
242.0, 0.07054002626354397
243.0, 0.08884078575414296
244.0, 0.1231720608176809
245.0, 0.17889386623587777
246.0, 0.2571806888680207
247.0, 0.33696687624840305
248.0, 0.38330096602353636
249.0, 0.34995403492455074
250.0, 0.25914190539581744
251.0, 0.17720609287324474
252.0, 0.1167689154204778
253.0, 0.07816925742188391
254.0, 0.05415786387356931
255.0, 0.03755717685264966
256.0, 0.027422937168762863
257.0, 0.02166090556105347
258.0, 0.019439461314460227
259.0, 0.02124341424806841
260.0, 0.027939945342594474
261.0, 0.029927324802286083
262.0, 0.03254632987047822
263.0, 0.034837210321778014
264.0, 0.03644836369959683
265.0, 0.03705116071725466
266.0, 0.03606629692423567
267.0, 0.03215351776203082
268.0, 0.028929438828700915
269.0, 0.027040085137043948
270.0, 0.027350555810744873
271.0, 0.030047576906127808
272.0, 0.03269841552187563
273.0, 0.039993410659755944
274.0, 0.04906143372620572
275.0, 0.06018892809602153
276.0, 0.07416835547005368
277.0, 0.09131710519989665
278.0, 0.10702556678969519
279.0, 0.12382969462931004
280.0, 0.13542236840759708
281.0, 0.13995866851695016
282.0, 0.13710717622734078
283.0, 0.12739865651730478
284.0, 0.1127297144614861
285.0, 0.0971391554016298
286.0, 0.08265783384770177
287.0, 0.0702265866026646
288.0, 0.05968340583035259
289.0, 0.04944851214667919
290.0, 0.042441626716784635
291.0, 0.035365239710121024
292.0, 0.02880742074086682
293.0, 0.02365107197535895
294.0, 0.02001699605300667
295.0, 0.014840069659082753
296.0, 0.011215492842418141
297.0, 0.00710991842089122
298.0, 0.004144799522893547
299.0, 0.0025483204440492004
300.0, 0.0012460557331459962
301.0, 0.0009498399204893454
302.0, 0.0015649707031635926
303.0, 0.002302015000090385
304.0, 0.002931204830203945
305.0, 0.00328446640616755
306.0, 0.0032570354967226493
307.0, 0.0038841423437893027
308.0, 0.003754770058561624
309.0, 0.004552429019007511
310.0, 0.0049217526333758645
311.0, 0.004253979392237438
312.0, 0.004555139250103193
313.0, 0.0033557947685914115
314.0, 0.0029022444426648453
315.0, 0.0025521723587090643
316.0, 0.002023982526423406
317.0, 0.0012941685786019936
318.0, 0.0005644065477853121
319.0, 0.0011808002807369093
320.0, 0.0032500750573726768
321.0, 0.005310194822657392
322.0, 0.007201769655260961
323.0, 0.009519648421943907
324.0, 0.012808970281892349
325.0, 0.016347664970228316
326.0, 0.020306745589069395
327.0, 0.023999397393185698
328.0, 0.02815677951111084
329.0, 0.03349565274268495
330.0, 0.036537328066795535
331.0, 0.037200355948227994
332.0, 0.03629256101904771
333.0, 0.03362240620795361
334.0, 0.029916924881358754
335.0, 0.026410660811920925
336.0, 0.022819039944023827
337.0, 0.018923884229367284
338.0, 0.01653571838115432
339.0, 0.014955722549417698
340.0, 0.013551570308156567
341.0, 0.012297333201282476
342.0, 0.012268640452811407
343.0, 0.011956715997514147
344.0, 0.012627542736635055
345.0, 0.013175812024597512
346.0, 0.013480672524565586
347.0, 0.014757231511033761
348.0, 0.01637757590680857
349.0, 0.019003203402732864
350.0, 0.021329767072343297
351.0, 0.023672262027707624
352.0, 0.02626718554213914
353.0, 0.028943462693681025
354.0, 0.03270354452346487
355.0, 0.0380870692770672
356.0, 0.043833291543786165
357.0, 0.049752958499316685
358.0, 0.056166271797038904
359.0, 0.06355258834506594
360.0, 0.07035816796257689
361.0, 0.07921973653963717
362.0, 0.08740305863520503
363.0, 0.09564891695250659
364.0, 0.10490753112424829
365.0, 0.11503242950953015
366.0, 0.12398632214952861
367.0, 0.13270084561190665
368.0, 0.1408234973476893
369.0, 0.15032443344581634
370.0, 0.162678402915783
371.0, 0.17753191522234107
372.0, 0.19158556241962224
373.0, 0.21103454063268823
374.0, 0.23015891852961348
375.0, 0.2505832454670798
376.0, 0.27328434686368763
377.0, 0.29622712602946766
378.0, 0.32087772680724486
379.0, 0.3426609777135852
380.0, 0.3629809418820818
381.0, 0.380851146552558
382.0, 0.395493240860013
383.0, 0.4070279686691724
384.0, 0.41435907787703063
385.0, 0.4179730643113575
386.0, 0.4177156368394389
387.0, 0.41917294965746227
388.0, 0.42352960300916875
389.0, 0.426525146772756
390.0, 0.43402147694160004
391.0, 0.4559291916641716
392.0, 0.4808303849746369
393.0, 0.5170880954857342
394.0, 0.5694125953881058
395.0, 0.6346889573110716
396.0, 0.710718054581078
397.0, 0.8026909768994712
398.0, 0.8927887158913065
399.0, 0.9622992057673813
400.0, 0.9980738801101172
401.0, 0.993905364709188
402.0, 0.9431167372857565
403.0, 0.8559878392771515
404.0, 0.7681938990635611
405.0, 0.6839576071203882
406.0, 0.6089796295576697
407.0, 0.5490281797158707
408.0, 0.4984963032478868
409.0, 0.45929722309859305
410.0, 0.42185686720530996
411.0, 0.3847648010718088
412.0, 0.349192695308739
413.0, 0.31663816493299335
414.0, 0.28577285049163353
415.0, 0.2539315842845773
416.0, 0.22593935495636114
417.0, 0.20361852727182952
418.0, 0.18389570113744746
419.0, 0.16461816672717727
420.0, 0.1506755506598957
421.0, 0.13639921070703684
422.0, 0.12593013215460672
423.0, 0.11637576032843402
424.0, 0.1070862775762337
425.0, 0.0986408656259973
426.0, 0.09201366610487766
427.0, 0.08719619755011848
428.0, 0.08103234589354526
429.0, 0.07629841309418989
430.0, 0.07191576044332632
431.0, 0.06647227597854187
432.0, 0.06004937093674848
433.0, 0.05704998836057614
434.0, 0.05242682332284391
435.0, 0.047828819489501254
436.0, 0.04402358530070538
437.0, 0.040687486176711446
438.0, 0.03715060629593591
439.0, 0.035096045376150034
440.0, 0.02985260929300394
441.0, 0.02640919009332342
442.0, 0.024209838648003055
443.0, 0.022656481604437877
444.0, 0.021355625199597553
445.0, 0.019687366578930325
446.0, 0.017691241950451755
447.0, 0.01566681007079612
448.0, 0.014371166242156435
449.0, 0.01391496370036347
450.0, 0.013730020026131301
451.0, 0.012731968094405863
452.0, 0.011377450910839465
453.0, 0.011097004182692891
454.0, 0.010121310771047104
455.0, 0.008827955891188163
456.0, 0.008143804757501767
457.0, 0.008523915120806452
458.0, 0.00798703175793842
459.0, 0.00799837251783184
460.0, 0.008492032891121402
461.0, 0.008985101276902928
462.0, 0.008765577034655869
463.0, 0.00770851159334394
464.0, 0.007928608413155295
465.0, 0.007577926578889186
466.0, 0.007265074404364536
467.0, 0.007550379008155493
468.0, 0.0076208805260584095
469.0, 0.007152762077287351
470.0, 0.007844638197631025
471.0, 0.006645561917084462
472.0, 0.006456167466035667
473.0, 0.00606488863602176
474.0, 0.005779938499149054
475.0, 0.005574556110498215
476.0, 0.004817796224163808
477.0, 0.004701504369677166
478.0, 0.004758143442921862
479.0, 0.00537361173202016
480.0, 0.005377845597757676
481.0, 0.005051542627768518
482.0, 0.00524156136673006
483.0, 0.005005336938589151
484.0, 0.0046973003480662206
485.0, 0.00423186671837796
486.0, 0.0042806424051663955
487.0, 0.004479192316480794
488.0, 0.004602104780387978
489.0, 0.005145201368095391
490.0, 0.004829330233052041
491.0, 0.004861720575506803
492.0, 0.004759724856674813
493.0, 0.0045948839010664655
494.0, 0.004482159877817511
495.0, 0.004413882715497
496.0, 0.004157924973427903
497.0, 0.004260708070859997
498.0, 0.0042197986239318865
499.0, 0.00425496704698575
500.0, 0.0037759902601264676
501.0, 0.0027948355509893196
502.0, 0.002853579859689821
503.0, 0.0026112063473509024
504.0, 0.002687808215110318
505.0, 0.0023302349430357598
506.0, 0.0019874306008351595
507.0, 0.002079468629264112
508.0, 0.0024013188792482805
509.0, 0.0015009388564949785
510.0, 0.0017202253786413359
511.0, 0.0013131154599399352
512.0, 0.001106333657306411
513.0, 0.0009692921245229223
514.0, 0.0005993142671457854
515.0, 0.00036045654950485285
516.0, 0.00031801821616295016
517.0, 0.00012673860781974315
518.0, 5.2795472195845635e-05
519.0, 4.54056390459514e-05
520.0, 3.94474660614451e-05
521.0, 4.389665684462799e-05
522.0, 0.00014619805398651046
523.0, 0.00015469565965067484
524.0, 7.928666749503811e-05
525.0, 0.0001451643815882564
526.0, 0.0001533206346551709
527.0, 7.454164248568266e-05
528.0, 0.000344125205668234
529.0, 0.0006059603528965787
530.0, 0.0009694863816442511
531.0, 0.0010922348879411048
532.0, 0.0014467643113240728
533.0, 0.0018837782221866495
534.0, 0.0022069231121106658
535.0, 0.003563703642861845
536.0, 0.003654442758845732
537.0, 0.004522556560704676
538.0, 0.0052738693850831846
539.0, 0.005937186626617979
540.0, 0.006465384940019226
541.0, 0.006570330142821093
542.0, 0.007156219539891988
543.0, 0.005720308346488442
544.0, 0.0053966274475874135
545.0, 0.0052852948561207865
546.0, 0.0050012227844437405
547.0, 0.004651446196400929
548.0, 0.004255622598438362
549.0, 0.0025364072058480327
550.0, 0.0025033038613779175
551.0, 0.0018965770424046707
552.0, 0.0014571146694395466
553.0, 0.0014650590946039548
554.0, 0.0015289205148801795
555.0, 0.0018509899755119934
556.0, 0.0018297201043166985
557.0, 0.001252711777445093
558.0, 0.0011743089764080312
559.0, 0.0015807579904922554
560.0, 0.0017833936734081574
561.0, 0.0013285538792042705
562.0, 0.0023215657388935256
563.0, 0.0015155875742247048
564.0, 0.0011542565832212174
565.0, 0.0012646212859355314
566.0, 0.0013444452611563313
567.0, 0.001281904532120637
568.0, 0.0016091054209159844
569.0, 0.0005977135387339905
570.0, 0.001107858688644636
571.0, 0.0011169303958934705
572.0, 0.0014626056558582914
573.0, 0.0016293948610163944
574.0, 0.0009398838802879666
575.0, 0.0007101477218523661
576.0, 0.000726710247505094
577.0, 0.0005808464122927726
578.0, 0.0009106337966451081
579.0, 0.0007253466822853915
580.0, 0.0002816232649112382
581.0, 0.0005047425752212712
582.0, 0.0004468463788221043
583.0, 0.0010921887957169197
584.0, 0.0004049260621982134
585.0, 0.00048399211576377236
586.0, 0.0008896487479374197
587.0, 0.0009314890927681276
588.0, 0.0007176495736115029
589.0, 0.001123827455076178
590.0, 0.0006289969274683797
591.0, 0.001143182982128618
592.0, 0.0011136907713533034
593.0, 0.0007890501480884693
594.0, 0.0006544502938385959
595.0, 0.0005447916315635701
596.0, 0.00013063778683356918
597.0, 0.0003344813939565896
598.0, 0.00044608077128488834
599.0, 0.000268396631294629
600.0, 0.00021188412673452613
601.0, 0.00038593936745038947
602.0, 0.00031704912154454756
603.0, 0.0005133395158381686
604.0, 0.0011868056018208856
605.0, 0.0006872415512334533
606.0, 0.0006232148098376957
607.0, 0.0008870132359712908
608.0, 0.0007405245968796132
609.0, 0.00022723135577031517
610.0, 0.000699585289322671
611.0, 0.0008293425861973831
612.0, 0.0005171791310116786
613.0, 0.0002715507928300314
614.0, 0.00024310188173179892
615.0, 0.0003578199604800049
616.0, 0.0005643157144662643
617.0, 0.0008761616610222732
618.0, 0.0005214980561952026
619.0, 0.0001574267626617125
620.0, 2.4513499201608487e-05
621.0, 0.00023052981751862424
622.0, 0.0005367762589339306
623.0, 0.00041629879623160713
624.0, 0.0003768251227017962
625.0, 0.0002142896692370958
626.0, 0.00022917537930714518
627.0, 0.00026433799772702097
628.0, 0.0005470194726981837
629.0, 0.0008986303663059476
630.0, 0.0005567886817083758
631.0, 0.001212841415964389
632.0, 0.0008304902061176622
633.0, 0.00041977159638393767
634.0, 0.0003617338012953241
635.0, 0.0005822428734356646
636.0, 0.0008389975881250192
637.0, 0.0009898236483250771
638.0, 0.00105035299140179
639.0, 0.0010693586123055022
640.0, 0.001115225126133703
641.0, 0.0010500018209702786
642.0, 0.001079575169691772
643.0, 0.0012892360281282472
644.0, 0.0014582112441328498
645.0, 0.0017022632245159751
646.0, 0.0014161960638371946
647.0, 0.002198932109314819
648.0, 0.0016351939535511144
649.0, 0.0008803421670648253
650.0, 0.0010397030965068402
651.0, 0.0015471626007514169
652.0, 0.002529061543252116
653.0, 0.002063539158539248
654.0, 0.0014844147747535548
655.0, 0.0010189226129719807
656.0, 0.001353509858584942
657.0, 0.0018632182246032772
658.0, 0.0014783617324011942
659.0, 0.0018804749677413916
660.0, 0.0011704102989101477
661.0, 0.00125241395966868
662.0, 0.0013537435071672868
663.0, 0.0013553545979293224
664.0, 0.0014525750020074103
665.0, 0.0017839184624170849
666.0, 0.002085836657608243
667.0, 0.0018199954254483988
668.0, 0.0021520125820668297
669.0, 0.0022274394362690373
670.0, 0.002024719922216171
671.0, 0.0018826557100724308
672.0, 0.0020647975774484386
673.0, 0.002370218458291355
674.0, 0.001873793674543371
675.0, 0.002133381168836789
676.0, 0.0023346099511815806
677.0, 0.0024490901580036676
678.0, 0.002384211831746598
679.0, 0.002412371470734012
680.0, 0.002936917064354104
681.0, 0.0026246027328681526
682.0, 0.0021692988535616164
683.0, 0.0023900141342690848
684.0, 0.0028247390160217383
685.0, 0.0030655845703925866
686.0, 0.0030232436416221795
687.0, 0.002988757805320177
688.0, 0.003450953736951744
689.0, 0.0033515773911456685
690.0, 0.00279396703932864
691.0, 0.003381629897751133
692.0, 0.003968802504759531
693.0, 0.003828186238222841
694.0, 0.0035276232038022907
695.0, 0.004253579225695193
696.0, 0.004121734947202293
697.0, 0.004220173178803817
698.0, 0.004481304446463386
699.0, 0.0048923077858274685
700.0, 0.0050699915843878205
701.0, 0.0049699387489858535
702.0, 0.005143273665475816
703.0, 0.006039265680954688
704.0, 0.006005115007352959
705.0, 0.0066707847983322015
706.0, 0.0066317505207743165
707.0, 0.007027647545772227
708.0, 0.007428022895893739
709.0, 0.006972345106718028
710.0, 0.007477524383785129
711.0, 0.008036676894355468
712.0, 0.008408510182201092
713.0, 0.008640832666670364
714.0, 0.009038597073668555
715.0, 0.009692898356633154
716.0, 0.010558481503691685
717.0, 0.011605237297463886
718.0, 0.01288989259729562
719.0, 0.01243795274403727
720.0, 0.014068592443571566
721.0, 0.015211332901655956
722.0, 0.017090847138078277
723.0, 0.018974656561057717
724.0, 0.019721377526261432
725.0, 0.021999155541947153
726.0, 0.025056813108249323
727.0, 0.027537336639051443
728.0, 0.03038085461574598
729.0, 0.0335887022971541
730.0, 0.03713014359811233
731.0, 0.041864451157929035
732.0, 0.04867609764048597
733.0, 0.05534503201726934
734.0, 0.06071020036986333
735.0, 0.0684907619120957
736.0, 0.07561904142497998
737.0, 0.08163343781045956
738.0, 0.08362345423972774
739.0, 0.08127744252337912
740.0, 0.08029383554899523
741.0, 0.07603601740114525
742.0, 0.0700506078205788
743.0, 0.06353845310777625
744.0, 0.05640759748233493
745.0, 0.051123338108969074
746.0, 0.0469996630269343
747.0, 0.04191534276317672
748.0, 0.03878010945946577
749.0, 0.03522859674935652
750.0, 0.03455848104282561
751.0, 0.03328098237095902
752.0, 0.03378309008767848
753.0, 0.03460289189136759
754.0, 0.03554243382615016
755.0, 0.03873611657139059
756.0, 0.04055591294520217
757.0, 0.04385629075688576
758.0, 0.04985518390437793
759.0, 0.05519298550823885
760.0, 0.059203103930163405
761.0, 0.06401199468536727
762.0, 0.06980254480516203
763.0, 0.07290514897205165
764.0, 0.07404986007234755
765.0, 0.07639153254259154
766.0, 0.07385556810092589
767.0, 0.07069094798551563
768.0, 0.06593034688825099
769.0, 0.06023059801571327
770.0, 0.05507882778005626
771.0, 0.04956279945312314
772.0, 0.043734426384260505
773.0, 0.038771856525202396
774.0, 0.03436749971487511
775.0, 0.03021849751698602
776.0, 0.026687188465484298
777.0, 0.023574924769227474
778.0, 0.02064980139975402
779.0, 0.018679713993328722
780.0, 0.016997488493473267
781.0, 0.015487519795970878
782.0, 0.01369174656483443
783.0, 0.012508039384055156
784.0, 0.011456639829889198
785.0, 0.010341116581747044
786.0, 0.009530261863895289
787.0, 0.008966565227653975
788.0, 0.008363101379427437
789.0, 0.008072662165542824
790.0, 0.008024696748116613
791.0, 0.007633931318594955
792.0, 0.006959160067338872
793.0, 0.006106657048286397
794.0, 0.005642878445970907
795.0, 0.006910877291881168
796.0, 0.005813714656970297
797.0, 0.005705289419638016
798.0, 0.006469268838206329
799.0, 0.006686676396184066
800.0, 0.0063461295376471116
801.0, 0.005958296648562064
802.0, 0.00607504927457372
803.0, 0.007089731306230192
804.0, 0.006378107138606113
805.0, 0.008362283207037653
806.0, 0.00705120855384249
807.0, 0.007484258477196776
808.0, 0.008761582706575398
809.0, 0.010091192337125859
810.0, 0.011933530349706515
811.0, 0.013257304056426961
812.0, 0.01585674317565004
813.0, 0.020517769449494027
814.0, 0.025320124788492344
815.0, 0.03071988260960768
816.0, 0.03609536622913569
817.0, 0.03928922249163134
818.0, 0.03879751385863901
819.0, 0.03567262019940032
820.0, 0.03038764866836706
821.0, 0.026880880544483895
822.0, 0.023540752557800502
823.0, 0.021280432776893884
824.0, 0.020544699112395925
825.0, 0.020883982354340396
826.0, 0.021128984277068226
827.0, 0.020416386602454744
828.0, 0.020064359493310386
829.0, 0.019980185354629088
830.0, 0.021218611947957315
831.0, 0.021392440917025447
832.0, 0.021495553496916647
833.0, 0.02231425848912058
834.0, 0.023356391741511398
835.0, 0.023364353370860597
836.0, 0.02187217891681634
837.0, 0.02208276980294847
838.0, 0.021615362725607608
839.0, 0.021456430209035513
840.0, 0.020819312675918206
841.0, 0.01940302513925231
842.0, 0.01769280122471598
843.0, 0.016085640672934654
844.0, 0.014109213558138422
845.0, 0.013063044531271896
846.0, 0.011359151160639886
847.0, 0.010786005215585813
848.0, 0.009720051423585946
849.0, 0.00858064771293944
850.0, 0.007467080176384142
851.0, 0.0063118372864667035
852.0, 0.005676977558045116
853.0, 0.0053463690176062196
854.0, 0.004609111801329646
855.0, 0.003898081859551538
856.0, 0.0036470604865379472
857.0, 0.003262923192204026
858.0, 0.003022626378518434
859.0, 0.0028710813305405218
860.0, 0.0022627548155166695
861.0, 0.0017261514102156611
862.0, 0.0015673267709396769
863.0, 0.00145107380051532
864.0, 0.0009744990484177414
865.0, 0.0011299132269470653
866.0, 0.0008954874186205294
867.0, 0.00047342342703841434
868.0, 0.000506730839057108
869.0, 0.0002933960753866049
870.0, 1.887600835922805e-05
871.0, 0.00024827553578135435
872.0, 0.00012117506357822285
873.0, 0.0004457581021854879
874.0, 0.0005766817229901418
875.0, 0.0006796791822926856
876.0, 0.0009372805887156894
877.0, 0.0011223030465403398
878.0, 0.0012350128553680346
879.0, 0.0012966447328811265
880.0, 0.0014659209872045578
881.0, 0.0010641068055398345
882.0, 0.0006381015946184744
883.0, 0.0012642914722510324
884.0, 0.0017687821781633235
885.0, 0.0014254516100520253
886.0, 0.0014655706988512501
887.0, 0.0013450759353034263
888.0, 0.0017203001722556803
889.0, 0.0013008169103896389
890.0, 0.0017222964942013544
891.0, 0.001725428418893365
892.0, 0.001857435444931807
893.0, 0.0019265265077270622
894.0, 0.0015906085336595073
895.0, 0.001689484150592009
896.0, 0.0013239278333022548
897.0, 0.0018593294126028317
898.0, 0.0017957562905247405
899.0, 0.001996479129084201
900.0, 0.0019786418245580236
901.0, 0.0020178520868116973
902.0, 0.002270300954895821
903.0, 0.002379036814230471
904.0, 0.002190142244937983
905.0, 0.0025952360101310955
906.0, 0.0027647342129019426
907.0, 0.0026529592607398237
908.0, 0.0031011799781245366
909.0, 0.003184185184713754
910.0, 0.003030733462584165
911.0, 0.003063555523918939
912.0, 0.00326813470693587
913.0, 0.0034200686375073395
914.0, 0.0027079015996095733
915.0, 0.0032590410078433413
916.0, 0.0034382669209956657
917.0, 0.0042513815589891235
918.0, 0.005050796637372447
919.0, 0.005046943900614673
920.0, 0.0048658810738246745
921.0, 0.005490585660157842
922.0, 0.006011967614404648
923.0, 0.006271014946232902
924.0, 0.007883032011896938
925.0, 0.008812175474347038
926.0, 0.010130533882079223
927.0, 0.01140144069843996
928.0, 0.012505462660722
929.0, 0.0137742809941559
930.0, 0.015176879738979285
931.0, 0.016135922066683482
932.0, 0.0181920852592627
933.0, 0.020441832123896934
934.0, 0.02242798566387598
935.0, 0.02291484586644816
936.0, 0.02287990182719959
937.0, 0.022443558360140992
938.0, 0.021868986047576953
939.0, 0.021352555695712778
940.0, 0.020178039356931323
941.0, 0.019447869377132165
942.0, 0.019111849541715725
943.0, 0.017314731107857757
944.0, 0.015373881706305523
945.0, 0.014216900920209082
946.0, 0.013356950093116651
947.0, 0.011956554181415823
948.0, 0.010280122883811938
949.0, 0.00943321191009813
950.0, 0.008563374764836961
951.0, 0.00750881443255198
952.0, 0.0066093879881764855
953.0, 0.005927697596374009
954.0, 0.005308133723897577
955.0, 0.005109777398692318
956.0, 0.00474517984290666
957.0, 0.004132349350417514
958.0, 0.004087384651062437
959.0, 0.003777639413979038
960.0, 0.0034137650656642956
961.0, 0.0033286102845125885
962.0, 0.003038861295054122
963.0, 0.0036105550786604606
964.0, 0.003183158348236295
965.0, 0.002611130878682323
966.0, 0.0027097693626532485
967.0, 0.0025364751704868367
968.0, 0.0018466113493799878
969.0, 0.002801884135046125
970.0, 0.0026342329521254564
971.0, 0.002357313787759281
972.0, 0.0018669335438041713
973.0, 0.002075855193602856
974.0, 0.0020654927045953672
975.0, 0.0018901455050485767
976.0, 0.0019374444504920057
977.0, 0.001709422180380761
978.0, 0.001615878836044584
979.0, 0.001760929752088977
980.0, 0.0014407106480985533
981.0, 0.0015222496585044622
982.0, 0.001537899810735239
983.0, 0.0015825161994132088
984.0, 0.0014953935521830383
985.0, 0.0011140718718435623
986.0, 0.0006552761249444693
987.0, 0.0005265207467758831
988.0, 0.0006205752367512071
989.0, 0.0013736859031390925
990.0, 0.001212543583841228
991.0, 0.0007027675885755546
992.0, 0.0004424608484926967
993.0, 0.0009200046560287577
994.0, 0.0008770214637434622
995.0, 0.00035433367557898747
996.0, 0.0006485382758750193
997.0, 0.0004046758437875611
998.0, 5.344658550134125e-05
999.0, 0.00024836480822355286
1000.0, 0.0003071253118197974
1001.0, 0.0002073764467974245
1002.0, 0.00011125757868648927
1003.0, 0.00015429897867650684
1004.0, 0.00024117300181508355
1005.0, 0.0002869380293990633
1006.0, 0.000329471424527976
1007.0, 0.00025611957909457114
1008.0, 0.0001884587339735826
1009.0, 0.0004434610554767285
1010.0, 0.0005907213689795171
1011.0, 0.00038339240673294716
1012.0, 0.00032182966736731515
1013.0, 0.0002695481176043264
1014.0, 0.00012483745875713448
1015.0, 0.0002682827866471856
1016.0, 0.0006708778996570278
1017.0, 5.579564489290549e-05
1018.0, 0.00034355604936289405
1019.0, 0.00017596072392204304
1020.0, 0.0003209057990981817
1021.0, 0.0002834840879596254
1022.0, 0.0004900677488239755
1023.0, 0.0004592562145912226
1024.0, 0.00022708604570804278
1025.0, 0.0001975000845346389
1026.0, 0.0004027155786332808
1027.0, 0.000869344765764833
1028.0, 0.0009840109600593669
1029.0, 0.0006643900705745437
1030.0, 0.0002827339097190868
1031.0, 0.00013680310630860183
1032.0, 9.945896449056735e-05
1033.0, 0.00016769197783955824
1034.0, 0.0001498807575372056
1035.0, 7.990928194248737e-05
1036.0, 0.0003092878447132672
1037.0, 0.0006465033121095883
1038.0, 7.335783631165846e-05
1039.0, 0.000813494596336174
1040.0, 0.0007296400617898346
1041.0, 0.0009225436906526763
1042.0, 0.0011956399186060804
1043.0, 0.0009888011038369192
1044.0, 0.0006949488547523331
1045.0, 0.0007229271415148274
1046.0, 0.0009394530936123384
1047.0, 0.001214860867945114
1048.0, 0.0012053622513403233
1049.0, 0.0011714012876928841
1050.0, 0.0014392317324651682
1051.0, 0.0015626195844677126
1052.0, 0.001702620851551184
1053.0, 0.001905540619425693
1054.0, 0.0021106194027684035
1055.0, 0.002149165686404105
1056.0, 0.0020099050131677835
1057.0, 0.0019499960349843506
1058.0, 0.002078305244944929
1059.0, 0.0021383250900574363
1060.0, 0.002730530505482827
1061.0, 0.002688976267613534
1062.0, 0.0030652673081815987
1063.0, 0.0035976433535099147
1064.0, 0.0037199461980785427
1065.0, 0.0041635337160510506
1066.0, 0.00472030787370492
1067.0, 0.00446609405696296
1068.0, 0.004343584905799233
1069.0, 0.004917661614341136
1070.0, 0.0050720172478749045
1071.0, 0.006038146854531076
1072.0, 0.006294681566072835
1073.0, 0.0070245111873954175
1074.0, 0.007355956662156118
1075.0, 0.008197924192143173
1076.0, 0.00876413993641706
1077.0, 0.009088907831193963
1078.0, 0.01070362913426306
1079.0, 0.011797838877404015
1080.0, 0.011771954172346404
1081.0, 0.013168788140811747
1082.0, 0.014468999199715372
1083.0, 0.017380034227768484
1084.0, 0.020483873506769366
1085.0, 0.023118613235754575
1086.0, 0.02663260025701406
1087.0, 0.03155464630652637
1088.0, 0.037809529741775885
1089.0, 0.04618408276708858
1090.0, 0.05703966203706226
1091.0, 0.06944498411654783
1092.0, 0.08955716413953169
1093.0, 0.11275481091150247
1094.0, 0.1385250458531477
1095.0, 0.1620918735515064
1096.0, 0.17278824964960324
1097.0, 0.16538674112395288
1098.0, 0.14444705119215046
1099.0, 0.11831410552608573
1100.0, 0.09286596224122406
1101.0, 0.07193516718826115
1102.0, 0.055661279391268324
1103.0, 0.045775761004713346
1104.0, 0.03670356019598956
1105.0, 0.02978856204372491
1106.0, 0.025648958413498256
1107.0, 0.02203562382395893
1108.0, 0.018459578716564548
1109.0, 0.015769223019558336
1110.0, 0.01427468686179663
1111.0, 0.013113120325806417
1112.0, 0.011474957848271978
1113.0, 0.010339635937204302
1114.0, 0.009315933079988637
1115.0, 0.00845734567831959
1116.0, 0.007451467991829231
1117.0, 0.006778874105584221
1118.0, 0.006104121755218166
1119.0, 0.006220552608180456
1120.0, 0.005957382166867148
1121.0, 0.005281430314699768
1122.0, 0.005218853869332943
1123.0, 0.004837877198811415
1124.0, 0.00449099454266353
1125.0, 0.004384461818808451
1126.0, 0.0039351442265347794
1127.0, 0.003690526283221123
1128.0, 0.0033376085862669943
1129.0, 0.0029793928760257905
1130.0, 0.0028007837253274867
1131.0, 0.0023698699660620157
1132.0, 0.0017641340045937161
1133.0, 0.0015861912261274033
1134.0, 0.001675268285501905
1135.0, 0.0011951045813318197
1136.0, 0.001311588034826553
1137.0, 0.0012340673272657487
1138.0, 0.0008524625680442341
1139.0, 0.0006198054924397418
1140.0, 0.0005990649991462371
1141.0, 0.0009030777675012269
1142.0, 0.0008681474812992396
1143.0, 0.0007689030714493279
1144.0, 0.0007875601206203497
1145.0, 0.0006581672978571149
1146.0, 0.0004991178388684758
1147.0, 0.0004780777084048086
1148.0, 6.11592589598467e-05
1149.0, 7.387969539056841e-05
1150.0, 9.26010616481427e-05
1151.0, 0.0004893207874481122
1152.0, 0.00031156551064162304
1153.0, 0.000324583270845251
1154.0, 0.0004595328819520999
1155.0, 0.0003225588749808969
1156.0, 0.00017337546186653354
1157.0, 0.00037511774615766566
1158.0, 0.00047496986582324686
1159.0, 0.0001264511461799035
1160.0, 0.0007024863440354344
1161.0, 0.00026361944164889333
1162.0, 0.00019954625967619116
1163.0, 0.0005846850050479917
1164.0, 0.00023500028324898722
1165.0, 0.0003730939702479484
1166.0, 0.00036901849050634657
1167.0, 0.0001378413749429369
1168.0, 8.122401492040311e-05
1169.0, 0.00014747177391623468
1170.0, 0.0001531126598586362
1171.0, 0.0002495136988732218
1172.0, 7.4110314426694e-05
1173.0, 0.0003595346296101214
1174.0, 0.00012197330996780674
1175.0, 3.271288983190628e-05
1176.0, 0.0003443839689620718
1177.0, 0.0003599421723600094
1178.0, 0.0003879210219096351
1179.0, 0.0007721637086088577
1180.0, 0.0006763076503337114
1181.0, 0.0001594317492513284
1182.0, 0.0002489543567953512
1183.0, 0.0005632677443300094
1184.0, 0.0007480955547984496
1185.0, 0.0005979579667623528
1186.0, 0.0009023152487682199
1187.0, 0.0003108291161943398
1188.0, 0.0006283657644374921
1189.0, 0.0004215576648273753
1190.0, 0.0004376673543821739
1191.0, 0.000416543044391548
1192.0, 0.00027275762760863747
1193.0, 0.00037323232758326393
1194.0, 0.0005880578005676952
1195.0, 0.0005370704162859381
1196.0, 0.0005783578068685757
1197.0, 0.0005090362780685233
1198.0, 0.0005393798181465466
1199.0, 0.00012299762947801614
1200.0, 0.0005488666370007591
1201.0, 0.00013847801654072323
1202.0, 4.7150050840763546e-05
1203.0, 0.00021484677400291773
1204.0, 0.0004395292166200452
1205.0, 0.0003526954393552205
1206.0, 9.932348553090885e-05
1207.0, 0.00021966604242435698
1208.0, 0.0004666149620295144
1209.0, 0.0001266772704415317
1210.0, 0.0003205383156082021
1211.0, 4.2516001734488933e-05
1212.0, 9.886795272766695e-05
1213.0, 0.00016734970085493768
1214.0, 5.961541711236448e-05
1215.0, 0.00026943164936298834
1216.0, 0.0002845778012702103
1217.0, 0.0002956617558544182
1218.0, 0.00023534524933488984
1219.0, 0.00010543235064929658
1220.0, 4.020254754434724e-05
1221.0, 3.7134678255722095e-05
1222.0, 0.00011628949754131873
1223.0, 0.00016288422464133146
1224.0, 0.0005401958436515544
1225.0, 0.0004089489805389001
1226.0, 0.0007150549489180862
1227.0, 0.0008098035584175935
1228.0, 0.0006993437134379756
1229.0, 0.0004000790018290213
1230.0, 0.00028340737637673664
1231.0, 0.00014579103912848793
1232.0, 0.0001760869437772344
1233.0, 0.0003098003077298483
1234.0, 0.00028398090063716774
1235.0, 0.0003575538709301179
1236.0, 0.0004397066824949745
1237.0, 0.0006444247972032496
1238.0, 0.0008431276206553656
1239.0, 0.0009080635050139086
1240.0, 0.00010893058355728618
1241.0, 0.0007739227157402016
1242.0, 0.00042525312423139677
1243.0, 0.00036776124291471
1244.0, 0.0004883075534008484
1245.0, 0.0007500479637090623
1246.0, 0.000571708386423184
1247.0, 0.00013716446307186046
1248.0, 0.00020475991140657475
1249.0, 0.0002889721060068851
1250.0, 0.00019699954655906618
1251.0, 5.946746875805653e-05
1252.0, 0.0002565134260806758
1253.0, 0.00031778444649438963
1254.0, 0.00019944265502455785
1255.0, 0.00021110400760288242
1256.0, 0.00024098325255304427
1257.0, 0.0005338124313404025
1258.0, 0.000512322148724189
1259.0, 0.00024852956557621574
1260.0, 0.0004015619226205643
1261.0, 0.0006337387632977986
1262.0, 0.0005810960182256584
1263.0, 0.0005718737123041594
1264.0, 0.00014639427592885693
1265.0, 0.0005744920687629528
1266.0, 0.0008287145506500308
1267.0, 0.0007014241420371919
1268.0, 0.0006978946525315517
1269.0, 0.0007529541382508232
1270.0, 0.0011032071152958628
1271.0, 0.0007135008987874927
1272.0, 0.0006843061453972667
1273.0, 0.0004194967418674077
1274.0, 0.0006202642450217633
1275.0, 0.0010887035018028494
1276.0, 0.0011136774922933218
1277.0, 0.0010754297009416599
1278.0, 0.001072078537615003
1279.0, 0.0009761027494020328
1280.0, 0.0004182012717780992
1281.0, 0.0004947770336779149
1282.0, 0.0009081327850410505
1283.0, 0.0013687802219463274
1284.0, 0.0009001692439390211
1285.0, 0.0007161517609168745
1286.0, 0.0007448613602841318
1287.0, 0.0010902114429702718
1288.0, 0.0008953794533475832
1289.0, 0.0006508496541982827
1290.0, 0.0010752961262835835
1291.0, 0.0013382850237940648
1292.0, 0.0010350295653789427
1293.0, 0.001018279237700392
1294.0, 0.0005922397996679522
1295.0, 0.0007228541228651048
1296.0, 0.0009958532294891114
1297.0, 0.0010766388004745707
1298.0, 0.0013663515110232372
1299.0, 0.0005356745797827758
1300.0, 0.001113794053527141
1301.0, 0.0007345832907410183
1302.0, 0.0008405202113284646
1303.0, 0.0006217373825754062
1304.0, 0.000462240022359552
1305.0, 0.0006512013175590349
1306.0, 0.0007087861370992358
1307.0, 0.0005377481025148096
1308.0, 0.0005934692335081184
1309.0, 0.0008453886493973019
1310.0, 0.0003382028544697081
1311.0, 0.0003237187128552776
1312.0, 0.0005965298357846023
1313.0, 5.728087210175864e-05
1314.0, 0.00025800190245862465
1315.0, 0.000589620396286551
1316.0, 0.00028105958822307854
1317.0, 0.00048749307994827747
1318.0, 0.0006836291993098576
1319.0, 0.000326120883237657
1320.0, 0.00021033996837212514
1321.0, 0.00021754151196317
1322.0, 0.000311073243138118
1323.0, 0.00042237392178053816
1324.0, 0.0002272478369342539
1325.0, 0.0005180975163555764
1326.0, 0.0006802843625950568
1327.0, 0.0008267775594276766
1328.0, 0.0005592149194596334
1329.0, 0.0008672026482690427
1330.0, 0.0006767753155372139
1331.0, 0.0006009252154707427
1332.0, 0.0005015128767423575
1333.0, 0.0005131802239470071
1334.0, 0.0003143507580361933
1335.0, 0.0003002658302049968
1336.0, 0.0004188418573273193
1337.0, 0.0005536576974101108
1338.0, 0.0003825629435023621
1339.0, 6.678511082067399e-05
1340.0, 3.0729544379266834e-05
1341.0, 0.0001904329809833349
1342.0, 0.00041054569235512636
1343.0, 0.00014683976973244993
1344.0, 0.0005664433280781347
1345.0, 0.0001441709229812627
1346.0, 0.0007344171886189002
1347.0, 0.0005484166718007289
1348.0, 0.0007869089369614709
1349.0, 0.00014717673331246566
1350.0, 8.140763963701633e-05
1351.0, 0.00010557167654241907
1352.0, 0.0001443908333352527
1353.0, 0.00015627550632062387
1354.0, 9.392120467228008e-05
1355.0, 7.842458158800423e-05
1356.0, 8.355780757227506e-05
1357.0, 0.00019018425875039408
1358.0, 0.00041729293012065036
1359.0, 0.0004742954899994581
1360.0, 0.0007008497633047453
1361.0, 0.0003092475162732254
1362.0, 6.403582535250057e-05
1363.0, 7.353403400182294e-05
1364.0, 0.000642374880852558
1365.0, 0.0009970741655729832
1366.0, 0.0006316213653787109
1367.0, 0.0006258766986583444
1368.0, 0.0009269618913696538
1369.0, 0.0013149200425622127
1370.0, 0.0011110279231410858
1371.0, 0.0011630580101369664
1372.0, 0.0013388884403953433
1373.0, 0.0013644746032631199
1374.0, 0.0013810209149885703
1375.0, 0.0016250891494972587
1376.0, 0.0020591259574602415
1377.0, 0.002438917101129763
1378.0, 0.0031344035121006314
1379.0, 0.0029806082824635027
1380.0, 0.0032446910498581025
1381.0, 0.004136818715622718
1382.0, 0.004325205464372389
1383.0, 0.004132447479982969
1384.0, 0.004757627084643043
1385.0, 0.004585582449262993
1386.0, 0.004767455213238247
1387.0, 0.005418660375624403
1388.0, 0.004999501653047078
1389.0, 0.005051889146209441
1390.0, 0.00572489123729135
1391.0, 0.006119117687998561
1392.0, 0.005993188867343017
1393.0, 0.00570114912532716
1394.0, 0.0056801355999230975
1395.0, 0.006098881738863853
1396.0, 0.0068158133757452
1397.0, 0.007672604011272202
1398.0, 0.008449766341343246
1399.0, 0.00953430339282962
1400.0, 0.01030052576856579
1401.0, 0.011272590411499755
1402.0, 0.012354039649559426
1403.0, 0.013664074423318451
1404.0, 0.015508321219627004
1405.0, 0.016805453015651277
1406.0, 0.019558342028060477
1407.0, 0.021819669808905613
1408.0, 0.02415957337621494
1409.0, 0.027236194316611496
1410.0, 0.030916906146964736
1411.0, 0.036770641771796383
1412.0, 0.044850977255505575
1413.0, 0.05376506150255143
1414.0, 0.06492707218125891
1415.0, 0.07959918772035482
1416.0, 0.09625402018589407
1417.0, 0.11488627340397375
1418.0, 0.13108948075288787
1419.0, 0.13941295077913957
1420.0, 0.1409595273097705
1421.0, 0.13151925349306134
1422.0, 0.12640793018022242
1423.0, 0.12206937780849067
1424.0, 0.12756295551652078
1425.0, 0.14458373220676374
1426.0, 0.1691683621794195
1427.0, 0.2063291290467387
1428.0, 0.2478612258035405
1429.0, 0.28247075591330667
1430.0, 0.29443901044128284
1431.0, 0.27755303075118715
1432.0, 0.23907809960258303
1433.0, 0.1916080958621689
1434.0, 0.14759309153320002
1435.0, 0.11298957718189924
1436.0, 0.08679189208714336
1437.0, 0.06748969865927168
1438.0, 0.05361196182259087
1439.0, 0.04436260809570945
1440.0, 0.03682532372998553
1441.0, 0.03074497996304227
1442.0, 0.025809724565016783
1443.0, 0.023335649861299147
1444.0, 0.019470090994348543
1445.0, 0.018840366553075118
1446.0, 0.01691046560072934
1447.0, 0.01611065073061425
1448.0, 0.015534119396600501
1449.0, 0.015633133118237882
1450.0, 0.015667463030887927
1451.0, 0.017621078818523622
1452.0, 0.0201684868234012
1453.0, 0.02435671960779526
1454.0, 0.03018416553176693
1455.0, 0.04026132292273817
1456.0, 0.0553279553288472
1457.0, 0.0730613140012018
1458.0, 0.08661101636548427
1459.0, 0.08732808970007436
1460.0, 0.07495076999221408
1461.0, 0.05594615519589046
1462.0, 0.03978247827284074
1463.0, 0.027879664849741245
1464.0, 0.019328003543071754
1465.0, 0.014467353378803243
1466.0, 0.010854601616492175
1467.0, 0.008666531319694894
1468.0, 0.0069183158518489685
1469.0, 0.006246024439159708
1470.0, 0.004784337758560639
1471.0, 0.005080421900382025
1472.0, 0.003976480668469779
1473.0, 0.00334194718820763
1474.0, 0.002679648231959214
1475.0, 0.002142206962186041
1476.0, 0.0018467557395042593
1477.0, 0.0015371875157681285
1478.0, 0.001562046980743105
1479.0, 0.0014961422050139516
1480.0, 0.0015436521166162698
1481.0, 0.002043391634450892
1482.0, 0.0019744721613112943
1483.0, 0.0015593445770261916
1484.0, 0.0018451632552463828
1485.0, 0.0021607039063253797
1486.0, 0.002273769458605537
1487.0, 0.0017729487075101664
1488.0, 0.0019144631183092551
1489.0, 0.0014897349628811172
1490.0, 0.00099889976151075
1491.0, 0.0014280853089286374
1492.0, 0.0016641479417094636
1493.0, 0.0011675311265681356
1494.0, 0.0012884330593028166
1495.0, 0.0013932333126296817
1496.0, 0.0013599367918955484
1497.0, 0.0006727026600248855
1498.0, 0.0011989751625205403
1499.0, 0.0010153988774063063
1500.0, 0.001279042289634468
1501.0, 0.0013870572508732552
1502.0, 0.001474168678251197
1503.0, 0.0009956032685040702
1504.0, 0.0012024583425718127
1505.0, 0.0013530864711902594
1506.0, 0.0012506285406008446
1507.0, 0.001509213426688745
1508.0, 0.001514519557952255
1509.0, 0.0016157283547172734
1510.0, 0.0020324590266058156
1511.0, 0.0018664116227677721
1512.0, 0.0014669976157615865
1513.0, 0.0014580945694424633
1514.0, 0.0018944790407747173
1515.0, 0.0013220118914034915
1516.0, 0.0020174903363948714
1517.0, 0.002503899873214995
1518.0, 0.0021976962403221197
1519.0, 0.0023591313105357356
1520.0, 0.0025674741990340494
1521.0, 0.002359815228586568
1522.0, 0.0027508814638435505
1523.0, 0.0027962759580159604
1524.0, 0.0028828867534489194
1525.0, 0.0029775486765252035
1526.0, 0.0032475283135237343
1527.0, 0.0032556950468768642
1528.0, 0.0036699799068001322
1529.0, 0.003789372571601781
1530.0, 0.0036867154861716074
1531.0, 0.0033129658543537234
1532.0, 0.003108570857391306
1533.0, 0.0030426258854836016
1534.0, 0.0025471331816933752
1535.0, 0.002853196231185784
1536.0, 0.0029503762171094092
1537.0, 0.002951824367171338
1538.0, 0.0028771450239898394
1539.0, 0.0029266923604212083
1540.0, 0.0029902456750986327
1541.0, 0.002775620755646273
1542.0, 0.0028337135318334487
1543.0, 0.0025431244849965663
1544.0, 0.002252766882894341
1545.0, 0.002169567676700908
1546.0, 0.0020061880770625043
1547.0, 0.002213780639050139
1548.0, 0.0011177545252938795
1549.0, 0.0018893921869551032
1550.0, 0.0016116560700756566
1551.0, 0.00234593015643854
1552.0, 0.002316381661820133
1553.0, 0.0023312364848225697
1554.0, 0.0027966560892919217
1555.0, 0.0034453771398867622
1556.0, 0.003547417693457725
1557.0, 0.001907293665188228
1558.0, 0.0005460618879296854
1559.0, 0.0008013791216012244
1560.0, 0.00010533692985385183
1561.0, 0.0009729013105508797
1562.0, 0.0009583358254049821
1563.0, 0.0021001989755333283
1564.0, 0.0014418811109588132
1565.0, 0.0021438938772384173
1566.0, 0.0022307132951423538
1567.0, 0.002073654183013768
1568.0, 0.0020931678417918124
1569.0, 0.002070482031747452
1570.0, 0.0007787444496154491
1571.0, 8.394273066423324e-06
1572, 0.0
1573, 0.0
1574, 0.0
1575, 0.0
1576, 0.0
1577, 0.0
1578, 0.0
1579, 0.0
1580, 0.0
1581, 0.0
1582, 0.0
1583, 0.0
1584, 0.0
1585, 0.0
1586, 0.0
1587, 0.0
1588, 0.0
1589, 0.0
1590, 0.0
1591, 0.0
1592, 0.0
1593, 0.0
1594, 0.0
1595, 0.0
1596, 0.0
1597, 0.0
1598, 0.0
1599, 0.0
