30, 0.0
31, 0.0
32, 0.0
33, 0.0
34, 0.0
35, 0.0
36, 0.0
37, 0.0
38, 0.0
39, 0.0
40, 0.0
41, 0.0
42, 0.0
43, 0.0
44, 0.0
45, 0.0
46, 0.0
47, 0.0
48, 0.0
49, 0.0
50, 0.0
51, 0.0
52, 0.0
53, 0.0
54, 0.0
55, 0.0
56, 0.0
57, 0.0
58, 0.0
59, 0.0
60, 0.0
61, 0.0
62, 0.0
63, 0.0
64, 0.0
65, 0.0
66, 0.0
67, 0.0
68, 0.0
69, 0.0
70, 0.0
71, 0.0
72, 0.0
73, 0.0
74, 0.0
75, 0.0
76, 0.0
77, 0.0
78, 0.0
79, 0.0
80, 0.0
81, 0.0
82, 0.0
83, 0.0
84, 0.0
85, 0.0
86, 0.0
87, 0.0
88, 0.0
89, 0.0
90, 0.0
91, 0.0
92, 0.0
93, 0.0
94, 0.0
95, 0.0
96, 0.0
97, 0.0
98, 0.0
99, 0.0
100, 0.0
101, 0.0
102, 0.0
103, 0.0
104, 0.0
105, 0.0
106, 0.0
107, 0.0
108, 0.0
109, 0.0
110, 0.0
111.0, 1.1042664879730637e-05
112.0, 0.000713474189552822
113.0, 0.0018741022401152331
114.0, 0.002008967737183618
115.0, 0.005887254686682798
116.0, 0.008831502704444388
117.0, 0.007780402395384424
118.0, 0.006437547145648795
119.0, 0.00779566396548493
120.0, 0.009847179448199007
121.0, 0.006236493949097901
122.0, 0.003128792865571844
123.0, 0.002889217216304445
124.0, 0.006469755048087197
125.0, 0.002016871266747241
126.0, 0.001406010977811878
127.0, 0.0027841108252585896
128.0, 0.0033547163402062375
129.0, 0.007013064353452877
130.0, 0.008669668305962164
131.0, 0.007548613044406321
132.0, 0.007858971354196106
133.0, 0.004320008064652361
134.0, 0.0025771072642841895
135.0, 0.00888718845860899
136.0, 0.0061526480468544935
137.0, 0.007107862731763261
138.0, 0.01054259960262324
139.0, 0.004876961823835115
140.0, 0.0039010829554924167
141.0, 0.0036315933091628813
142.0, 0.0020015727344540185
143.0, 0.002590908624641274
144.0, 0.001628893355661432
145.0, 6.021280547166312e-05
146.0, 0.00017653916613421394
147.0, 0.0007239015708386499
148.0, 0.0007694494419023007
149.0, 0.00011826768943358979
150.0, 0.00022719102507055955
151.0, 0.0007038686515295853
152.0, 0.0014751915852658918
153.0, 0.0025317985805293638
154.0, 0.0027092795460675664
155.0, 0.0038931531221778315
156.0, 0.006057339989517725
157.0, 0.008002050238700337
158.0, 0.011356946791573033
159.0, 0.013641657938258049
160.0, 0.013316540487410355
161.0, 0.016291024541583512
162.0, 0.016601943273210323
163.0, 0.015214661191396783
164.0, 0.014097398610185146
165.0, 0.012198213298485576
166.0, 0.011386973817643824
167.0, 0.011922912004972997
168.0, 0.0108355191363063
169.0, 0.00789836621496916
170.0, 0.006849318505593298
171.0, 0.011807218308892555
172.0, 0.01495179752276615
173.0, 0.014123564681120564
174.0, 0.011211376250764144
175.0, 0.013687814633413283
176.0, 0.015371231383129113
177.0, 0.018406848780643317
178.0, 0.023711155787583302
179.0, 0.02812881731108287
180.0, 0.029847478762637422
181.0, 0.031071383711260413
182.0, 0.035011260052594646
183.0, 0.03631930696333873
184.0, 0.03791335580640169
185.0, 0.039864618305185694
186.0, 0.04011157952895736
187.0, 0.03981945513515654
188.0, 0.03998423041272178
189.0, 0.04123457151367039
190.0, 0.04341009067921633
191.0, 0.04301004872722532
192.0, 0.04168642080303031
193.0, 0.04266473049191341
194.0, 0.04150166864566042
195.0, 0.04236657652671216
196.0, 0.04581335300362436
197.0, 0.04924088158093314
198.0, 0.051525906493900264
199.0, 0.05326813743370504
200.0, 0.05480534338699624
201.0, 0.05742874866097467
202.0, 0.061354233010941145
203.0, 0.06598098308385567
204.0, 0.07002323475806041
205.0, 0.08003439980276668
206.0, 0.08477507084462192
207.0, 0.08335258369497914
208.0, 0.09351655017820695
209.0, 0.10257521916944358
210.0, 0.10922013960113945
211.0, 0.11203477830924946
212.0, 0.11925788658072803
213.0, 0.1259138606000023
214.0, 0.13256250678093506
215.0, 0.14101832474224135
216.0, 0.15305860254247383
217.0, 0.15917104713216632
218.0, 0.15893385287152328
219.0, 0.17029666352488987
220.0, 0.17238429040003708
221.0, 0.17388229894520651
222.0, 0.1811175780846759
223.0, 0.18051536386380673
224.0, 0.1764839100341756
225.0, 0.17163599008846117
226.0, 0.17129906666300698
227.0, 0.16318144132893744
228.0, 0.1553025132535762
229.0, 0.14917296920306242
230.0, 0.1435610077841179
231.0, 0.1379816135394861
232.0, 0.13302092367550325
233.0, 0.12911184704088025
234.0, 0.12229367921025029
235.0, 0.11888747292865132
236.0, 0.11712670079998733
237.0, 0.11408989338760739
238.0, 0.12032569877547929
239.0, 0.12162812288165344
240.0, 0.11854045737779083
241.0, 0.12499384974148815
242.0, 0.12467223965103569
243.0, 0.12599684876491005
244.0, 0.1326667562601247
245.0, 0.13287606672025085
246.0, 0.13566088197921017
247.0, 0.14106237209539602
248.0, 0.14960660742601414
249.0, 0.14896572608039882
250.0, 0.1513091990791472
251.0, 0.15744949402150746
252.0, 0.16685072942891835
253.0, 0.17393162196838274
254.0, 0.18008403985977964
255.0, 0.185570646289042
256.0, 0.18908974207168908
257.0, 0.19209041853260045
258.0, 0.1935270008492448
259.0, 0.19237126350174805
260.0, 0.19016495203670197
261.0, 0.1868903796048267
262.0, 0.18387439566574115
263.0, 0.18376469773338178
264.0, 0.18555626469722852
265.0, 0.18321014146078274
266.0, 0.17679472082227904
267.0, 0.17159455745774715
268.0, 0.16128941828999802
269.0, 0.1545121186521443
270.0, 0.15453685061924394
271.0, 0.1459757534940336
272.0, 0.13851347929380042
273.0, 0.12825247601611534
274.0, 0.11070839024950994
275.0, 0.10911551878327491
276.0, 0.10398052453240532
277.0, 0.09498244410014553
278.0, 0.08342856703031033
279.0, 0.0824975313859487
280.0, 0.07975097070543023
281.0, 0.0748457220874634
282.0, 0.08118558607495814
283.0, 0.07921241916881183
284.0, 0.0792041603401331
285.0, 0.08648447333411585
286.0, 0.10553305271267135
287.0, 0.11846683723257279
288.0, 0.12887911855558024
289.0, 0.1402920743952749
290.0, 0.1619591583721834
291.0, 0.17321620561882833
292.0, 0.17870767927111827
293.0, 0.19141348945472073
294.0, 0.18910747443366668
295.0, 0.18682608184515892
296.0, 0.18565602523232694
297.0, 0.17581251294722872
298.0, 0.16771555918139894
299.0, 0.160269190908059
300.0, 0.1529248568739524
301.0, 0.14377385068562518
302.0, 0.1320833408331516
303.0, 0.12276275746754933
304.0, 0.12048479710838624
305.0, 0.11496476714059353
306.0, 0.11071312795045166
307.0, 0.11010275054471308
308.0, 0.11776443633809665
309.0, 0.11636915923927302
310.0, 0.1168193626204764
311.0, 0.11970748973851036
312.0, 0.12187757409969982
313.0, 0.12875825492891624
314.0, 0.13495081172136097
315.0, 0.1393338935718845
316.0, 0.146547446364959
317.0, 0.15531665565114153
318.0, 0.16373218733769968
319.0, 0.17080974223321027
320.0, 0.1841181859593411
321.0, 0.19128941334760158
322.0, 0.19703820224825713
323.0, 0.20658639381605712
324.0, 0.20717817536888758
325.0, 0.21373288484195022
326.0, 0.21990951784896234
327.0, 0.21039751282924463
328.0, 0.21539419232899798
329.0, 0.21442255854398548
330.0, 0.2066754700850816
331.0, 0.20153412200328708
332.0, 0.1878666427468331
333.0, 0.17758690678992337
334.0, 0.17213748248178434
335.0, 0.15150897242359707
336.0, 0.14144201131005027
337.0, 0.13169794035182675
338.0, 0.11694135056291946
339.0, 0.1092299098217125
340.0, 0.10185775921250578
341.0, 0.09314063990030648
342.0, 0.08126675867900852
343.0, 0.07891142333362436
344.0, 0.07718705487193223
345.0, 0.07401734551175122
346.0, 0.06617663188983793
347.0, 0.061442006204391685
348.0, 0.05952435955073454
349.0, 0.05948347995148872
350.0, 0.058907327246538466
351.0, 0.05920912086769328
352.0, 0.05764089565120104
353.0, 0.05570044161527157
354.0, 0.06401587961202286
355.0, 0.06347291645167556
356.0, 0.06609041253710082
357.0, 0.07542696806951915
358.0, 0.08060440099776518
359.0, 0.0893179154387199
360.0, 0.09777069535631026
361.0, 0.10373763847338949
362.0, 0.11032265432870421
363.0, 0.11925319894023148
364.0, 0.12883605353089742
365.0, 0.13748354099586302
366.0, 0.13955275703038028
367.0, 0.1480395807854825
368.0, 0.1570548146998267
369.0, 0.15725458428966377
370.0, 0.16510701313051748
371.0, 0.16925053406575322
372.0, 0.17033857838276656
373.0, 0.17178528915128666
374.0, 0.18639112291867135
375.0, 0.19223851280760695
376.0, 0.19140399131775584
377.0, 0.2031562760148526
378.0, 0.2007516416534414
379.0, 0.20130277881704578
380.0, 0.2081603192465782
381.0, 0.21524889254223842
382.0, 0.21654520583236075
383.0, 0.21824837189798274
384.0, 0.22325055409526637
385.0, 0.23564426396349095
386.0, 0.2445486656258808
387.0, 0.24826314924581191
388.0, 0.24681267601783427
389.0, 0.2637252606540616
390.0, 0.2706071128200623
391.0, 0.2759938291740955
392.0, 0.2864478287280197
393.0, 0.2954311253099999
394.0, 0.3043243458357235
395.0, 0.31477858768194894
396.0, 0.3287278901626486
397.0, 0.3175116809776389
398.0, 0.3170017854993038
399.0, 0.31891464196676034
400.0, 0.3091051119933436
401.0, 0.29577543605767237
402.0, 0.28534241739690624
403.0, 0.27395124380017205
404.0, 0.2527006653267257
405.0, 0.23316425325344575
406.0, 0.21464419428196435
407.0, 0.19815657189212652
408.0, 0.18681995967080342
409.0, 0.17316974838193883
410.0, 0.1585451513969839
411.0, 0.14336229156463812
412.0, 0.1282077448567852
413.0, 0.12188989764467914
414.0, 0.11734101869026287
415.0, 0.11170620597122105
416.0, 0.09973476076890211
417.0, 0.09615783974900298
418.0, 0.09396365252313751
419.0, 0.09087132990233732
420.0, 0.08651027623812131
421.0, 0.08494275473394942
422.0, 0.08380315613305153
423.0, 0.08226825754574354
424.0, 0.08136063357220288
425.0, 0.07973721660797584
426.0, 0.0785407534773229
427.0, 0.07774821598951745
428.0, 0.07023570554167452
429.0, 0.06551117684963577
430.0, 0.06432969758388327
431.0, 0.06678947060818283
432.0, 0.06390203801019362
433.0, 0.055112380985274836
434.0, 0.049535804571471366
435.0, 0.05319211231735057
436.0, 0.04803159607353322
437.0, 0.04721099804959204
438.0, 0.04434481468791575
439.0, 0.034258877457294175
440.0, 0.033182309129713754
441.0, 0.032256285521046424
442.0, 0.03237249421654488
443.0, 0.03441306781499302
444.0, 0.0337404760603572
445.0, 0.03366631762269616
446.0, 0.034130710738202355
447.0, 0.035069549321503045
448.0, 0.03149429824042069
449.0, 0.030525984484033094
450.0, 0.0313905288188286
451.0, 0.03305076222679663
452.0, 0.041009620627467665
453.0, 0.03986485695662702
454.0, 0.03707005556394567
455.0, 0.043172749133806004
456.0, 0.04184660125573638
457.0, 0.04507670850278821
458.0, 0.05033740420040761
459.0, 0.053315601917827825
460.0, 0.05636376529541605
461.0, 0.0625048022391381
462.0, 0.06672121282510167
463.0, 0.06096622251736349
464.0, 0.06229467324748197
465.0, 0.06833882429296836
466.0, 0.07359652225596218
467.0, 0.06946307422449939
468.0, 0.0649021478203083
469.0, 0.06653538976415686
470.0, 0.06918972280218633
471.0, 0.06362164330761304
472.0, 0.06512903768999259
473.0, 0.05894518765902275
474.0, 0.05124782364671853
475.0, 0.054124809510395694
476.0, 0.050113672343411714
477.0, 0.04692638300968066
478.0, 0.043704239756243324
479.0, 0.038046947259448106
480.0, 0.03595260578635836
481.0, 0.03001781922041387
482.0, 0.02257008720036456
483.0, 0.018285570751045206
484.0, 0.015666194206755878
485.0, 0.01098016870259834
486.0, 0.005888023216231076
487.0, 0.0034562367414669587
488.0, 0.0017425066956239222
489.0, 0.0028414569102055715
490.0, 0.0052094035572249195
491.0, 0.006306820575603761
492.0, 0.008839072267764472
493.0, 0.011004846421670439
494.0, 0.01250065916471771
495.0, 0.01301803978668987
496.0, 0.014434859235111518
497.0, 0.014906091422362832
498.0, 0.01453235238297021
499.0, 0.013546972815233925
500.0, 0.014782894116656075
501.0, 0.011464500873233842
502.0, 0.008993074452997088
503.0, 0.014287551464290244
504.0, 0.009492503649082929
505.0, 0.005226165310777697
506.0, 0.0036916201974431196
507.0, 0.007079872380727091
508.0, 0.009496284153490075
509.0, 0.015586028858306311
510.0, 0.023470890976460965
511.0, 0.031171928123272612
512.0, 0.03137163716896713
513.0, 0.03655978190473473
514.0, 0.0404408760774263
515.0, 0.03794577269623983
516.0, 0.04529532359586901
517.0, 0.04285020656861873
518.0, 0.034320496900471224
519.0, 0.023141135736841508
520.0, 0.022790179554233517
521.0, 0.01904957246206506
522.0, 0.013969570438436755
523.0, 0.008747358309063584
524.0, 0.0020007332172336315
525.0, 0.0008913121780571274
526.0, 0.0011548705091561093
527.0, 0.0007669385866001864
528.0, 0.0022711850436221365
529.0, 0.003448263189511704
530.0, 0.004571796508413838
531.0, 0.005744336238861301
532.0, 0.006834085115821453
533.0, 0.004639078630871433
534.0, 0.00416057574964738
535.0, 0.006488704998910621
536.0, 0.007880877414350673
537.0, 0.011561435545765792
538.0, 0.0175599383478317
539.0, 0.024228037477696803
540.0, 0.025160354466622285
541.0, 0.030090477448233417
542.0, 0.028317534597668056
543.0, 0.022930899634291426
544.0, 0.029971690654689836
545.0, 0.030105104644672233
546.0, 0.025816810299273105
547.0, 0.020275639227031943
548.0, 0.01970633196629832
549.0, 0.013190886721855673
550.0, 0.009334818202273894
551.0, 0.006938530016174459
552.0, 0.002392759733210396
553.0, 0.0020819271197676558
554.0, 0.0019774181128833462
555.0, 0.0022098116433581934
556.0, 0.0032556927616321503
557.0, 0.0024660227957057643
558.0, 0.0031536536690009607
559.0, 0.004389536078600121
560.0, 0.00521777195939886
561.0, 0.006637212767660005
562.0, 0.006866124360679324
563.0, 0.007845171443866577
564.0, 0.010794180709882625
565.0, 0.012817077275885928
566.0, 0.011866063822230712
567.0, 0.013761208713428175
568.0, 0.020122457019862844
569.0, 0.01968339596849918
570.0, 0.01952149121830125
571.0, 0.016759714374238087
572.0, 0.0131330891380999
573.0, 0.022006350933638417
574.0, 0.021566493896663028
575.0, 0.01921723125075906
576.0, 0.017770405340477646
577.0, 0.020056496722630348
578.0, 0.01782783726005052
579.0, 0.0215788084379724
580.0, 0.02717604360339003
581.0, 0.02228177670501621
582.0, 0.02512914478771285
583.0, 0.026640125283328334
584.0, 0.027297234442255357
585.0, 0.028941528204046805
586.0, 0.036077440996683634
587.0, 0.04238083287697779
588.0, 0.04444728154841256
589.0, 0.039399052687704446
590.0, 0.0358082588373877
591.0, 0.03196112656409177
592.0, 0.030338760532874896
593.0, 0.03219669335843653
594.0, 0.03342355599262917
595.0, 0.03677245917180864
596.0, 0.03844549953665874
597.0, 0.03721131345500489
598.0, 0.035385758806318675
599.0, 0.03416396724083582
600.0, 0.032721864622185064
601.0, 0.030307252538202892
602.0, 0.02527233702991151
603.0, 0.03264741660924443
604.0, 0.034735301261134645
605.0, 0.0319201239250422
606.0, 0.03025945674725733
607.0, 0.026610525616923043
608.0, 0.02495312844280991
609.0, 0.024997063199787884
610.0, 0.026010520627702878
611.0, 0.025614861100780116
612.0, 0.02345906232416194
613.0, 0.023004708336864417
614.0, 0.026259384818949308
615.0, 0.02438257946599548
616.0, 0.021255281397670217
617.0, 0.019740420450036038
618.0, 0.02048720977912344
619.0, 0.019419492406334546
620.0, 0.014272064961146117
621.0, 0.016939254140040272
622.0, 0.02419593655301894
623.0, 0.016264724550551835
624.0, 0.02279231341094528
625.0, 0.01810479836829648
626.0, 0.010293256694451306
627.0, 0.019719526876460933
628.0, 0.01132075338933452
629.0, 0.007718171380443256
630.0, 0.009895139262573887
631.0, 0.016960023773636902
632.0, 0.007991955933345136
633.0, 0.005497977508019215
634.0, 0.003909603448129248
635.0, 0.0012906983185922375
636.0, 0.009461959503144327
637.0, 0.009740702912538774
638.0, 0.0129202348844713
639.0, 0.020124406386161725
640.0, 0.02194002751293901
641.0, 0.026734626392660537
642.0, 0.031671187316025855
643.0, 0.03549315093025114
644.0, 0.03675085310993678
645.0, 0.04199183142920296
646.0, 0.045472170484677235
647.0, 0.0469932561068768
648.0, 0.046967863835445836
649.0, 0.05238928690414663
650.0, 0.05538018990875334
651.0, 0.06099023042347488
652.0, 0.06976419809743922
653.0, 0.06375825867458138
654.0, 0.06706071158109246
655.0, 0.06682746342966242
656.0, 0.06197925930411454
657.0, 0.062301629394699645
658.0, 0.06527869117821433
659.0, 0.061809097914153434
660.0, 0.054759590411296244
661.0, 0.05106830393487169
662.0, 0.049012957117498174
663.0, 0.050289285018639156
664.0, 0.04829904042065606
665.0, 0.038852259076337874
666.0, 0.04651239020980849
667.0, 0.040464314970320124
668.0, 0.03523334821401218
669.0, 0.03575703979239472
670.0, 0.03299997367380563
671.0, 0.03238577746778763
672.0, 0.03553425803346555
673.0, 0.038658358403612515
674.0, 0.03271682130089328
675.0, 0.0352639798673097
676.0, 0.036708917165890774
677.0, 0.03925488006371118
678.0, 0.04567861278882849
679.0, 0.044518891193543554
680.0, 0.04677692709016198
681.0, 0.05484988655040603
682.0, 0.06804757170368715
683.0, 0.07466507586324214
684.0, 0.07655140764205039
685.0, 0.08354058777684646
686.0, 0.09478000637059346
687.0, 0.10150089383613126
688.0, 0.11887952344302903
689.0, 0.13560985650965474
690.0, 0.15181618727956792
691.0, 0.16869734589544613
692.0, 0.17717193727629332
693.0, 0.21154592962920307
694.0, 0.24160619504450284
695.0, 0.2553971142145919
696.0, 0.292131225010107
697.0, 0.31356902495360656
698.0, 0.3392849085765818
699.0, 0.36856498457213216
700.0, 0.38667182737687134
701.0, 0.4050755728442344
702.0, 0.4142860142304438
703.0, 0.42115187961758693
704.0, 0.43391024787416876
705.0, 0.4362431684789876
706.0, 0.4188572774048615
707.0, 0.3902244597930987
708.0, 0.358429355621374
709.0, 0.3398196589252095
710.0, 0.30542230744043425
711.0, 0.274570465751998
712.0, 0.24637473486709868
713.0, 0.2099245157431149
714.0, 0.18741103028091402
715.0, 0.15735781568907398
716.0, 0.1289824410991363
717.0, 0.1119592618703243
718.0, 0.10516915742153815
719.0, 0.08270428400959225
720.0, 0.06614079724428082
721.0, 0.059571964234533606
722.0, 0.04437264506314297
723.0, 0.03789795714777648
724.0, 0.03043254720244372
725.0, 0.02547138496810673
726.0, 0.030263509290969985
727.0, 0.01991794699576599
728.0, 0.02178267557113898
729.0, 0.02962193655330283
730.0, 0.03767794508371962
731.0, 0.03847059295402422
732.0, 0.049697464114159755
733.0, 0.06455670624632273
734.0, 0.07910927928703482
735.0, 0.08868570072596381
736.0, 0.1096618811242242
737.0, 0.12917722834818438
738.0, 0.1487548123932103
739.0, 0.17040939999484186
740.0, 0.1893378846889681
741.0, 0.2204198046221129
742.0, 0.2504368262983663
743.0, 0.2760862806105359
744.0, 0.30506073619446983
745.0, 0.3305635098819275
746.0, 0.3502968787951236
747.0, 0.3708917124741633
748.0, 0.40090510726398304
749.0, 0.41598670261099313
750.0, 0.43425594536200673
751.0, 0.44452103066475274
752.0, 0.4434483168942184
753.0, 0.4450032661935274
754.0, 0.4323810477934877
755.0, 0.41479531967033667
756.0, 0.3972554526097822
757.0, 0.3850135537339497
758.0, 0.35273873849212684
759.0, 0.3260342919067843
760.0, 0.2988113803431181
761.0, 0.2680411530431425
762.0, 0.24382308605584554
763.0, 0.2239713935308376
764.0, 0.19478197839456407
765.0, 0.16427505971833192
766.0, 0.155625337652085
767.0, 0.12437866647595053
768.0, 0.10461158059028448
769.0, 0.09247441019226098
770.0, 0.08221955973271095
771.0, 0.0646407354367988
772.0, 0.06343390552172323
773.0, 0.05507304731502337
774.0, 0.04165985111724626
775.0, 0.04398857745288453
776.0, 0.03744361420977943
777.0, 0.03487132271265624
778.0, 0.035044375543171975
779.0, 0.03618278703378858
780.0, 0.03888226055738689
781.0, 0.036780445859559426
782.0, 0.0353653532398183
783.0, 0.03695604372435424
784.0, 0.04277625760779288
785.0, 0.050224812895350676
786.0, 0.05115443049643435
787.0, 0.05485747238959012
788.0, 0.06776108877042726
789.0, 0.06981131085178095
790.0, 0.07087101089731535
791.0, 0.07580626779304564
792.0, 0.08210248773590097
793.0, 0.08055551471322042
794.0, 0.09079707312583422
795.0, 0.08768176567042944
796.0, 0.08247753721352102
797.0, 0.08331729553251704
798.0, 0.06860423479899155
799.0, 0.06416636447760515
800.0, 0.05876987505465796
801.0, 0.04926156128018319
802.0, 0.035987166115606095
803.0, 0.03849951443400979
804.0, 0.025446614651323068
805.0, 0.014726857786299207
806.0, 0.017158406028090333
807.0, 0.009421286703164309
808.0, 0.0031088980189968927
809.0, 0.0004927362001382992
810.0, 0.0009445850295981594
811.0, 0.002262425771523393
812.0, 0.010068204851062327
813.0, 0.010491532186947587
814.0, 0.009641119208998482
815.0, 0.01165945521489061
816.0, 0.016826344055587597
817.0, 0.018237772092749946
818.0, 0.015757055504314648
819.0, 0.014576970411941594
820.0, 0.021408803700705106
821.0, 0.021086330240268313
822.0, 0.01725933969767532
823.0, 0.015877837066137268
824.0, 0.01776433368304371
825.0, 0.01583456051873558
826.0, 0.01447655975179722
827.0, 0.015855298490681822
828.0, 0.016740460702075164
829.0, 0.013643284916295902
830.0, 0.008827338599642118
831.0, 0.009554948244225205
832.0, 0.01036891638504666
833.0, 0.009783346585492
834.0, 0.008859099725015756
835.0, 0.008070244537187864
836.0, 0.004825903120979395
837.0, 0.0017001998374933764
838.0, 0.0012160823163842888
839.0, 0.005926221983827294
840.0, 0.01271503215366505
841.0, 0.012740660694798822
842.0, 0.010943530463753367
843.0, 0.01767346758151944
844.0, 0.026137377074955368
845.0, 0.028262378837761934
846.0, 0.03169503211434439
847.0, 0.03763341629719866
848.0, 0.03681553144094713
849.0, 0.051861917514949146
850.0, 0.06249688007341493
851.0, 0.06757368405929433
852.0, 0.06952254355392509
853.0, 0.07908726266739179
854.0, 0.09413497371165827
855.0, 0.11046190413138322
856.0, 0.1228940929851427
857.0, 0.12429513172079792
858.0, 0.1352377678926733
859.0, 0.15077515458666432
860.0, 0.1708542393235367
861.0, 0.19156559068482493
862.0, 0.1976177875597691
863.0, 0.2236413100454007
864.0, 0.23915358263908418
865.0, 0.2536153308322133
866.0, 0.2812491064539669
867.0, 0.3063687927776472
868.0, 0.32740549451842016
869.0, 0.34840126495018886
870.0, 0.37174846455444255
871.0, 0.39939235610895846
872.0, 0.42127557844874547
873.0, 0.4452927356729106
874.0, 0.4699421296557551
875.0, 0.49214175247255526
876.0, 0.5038076622835588
877.0, 0.5299932473408439
878.0, 0.5409025517190575
879.0, 0.5434935203271469
880.0, 0.5486130009455054
881.0, 0.5380085799092907
882.0, 0.5303010765014166
883.0, 0.5136635219840223
884.0, 0.49143317316003604
885.0, 0.47661570240357876
886.0, 0.4589344882254355
887.0, 0.4381901312917239
888.0, 0.4119075313308486
889.0, 0.3820200302267573
890.0, 0.35921102891849793
891.0, 0.3408540661484112
892.0, 0.3200032928450083
893.0, 0.2990866325016329
894.0, 0.28056542653536704
895.0, 0.261438235092226
896.0, 0.2427895162244391
897.0, 0.22790810887835455
898.0, 0.21765858172810362
899.0, 0.21147299053879887
900.0, 0.1986709373043759
901.0, 0.190258838428827
902.0, 0.1862656765782415
903.0, 0.18111616250426868
904.0, 0.1620197223008112
905.0, 0.16238104577043977
906.0, 0.1630994638413015
907.0, 0.15947630200114105
908.0, 0.1509183189821817
909.0, 0.14533589532703967
910.0, 0.14157737732713088
911.0, 0.1430981083674911
912.0, 0.14306543255459997
913.0, 0.13730520937590257
914.0, 0.15025833547415324
915.0, 0.14477857645340322
916.0, 0.13832772190893663
917.0, 0.14320197057521467
918.0, 0.16806755836871462
919.0, 0.15900471081545514
920.0, 0.15574138787584463
921.0, 0.1499984772750694
922.0, 0.14495499270279277
923.0, 0.15470998654454174
924.0, 0.15531134007621272
925.0, 0.15662540772111452
926.0, 0.15962627555482
927.0, 0.16260563442923054
928.0, 0.15845373838211368
929.0, 0.1705231682372284
930.0, 0.18073174984150134
931.0, 0.1846508413752268
932.0, 0.18310020283195483
933.0, 0.19189250051557483
934.0, 0.20798100483423088
935.0, 0.21434348896364303
936.0, 0.2216786029408087
937.0, 0.24193099308048127
938.0, 0.23727689278661898
939.0, 0.2521996633281177
940.0, 0.27129806983093246
941.0, 0.29126338237788224
942.0, 0.31349612942475613
943.0, 0.33537696539014883
944.0, 0.3567384823545415
945.0, 0.38151702519957553
946.0, 0.40978991746103277
947.0, 0.4383402344599595
948.0, 0.46915480278027955
949.0, 0.501345343222373
950.0, 0.5449186284854464
951.0, 0.5944459379452224
952.0, 0.6200671697794065
953.0, 0.6594761553054319
954.0, 0.7087706507545604
955.0, 0.754949750236571
956.0, 0.7923674775172705
957.0, 0.833885795580143
958.0, 0.8667071318570779
959.0, 0.898957592759445
960.0, 0.9274647283252555
961.0, 0.9491873328076875
962.0, 0.9659140288539062
963.0, 0.983259928967689
964.0, 0.9930827571411415
965.0, 0.9973922567070841
966.0, 0.9992395435025458
967.0, 0.9917102712505239
968.0, 0.9782442022743234
969.0, 0.9683677235640562
970.0, 0.9556135796566668
971.0, 0.931009625300819
972.0, 0.916362723914298
973.0, 0.8953258078746716
974.0, 0.8754276578959963
975.0, 0.8533544614251545
976.0, 0.8213216492128735
977.0, 0.7861975769791709
978.0, 0.7668764233348907
979.0, 0.747185755232387
980.0, 0.7219711722649891
981.0, 0.69353024615944
982.0, 0.6949053926679027
983.0, 0.6565258037207435
984.0, 0.6337658730348721
985.0, 0.6325840527147344
986.0, 0.6165105343007268
987.0, 0.601612277765084
988.0, 0.5999967110010426
989.0, 0.5950884601939896
990.0, 0.585632093964847
991.0, 0.5876162128581932
992.0, 0.5899701825340709
993.0, 0.5891490514757354
994.0, 0.5939655408381044
995.0, 0.604520951960856
996.0, 0.6087339525710591
997.0, 0.6251543637786168
998.0, 0.6268486783748024
999.0, 0.6423153220052946
1000.0, 0.671450993712967
1001.0, 0.665042227081835
1002.0, 0.6953800037992757
1003.0, 0.7068664420458085
1004.0, 0.7089815574541337
1005.0, 0.7145234293533718
1006.0, 0.7373323508444896
1007.0, 0.7347546126838821
1008.0, 0.7420444796302197
1009.0, 0.7510445100185494
1010.0, 0.7554008010111155
1011.0, 0.7570697939075124
1012.0, 0.7552210225830938
1013.0, 0.7571999655866887
1014.0, 0.7548298466464829
1015.0, 0.7493086925473212
1016.0, 0.7636289585077135
1017.0, 0.7591909045724614
1018.0, 0.7422379438687617
1019.0, 0.7331685154804131
1020.0, 0.7384623865244097
1021.0, 0.7346257297883079
1022.0, 0.7121132881213972
1023.0, 0.7071836270884405
1024.0, 0.6968816755818884
1025.0, 0.6732450497848173
1026.0, 0.6665288138722825
1027.0, 0.6442908411690301
1028.0, 0.6245808277341969
1029.0, 0.6095855010056069
1030.0, 0.5948523700795951
1031.0, 0.5652337660328798
1032.0, 0.5443105623157503
1033.0, 0.5190456920870836
1034.0, 0.4971350082542075
1035.0, 0.47918866019156175
1036.0, 0.45175274244173874
1037.0, 0.43522143253139967
1038.0, 0.42108983475254463
1039.0, 0.4068246795292287
1040.0, 0.3908480525075599
1041.0, 0.3725137769541259
1042.0, 0.34414430442289423
1043.0, 0.3300214813986289
1044.0, 0.3167551059478097
1045.0, 0.2985027776434442
1046.0, 0.2803322488434892
1047.0, 0.2689572937526454
1048.0, 0.26167645907258746
1049.0, 0.2491835973079598
1050.0, 0.23487479161380875
1051.0, 0.2349572081695013
1052.0, 0.22873898121222064
1053.0, 0.21251779521522565
1054.0, 0.19941571763203528
1055.0, 0.19419053393786329
1056.0, 0.1941628228445414
1057.0, 0.18589994008903596
1058.0, 0.17749607190438127
1059.0, 0.1691906712133575
1060.0, 0.16324050393398068
1061.0, 0.16251713516236768
1062.0, 0.160501996388249
1063.0, 0.15178398060368625
1064.0, 0.145689932879982
1065.0, 0.14097267805571317
1066.0, 0.13387591561332743
1067.0, 0.14304822416060603
1068.0, 0.1317482518233648
1069.0, 0.12475227281460305
1070.0, 0.12540301812580446
1071.0, 0.12777561977679944
1072.0, 0.11418951289430088
1073.0, 0.10996265996748651
1074.0, 0.10848216413090662
1075.0, 0.10519723632051566
1076.0, 0.09853125220642349
1077.0, 0.09623924972177134
1078.0, 0.09917665724151574
1079.0, 0.09444252570578393
1080.0, 0.0933190681051421
1081.0, 0.0986712652573899
1082.0, 0.08515871490233183
1083.0, 0.07729370190245896
1084.0, 0.07438150752316827
1085.0, 0.07300270076686423
1086.0, 0.07093335891602717
1087.0, 0.06819437151527609
1088.0, 0.06412589540258519
1089.0, 0.05981616729655475
1090.0, 0.05550351188373479
1091.0, 0.05113681719375319
1092.0, 0.046637654615477434
1093.0, 0.05063484090840151
1094.0, 0.052819524808828476
1095.0, 0.05104960304898691
1096.0, 0.04767258438551014
1097.0, 0.0476742772708439
1098.0, 0.05536024430555754
1099.0, 0.05405577784964743
1100.0, 0.053967825507139876
1101.0, 0.05577992285967173
1102.0, 0.05665114898753526
1103.0, 0.05247947540607293
1104.0, 0.05589967773573577
1105.0, 0.05627027608862147
1106.0, 0.06033955114953458
1107.0, 0.07024015826633466
1108.0, 0.06738857331950508
1109.0, 0.07520548652665297
1110.0, 0.07951468933302652
1111.0, 0.07916355556410769
1112.0, 0.07915598701195573
1113.0, 0.09142148795389439
1114.0, 0.08632739490157461
1115.0, 0.08594234003828223
1116.0, 0.08693581212047315
1117.0, 0.08947723678544969
1118.0, 0.09565944320050955
1119.0, 0.09095846343964949
1120.0, 0.08534239151129779
1121.0, 0.08672059572588828
1122.0, 0.09222552485905948
1123.0, 0.09545085076589147
1124.0, 0.09615924587454505
1125.0, 0.08687917143516795
1126.0, 0.08572662206608248
1127.0, 0.08734342264347265
1128.0, 0.0860135014346147
1129.0, 0.08708015382351747
1130.0, 0.08569942267957688
1131.0, 0.07974094280077133
1132.0, 0.07000065726636791
1133.0, 0.06093882683819162
1134.0, 0.06061553084005462
1135.0, 0.06585969643139866
1136.0, 0.05853266941087174
1137.0, 0.05679868502389328
1138.0, 0.05578851585148644
1139.0, 0.04184354476073171
1140.0, 0.04359046138925811
1141.0, 0.03878302418269856
1142.0, 0.035216905225325904
1143.0, 0.03455458198321429
1144.0, 0.036043507136179945
1145.0, 0.03676890327329711
1146.0, 0.0340206076963985
1147.0, 0.03423429645967204
1148.0, 0.03430002933925732
1149.0, 0.03110470235302631
1150.0, 0.023159626379601353
1151.0, 0.026926351914581283
1152.0, 0.02581036875036584
1153.0, 0.02085426083307409
1154.0, 0.017581465678964268
1155.0, 0.021295515209917272
1156.0, 0.015268573567632405
1157.0, 0.01551052300567681
1158.0, 0.01961480982698742
1159.0, 0.021747903890593057
1160.0, 0.017684574195028932
1161.0, 0.00983503510118155
1162.0, 0.014123919428744398
1163.0, 0.014573325851595573
1164.0, 0.014918575569691546
1165.0, 0.016636365009742728
1166.0, 0.017138188920898828
1167.0, 0.016203017389970324
1168.0, 0.015684799605627478
1169.0, 0.015445115734258007
1170.0, 0.01416078095394299
1171.0, 0.011300028551006995
1172.0, 0.012748456196975714
1173.0, 0.008658279686380166
1174.0, 0.007887611714997796
1175.0, 0.009111925028398284
1176.0, 0.008414630629576572
1177.0, 0.0005714916337867344
1178.0, 0.0031479148762017716
1179.0, 0.0016376247683350842
1180.0, 0.0008530947699982709
1181.0, 0.0013408624564844273
1182.0, 0.0011941468978073685
1183.0, 0.0045931648100461225
1184.0, 0.005352466675398938
1185.0, 0.00479070486271063
1186.0, 0.0034824170881485395
1187.0, 0.0023705849700912406
1188.0, 0.0035332992676337456
1189.0, 0.0030250947819970846
1190.0, 0.003559274699662279
1191.0, 0.0024576437866827535
1192.0, 0.0016961492506559345
1193.0, 0.006033987409660505
1194.0, 0.005869482402444227
1195.0, 0.010172460821642205
1196.0, 0.006932364760078115
1197.0, 0.005407359955431307
1198.0, 0.011348470820112637
1199.0, 0.004018809750039041
1200.0, 0.007968846723129329
1201.0, 0.0038144726505608237
1202.0, 0.004088160467620897
1203.0, 0.007392406614736729
1204.0, 0.0005573872102125118
1205.0, 0.005621285608878333
1206.0, 0.003837842712908497
1207.0, 0.006312489961730884
1208.0, 0.01037091633951501
1209.0, 0.01042477543419321
1210.0, 0.0046547696822224005
1211.0, 0.006979017695070135
1212.0, 0.005068708033770538
1213.0, 0.005041707505398341
1214.0, 0.005857468820018799
1215.0, 0.00110638267533399
1216.0, 0.0025288642290672023
1217.0, 0.001235247124937263
1218.0, 0.0003836742804420975
1219.0, 0.0007681600778231079
1220.0, 0.001997603312673673
1221.0, 0.002550148782065751
1222.0, 0.00581656013926342
1223.0, 0.004039805412236485
1224.0, 0.002563994115718762
1225.0, 0.002302606315166795
1226.0, 0.0015010351476882505
1227.0, 0.005717739805777782
1228.0, 0.004021284255676829
1229.0, 0.0017709376438179419
1230.0, 0.00043294873862026776
1231.0, 0.0014628931922125153
1232.0, 0.007244483854624809
1233.0, 0.005177289502506772
1234.0, 0.0053232222362143864
1235.0, 0.004549818518998614
1236.0, 0.004393417487709057
1237.0, 0.006948621943655436
1238.0, 0.006383792131491208
1239.0, 0.008540070691031843
1240.0, 0.010429978482689561
1241.0, 0.009141175827422935
1242.0, 0.006213069809739102
1243.0, 0.007286754923224698
1244.0, 0.007575554343761428
1245.0, 0.009401593051028645
1246.0, 0.009985336396324769
1247.0, 0.008437145900874493
1248.0, 0.00736389356373808
1249.0, 0.015769114873899724
1250.0, 0.010796465636998837
1251.0, 0.005769882871492456
1252.0, 0.004397088378033295
1253.0, 0.006825035058367078
1254.0, 0.010120088816610664
1255.0, 0.0071737184056011715
1256.0, 0.003504951087507477
1257.0, 0.008849702694479102
1258.0, 0.01395809395755336
1259.0, 0.01149287904805953
1260.0, 0.0020682093888343606
1261.0, 0.00855271011437959
1262.0, 0.008493059685746573
1263.0, 0.010057616629553984
1264.0, 0.010147802275106161
1265.0, 0.007119452935137368
1266.0, 0.011339772199434068
1267.0, 0.0119991335616595
1268.0, 0.012133721275366586
1269.0, 0.012255690310449296
1270.0, 0.0123752644519892
1271.0, 0.012009970114283742
1272.0, 0.009711762529788448
1273.0, 0.011756232797002091
1274.0, 0.011986493086552226
1275.0, 0.01211656400198054
1276.0, 0.012107902619658642
1277.0, 0.010337048152168658
1278.0, 0.017440565352068095
1279.0, 0.017512572754732822
1280.0, 0.015992196306249044
1281.0, 0.013713691267842517
1282.0, 0.010940116963569693
1283.0, 0.008795047778784608
1284.0, 0.011813979641679235
1285.0, 0.011770520934091692
1286.0, 0.009410121463116788
1287.0, 0.010255141926036444
1288.0, 0.014119280288197155
1289.0, 0.0012942779627223957
1290.0, 0.011080549225238144
1291.0, 0.012889256730227606
1292.0, 0.010570806080892996
1293.0, 0.009863590055686999
1294.0, 0.013742415742238124
1295.0, 0.013339676636538154
1296.0, 0.010654250391034221
1297.0, 0.013540820725160402
1298.0, 0.01717533753128993
1299.0, 0.01812090127073435
1300.0, 0.016253441894722668
1301.0, 0.014831881942315482
1302.0, 0.014437370402961195
1303.0, 0.01755472739014109
1304.0, 0.017887515112553924
1305.0, 0.015590146807885922
1306.0, 0.019566444892380346
1307.0, 0.023421367494142413
1308.0, 0.021940818039195068
1309.0, 0.02619666214081095
1310.0, 0.028778245770549056
1311.0, 0.02620639095952925
1312.0, 0.028805670384649613
1313.0, 0.01933617088957358
1314.0, 0.02697684462978541
1315.0, 0.023745109156501507
1316.0, 0.018828603722932654
1317.0, 0.0226822520371238
1318.0, 0.01914821576798962
1319.0, 0.027032225296305983
1320.0, 0.027827314304960472
1321.0, 0.019914955231427053
1322.0, 0.01465950930142539
1323.0, 0.01910603205396783
1324.0, 0.01392010304808517
1325.0, 0.025273311182586154
1326.0, 0.023577765379282124
1327.0, 0.012873118665703726
1328.0, 0.005371777680114892
1329.0, 0.009779212987462656
1330.0, 0.012721791607384863
1331.0, 0.012888630001714746
1332.0, 0.010956658565226535
1333.0, 0.010274156143866644
1334.0, 0.0099074774475584
1335.0, 0.007652524339705838
1336.0, 0.0074713477596468495
1337.0, 0.006946348610421695
1338.0, 0.004980891863180166
1339.0, 0.004289484164228182
1340.0, 0.005005815550210212
1341.0, 0.0056555242575505
1342.0, 0.006985915446315794
1343.0, 0.007030065187494952
1344.0, 0.01053382559070792
1345.0, 0.011264292113368763
1346.0, 0.010717586569074207
1347.0, 0.01366643274699094
1348.0, 0.009845394034531647
1349.0, 0.006318089233591457
1350.0, 0.013567943206591292
1351.0, 0.015449812774085412
1352.0, 0.012260906387977477
1353.0, 0.01575522117243408
1354.0, 0.021131354815068427
1355.0, 0.008999615282702007
1356.0, 0.011943136745287082
1357.0, 0.01554036853859592
1358.0, 0.014666055215530091
1359.0, 0.014797661321056168
1360.0, 0.018495899225161528
1361.0, 0.010775031924041254
1362.0, 0.019105682940200267
1363.0, 0.025981224309671442
1364.0, 0.02184375592880631
1365.0, 0.011257079815250086
1366.0, 0.015672057239494476
1367.0, 0.016516638431390836
1368.0, 0.01709665067137887
1369.0, 0.014144373490641089
1370.0, 0.011926566412072868
1371.0, 0.014854092165882541
1372.0, 0.009262478149603327
1373.0, 0.013455236692916745
1374.0, 0.016146794519948587
1375.0, 0.015881579156754654
1376.0, 0.013273366154071271
1377.0, 0.010322064905991699
1378.0, 0.010148093656592317
1379.0, 0.01749014532848648
1380.0, 0.013859576157527444
1381.0, 0.011495148740278975
1382.0, 0.015454991251818064
1383.0, 0.021145491754030854
1384.0, 0.013101657439671576
1385.0, 0.01444958535238914
1386.0, 0.011286332404467001
1387.0, 0.01016767537843635
1388.0, 0.010261044369767713
1389.0, 0.009432729735964469
1390.0, 0.009599594762822412
1391.0, 0.009140917543796414
1392.0, 0.009964095182531697
1393.0, 0.011173815369415056
1394.0, 0.010024566674649404
1395.0, 0.00690651304083302
1396.0, 0.007014233345536285
1397.0, 0.004332798155422798
1398.0, 0.009888754809559955
1399.0, 0.00693397230954026
1400.0, 0.005715328629536467
1401.0, 0.009144485637059413
1402.0, 0.005897125570361956
1403.0, 0.005989872941276995
1404.0, 0.0025026311592615995
1405.0, 0.0038816774354923003
1406.0, 0.004143603921699456
1407.0, 0.0035039681112659263
1408.0, 0.007792983551615443
1409.0, 0.012653894532991736
1410.0, 0.004546972193195945
1411.0, 0.007804404381762038
1412.0, 0.007775325060871245
1413.0, 0.004632928804986801
1414.0, 0.0061246818993023104
1415.0, 0.005390823734791036
1416.0, 0.007357816906407236
1417.0, 0.007630015700169645
1418.0, 0.01002330811328245
1419.0, 0.010165206274605638
1420.0, 0.00614815556568755
1421.0, 0.0073426103153834705
1422.0, 0.0035176959834873744
1423.0, 0.005567403785390299
1424.0, 0.006967966409332839
1425.0, 0.005355047287689459
1426.0, 0.002250528038986674
1427.0, 0.0015104710711836174
1428.0, 0.00015033773783943002
1429.0, 0.001229325089999386
1430.0, 0.0006626574325746573
1431.0, 0.0059669284492572805
1432.0, 0.01148862817024419
1433.0, 0.0051806130220920805
1434.0, 0.0002230885990378035
1435, 0.0
1436, 0.0
1437, 0.0
1438, 0.0
1439, 0.0
1440, 0.0
1441, 0.0
1442, 0.0
1443, 0.0
1444, 0.0
1445, 0.0
1446, 0.0
1447, 0.0
1448, 0.0
1449, 0.0
1450, 0.0
1451, 0.0
1452, 0.0
1453, 0.0
1454, 0.0
1455, 0.0
1456, 0.0
1457, 0.0
1458, 0.0
1459, 0.0
1460, 0.0
1461, 0.0
1462, 0.0
1463, 0.0
1464, 0.0
1465, 0.0
1466, 0.0
1467, 0.0
1468, 0.0
1469, 0.0
1470, 0.0
1471, 0.0
1472, 0.0
1473, 0.0
1474, 0.0
1475, 0.0
1476, 0.0
1477, 0.0
1478, 0.0
1479, 0.0
1480, 0.0
1481, 0.0
1482, 0.0
1483, 0.0
1484, 0.0
1485, 0.0
1486, 0.0
1487, 0.0
1488, 0.0
1489, 0.0
1490, 0.0
1491, 0.0
1492, 0.0
1493, 0.0
1494, 0.0
1495, 0.0
1496, 0.0
1497, 0.0
1498, 0.0
1499, 0.0
1500, 0.0
1501, 0.0
1502, 0.0
1503, 0.0
1504, 0.0
1505, 0.0
1506, 0.0
1507, 0.0
1508, 0.0
1509, 0.0
1510, 0.0
1511, 0.0
1512, 0.0
1513, 0.0
1514, 0.0
1515, 0.0
1516, 0.0
1517, 0.0
1518, 0.0
1519, 0.0
1520, 0.0
1521, 0.0
1522, 0.0
1523, 0.0
1524, 0.0
1525, 0.0
1526, 0.0
1527, 0.0
1528, 0.0
1529, 0.0
1530, 0.0
1531, 0.0
1532, 0.0
1533, 0.0
1534, 0.0
1535, 0.0
1536, 0.0
1537, 0.0
1538, 0.0
1539, 0.0
1540, 0.0
1541, 0.0
1542, 0.0
1543, 0.0
1544, 0.0
1545, 0.0
1546, 0.0
1547, 0.0
1548, 0.0
1549, 0.0
1550, 0.0
1551, 0.0
1552, 0.0
1553, 0.0
1554, 0.0
1555, 0.0
1556, 0.0
1557, 0.0
1558, 0.0
1559, 0.0
1560, 0.0
1561, 0.0
1562, 0.0
1563, 0.0
1564, 0.0
1565, 0.0
1566, 0.0
1567, 0.0
1568, 0.0
1569, 0.0
1570, 0.0
1571, 0.0
1572, 0.0
1573, 0.0
1574, 0.0
1575, 0.0
1576, 0.0
1577, 0.0
1578, 0.0
1579, 0.0
1580, 0.0
1581, 0.0
1582, 0.0
1583, 0.0
1584, 0.0
1585, 0.0
1586, 0.0
1587, 0.0
1588, 0.0
1589, 0.0
1590, 0.0
1591, 0.0
1592, 0.0
1593, 0.0
1594, 0.0
1595, 0.0
1596, 0.0
1597, 0.0
1598, 0.0
1599, 0.0
