30, 0.0
31, 0.0
32, 0.0
33, 0.0
34, 0.0
35, 0.0
36, 0.0
37, 0.0
38, 0.0
39, 0.0
40, 0.0
41, 0.0
42, 0.0
43, 0.0
44, 0.0
45, 0.0
46, 0.0
47, 0.0
48, 0.0
49, 0.0
50, 0.0
51, 0.0
52, 0.0
53, 0.0
54, 0.0
55, 0.0
56, 0.0
57, 0.0
58, 0.0
59, 0.0
60, 0.0
61, 0.0
62, 0.0
63, 0.0
64, 0.0
65, 0.0
66, 0.0
67, 0.0
68, 0.0
69, 0.0
70, 0.0
71, 0.0
72, 0.0
73, 0.0
74.0, 4.9207422950475185e-05
75.0, 0.00036064680871297403
76.0, 0.006812709334729763
77.0, 0.018970208736176553
78.0, 0.03769849681732648
79.0, 0.05952283421529286
80.0, 0.08765117626448113
81.0, 0.1217552176077574
82.0, 0.16214456704480185
83.0, 0.19754982161356344
84.0, 0.22746511471917805
85.0, 0.2508577975710997
86.0, 0.2609853050009428
87.0, 0.26642002911338664
88.0, 0.26483755442830387
89.0, 0.2477776484040179
90.0, 0.21799793641591
91.0, 0.18270953317835414
92.0, 0.14433108180967702
93.0, 0.12742250586399342
94.0, 0.11956761387517471
95.0, 0.12070548487019427
96.0, 0.13363001278014697
97.0, 0.16047852889138464
98.0, 0.19621332869994187
99.0, 0.23991439854672234
100.0, 0.2880308873737867
101.0, 0.34564575125640823
102.0, 0.4047875224192819
103.0, 0.4547350594200589
104.0, 0.4397702092924898
105.0, 0.3849774216672115
106.0, 0.2974110436463086
107.0, 0.20877463559922438
108.0, 0.14173641174115578
109.0, 0.0934096734460329
110.0, 0.06622691103816856
111.0, 0.04757645999878533
112.0, 0.037753017138477285
113.0, 0.03542777898874175
114.0, 0.03475254331273252
115.0, 0.029362231214507945
116.0, 0.023038348384815763
117.0, 0.017929799605435837
118.0, 0.01027846485630872
119.0, 0.0044468134985140885
120.0, 0.0007635182449860572
121.0, 0.0003104273392318001
122.0, 0.0012103372196839185
123.0, 0.0026192011344673685
124.0, 0.004222011568078717
125.0, 0.0035269911743148323
126.0, 0.004020746081458645
127.0, 0.004858055120909047
128.0, 0.004593993026775712
129.0, 0.005616359486733534
130.0, 0.005137961659341706
131.0, 0.0029554408097199184
132.0, 0.003936768709610209
133.0, 0.0031697525093196065
134.0, 0.0018227213475469858
135.0, 0.0009377198531423252
136.0, 0.003221298748726234
137.0, 0.00548330440030529
138.0, 0.007867247711565061
139.0, 0.012620810468369142
140.0, 0.018405199544179834
141.0, 0.024361762254347552
142.0, 0.030048062287463227
143.0, 0.0342691113721609
144.0, 0.03809043371401642
145.0, 0.04093912097810546
146.0, 0.04112387550917848
147.0, 0.04083980768600915
148.0, 0.03931405238386842
149.0, 0.03626161749854955
150.0, 0.031781394259086174
151.0, 0.027213067199147956
152.0, 0.0234478633283953
153.0, 0.021763826413142336
154.0, 0.019990674341328493
155.0, 0.0182366974940687
156.0, 0.016657890172203822
157.0, 0.01601599676911413
158.0, 0.01690547405150407
159.0, 0.019514047883917734
160.0, 0.024194426820233778
161.0, 0.026280467416472716
162.0, 0.03292096737140654
163.0, 0.04357613756958724
164.0, 0.05777815723979268
165.0, 0.0743593620258493
166.0, 0.09830638109121939
167.0, 0.13085042156016125
168.0, 0.1678291899284091
169.0, 0.2128926741804973
170.0, 0.25888547000607803
171.0, 0.2989650773447758
172.0, 0.3126447589078237
173.0, 0.2927250363616046
174.0, 0.24367981085809953
175.0, 0.17941555830064293
176.0, 0.13369875118009122
177.0, 0.0968409183194998
178.0, 0.06602015000971224
179.0, 0.0509402649644375
180.0, 0.03672788588920618
181.0, 0.024099718500493077
182.0, 0.014531252623069969
183.0, 0.011253479979638369
184.0, 0.008882983429478037
185.0, 0.006605451017820233
186.0, 0.004312947477499397
187.0, 0.0030907040985968474
188.0, 0.0019527707015204532
189.0, 0.0003477031500733034
190.0, 0.002736898619216473
191.0, 0.005684133128956943
192.0, 0.008268920160343614
193.0, 0.008593169779769799
194.0, 0.012463599537704772
195.0, 0.014729152055932863
196.0, 0.015067509182461657
197.0, 0.0193892117490335
198.0, 0.024609937236116458
199.0, 0.02929083717523204
200.0, 0.03232143847712289
201.0, 0.03065873654254112
202.0, 0.03147057410890049
203.0, 0.033305864107522405
204.0, 0.032428158192679565
205.0, 0.03616766520077113
206.0, 0.0402301770591183
207.0, 0.04294447900670829
208.0, 0.03841169062134357
209.0, 0.036808492355178156
210.0, 0.03650496239241975
211.0, 0.036457531034994065
212.0, 0.03159586085234644
213.0, 0.0314980792760343
214.0, 0.03498451508868855
215.0, 0.03902403235450144
216.0, 0.044721368539295044
217.0, 0.05047463991172847
218.0, 0.055243341030895086
219.0, 0.053275994619250484
220.0, 0.049697150285882064
221.0, 0.04457303240680822
222.0, 0.037718523171579824
223.0, 0.033882234409880106
224.0, 0.03250374702104825
225.0, 0.03313562457493241
226.0, 0.03522382807391357
227.0, 0.035298685995864984
228.0, 0.039246904306310226
229.0, 0.04685868662755496
230.0, 0.0473669676087434
231.0, 0.04483675263705701
232.0, 0.040958640586552714
233.0, 0.036623904053839404
234.0, 0.03171061516560093
235.0, 0.02866033889501603
236.0, 0.02770293207584629
237.0, 0.029605079794218257
238.0, 0.033112869775633595
239.0, 0.03888360954615399
240.0, 0.04604888609541526
241.0, 0.04970478019987319
242.0, 0.053562365078001925
243.0, 0.05479965227074156
244.0, 0.0519706177869518
245.0, 0.04822982341298183
246.0, 0.044540873413103026
247.0, 0.04234153485098749
248.0, 0.04370645314281619
249.0, 0.05643152679453607
250.0, 0.06824795865187779
251.0, 0.07859538489341736
252.0, 0.08920573393214215
253.0, 0.08617674585983963
254.0, 0.07255742483823095
255.0, 0.050151579445542716
256.0, 0.03339917578913443
257.0, 0.019257729365519772
258.0, 0.00845800100084872
259.0, 0.0020263513044102045
260.0, 0.0014496278216802557
261.0, 0.0025936107119290527
262.0, 0.004019576961314169
263.0, 0.0031579617199994567
264.0, 0.002972459158455538
265.0, 0.0068310567846630865
266.0, 0.013563791666845761
267.0, 0.014562160293936017
268.0, 0.01987684008381506
269.0, 0.023171736401404856
270.0, 0.02206431258321487
271.0, 0.027413006483013615
272.0, 0.029816885586253828
273.0, 0.031186971289638012
274.0, 0.03334366040825749
275.0, 0.03405887056203814
276.0, 0.04166382331254844
277.0, 0.05300066397660595
278.0, 0.05994323246440779
279.0, 0.06476324757968192
280.0, 0.07074016373523556
281.0, 0.07784177779901602
282.0, 0.08177266683392972
283.0, 0.08627888169413736
284.0, 0.08604273616268183
285.0, 0.0782857475908577
286.0, 0.06762576388854051
287.0, 0.05954393765363594
288.0, 0.051086764552248184
289.0, 0.03900590600887657
290.0, 0.03174870620188662
291.0, 0.02632673754830186
292.0, 0.021077759699151894
293.0, 0.012527554314729319
294.0, 0.013684990710739062
295.0, 0.012020513256138458
296.0, 0.006763954673082553
297.0, 0.006833465210633644
298.0, 0.007303508165956814
299.0, 0.006660762289079325
300.0, 0.004599884872352621
301.0, 0.008284796412122316
302.0, 0.009345826672260214
303.0, 0.011064950195594725
304.0, 0.01645796896524158
305.0, 0.026151696112735642
306.0, 0.03539569396605151
307.0, 0.045980788085615704
308.0, 0.06166623711373673
309.0, 0.08492530756763425
310.0, 0.10284160960527361
311.0, 0.11568117530578602
312.0, 0.13057612055044857
313.0, 0.13696816872722434
314.0, 0.14023058044111247
315.0, 0.14195439188792647
316.0, 0.1425876066177425
317.0, 0.14372279778716632
318.0, 0.14419282698550195
319.0, 0.14327672294963353
320.0, 0.14191127992336663
321.0, 0.13962593143580115
322.0, 0.13590143163870771
323.0, 0.1299790677147677
324.0, 0.12407527445071158
325.0, 0.11389897173227623
326.0, 0.10368902665164248
327.0, 0.10295731039657256
328.0, 0.09595677152682697
329.0, 0.08931116541483083
330.0, 0.08412233580978906
331.0, 0.08064951786282593
332.0, 0.07826458955135777
333.0, 0.07328681188176951
334.0, 0.06572797307509208
335.0, 0.06593836142952979
336.0, 0.061002496107130544
337.0, 0.0561775898453592
338.0, 0.05437337059468641
339.0, 0.05368090992250091
340.0, 0.05456066706803409
341.0, 0.05694402295870794
342.0, 0.06091384603412797
343.0, 0.06011970591176068
344.0, 0.0636118600229224
345.0, 0.07092382532755483
346.0, 0.08118361276100176
347.0, 0.08816777577573837
348.0, 0.100619382943155
349.0, 0.11914757085198698
350.0, 0.14325921645144193
351.0, 0.17146472386275774
352.0, 0.2032980803569098
353.0, 0.23912359637239722
354.0, 0.2812660781749708
355.0, 0.32485871191086935
356.0, 0.36326659589436217
357.0, 0.3930467559149484
358.0, 0.4072027190085772
359.0, 0.39250924554607625
360.0, 0.36034807574207983
361.0, 0.31705733009544756
362.0, 0.2777947131557902
363.0, 0.23498960367916508
364.0, 0.19496174113353534
365.0, 0.16405499733222445
366.0, 0.13984114411006215
367.0, 0.11760734142607135
368.0, 0.09742556198349694
369.0, 0.07975904876157004
370.0, 0.060865422010843315
371.0, 0.04321793760135654
372.0, 0.027480691713084728
373.0, 0.014896218269265446
374.0, 0.007182690677738645
375.0, 0.0029433138824574217
376.0, 0.0019423173404987581
377.0, 0.004370984870116529
378.0, 0.004985721048551429
379.0, 0.005755614061578153
380.0, 0.0065463139335408226
381.0, 0.0038317223566701124
382.0, 0.0015310851714393663
383.0, 0.0016751221597103355
384.0, 0.004725176727337662
385.0, 0.00678977591420874
386.0, 0.008030079109035923
387.0, 0.00812294309563659
388.0, 0.007077045217073866
389.0, 0.009595507638663589
390.0, 0.008679441440942539
391.0, 0.006923096838332858
392.0, 0.0062981361542426345
393.0, 0.004614442170461711
394.0, 0.0033178978452391814
395.0, 0.003398182730713493
396.0, 0.006040750142438257
397.0, 0.014942620842397853
398.0, 0.021321190519500783
399.0, 0.027424773024697414
400.0, 0.03707634797034828
401.0, 0.047258822379976306
402.0, 0.0572894844071671
403.0, 0.06757558892491432
404.0, 0.07907204484354687
405.0, 0.0934556667945613
406.0, 0.10508465779316074
407.0, 0.11558770632343737
408.0, 0.13117991859661968
409.0, 0.14465712529974625
410.0, 0.15646811734451535
411.0, 0.1666223022631531
412.0, 0.17480095781915514
413.0, 0.168904847924648
414.0, 0.16465727139690267
415.0, 0.16329659550948697
416.0, 0.15230116315138434
417.0, 0.14180771121872113
418.0, 0.1328213382360592
419.0, 0.1262057046923633
420.0, 0.12512064020519023
421.0, 0.12291220146319837
422.0, 0.11926648416783264
423.0, 0.11485742756355952
424.0, 0.11679792841973521
425.0, 0.11509281310899756
426.0, 0.10945042066409719
427.0, 0.10027857412472542
428.0, 0.09579368455545463
429.0, 0.0858973638419059
430.0, 0.07651674596115098
431.0, 0.07125422452450096
432.0, 0.07025299259915922
433.0, 0.0724597865808086
434.0, 0.07420864517849367
435.0, 0.07318555171279437
436.0, 0.07888938373968962
437.0, 0.08284117433406676
438.0, 0.08534680825299898
439.0, 0.08653141167393215
440.0, 0.08004074989339233
441.0, 0.07056822675943501
442.0, 0.05854942662684102
443.0, 0.04433908085116475
444.0, 0.037917531454765056
445.0, 0.028112362404774584
446.0, 0.01872603746443534
447.0, 0.013992793041932256
448.0, 0.012748522643737466
449.0, 0.008260626203378595
450.0, 0.004107164815216113
451.0, 0.004817988614079398
452.0, 0.0030643970105016793
453.0, 0.003370932148544727
454.0, 0.0042015570327520926
455.0, 0.0033327870184100793
456.0, 0.003977694037235979
457.0, 0.0029632240625843496
458.0, 0.0015478826663057595
459.0, 0.0017285653839458676
460.0, 0.0009727284898438027
461.0, 0.0008777493956625572
462.0, 0.002085494636441594
463.0, 0.005512599023755237
464.0, 0.005704703577058016
465.0, 0.005973344582765902
466.0, 0.006762770654909993
467.0, 0.00847542183489636
468.0, 0.010363571969447845
469.0, 0.01051876388729829
470.0, 0.009398643175824735
471.0, 0.007909646589453513
472.0, 0.006071838834954799
473.0, 0.007482649118685047
474.0, 0.008577796403984494
475.0, 0.0029358177870308605
476.0, 0.00391721711464448
477.0, 0.0050682680687005426
478.0, 0.0069450281219491285
479.0, 0.011316328842123868
480.0, 0.012166041826631035
481.0, 0.015684515552839857
482.0, 0.020551139623921945
483.0, 0.02389136667826708
484.0, 0.025458210190857415
485.0, 0.03086295436540574
486.0, 0.037686992670569096
487.0, 0.041473451887897556
488.0, 0.049207185119568723
489.0, 0.05529833402763271
490.0, 0.06031551602608163
491.0, 0.06565080092152283
492.0, 0.07922874182829075
493.0, 0.09205713159060126
494.0, 0.10488878843830522
495.0, 0.11955085341233379
496.0, 0.1354699319661725
497.0, 0.15018750407560863
498.0, 0.16547135291067291
499.0, 0.18386697890178116
500.0, 0.19682655221843046
501.0, 0.2078385842799244
502.0, 0.21756815161331766
503.0, 0.22667291782054788
504.0, 0.22658424632841495
505.0, 0.23360893089824133
506.0, 0.23952244348125157
507.0, 0.23485491635678293
508.0, 0.24089009984838888
509.0, 0.245488126907386
510.0, 0.24930952154140912
511.0, 0.25311662747707986
512.0, 0.25852272910935775
513.0, 0.26509146179885545
514.0, 0.2720798639502747
515.0, 0.2787567167852937
516.0, 0.2824226479064942
517.0, 0.28856529558816235
518.0, 0.295192381312332
519.0, 0.30109117645233774
520.0, 0.3120015063399001
521.0, 0.322804502517854
522.0, 0.3360664941848565
523.0, 0.35321767370499896
524.0, 0.37074104145572473
525.0, 0.39219597539661544
526.0, 0.41434631025550867
527.0, 0.4365316468174237
528.0, 0.46870593974630836
529.0, 0.48755429280603235
530.0, 0.5069486464743803
531.0, 0.5296127987574695
532.0, 0.5319978756728809
533.0, 0.5292877445190932
534.0, 0.5306754822667825
535.0, 0.534367167543584
536.0, 0.5142849205155146
537.0, 0.4992625634758681
538.0, 0.47777141054551303
539.0, 0.45006060864589525
540.0, 0.42990982858964205
541.0, 0.40446215582417805
542.0, 0.3851773739325065
543.0, 0.3699452915050092
544.0, 0.34514062087518554
545.0, 0.34039619743205507
546.0, 0.33482385067725556
547.0, 0.3294543903315666
548.0, 0.334131963105392
549.0, 0.3385269771689796
550.0, 0.35075459961386063
551.0, 0.3686018409868188
552.0, 0.38687974257003666
553.0, 0.41835684833313797
554.0, 0.45201357470935233
555.0, 0.4869673954375718
556.0, 0.5229115225970465
557.0, 0.5645623951243428
558.0, 0.5928335233598466
559.0, 0.6110608303931817
560.0, 0.6229462813659755
561.0, 0.6259852194246099
562.0, 0.6380793340980933
563.0, 0.6436561406685689
564.0, 0.6328336276022352
565.0, 0.6275046311568916
566.0, 0.6173417234021421
567.0, 0.5969242076759319
568.0, 0.5650348168633521
569.0, 0.5347434848446464
570.0, 0.4946406961969035
571.0, 0.45084006484559436
572.0, 0.4068660138320952
573.0, 0.36859302016611933
574.0, 0.3442464008214394
575.0, 0.3205773929002406
576.0, 0.2966016341607743
577.0, 0.2799166363167189
578.0, 0.269748821279204
579.0, 0.26429436403807754
580.0, 0.2638772833229509
581.0, 0.2698881635759677
582.0, 0.2675651556590922
583.0, 0.2774015550073954
584.0, 0.29158424212266376
585.0, 0.2963245174417939
586.0, 0.3166252475654603
587.0, 0.3429548943641682
588.0, 0.37117210077679647
589.0, 0.3980476981400291
590.0, 0.4471121437390809
591.0, 0.4902269738603565
592.0, 0.5362216289375993
593.0, 0.5916969248187011
594.0, 0.6634180789102089
595.0, 0.7386444017199667
596.0, 0.8052997518090956
597.0, 0.8567867608520064
598.0, 0.8863143365245953
599.0, 0.8869559822629881
600.0, 0.8616037364177668
601.0, 0.8093152161149503
602.0, 0.7246024105458595
603.0, 0.6418796712945661
604.0, 0.5637885455563697
605.0, 0.49263310721595305
606.0, 0.4321022819383151
607.0, 0.3755828746056253
608.0, 0.3300913219269929
609.0, 0.2936785078830961
610.0, 0.2631381871414474
611.0, 0.23634798070305732
612.0, 0.21624433899318013
613.0, 0.19934799342264076
614.0, 0.18337437368205856
615.0, 0.17529393327382045
616.0, 0.16500130202334864
617.0, 0.15765751471659367
618.0, 0.15410425206672326
619.0, 0.14516044926894567
620.0, 0.1374689189506949
621.0, 0.13110053056424217
622.0, 0.12726877791100333
623.0, 0.12958622441002526
624.0, 0.1243375624062792
625.0, 0.12312313898897118
626.0, 0.12292027016273914
627.0, 0.1156283054648345
628.0, 0.12229586924219332
629.0, 0.12400697539604404
630.0, 0.12409302740188774
631.0, 0.12694547506261789
632.0, 0.1327341825152911
633.0, 0.13105676039087333
634.0, 0.1300278165569506
635.0, 0.1328771671148487
636.0, 0.12564220731216377
637.0, 0.12339508507739994
638.0, 0.12005254883470114
639.0, 0.11470702646498143
640.0, 0.11168116464468796
641.0, 0.10890858913693731
642.0, 0.10700600739240873
643.0, 0.10556420127351031
644.0, 0.10358359106260338
645.0, 0.09965221193788858
646.0, 0.10012280318213358
647.0, 0.10294834456872759
648.0, 0.10546933103306799
649.0, 0.10831892466239602
650.0, 0.11363321523477109
651.0, 0.11675002028974142
652.0, 0.1171364314488204
653.0, 0.13117061043509795
654.0, 0.13528859904622445
655.0, 0.14169159731775108
656.0, 0.15062181971402555
657.0, 0.1502989906687833
658.0, 0.1573731897207663
659.0, 0.1645547992648394
660.0, 0.1670914814659983
661.0, 0.1591221206312109
662.0, 0.15110222152662936
663.0, 0.14404698287198034
664.0, 0.13723004868967623
665.0, 0.1293328365377233
666.0, 0.11107198351299957
667.0, 0.10195761455624043
668.0, 0.09221967842888118
669.0, 0.07933326494736333
670.0, 0.073123990704299
671.0, 0.06316139512480219
672.0, 0.05363983663316693
673.0, 0.04729613490193587
674.0, 0.048019329519232365
675.0, 0.03697743691482816
676.0, 0.032133978470485484
677.0, 0.030099517454578183
678.0, 0.025643598401521993
679.0, 0.020684527064265636
680.0, 0.020242683509404752
681.0, 0.01801701214770445
682.0, 0.01208860629457043
683.0, 0.012579818539296888
684.0, 0.013237592054844802
685.0, 0.010822457202149005
686.0, 0.006644530210012575
687.0, 0.0061624862058628545
688.0, 0.0017875049870731577
689.0, 0.0010706445124447597
690.0, 0.0029408555048431482
691.0, 0.005027788877715912
692.0, 0.0011542628984904924
693.0, 0.0006177825970723265
694.0, 0.001453726823356455
695.0, 0.0023071204363405155
696.0, 0.002433686643240925
697.0, 0.002807952222055667
698.0, 0.003284118051810061
699.0, 0.003213000991015783
700.0, 0.0011157491172254785
701.0, 0.002647659441007833
702.0, 0.0029423634172166826
703.0, 0.0032770549720962925
704.0, 0.0053324453693950665
705.0, 0.0023859544192711118
706.0, 0.0007521269665672653
707.0, 0.0006418820755104285
708.0, 0.0020473681996174614
709.0, 0.004485307918625634
710.0, 0.0026481294857674006
711.0, 0.003355269487440991
712.0, 0.004955249175902308
713.0, 0.0008705373770003699
714.0, 0.0021474059963193185
715.0, 0.0024683877950822056
716.0, 0.0024014476172616404
717.0, 0.0026716714431259756
718.0, 0.0013210195467742091
719.0, 0.0018767402578012764
720.0, 0.0017839338034165984
721.0, 0.00083371114647325
722.0, 0.0022398680045139776
723.0, 0.0018437555047435361
724.0, 0.0012015760892684635
725.0, 0.0007207282920411339
726.0, 0.0006394936406491962
727.0, 0.0025278740259582016
728.0, 0.003830529592148658
729.0, 0.004170194817979813
730.0, 0.0034563646469614392
731.0, 0.0025735074532126103
732.0, 0.004173820682772015
733.0, 0.0038876443764226795
734.0, 0.0016799267945812259
735.0, 0.0002867970584761333
736.0, 0.0026339712123838554
737.0, 0.0019115920013320366
738.0, 0.0004204701014578542
739.0, 0.0010935603061058693
740.0, 0.006228007688856162
741.0, 0.003842253845371889
742.0, 0.0033894721972611242
743.0, 0.006791209764586157
744.0, 0.007088153658548468
745.0, 0.00610502400614631
746.0, 0.006711378861305459
747.0, 0.007550927150584877
748.0, 0.006413156735483923
749.0, 0.007521292478856327
750.0, 0.008034062290482551
751.0, 0.008841181434430318
752.0, 0.009658010174395845
753.0, 0.006691745404152111
754.0, 0.007563659110962276
755.0, 0.010364692735746138
756.0, 0.012695755016417282
757.0, 0.011231476201805828
758.0, 0.014362143674792107
759.0, 0.012001821210542652
760.0, 0.009270523463926173
761.0, 0.009919620827706222
762.0, 0.013655501077423597
763.0, 0.015350062273035642
764.0, 0.015049710210248052
765.0, 0.013904545415716235
766.0, 0.014222729347128569
767.0, 0.017765208311341055
768.0, 0.015786525150847802
769.0, 0.013691717402402308
770.0, 0.01576756910532416
771.0, 0.01831681923906154
772.0, 0.014482436679856473
773.0, 0.01337207248523926
774.0, 0.014668437722106076
775.0, 0.011424287774570357
776.0, 0.014827271476783675
777.0, 0.013334888916853553
778.0, 0.011379192000535499
779.0, 0.013091419359248787
780.0, 0.014927044687534408
781.0, 0.01613803726131144
782.0, 0.016621325473931782
783.0, 0.015956403454826133
784.0, 0.01326299862113357
785.0, 0.013835564063688558
786.0, 0.014095743580728947
787.0, 0.013055102738092749
788.0, 0.010977481453940516
789.0, 0.016024990220675606
790.0, 0.017304080630132834
791.0, 0.01643245655936047
792.0, 0.015705471729834254
793.0, 0.01913101243636829
794.0, 0.01689988224971494
795.0, 0.01641272860274343
796.0, 0.01721437669057486
797.0, 0.01846791873223792
798.0, 0.019741910063028462
799.0, 0.01784061018746192
800.0, 0.015994219959184763
801.0, 0.015561972083858388
802.0, 0.01735832867222475
803.0, 0.011856587780621545
804.0, 0.014898911312361726
805.0, 0.015572595589901123
806.0, 0.008247337481146838
807.0, 0.012417135757049627
808.0, 0.012221518956117262
809.0, 0.012178857001938263
810.0, 0.012714265311614778
811.0, 0.012650303231901217
812.0, 0.011063020672041995
813.0, 0.010895640897452609
814.0, 0.011556119576049996
815.0, 0.012456848638482121
816.0, 0.012869434105242947
817.0, 0.012644910384669817
818.0, 0.013843054047629061
819.0, 0.015603363104159097
820.0, 0.01616357486104619
821.0, 0.014715681517691911
822.0, 0.01727340955314402
823.0, 0.02161542979241156
824.0, 0.025386550376665703
825.0, 0.02455368936375061
826.0, 0.027968810749659585
827.0, 0.03058729297272095
828.0, 0.03174308403598502
829.0, 0.031772396137660724
830.0, 0.03501851029954049
831.0, 0.03466597199735897
832.0, 0.032954845597555626
833.0, 0.031069234312612545
834.0, 0.02988442454999091
835.0, 0.0316016045627842
836.0, 0.031010205158254107
837.0, 0.02902225765578907
838.0, 0.026776746456325808
839.0, 0.025334503423327104
840.0, 0.02273730843851433
841.0, 0.022304285771411695
842.0, 0.021531600430836434
843.0, 0.015733082634742858
844.0, 0.013858722923545607
845.0, 0.015366731839626136
846.0, 0.014211444441364386
847.0, 0.010470418718143065
848.0, 0.014747932809435
849.0, 0.010072100352642053
850.0, 0.01066656776494968
851.0, 0.013252143603712706
852.0, 0.012894526991308105
853.0, 0.009560569836764786
854.0, 0.008256148302557989
855.0, 0.008533364293890046
856.0, 0.010465404621543991
857.0, 0.014365523988031334
858.0, 0.0078327230193429
859.0, 0.005686074900455445
860.0, 0.005945739492906314
861.0, 0.006210647598874075
862.0, 0.0027312067783914146
863.0, 0.001057946618557984
864.0, 0.0028870050908311076
865.0, 0.005102166860995937
866.0, 0.004115522882257544
867.0, 0.0023783652283689075
868.0, 0.0014663118780613193
869.0, 0.000678535203867576
870.0, 0.000320024282822748
871.0, 0.0014663236870209925
872.0, 0.00115239587187858
873.0, 0.0014723015115598113
874.0, 0.0014697755935406747
875.0, 0.0009893053745541065
876.0, 0.0020034459138417687
877.0, 0.0024822683137567386
878.0, 0.001461303759301575
879.0, 0.0007489415658520745
880.0, 0.002076496030185686
881.0, 0.001517066470812009
882.0, 0.0020897156286924755
883.0, 0.0022260668469599267
884.0, 0.0022972065101646067
885.0, 0.003858785218551132
886.0, 0.0023394896481514953
887.0, 0.0040141545662642705
888.0, 0.003584759027528065
889.0, 0.0006743591727756432
890.0, 0.004166814823944242
891.0, 0.0036483314482081445
892.0, 0.0022374974292444566
893.0, 0.0014053631162209913
894.0, 0.0022176657824843926
895.0, 0.00485127839916525
896.0, 0.004678197743165464
897.0, 0.0037743985030219297
898.0, 0.0024038367590699813
899.0, 0.0004824485480143237
900.0, 0.0031942130382713032
901.0, 0.0024943576437046026
902.0, 0.001551518431860238
903.0, 0.0013562178151429562
904.0, 0.001039359404190327
905.0, 0.0005885607471706738
906.0, 0.000983100433828762
907.0, 0.003034029435080343
908.0, 0.005408154293368453
909.0, 0.0008322084943296003
910.0, 0.002936554425710156
911.0, 0.004099561545492893
912.0, 0.005390255850391526
913.0, 0.00827410034105678
914.0, 0.00807221120464711
915.0, 0.009864698640723524
916.0, 0.009565462992299892
917.0, 0.007858327739655028
918.0, 0.007430556526954265
919.0, 0.01115271070917951
920.0, 0.012221893786992821
921.0, 0.013737353162459302
922.0, 0.01654164483465442
923.0, 0.019663924513001807
924.0, 0.018309967976106244
925.0, 0.0188674190695301
926.0, 0.021334083499918468
927.0, 0.024678365094927185
928.0, 0.025944977180230557
929.0, 0.02757595427431393
930.0, 0.03040170497893736
931.0, 0.034124409772005905
932.0, 0.038061460816796705
933.0, 0.040468166152234336
934.0, 0.04283463538095454
935.0, 0.04869587123243264
936.0, 0.05431321175192566
937.0, 0.05635013696961463
938.0, 0.07166251324111357
939.0, 0.07262099958404034
940.0, 0.07739927873313436
941.0, 0.08855997022392798
942.0, 0.10164062675694832
943.0, 0.11147626292891988
944.0, 0.11966914384246852
945.0, 0.1288986191269602
946.0, 0.1394008039296471
947.0, 0.14938830448685161
948.0, 0.16247585994292912
949.0, 0.17085903331402585
950.0, 0.17840814258548932
951.0, 0.18652487638851534
952.0, 0.1928791594024491
953.0, 0.19547738258851508
954.0, 0.19808935561894886
955.0, 0.20101155203729673
956.0, 0.20308885770926569
957.0, 0.19966319951007327
958.0, 0.2030242623295932
959.0, 0.20416769757919578
960.0, 0.20968990690243725
961.0, 0.22362672088087018
962.0, 0.23288909669260993
963.0, 0.24855630691494257
964.0, 0.2706207972111721
965.0, 0.29580911745215915
966.0, 0.32174330186382516
967.0, 0.3588374970787352
968.0, 0.3948839604332999
969.0, 0.4309179200616627
970.0, 0.46992880854118557
971.0, 0.5130210444993262
972.0, 0.5338268557712814
973.0, 0.5632307582104651
974.0, 0.5822016904042268
975.0, 0.5906266819454532
976.0, 0.5970191580197409
977.0, 0.596542417402341
978.0, 0.590762857498626
979.0, 0.599254521465085
980.0, 0.6175641678113319
981.0, 0.6259300824166574
982.0, 0.6554950721774887
983.0, 0.7069967587937241
984.0, 0.7509891282543101
985.0, 0.7924397862407582
986.0, 0.8663537918232441
987.0, 0.9063106097013223
988.0, 0.9145398763408955
989.0, 0.9074632936721775
990.0, 0.8839695203280769
991.0, 0.8226511198924291
992.0, 0.7529626764864512
993.0, 0.6802306813939085
994.0, 0.6124005410499698
995.0, 0.5526124041594145
996.0, 0.4978758731384022
997.0, 0.46118263462503784
998.0, 0.4323859720412627
999.0, 0.404303733273015
1000.0, 0.3798603966045456
1001.0, 0.37886494557139394
1002.0, 0.3653480486158923
1003.0, 0.36197907608736507
1004.0, 0.3663402906320639
1005.0, 0.3752164393615694
1006.0, 0.3865312317556876
1007.0, 0.40389051526313696
1008.0, 0.4263260103300331
1009.0, 0.4556231950337201
1010.0, 0.4923431916248396
1011.0, 0.535124580757441
1012.0, 0.5921783557940766
1013.0, 0.6564361162379899
1014.0, 0.7224926539251992
1015.0, 0.7870018278968752
1016.0, 0.850478823079096
1017.0, 0.9211288431564775
1018.0, 0.9678484932986865
1019.0, 0.991384943698107
1020.0, 0.9981728961898627
1021.0, 0.9998965790296149
1022.0, 0.9757900810991207
1023.0, 0.9312386416641851
1024.0, 0.8856828902562395
1025.0, 0.8441155799212212
1026.0, 0.7801578884916286
1027.0, 0.7344718876830515
1028.0, 0.6939471737179708
1029.0, 0.6604774314850795
1030.0, 0.6311240927606281
1031.0, 0.5921189526437186
1032.0, 0.5583940613477459
1033.0, 0.5324561982390077
1034.0, 0.5156077595618205
1035.0, 0.5024849065180953
1036.0, 0.47649452906323464
1037.0, 0.4606556335767001
1038.0, 0.4487696434093356
1039.0, 0.43628295827601193
1040.0, 0.42180846688749263
1041.0, 0.40850642063100573
1042.0, 0.3872324476611312
1043.0, 0.37026709399458846
1044.0, 0.35651728193087384
1045.0, 0.3405581764044741
1046.0, 0.3120264483382025
1047.0, 0.29469408764268484
1048.0, 0.27812038066258027
1049.0, 0.26304774107618295
1050.0, 0.24931852352652842
1051.0, 0.23574539520856252
1052.0, 0.22654668425943908
1053.0, 0.21840383372228475
1054.0, 0.2118273313147693
1055.0, 0.20718097945322614
1056.0, 0.20463027388125246
1057.0, 0.20315322334610275
1058.0, 0.20460260369936445
1059.0, 0.2071102692565529
1060.0, 0.21157736405176839
1061.0, 0.22015169509018473
1062.0, 0.22828617222781836
1063.0, 0.2375493575450012
1064.0, 0.2482820439872213
1065.0, 0.26196914748359734
1066.0, 0.27932163292477574
1067.0, 0.29010251466593096
1068.0, 0.3133514403740189
1069.0, 0.3276574644117078
1070.0, 0.3398745843747849
1071.0, 0.3614707247259452
1072.0, 0.37630577308104823
1073.0, 0.37957733762666074
1074.0, 0.38430406958480495
1075.0, 0.38827587883099923
1076.0, 0.3873352028722152
1077.0, 0.3820893716938332
1078.0, 0.380135085065816
1079.0, 0.3817323942060134
1080.0, 0.37916887749311645
1081.0, 0.37049519155623717
1082.0, 0.3699926886831966
1083.0, 0.3605061470575579
1084.0, 0.35689012557145333
1085.0, 0.34947290017101335
1086.0, 0.3370355381652989
1087.0, 0.33387841244360444
1088.0, 0.32396602964123256
1089.0, 0.3106062018596108
1090.0, 0.29812431079853774
1091.0, 0.286327316005265
1092.0, 0.2709252796969558
1093.0, 0.25892890511949673
1094.0, 0.249447748292066
1095.0, 0.24110421806263987
1096.0, 0.2311995483648964
1097.0, 0.21755158551346113
1098.0, 0.21125408308278587
1099.0, 0.20318260619521034
1100.0, 0.1999576623619392
1101.0, 0.1984421801381607
1102.0, 0.19397632820905833
1103.0, 0.19172376214382408
1104.0, 0.18980698426647846
1105.0, 0.19353250934619728
1106.0, 0.1974402906118573
1107.0, 0.1998364796487512
1108.0, 0.21476412204567297
1109.0, 0.22605984594502895
1110.0, 0.2472530404432859
1111.0, 0.2733329483007241
1112.0, 0.30129612664868965
1113.0, 0.3334182377159863
1114.0, 0.37768505011917525
1115.0, 0.4137716871671994
1116.0, 0.4377908488097535
1117.0, 0.4468603414341983
1118.0, 0.43892935505283465
1119.0, 0.40771702953951056
1120.0, 0.3675007250350265
1121.0, 0.32764938501513197
1122.0, 0.2931066628466681
1123.0, 0.264566497356311
1124.0, 0.23028655865783967
1125.0, 0.20423463070189923
1126.0, 0.17928584408812262
1127.0, 0.15862764371271076
1128.0, 0.14350832691747412
1129.0, 0.12564015276880763
1130.0, 0.11582655016057815
1131.0, 0.10582203947706989
1132.0, 0.09752406114849134
1133.0, 0.09047772777010234
1134.0, 0.080767212727993
1135.0, 0.07553375807131957
1136.0, 0.07531016291164368
1137.0, 0.06912518446666199
1138.0, 0.061492208126392944
1139.0, 0.06297590855976185
1140.0, 0.05713628844774797
1141.0, 0.05542207966335839
1142.0, 0.05640829840482657
1143.0, 0.05658185400800365
1144.0, 0.054870126935173444
1145.0, 0.05977841930099979
1146.0, 0.06188405104181915
1147.0, 0.05877180918377545
1148.0, 0.05584229512254075
1149.0, 0.054738664600235666
1150.0, 0.050967022850786206
1151.0, 0.046333926941531385
1152.0, 0.04494771573186337
1153.0, 0.04487630264686798
1154.0, 0.042085910759265766
1155.0, 0.03365473485203535
1156.0, 0.034204420334760156
1157.0, 0.028279536519902643
1158.0, 0.02778218418886007
1159.0, 0.029446421667221046
1160.0, 0.028812703888338342
1161.0, 0.028775888188442914
1162.0, 0.022705535040762444
1163.0, 0.021903213246640442
1164.0, 0.021326207208800515
1165.0, 0.019606713938845274
1166.0, 0.020468802790318503
1167.0, 0.016949905156769907
1168.0, 0.017782348827031415
1169.0, 0.017622392461435547
1170.0, 0.016106501290221738
1171.0, 0.014615928230031893
1172.0, 0.011476056733469022
1173.0, 0.00995673738838771
1174.0, 0.00999320052883213
1175.0, 0.012098002767622469
1176.0, 0.014151199585739271
1177.0, 0.009695143501989627
1178.0, 0.004496826984423255
1179.0, 0.007601276216396079
1180.0, 0.007617886732942185
1181.0, 0.004222144702704867
1182.0, 0.0043943469324389806
1183.0, 0.009577165571323331
1184.0, 0.00651893686867484
1185.0, 0.004821640450076941
1186.0, 0.004289720272714513
1187.0, 0.004402420095475233
1188.0, 0.00941038494483842
1189.0, 0.002993914203194435
1190.0, 0.002833061103942546
1191.0, 0.006034346593843586
1192.0, 0.008040041685774114
1193.0, 0.004825931798536025
1194.0, 0.0014192349225344663
1195.0, 0.0010426359222366934
1196.0, 0.002208728877928789
1197.0, 0.003764101487633089
1198.0, 0.004308863351569669
1199.0, 0.0015900433612348682
1200.0, 0.0049618664978827495
1201.0, 0.003667089021104871
1202.0, 0.003356114693496885
1203.0, 0.0044339405469910565
1204.0, 0.0025503736955467446
1205.0, 0.006742930198487847
1206.0, 0.003945483436293217
1207.0, 0.0033197084980665574
1208.0, 0.0030949124589521753
1209.0, 0.0011194834891311849
1210.0, 0.0032416384979828974
1211.0, 0.007630318681773041
1212.0, 0.007504256724976695
1213.0, 0.005857218970602043
1214.0, 0.0037104449073251874
1215.0, 0.00036351819562347923
1216.0, 0.001272487607835309
1217.0, 0.0006310013524711266
1218.0, 0.0016573910529220017
1219.0, 0.0022699214659133
1220.0, 0.0008727021122080605
1221.0, 0.00019908505422034175
1222.0, 0.002786710910862057
1223.0, 0.0027420380015548713
1224.0, 0.0029923889490807818
1225.0, 0.0034076132459994954
1226.0, 0.002040426213190638
1227.0, 0.0014833677183765674
1228.0, 0.0006829624774642651
1229.0, 0.00250723653489308
1230.0, 0.004664722182440267
1231.0, 0.004357242657808296
1232.0, 8.24112727438361e-05
1233.0, 0.002502979410390327
1234.0, 0.002000589397031899
1235.0, 0.000994262581235906
1236.0, 0.001037332231690709
1237.0, 0.0023479377955511363
1238.0, 0.0020053571286465857
1239.0, 0.002223188477875204
1240.0, 0.0016108107279896985
1241.0, 0.0018611011802803043
1242.0, 0.0027475835399298704
1243.0, 0.0018201807670252556
1244.0, 0.0008110637091625302
1245.0, 0.0005330954330827265
1246.0, 0.0029407104665692225
1247.0, 0.004881154410427679
1248.0, 0.003922851070098268
1249.0, 0.0031605007175791785
1250.0, 0.0032549179970805813
1251.0, 0.002346972538974824
1252.0, 0.0012671285700656773
1253.0, 0.0016802030812961652
1254.0, 0.0041728613611057945
1255.0, 0.0013203442020112233
1256.0, 0.0018268545311140216
1257.0, 0.004231165983416864
1258.0, 0.004754434237609699
1259.0, 0.0027350259171426508
1260.0, 0.0016687649230649575
1261.0, 0.0008472316082714327
1262.0, 0.0006212486915364698
1263.0, 0.0007538583137927907
1264.0, 0.0024155803790683016
1265.0, 0.004550076352456559
1266.0, 0.00013108476220777265
1267.0, 0.0015032867391856293
1268.0, 0.0016247062657752628
1269.0, 0.0012094080401940641
1270.0, 0.001394169804456891
1271.0, 0.0025309080024416
1272.0, 0.001078585912431148
1273.0, 0.0012986809462750353
1274.0, 0.001069939043988437
1275.0, 0.0009279245460443111
1276.0, 0.0009680079413891516
1277.0, 0.0008041673210773897
1278.0, 0.003228431062523599
1279.0, 0.001994445567017086
1280.0, 0.001384969268192427
1281.0, 0.001084541564528682
1282.0, 0.001053451371132896
1283.0, 0.0033217747315049473
1284.0, 0.0024381710025841536
1285.0, 0.001478205440740686
1286.0, 0.0023099896996462937
1287.0, 0.0026430511951742643
1288.0, 0.0008793468767151781
1289.0, 0.0017500438337897353
1290.0, 0.004200274856647088
1291.0, 0.0022823350917681806
1292.0, 0.0016433341855547874
1293.0, 0.0023235890586600434
1294.0, 0.0014625759768455984
1295.0, 0.0010405038836314975
1296.0, 0.0013142497785537492
1297.0, 0.0013305739315038962
1298.0, 0.0012120600512580963
1299.0, 0.0009732402997733546
1300.0, 0.0007058608151910988
1301.0, 0.00258183256209943
1302.0, 0.00125093194125447
1303.0, 0.0011017611185822355
1304.0, 0.0017958599752517924
1305.0, 0.0019823362580390492
1306.0, 0.0006699731560690484
1307.0, 0.0026636599681121326
1308.0, 0.0010879902563433056
1309.0, 0.0005842334572400915
1310.0, 0.0027194827609704443
1311.0, 0.0050528093681438055
1312.0, 0.001018913474026638
1313.0, 0.0029240271217395616
1314.0, 0.0011300676881071104
1315.0, 0.002951090371128545
1316.0, 0.0040649412150404905
1317.0, 0.000951667520542955
1318.0, 0.0007733759640172025
1319.0, 0.0017260415812910212
1320.0, 0.004994287596839369
1321.0, 0.005194331064116585
1322.0, 0.0029694255443650777
1323.0, 0.0018687106446059084
1324.0, 0.004975797258758848
1325.0, 0.003081646818608761
1326.0, 0.005890211518864572
1327.0, 0.00642424333000338
1328.0, 0.0038510148962598934
1329.0, 0.0014159134515052364
1330.0, 0.0024920504538203272
1331.0, 0.0060220392531775396
1332.0, 0.006797946542515198
1333.0, 0.0058004443124907235
1334.0, 0.005011221906413727
1335.0, 0.005722999614521463
1336.0, 0.005497612477952105
1337.0, 0.004786042540141673
1338.0, 0.006257299866917008
1339.0, 0.004371671945722035
1340.0, 0.0032185004641930616
1341.0, 0.008748388835954413
1342.0, 0.004510821920755453
1343.0, 0.007562103264749601
1344.0, 0.006961694305212368
1345.0, 0.007565261691951521
1346.0, 0.008743134014575124
1347.0, 0.006838297885199232
1348.0, 0.008134861226869461
1349.0, 0.008841464464668066
1350.0, 0.008517821757352387
1351.0, 0.010127236129862244
1352.0, 0.011563611701055354
1353.0, 0.009271367658716662
1354.0, 0.011758217856732128
1355.0, 0.01196744356282525
1356.0, 0.009433951049329767
1357.0, 0.008647258036855022
1358.0, 0.010633116022804496
1359.0, 0.012773251150821636
1360.0, 0.010643232674641286
1361.0, 0.009437746097127964
1362.0, 0.007851917026534622
1363.0, 0.009313425049840326
1364.0, 0.012242953838925888
1365.0, 0.01282963178552682
1366.0, 0.01433308814736227
1367.0, 0.010139704565691205
1368.0, 0.013101552329099148
1369.0, 0.013112782896932622
1370.0, 0.009485580951957066
1371.0, 0.008498906585035711
1372.0, 0.013065616631764466
1373.0, 0.009957043985465912
1374.0, 0.011269363137103474
1375.0, 0.014082179390950134
1376.0, 0.013658630021369649
1377.0, 0.008948299842429536
1378.0, 0.010488514230179507
1379.0, 0.010705462486851027
1380.0, 0.010849861810995712
1381.0, 0.01051775053558296
1382.0, 0.009870547139812816
1383.0, 0.010114568612414528
1384.0, 0.01398982077722164
1385.0, 0.011314836146162282
1386.0, 0.011836075980543176
1387.0, 0.009544724452901871
1388.0, 0.00864620753537346
1389.0, 0.011406827500516062
1390.0, 0.008298537252552397
1391.0, 0.01122313607881942
1392.0, 0.00823436556976922
1393.0, 0.007801075734773115
1394.0, 0.009908514999174502
1395.0, 0.010847141990748254
1396.0, 0.007270196008124841
1397.0, 0.012105049830352356
1398.0, 0.009832489324757693
1399.0, 0.00976925779865329
1400.0, 0.010298372318303757
1401.0, 0.00935436375997946
1402.0, 0.008316767385759271
1403.0, 0.013272951655030826
1404.0, 0.007801875512612527
1405.0, 0.0062482661987307165
1406.0, 0.006907825742747678
1407.0, 0.006363476069778932
1408.0, 0.003717362212535852
1409.0, 0.004970318952394886
1410.0, 0.00968853990745367
1411.0, 0.007362338455079523
1412.0, 0.0070801638771871775
1413.0, 0.008689819800616616
1414.0, 0.007646885283781276
1415.0, 0.00869432170890616
1416.0, 0.010672072789271151
1417.0, 0.00915762086651267
1418.0, 0.006689600256706176
1419.0, 0.007474457811241319
1420.0, 0.011102809933507507
1421.0, 0.008379877995420648
1422.0, 0.010218081339904398
1423.0, 0.00803390909286367
1424.0, 0.00782393521585584
1425.0, 0.008835306881544254
1426.0, 0.00851600810578365
1427.0, 0.005864326270932241
1428.0, 0.00817725695573947
1429.0, 0.009135547037400113
1430.0, 0.008234288811786504
1431.0, 0.006180521298575134
1432.0, 0.0051735729799801435
1433.0, 0.0071043862356701005
1434.0, 0.008943115898956477
1435.0, 0.00782041458802926
1436.0, 0.010794678696758065
1437.0, 0.013527108066708779
1438.0, 0.012833569676811067
1439.0, 0.00952062754280314
1440.0, 0.009987956013330263
1441.0, 0.009932023720300599
1442.0, 0.01210474663409602
1443.0, 0.010731936455503074
1444.0, 0.009651971333079941
1445.0, 0.011174288909933551
1446.0, 0.011937866713276834
1447.0, 0.014559377346021845
1448.0, 0.014257291139266524
1449.0, 0.013353807694841617
1450.0, 0.009486561332627782
1451.0, 0.008779240840276188
1452.0, 0.01666702214403001
1453.0, 0.012070035654022579
1454.0, 0.010579117061811614
1455.0, 0.0155084590474082
1456.0, 0.012596062471223893
1457.0, 0.009475940473897212
1458.0, 0.01371388140035206
1459.0, 0.01420669219069478
1460.0, 0.010000769508913796
1461.0, 0.01246504696376384
1462.0, 0.010300385377215837
1463.0, 0.008622557381981534
1464.0, 0.009247636819847875
1465.0, 0.007908388150453218
1466.0, 0.00560765820452467
1467.0, 0.007682868727794561
1468.0, 0.006724409823717458
1469.0, 0.008437230345344006
1470.0, 0.01182839407151807
1471.0, 0.013404916557789697
1472.0, 0.01360926035422792
1473.0, 0.015025098700620933
1474.0, 0.013792265731945622
1475.0, 0.013558246222583269
1476.0, 0.012022005541125001
1477.0, 0.008593098536046265
1478.0, 0.006432692238309649
1479.0, 0.009820249856113957
1480.0, 0.006754136512321353
1481.0, 0.010907800165145351
1482.0, 0.01089046885002087
1483.0, 0.009614737140864707
1484.0, 0.012105498550054945
1485.0, 0.010159993360568574
1486.0, 0.006667865230286895
1487.0, 0.006157426124650595
1488.0, 0.00468989861677047
1489.0, 0.003504171580349974
1490.0, 0.0032090360954706125
1491.0, 0.002973046407188768
1492.0, 0.003753707614267755
1493.0, 0.007342679821697472
1494.0, 0.00879833933642846
1495.0, 0.0070639249325617996
1496.0, 0.00635521405513026
1497.0, 0.006793391095866092
1498.0, 0.0007534945914466273
1499.0, 0.009521836037468794
1500.0, 0.004761012681974944
1501.0, 0.005203340110698653
1502.0, 0.003919603708718207
1503.0, 0.0005407823520060767
1504.0, 0.0009275300084094626
1505.0, 0.0036614111882150285
1506.0, 0.006074072038093861
1507.0, 0.006416828632373953
1508.0, 0.004318776384365847
1509.0, 0.0030512761967926784
1510.0, 0.003948197100472419
1511.0, 0.004818711901877367
1512.0, 0.005306463573077029
1513.0, 0.00568938924851214
1514.0, 0.0072984162741353015
1515.0, 0.004054392632197138
1516.0, 0.0045594808488371935
1517.0, 0.010336004468053312
1518, 0.0
1519, 0.0
1520, 0.0
1521, 0.0
1522, 0.0
1523, 0.0
1524, 0.0
1525, 0.0
1526, 0.0
1527, 0.0
1528, 0.0
1529, 0.0
1530, 0.0
1531, 0.0
1532, 0.0
1533, 0.0
1534, 0.0
1535, 0.0
1536, 0.0
1537, 0.0
1538, 0.0
1539, 0.0
1540, 0.0
1541, 0.0
1542, 0.0
1543, 0.0
1544, 0.0
1545, 0.0
1546, 0.0
1547, 0.0
1548, 0.0
1549, 0.0
1550, 0.0
1551, 0.0
1552, 0.0
1553, 0.0
1554, 0.0
1555, 0.0
1556, 0.0
1557, 0.0
1558, 0.0
1559, 0.0
1560, 0.0
1561, 0.0
1562, 0.0
1563, 0.0
1564, 0.0
1565, 0.0
1566, 0.0
1567, 0.0
1568, 0.0
1569, 0.0
1570, 0.0
1571, 0.0
1572, 0.0
1573, 0.0
1574, 0.0
1575, 0.0
1576, 0.0
1577, 0.0
1578, 0.0
1579, 0.0
1580, 0.0
1581, 0.0
1582, 0.0
1583, 0.0
1584, 0.0
1585, 0.0
1586, 0.0
1587, 0.0
1588, 0.0
1589, 0.0
1590, 0.0
1591, 0.0
1592, 0.0
1593, 0.0
1594, 0.0
1595, 0.0
1596, 0.0
1597, 0.0
1598, 0.0
1599, 0.0
