30, 0.0
31, 0.0
32, 0.0
33, 0.0
34, 0.0
35, 0.0
36, 0.0
37, 0.0
38, 0.0
39, 0.0
40, 0.0
41, 0.0
42, 0.0
43, 0.0
44, 0.0
45, 0.0
46, 0.0
47, 0.0
48, 0.0
49, 0.0
50, 0.0
51, 0.0
52, 0.0
53, 0.0
54, 0.0
55, 0.0
56, 0.0
57, 0.0
58, 0.0
59, 0.0
60, 0.0
61, 0.0
62, 0.0
63, 0.0
64, 0.0
65, 0.0
66, 0.0
67, 0.0
68, 0.0
69, 0.0
70, 0.0
71, 0.0
72, 0.0
73, 0.0
74, 0.0
75, 0.0
76, 0.0
77, 0.0
78, 0.0
79, 0.0
80, 0.0
81, 0.0
82, 0.0
83, 0.0
84, 0.0
85, 0.0
86, 0.0
87, 0.0
88, 0.0
89, 0.0
90, 0.0
91, 0.0
92, 0.0
93, 0.0
94, 0.0
95, 0.0
96, 0.0
97, 0.0
98, 0.0
99, 0.0
100, 0.0
101, 0.0
102, 0.0
103, 0.0
104, 0.0
105, 0.0
106, 0.0
107, 0.0
108, 0.0
109, 0.0
110, 0.0
111, 0.0
112, 0.0
113, 0.0
114, 0.0
115, 0.0
116, 0.0
117, 0.0
118, 0.0
119, 0.0
120, 0.0
121, 0.0
122, 0.0
123, 0.0
124, 0.0
125, 0.0
126, 0.0
127, 0.0
128, 0.0
129, 0.0
130, 0.0
131, 0.0
132, 0.0
133, 0.0
134, 0.0
135, 0.0
136, 0.0
137, 0.0
138, 0.0
139, 0.0
140, 0.0
141, 0.0
142, 0.0
143, 0.0
144, 0.0
145, 0.0
146, 0.0
147, 0.0
148, 0.0
149, 0.0
150, 0.0
151, 0.0
152, 0.0
153, 0.0
154, 0.0
155, 0.0
156, 0.0
157, 0.0
158, 0.0
159, 0.0
160, 0.0
161, 0.0
162, 0.0
163, 0.0
164, 0.0
165, 0.0
166, 0.0
167, 0.0
168, 0.0
169, 0.0
170, 0.0
171, 0.0
172, 0.0
173, 0.0
174, 0.0
175, 0.0
176, 0.0
177, 0.0
178, 0.0
179, 0.0
180, 0.0
181, 0.0
182, 0.0
183, 0.0
184, 0.0
185, 0.0
186, 0.0
187, 0.0
188, 0.0
189, 0.0
190, 0.0
191, 0.0
192, 0.0
193, 0.0
194, 0.0
195, 0.0
196, 0.0
197, 0.0
198, 0.0
199, 0.0
200, 0.0
201.0, 0.0003141438152727306
202.0, 0.0014241926324909107
203.0, 0.0014793175193098583
204.0, 0.0009031460484659942
205.0, 6.896554626505022e-05
206.0, 0.0003658853329264321
207.0, 0.00018806242144905324
208.0, 0.00013725842349102496
209.0, 0.00045627168126472243
210.0, 0.00015510095274872218
211.0, 0.0009135556308113851
212.0, 0.0017541113674925028
213.0, 0.0013455108364265878
214.0, 0.0029875213984442294
215.0, 0.004033920320731802
216.0, 0.0046680386571602075
217.0, 0.007044002675633269
218.0, 0.0076412270877054475
219.0, 0.00815996454192863
220.0, 0.009278470251920915
221.0, 0.009828227793343445
222.0, 0.009511768723708378
223.0, 0.008557392492493798
224.0, 0.007129447561040898
225.0, 0.007457822174927006
226.0, 0.007186222298926484
227.0, 0.00628128199520999
228.0, 0.00547694926528367
229.0, 0.00514093738567887
230.0, 0.004779172000679557
231.0, 0.004254206466421939
232.0, 0.004379116612827872
233.0, 0.004025634190438266
234.0, 0.00348879983475455
235.0, 0.0030458213074856795
236.0, 0.002544423503289415
237.0, 0.002094849002556927
238.0, 0.00169236512826054
239.0, 0.0013078038285263564
240.0, 0.0013118032046066182
241.0, 0.0014133730258601449
242.0, 0.0015333187048494912
243.0, 0.0016557830647896928
244.0, 0.0018500845893638777
245.0, 0.0027172911325927364
246.0, 0.004807410979208713
247.0, 0.0036985997862665973
248.0, 0.003711860464308313
249.0, 0.004564672125917561
250.0, 0.005599992275010843
251.0, 0.004206110676585034
252.0, 0.0040266233010537375
253.0, 0.004985886082516638
254.0, 0.002950682413931734
255.0, 0.0033903117006930904
256.0, 0.004683872980775015
257.0, 0.006041778234872686
258.0, 0.005015239525561713
259.0, 0.005156486437840414
260.0, 0.005343009606930263
261.0, 0.004180670875094646
262.0, 0.003919279776323079
263.0, 0.003910508624246557
264.0, 0.004059406004451941
265.0, 0.004273231178457361
266.0, 0.004624634765256989
267.0, 0.004823288899321402
268.0, 0.004714921284850182
269.0, 0.003703583006899052
270.0, 0.004230421512666415
271.0, 0.004620851209825549
272.0, 0.0037474087855477217
273.0, 0.0033626961933369585
274.0, 0.0034939955513649
275.0, 0.0033053668610152805
276.0, 0.001404429748194128
277.0, 0.0009457208156761841
278.0, 0.0006394180224043131
279.0, 0.0005706002227122153
280.0, 0.001670188609703183
281.0, 0.0012323613449880418
282.0, 0.0005330129087012765
283.0, 8.464444567307216e-05
284.0, 0.0010089843265284884
285.0, 0.0018678876069164302
286.0, 0.0023672885990664158
287.0, 0.002257780843821104
288.0, 0.003150641382299599
289.0, 0.0025618915195021377
290.0, 0.001442717640541045
291.0, 0.0012965357655096315
292.0, 0.0020768731487899087
293.0, 0.0023868963981749933
294.0, 0.0021771984633294594
295.0, 0.0018012273129996558
296.0, 0.0025636602937622686
297.0, 0.0036565993708240524
298.0, 0.00466649654862749
299.0, 0.004027106168716476
300.0, 0.0035128994235649625
301.0, 0.002799440632779057
302.0, 0.0016920361563759422
303.0, 0.0020048148317921843
304.0, 0.002427006936978655
305.0, 0.002807627024622176
306.0, 0.0029446761397380543
307.0, 0.003369994950911593
308.0, 0.0030493455619377517
309.0, 0.0025190493274031937
310.0, 0.0033436350794305886
311.0, 0.0030262140368303033
312.0, 0.0018437943419945446
313.0, 0.00039178864722147976
314.0, 0.001615403022919299
315.0, 0.0022120619184733993
316.0, 0.001994309778572065
317.0, 0.0010127043102656796
318.0, 0.0019727378951955392
319.0, 0.0017013378366025666
320.0, 0.0013295884262265448
321.0, 0.0017717114214741833
322.0, 0.0019076273928399978
323.0, 0.002124618069960752
324.0, 0.0025411550186237694
325.0, 0.003357858999360232
326.0, 0.004205144807136924
327.0, 0.003327129275881682
328.0, 0.0013982208481517968
329.0, 0.0007636455147479934
330.0, 0.0019907997225328457
331.0, 0.002535224391551897
332.0, 0.002120552549964425
333.0, 0.002483428119652949
334.0, 0.0029797120677663705
335.0, 0.0028317280436088127
336.0, 0.0017693060934287539
337.0, 0.0010605156563276066
338.0, 0.0019926801625159258
339.0, 0.0027369765170702914
340.0, 0.0019238145750623107
341.0, 0.002765328514821413
342.0, 0.0019782195635616737
343.0, 0.0009035772431677194
344.0, 0.0012956873849629255
345.0, 0.0007805117104279224
346.0, 0.0005076055543885252
347.0, 0.0004861334846686464
348.0, 0.0005849725921037247
349.0, 0.0016512054062049132
350.0, 0.0019935027184257354
351.0, 0.0015548944777635468
352.0, 0.0011161143331600172
353.0, 0.0005071788476693048
354.0, 0.00027924602933401853
355.0, 0.0005036583320737435
356.0, 0.0005111289221969486
357.0, 0.00033741266152109164
358.0, 0.0004577960077951839
359.0, 0.0010344196884259534
360.0, 0.0007834631979908765
361.0, 0.00163237915735769
362.0, 0.002030497246538393
363.0, 0.000782828934301119
364.0, 0.000891474953026594
365.0, 0.001724993640915495
366.0, 0.002693878356161012
367.0, 0.0030853491659757174
368.0, 0.0009550128184436152
369.0, 0.001371292805072516
370.0, 0.0025212188773756986
371.0, 0.0006017926761828205
372.0, 0.00015340474004057949
373.0, 0.001109445115266418
374.0, 0.0022804434683878854
375.0, 0.0003295762751206175
376.0, 0.0015239708574022676
377.0, 0.002275880918945203
378.0, 0.0019055111884953863
379.0, 0.0006614358432325241
380.0, 0.0008447100925957112
381.0, 0.000843313636834853
382.0, 0.00035342365609329553
383.0, 0.0008762926600701973
384.0, 0.0013338290125792522
385.0, 0.0012503585779039172
386.0, 0.00048271331016018856
387.0, 0.000359025734727331
388.0, 0.0006840601588880078
389.0, 0.0012077518258350418
390.0, 0.0017685697257548343
391.0, 0.0021582162356028217
392.0, 0.0024595101844020677
393.0, 0.002601894515595133
394.0, 0.002509937105505295
395.0, 0.0028667918877851974
396.0, 0.0026835607554901372
397.0, 0.0023080589526428656
398.0, 0.002198789203394001
399.0, 0.002945078540861173
400.0, 0.0032906323106890105
401.0, 0.003182783454318534
402.0, 0.0026076031878408124
403.0, 0.0029220426142583153
404.0, 0.0037126496482439452
405.0, 0.004727574168138478
406.0, 0.005495432169660574
407.0, 0.005710411743677475
408.0, 0.005536735415084533
409.0, 0.005287086373856195
410.0, 0.005844522753574684
411.0, 0.004538704413002779
412.0, 0.0042471955910378285
413.0, 0.004991788768426088
414.0, 0.004360402040571908
415.0, 0.0038183448359145546
416.0, 0.0035897611837342833
417.0, 0.003786499453067369
418.0, 0.004651287370196663
419.0, 0.0034463937209167563
420.0, 0.002814476963119424
421.0, 0.0033821713973156502
422.0, 0.002678570832804919
423.0, 0.0029056213377367207
424.0, 0.0027776059264793423
425.0, 0.001839440646208639
426.0, 0.001476272000739327
427.0, 0.0019420115366292855
428.0, 0.002218300827264689
429.0, 0.0018436861591311705
430.0, 0.0023529902337951366
431.0, 0.0024058440274888266
432.0, 0.0026294082767073057
433.0, 0.003372761215578003
434.0, 0.003074681365918558
435.0, 0.003288834743648488
436.0, 0.003860440576782696
437.0, 0.004648487697186918
438.0, 0.004123201350087454
439.0, 0.004200138600886123
440.0, 0.004219589863157266
441.0, 0.0035952652280545516
442.0, 0.00401645795118643
443.0, 0.004307289669908808
444.0, 0.0043601120366073345
445.0, 0.00405763750800574
446.0, 0.0022757749827894153
447.0, 0.0023459619342714967
448.0, 0.0029030065273026717
449.0, 0.0023300259854579877
450.0, 0.0027546665760292133
451.0, 0.003070214494312898
452.0, 0.00304519845297094
453.0, 0.002404612992162345
454.0, 0.00246320334489346
455.0, 0.0026780871652774974
456.0, 0.0030492467767646043
457.0, 0.0036132761239643894
458.0, 0.00382851290788039
459.0, 0.0037301116794627525
460.0, 0.003764979263201184
461.0, 0.0046009607064445525
462.0, 0.004271009672267582
463.0, 0.005087468551155139
464.0, 0.006336233318940864
465.0, 0.006703941381478395
466.0, 0.007276528334380396
467.0, 0.00826695010511702
468.0, 0.009292954620263758
469.0, 0.009709454579459221
470.0, 0.008903646358146843
471.0, 0.009458073014963063
472.0, 0.010583993614772538
473.0, 0.010682281508748436
474.0, 0.012355510444705134
475.0, 0.013247477483877819
476.0, 0.013382934345287596
477.0, 0.013060593046170584
478.0, 0.013081557859067611
479.0, 0.013159036654217174
480.0, 0.013557351175862396
481.0, 0.014768872795826418
482.0, 0.01552798765241503
483.0, 0.015262161072421104
484.0, 0.01502314850929469
485.0, 0.016601064935192023
486.0, 0.01815271897415801
487.0, 0.019875672437415372
488.0, 0.021229542502832835
489.0, 0.02133019496905996
490.0, 0.022018302866842733
491.0, 0.02340111018690073
492.0, 0.02466819692739053
493.0, 0.02460004133071318
494.0, 0.027082025166105996
495.0, 0.028968055213091957
496.0, 0.030108076465093805
497.0, 0.030498226630031933
498.0, 0.032099480536167874
499.0, 0.03300167238851189
500.0, 0.032263996492579196
501.0, 0.028754508390918983
502.0, 0.02976604446055676
503.0, 0.0292646160514381
504.0, 0.028291194651373076
505.0, 0.02826093587790077
506.0, 0.027218585580731314
507.0, 0.026556032625053887
508.0, 0.02551695282641041
509.0, 0.023296311374321567
510.0, 0.0252795069909288
511.0, 0.024631402515517504
512.0, 0.023615152667584436
513.0, 0.024274535473072716
514.0, 0.022056939465510555
515.0, 0.02095986711744377
516.0, 0.020303247036836246
517.0, 0.01949920591684595
518.0, 0.01770659623010172
519.0, 0.017150218568662473
520.0, 0.016311841519897802
521.0, 0.01435114131448131
522.0, 0.014908316046255561
523.0, 0.013697521047205835
524.0, 0.012599532420217309
525.0, 0.012618152282830171
526.0, 0.01246792669059229
527.0, 0.012644582233698397
528.0, 0.013655561129596346
529.0, 0.015293030111100338
530.0, 0.013923886758564794
531.0, 0.01388618040382609
532.0, 0.015083921881867829
533.0, 0.017198532513433666
534.0, 0.01852867948993673
535.0, 0.020072201146779194
536.0, 0.02185326654425326
537.0, 0.02358962049083143
538.0, 0.023996679501213924
539.0, 0.02633751846258134
540.0, 0.02807050709729309
541.0, 0.029172445845613973
542.0, 0.03171542481044946
543.0, 0.030029784789129436
544.0, 0.02969697048643029
545.0, 0.030312667496906455
546.0, 0.028129291152866602
547.0, 0.027085154411943646
548.0, 0.027108255126480223
549.0, 0.027161835743653284
550.0, 0.02523033574334574
551.0, 0.02504200400583699
552.0, 0.026341287704082245
553.0, 0.027899848320983606
554.0, 0.027916520637220384
555.0, 0.02537288994977654
556.0, 0.02480963709052969
557.0, 0.025072231947276924
558.0, 0.024660950510173685
559.0, 0.022909456192524477
560.0, 0.02275282839781626
561.0, 0.022415748404775653
562.0, 0.020463478915126437
563.0, 0.018818506115451022
564.0, 0.01973401369423738
565.0, 0.020278675913230366
566.0, 0.01891050340934318
567.0, 0.018614236288896236
568.0, 0.01712634416801561
569.0, 0.016674504725841973
570.0, 0.017987461243417636
571.0, 0.019394458491350124
572.0, 0.019053381161779764
573.0, 0.01872271011661778
574.0, 0.01861797471453943
575.0, 0.0174514846617186
576.0, 0.01696745968834734
577.0, 0.016239998334536508
578.0, 0.015300012220413682
579.0, 0.014718827452455657
580.0, 0.01564332511773146
581.0, 0.015301695983945394
582.0, 0.014395875904933422
583.0, 0.014740702495831362
584.0, 0.014272707372698838
585.0, 0.014977014054551886
586.0, 0.015787350596660036
587.0, 0.01531597919488867
588.0, 0.016014613090177834
589.0, 0.01620389418130086
590.0, 0.016592860589941368
591.0, 0.017663165621584615
592.0, 0.01772638989595163
593.0, 0.01881465009309877
594.0, 0.02003891157167891
595.0, 0.020917397289074883
596.0, 0.021479303916491947
597.0, 0.02215485463504808
598.0, 0.02287726163489128
599.0, 0.023807616868342315
600.0, 0.025688173371675817
601.0, 0.025749984162596887
602.0, 0.028540232303954638
603.0, 0.03263761903356117
604.0, 0.03220659036491619
605.0, 0.034988307401827776
606.0, 0.038233375342887295
607.0, 0.04135574712539195
608.0, 0.043918200630006204
609.0, 0.04696583479072028
610.0, 0.05106281491285057
611.0, 0.05504028082145425
612.0, 0.05784452992913107
613.0, 0.06230012936168151
614.0, 0.06701369319274113
615.0, 0.07214858579819299
616.0, 0.0782051525092396
617.0, 0.08844370971327574
618.0, 0.09828920239520532
619.0, 0.10935620352385665
620.0, 0.12254166776436339
621.0, 0.13905916764189832
622.0, 0.1605479240783743
623.0, 0.1859767151930875
624.0, 0.21574728075520333
625.0, 0.2512327188052853
626.0, 0.30475977053134945
627.0, 0.36551319976529123
628.0, 0.4390834341844533
629.0, 0.533732257604463
630.0, 0.6519037692437488
631.0, 0.763594420307524
632.0, 0.8713168476924972
633.0, 0.9719086073942832
634.0, 0.99452647583689
635.0, 0.9759589265124616
636.0, 0.915677724511654
637.0, 0.8165107545407739
638.0, 0.6939989320362717
639.0, 0.5792907267200595
640.0, 0.47831205375507724
641.0, 0.3942086567015524
642.0, 0.3312815903967938
643.0, 0.28173006990089866
644.0, 0.2413829787020725
645.0, 0.20889298229632466
646.0, 0.18272732284594081
647.0, 0.16120862844039302
648.0, 0.14340471284638956
649.0, 0.129931124699512
650.0, 0.12077198547251881
651.0, 0.1108063358301921
652.0, 0.10464882383760361
653.0, 0.09814956736725595
654.0, 0.09045772009291318
655.0, 0.08624581464385542
656.0, 0.08104149210977107
657.0, 0.07741011261966756
658.0, 0.0751462507981521
659.0, 0.0724674375384401
660.0, 0.07138395233180066
661.0, 0.06977701680980879
662.0, 0.06820986626996467
663.0, 0.06754705007740987
664.0, 0.06709569067835702
665.0, 0.06738493018666
666.0, 0.06794484360551663
667.0, 0.06836868268122662
668.0, 0.06799000982399311
669.0, 0.06697888135843305
670.0, 0.06704401470059539
671.0, 0.06790458458599935
672.0, 0.0669163009596926
673.0, 0.06817006285378904
674.0, 0.068574351316622
675.0, 0.06812532384723305
676.0, 0.06749956758912962
677.0, 0.06665253641840435
678.0, 0.06587702891394599
679.0, 0.06559198760843549
680.0, 0.06584888043398374
681.0, 0.06376071788806668
682.0, 0.06331055702850362
683.0, 0.0631940145397337
684.0, 0.06252481393920072
685.0, 0.05995856510552091
686.0, 0.05984279608558715
687.0, 0.059977805374783304
688.0, 0.05983046680544131
689.0, 0.059134632387793734
690.0, 0.058263675665392284
691.0, 0.05692892319109032
692.0, 0.05666882677393435
693.0, 0.05848272457368984
694.0, 0.05879544347624721
695.0, 0.05832967032594401
696.0, 0.056577535215625606
697.0, 0.05413674249506877
698.0, 0.05398299846175712
699.0, 0.05010851678458093
700.0, 0.04657855179657173
701.0, 0.04307530782338502
702.0, 0.037990631589871426
703.0, 0.03664456273809327
704.0, 0.034146464695038216
705.0, 0.03143475164069823
706.0, 0.02938078072231071
707.0, 0.02818363624120205
708.0, 0.026530747919694123
709.0, 0.025784870058039176
710.0, 0.025820164756438026
711.0, 0.024694707415935484
712.0, 0.02463776548278215
713.0, 0.023683141693933988
714.0, 0.02260221957597399
715.0, 0.022770223915767003
716.0, 0.022330077591284473
717.0, 0.022146901672807733
718.0, 0.02184238714066328
719.0, 0.021348293744900933
720.0, 0.021774476906208262
721.0, 0.021635051774862916
722.0, 0.021103093638092024
723.0, 0.020019664753618136
724.0, 0.01792783371212058
725.0, 0.01800010320318462
726.0, 0.017534728942254867
727.0, 0.01649490789198821
728.0, 0.015159519270957964
729.0, 0.015153629055544264
730.0, 0.014844927057521889
731.0, 0.014712348676740409
732.0, 0.01464102160396267
733.0, 0.01340776226875511
734.0, 0.013319946692010188
735.0, 0.0131317819891587
736.0, 0.012807974991979193
737.0, 0.012586400680659745
738.0, 0.012005892324005712
739.0, 0.01106500751136387
740.0, 0.010804691217377439
741.0, 0.011626468938267754
742.0, 0.01187626770567203
743.0, 0.01065268949983321
744.0, 0.009893732658298744
745.0, 0.009768266126942862
746.0, 0.009595097046326113
747.0, 0.008395493359106337
748.0, 0.006965702834083353
749.0, 0.006459878977336349
750.0, 0.007460215485355982
751.0, 0.0063354314172796335
752.0, 0.007482036021002555
753.0, 0.008095544277210383
754.0, 0.007297596633651343
755.0, 0.0054052882194160524
756.0, 0.006195213235063978
757.0, 0.00531035671316743
758.0, 0.004422099060015838
759.0, 0.005521213967537869
760.0, 0.0041807503027148476
761.0, 0.0030692283854527394
762.0, 0.002659877525224137
763.0, 0.00264838369078713
764.0, 0.001304558407088668
765.0, 0.0007250092227187163
766.0, 0.0010206834042065707
767.0, 0.001451142596235429
768.0, 0.0010914994650142971
769.0, 0.000764794120878545
770.0, 0.0012796405347760755
771.0, 0.0014863500837207155
772.0, 0.0011456376586988805
773.0, 0.0016341689764526985
774.0, 0.0021710022205214566
775.0, 0.002381569900327234
776.0, 0.002428164728325562
777.0, 0.002601097402911811
778.0, 0.0019420560841005288
779.0, 0.0019243823078473367
780.0, 0.0019632824552868696
781.0, 0.0016427498931501734
782.0, 0.0005905690619541712
783.0, 0.0005045432706141621
784.0, 0.0006968617243357639
785.0, 0.0007453204439691688
786.0, 0.00026251459192755844
787.0, 0.001138079597066562
788.0, 0.0015586494108309585
789.0, 0.001407683823807991
790.0, 0.000970573251242201
791.0, 0.0016316228287060032
792.0, 0.0015903191288767378
793.0, 0.0022279288362116122
794.0, 0.00269768836960888
795.0, 0.0016532819541564018
796.0, 0.00213614458542917
797.0, 0.00126842299294124
798.0, 0.0008155905250535531
799.0, 0.0013776916056377274
800.0, 0.0017899335670512185
801.0, 0.0017803591736939954
802.0, 0.0011874825960822108
803.0, 0.000906492556334419
804.0, 0.0019502177188459582
805.0, 0.002402210219693632
806.0, 0.0013293424499205952
807.0, 0.0007535400710484622
808.0, 0.001100779767210083
809.0, 0.0008624150885081156
810.0, 0.0009233201553993273
811.0, 0.0010631900955857922
812.0, 0.001010369833226086
813.0, 0.0005724592405876472
814.0, 0.00048054465238373385
815.0, 0.000541332317838479
816.0, 0.0008048415151104953
817.0, 0.0013914907529725057
818.0, 0.002541408686888287
819.0, 0.00235530886883882
820.0, 0.0022592524213683627
821.0, 0.0020670763634093865
822.0, 0.0016254754651896053
823.0, 0.0014606451947767752
824.0, 0.0011142064525918101
825.0, 0.0010501900574848518
826.0, 0.0010936890008824878
827.0, 0.000709003690376438
828.0, 0.0014089117411730408
829.0, 0.0008742316980533633
830.0, 0.00032082681776016337
831.0, 0.0004398256448417574
832.0, 0.000711204043192885
833.0, 0.0007275180304336575
834.0, 0.00040145481755315813
835.0, 0.0003590033987511669
836.0, 0.001343396775866111
837.0, 0.0018718950387202604
838.0, 0.002064492377158063
839.0, 0.002477464921312723
840.0, 0.0030003195711783485
841.0, 0.0026416159764357646
842.0, 0.003484537200809713
843.0, 0.00419948383700768
844.0, 0.004398136325447282
845.0, 0.00403780842507988
846.0, 0.004565511551860107
847.0, 0.005637916808852401
848.0, 0.006361392298760512
849.0, 0.006713842900876698
850.0, 0.007088402556385246
851.0, 0.007621480559761634
852.0, 0.007566977057813102
853.0, 0.007385778350748062
854.0, 0.007315938470095536
855.0, 0.007198359085432813
856.0, 0.007019160849370437
857.0, 0.00730048228223128
858.0, 0.007633031998523129
859.0, 0.007574182396594083
860.0, 0.007990474396331833
861.0, 0.00764220125007332
862.0, 0.007858602259351807
863.0, 0.008472395773110212
864.0, 0.008264102958922966
865.0, 0.008559438496640778
866.0, 0.008475375086279551
867.0, 0.007623948265390804
868.0, 0.006461362762443982
869.0, 0.007794859513135596
870.0, 0.007562243410517882
871.0, 0.006158208006413864
872.0, 0.004804594093066875
873.0, 0.0046863250839102545
874.0, 0.0043291523939305585
875.0, 0.00488374791370307
876.0, 0.004792720784699196
877.0, 0.004570419359551319
878.0, 0.006236133031861917
879.0, 0.0049662859116759725
880.0, 0.00457101716371827
881.0, 0.004152708728979077
882.0, 0.0033816141234211962
883.0, 0.003280471832066075
884.0, 0.00300601088594766
885.0, 0.0023974657180698107
886.0, 0.002013617467471803
887.0, 0.002313589398126145
888.0, 0.002211630440498865
889.0, 0.0019583198434756175
890.0, 0.001590607162613486
891.0, 0.0014275956808147401
892.0, 0.0019390803286877278
893.0, 0.001541488296595806
894.0, 0.0006500771336852455
895.0, 0.0005179121877217202
896.0, 0.0012408971268980861
897.0, 0.00132140017638937
898.0, 0.0005684570789147745
899.0, 0.00023377702048808622
900.0, 0.0006646196172959012
901.0, 0.00169376859909469
902.0, 0.0014777416344039249
903.0, 0.0016771663847625464
904.0, 0.0014097705030132282
905.0, 0.0007778481138605796
906.0, 0.00016434388147065787
907.0, 8.636073898692462e-05
908.0, 9.67225866171057e-05
909.0, 0.0004906830711724828
910.0, 0.000979690715607559
911.0, 0.000850933514693499
912.0, 0.0011331895766941483
913.0, 0.0006744699979361512
914.0, 0.0006444822020688528
915.0, 0.0010585792253915219
916.0, 6.762923201230687e-05
917.0, 0.00030899201830232625
918.0, 0.0006884566674757274
919.0, 0.0009745247237000743
920.0, 0.0011258247813591292
921.0, 0.0015314635090448783
922.0, 0.001063179594666622
923.0, 0.0011941868005310341
924.0, 0.0012395575671098823
925.0, 0.0004549370954327924
926.0, 0.0018800552629328492
927.0, 0.0010161252527131207
928.0, 0.0011839062171488984
929.0, 0.001897567968498214
930.0, 0.000988925687615487
931.0, 0.002097486573509802
932.0, 0.0016483140702649645
933.0, 0.0011629407602068262
934.0, 0.0013684628282405477
935.0, 0.002362648068020988
936.0, 0.0020070106178035085
937.0, 0.0016844606803894347
938.0, 0.0017335138643395924
939.0, 0.0019833235681064394
940.0, 0.0012922187803126256
941.0, 0.0019247990513421576
942.0, 0.002958019418797375
943.0, 0.0034344141234724044
944.0, 0.0027439013227780165
945.0, 0.0012972967077141302
946.0, 0.0016807074113941972
947.0, 0.0022591868013223304
948.0, 0.0024485862322335193
949.0, 0.0020603814765045767
950.0, 0.0022130850166556526
951.0, 0.003518780023978469
952.0, 0.003375311778878066
953.0, 0.0023495796398570407
954.0, 0.0021569596778842604
955.0, 0.0039018633487770482
956.0, 0.004137846687813983
957.0, 0.003980558623090864
958.0, 0.0038263732159004448
959.0, 0.0037322652928024084
960.0, 0.004407874442758647
961.0, 0.004076391466322399
962.0, 0.003615413196532656
963.0, 0.0038764965710217794
964.0, 0.005796196926888682
965.0, 0.003976625643657474
966.0, 0.004259326010572712
967.0, 0.005365754961520568
968.0, 0.006257311298761677
969.0, 0.006244822045109317
970.0, 0.005876070381826281
971.0, 0.006402580135949413
972.0, 0.006989943160938676
973.0, 0.007391066106046141
974.0, 0.008791272920275331
975.0, 0.008220924181919198
976.0, 0.008176121278707213
977.0, 0.00830464547557776
978.0, 0.008140677132140206
979.0, 0.00758029799235689
980.0, 0.007039662282142759
981.0, 0.006493729676173373
982.0, 0.00574675100935332
983.0, 0.004714801496629949
984.0, 0.0038039990982254844
985.0, 0.003419233503296705
986.0, 0.0038230743072697262
987.0, 0.004254024383610949
988.0, 0.003812259197917449
989.0, 0.0018572734123566861
990.0, 0.0027694342509748935
991.0, 0.0032684560441848774
992.0, 0.0035333012067283913
993.0, 0.004319443769001471
994.0, 0.00462249117647939
995.0, 0.004653997094798214
996.0, 0.004757180553850661
997.0, 0.004707773524470201
998.0, 0.004205151821736887
999.0, 0.003702393980300624
1000.0, 0.002980936299293999
1001.0, 0.0023687201710872532
1002.0, 0.002555533771153613
1003.0, 0.00401794118538788
1004.0, 0.003999491011236126
1005.0, 0.0036730047220322583
1006.0, 0.0037541671128228675
1007.0, 0.00380028694592265
1008.0, 0.003117980644633552
1009.0, 0.0035488412955847937
1010.0, 0.004132735822720008
1011.0, 0.004220973033958579
1012.0, 0.004072133274289018
1013.0, 0.004312204777182086
1014.0, 0.005005984992529247
1015.0, 0.004970096796284037
1016.0, 0.004513449518800786
1017.0, 0.004028056403281917
1018.0, 0.003928510329480525
1019.0, 0.004134031465514129
1020.0, 0.004156229730845027
1021.0, 0.004152310906099141
1022.0, 0.004228256060668769
1023.0, 0.004429331673170566
1024.0, 0.00432027408322058
1025.0, 0.004530453442180189
1026.0, 0.00477002226626448
1027.0, 0.004966807310730303
1028.0, 0.005084589514446041
1029.0, 0.004467600047522873
1030.0, 0.004961336248458175
1031.0, 0.0058879370023202935
1032.0, 0.006457283844254124
1033.0, 0.00603148966014828
1034.0, 0.006016240087485519
1035.0, 0.006303242771990249
1036.0, 0.006353121489705342
1037.0, 0.005973836233995409
1038.0, 0.005293887362107425
1039.0, 0.00589554233638169
1040.0, 0.005657074551007595
1041.0, 0.005283448318054077
1042.0, 0.005541684268384642
1043.0, 0.006617799560634973
1044.0, 0.004830848259796764
1045.0, 0.005507942706749147
1046.0, 0.006125298669243445
1047.0, 0.005684431993764258
1048.0, 0.004321247721006224
1049.0, 0.005828734134987866
1050.0, 0.005206547565349262
1051.0, 0.0044922112902789765
1052.0, 0.004466963895986792
1053.0, 0.004838201345535144
1054.0, 0.0021107390066230952
1055.0, 0.003299317246038843
1056.0, 0.0026666671989228723
1057.0, 0.0018412503476194575
1058.0, 0.0024634933202152412
1059.0, 0.0028141584345071297
1060.0, 0.001605333391081638
1061.0, 0.0019098722602298962
1062.0, 0.0025380528276404547
1063.0, 0.002601722527045593
1064.0, 0.0029030503523154016
1065.0, 0.0022916341877545444
1066.0, 0.002127114563218438
1067.0, 0.0020838652289061066
1068.0, 0.0019413178056046348
1069.0, 0.0018258852250983254
1070.0, 0.0017175372909836383
1071.0, 0.0014723800253554718
1072.0, 0.0012852059078182362
1073.0, 0.0012300627927598823
1074.0, 0.0012335988961398713
1075.0, 0.0009216119629258155
1076.0, 0.00131649796904886
1077.0, 0.001401779107408274
1078.0, 0.001585217928883778
1079.0, 0.003055837066144643
1080.0, 0.000986436781235325
1081.0, 0.0018831799190013921
1082.0, 0.002325390386597876
1083.0, 0.001937586503367136
1084.0, 0.0016775475008522945
1085.0, 0.0005884459131623383
1086.0, 0.0008943892251669416
1087.0, 0.001144803961978189
1088.0, 0.0012258981022723553
1089.0, 0.0013755872245738612
1090.0, 0.0014895632442755702
1091.0, 0.0016425066838627936
1092.0, 0.0020919439444656855
1093.0, 0.0024566683397233015
1094.0, 0.002373761896372537
1095.0, 0.0018466313715311158
1096.0, 0.0021650793218335133
1097.0, 0.00202728027905033
1098.0, 0.0018313911578167132
1099.0, 0.0018434863406998694
1100.0, 0.0018441662166992351
1101.0, 0.0017776304071656722
1102.0, 0.0017376990704923822
1103.0, 0.0016532918871574756
1104.0, 0.001712882050565631
1105.0, 0.0022919645128542687
1106.0, 0.0018462656407816158
1107.0, 0.0021197408466962658
1108.0, 0.0022673462045674363
1109.0, 0.0023194271289434373
1110.0, 0.002793197139032111
1111.0, 0.004239514758872322
1112.0, 0.004149489241174161
1113.0, 0.0038954423798814573
1114.0, 0.0034878193127877784
1115.0, 0.0027810674410127683
1116.0, 0.0025629280898226384
1117.0, 0.0034740104293532375
1118.0, 0.0043022932769689074
1119.0, 0.004734560988853907
1120.0, 0.004728131814396664
1121.0, 0.004509550793672938
1122.0, 0.009227241773991278
1123.0, 0.011990983962875516
1124.0, 0.011577947198495817
1125.0, 0.00888367411842551
1126.0, 0.0066023033193316665
1127.0, 0.005056710466796804
1128.0, 0.004625687305550325
1129.0, 0.0034589656470123543
1130.0, 0.002705149196333523
1131.0, 0.00413937932983764
1132.0, 0.0029339632265614453
1133.0, 0.003233925363696545
1134.0, 0.0032470378321284767
1135.0, 0.003208103911140057
1136.0, 0.003551228399374112
1137.0, 0.0038625719353869254
1138.0, 0.003429823777296513
1139.0, 0.00409027993633269
1140.0, 0.004291596951599766
1141.0, 0.003580159701927586
1142.0, 0.003364628209741015
1143.0, 0.003790219662162286
1144.0, 0.0046580232731089225
1145.0, 0.0037074698542056013
1146.0, 0.0024800291586061186
1147.0, 0.0039037140615669095
1148.0, 0.0020864848034216317
1149.0, 0.0018581037057013496
1150.0, 0.0020928895661842103
1151.0, 0.002367529281836654
1152.0, 0.00239039046005315
1153.0, 0.0017130875487517906
1154.0, 0.0012835811004936575
1155.0, 0.0016481170312825318
1156.0, 0.0017982430528135308
1157.0, 0.0014507654449656385
1158.0, 0.0014100515910537193
1159.0, 0.0008075696488676568
1160.0, 0.0008038768899049746
1161.0, 0.0008769926899762575
1162.0, 0.0007068682193864879
1163.0, 0.000295940152264686
1164.0, 0.0009106408834944112
1165.0, 0.00044229162689895553
1166.0, 0.0008531370590871815
1167.0, 0.0014553723129997636
1168.0, 0.00138340804445144
1169.0, 0.0006639006244293752
1170.0, 0.0001456048263584923
1171.0, 0.00028913100797564324
1172.0, 0.0009189892516240748
1173.0, 0.0013289211279427435
1174.0, 0.0005854541176102345
1175.0, 0.00016076181418195668
1176.0, 0.00041380493213338213
1177.0, 0.00043204864312016534
1178.0, 0.000262908638870594
1179.0, 0.00019638958199592082
1180.0, 0.00017390643728076234
1181.0, 6.407481411123441e-05
1182.0, 0.0003769035826609954
1183.0, 0.0004548594017833305
1184.0, 0.000224094732902029
1185.0, 0.0004399229975196545
1186.0, 0.00044717562484712496
1187.0, 0.00041199006331339163
1188.0, 0.0003041940087734684
1189.0, 0.0002583509912144363
1190.0, 0.0004249627396715283
1191.0, 0.0006913134199937568
1192.0, 0.0005225176876449728
1193.0, 0.00022078877222247965
1194.0, 0.0007412397318547123
1195.0, 0.001614629318347134
1196.0, 0.00029534711544257017
1197.0, 0.0010490568330067875
1198.0, 0.001215404425498503
1199.0, 0.0011108877172808505
1200.0, 0.0008534257866628503
1201.0, 0.0005049763728071501
1202.0, 0.00043355498831925093
1203.0, 0.0003610526610751543
1204.0, 0.00034083198123283114
1205.0, 0.00022611573039122026
1206.0, 0.00029819491603069433
1207.0, 0.0014662048887453907
1208.0, 0.0008880524457865321
1209.0, 0.0010034003193897774
1210.0, 0.0007217766470180321
1211.0, 0.00039804176595065676
1212.0, 0.0008431371315754647
1213.0, 0.0012715310235424724
1214.0, 0.0006874145223555982
1215.0, 0.0007785588891565753
1216.0, 0.0012535479854645735
1217.0, 0.0016668412322907928
1218.0, 0.0018058112219782817
1219.0, 0.0016074246437532084
1220.0, 0.0017229379502244346
1221.0, 0.0017234262727008638
1222.0, 0.001624412609677813
1223.0, 0.001573472586545866
1224.0, 0.001416006401603058
1225.0, 0.0011497394068993542
1226.0, 0.0009861605802910613
1227.0, 0.0012399118327228978
1228.0, 0.0014599482101059942
1229.0, 0.0006360504312605392
1230.0, 0.0017833684695020297
1231.0, 0.0023223350251419983
1232.0, 0.002360909635095617
1233.0, 0.0023612581496951566
1234.0, 0.002579521460714043
1235.0, 0.00241578341711026
1236.0, 0.0030307176228806408
1237.0, 0.0022734193698106643
1238.0, 0.0023946757082929575
1239.0, 0.003359992669297222
1240.0, 0.00342135966564272
1241.0, 0.0026836149992863945
1242.0, 0.0033306864046824002
1243.0, 0.0036660447994041703
1244.0, 0.0031587635181894976
1245.0, 0.002253769667033553
1246.0, 0.0024727050085870473
1247.0, 0.0030784747103912366
1248.0, 0.003318374030159465
1249.0, 0.0032272319913638965
1250.0, 0.0028749490346949547
1251.0, 0.0025775177355240033
1252.0, 0.0034579210314323264
1253.0, 0.0035264513762128524
1254.0, 0.004580690972476868
1255.0, 0.004510875442772033
1256.0, 0.003814203772157655
1257.0, 0.005038762857770742
1258.0, 0.004944741408233376
1259.0, 0.003723979618246601
1260.0, 0.0038189801850504494
1261.0, 0.004336958664267956
1262.0, 0.004349245305544752
1263.0, 0.004277391169279404
1264.0, 0.005195945058504742
1265.0, 0.004940028689979103
1266.0, 0.0046631248607993826
1267.0, 0.005155373639543366
1268.0, 0.006132509396354104
1269.0, 0.004597435767730542
1270.0, 0.005825604777494125
1271.0, 0.004684484695824465
1272.0, 0.004096552640964465
1273.0, 0.004505693491575096
1274.0, 0.004216771367010293
1275.0, 0.004129423631080098
1276.0, 0.005100106289137308
1277.0, 0.005506018575122257
1278.0, 0.00583008235258025
1279.0, 0.006264434899846583
1280.0, 0.006202183679074135
1281.0, 0.006334813064938223
1282.0, 0.005450829418427833
1283.0, 0.0054704426245093234
1284.0, 0.005287680799295823
1285.0, 0.004295259778409148
1286.0, 0.0049370360636786445
1287.0, 0.005385001385782367
1288.0, 0.006321255652016124
1289.0, 0.006107804549304345
1290.0, 0.0055808671146203425
1291.0, 0.006177338520234589
1292.0, 0.006896109850001851
1293.0, 0.00615206673068226
1294.0, 0.006814300187457774
1295.0, 0.0073201422739543965
1296.0, 0.007353935997673307
1297.0, 0.007640123493368611
1298.0, 0.007763953288833971
1299.0, 0.0069668377862055035
1300.0, 0.007301866867737638
1301.0, 0.007537007763382664
1302.0, 0.007376568189969421
1303.0, 0.007749867885565362
1304.0, 0.006645982459500469
1305.0, 0.006275306884046757
1306.0, 0.00704248416553903
1307.0, 0.007893260448412839
1308.0, 0.007907248674013321
1309.0, 0.007091455019068346
1310.0, 0.008696079824364643
1311.0, 0.008312248607980747
1312.0, 0.00752087215860885
1313.0, 0.007114483837423145
1314.0, 0.007226893832843687
1315.0, 0.007281758209061646
1316.0, 0.00790771115956795
1317.0, 0.006921942863443748
1318.0, 0.005984155414860351
1319.0, 0.006149443383894287
1320.0, 0.007037040250329675
1321.0, 0.005759143629284948
1322.0, 0.006440749671201526
1323.0, 0.005745097166268118
1324.0, 0.005674470168434616
1325.0, 0.005681310424643579
1326.0, 0.004858334278641853
1327.0, 0.005326365450367594
1328.0, 0.005842103963246005
1329.0, 0.005634856025135086
1330.0, 0.006166675519359003
1331.0, 0.006470141162828909
1332.0, 0.005275019620543242
1333.0, 0.005509015771509853
1334.0, 0.00614890926442248
1335.0, 0.00567304729562607
1336.0, 0.004859505542099786
1337.0, 0.004394567224630862
1338.0, 0.0044791807581123074
1339.0, 0.0042786791794885695
1340.0, 0.0038644321162811133
1341.0, 0.0034029101081550755
1342.0, 0.0033980730542549796
1343.0, 0.0033475371662655138
1344.0, 0.002721063980521713
1345.0, 0.004115737477538441
1346.0, 0.004018746929890097
1347.0, 0.003798666531064752
1348.0, 0.0035955736321245614
1349.0, 0.0033899590387036402
1350.0, 0.003155305535701876
1351.0, 0.0030308060761347465
1352.0, 0.002669445946621021
1353.0, 0.002814623967599424
1354.0, 0.0028011366853941443
1355.0, 0.0027217547355191545
1356.0, 0.0029644198079691805
1357.0, 0.002088725785917853
1358.0, 0.002235892729933792
1359.0, 0.0028260120661428613
1360.0, 0.0023405305216734214
1361.0, 0.002062840402909047
1362.0, 0.0038532073159248813
1363.0, 0.003019749716153683
1364.0, 0.0026606000259079706
1365.0, 0.003431384145547576
1366.0, 0.0026145430225143155
1367.0, 0.0013501420046809717
1368.0, 0.0022592585848293036
1369.0, 0.002434824612444354
1370.0, 0.0017552607196076157
1371.0, 0.0021182165512054043
1372.0, 0.002839098799730898
1373.0, 0.002886132495337879
1374.0, 0.0019378316051170004
1375.0, 0.0020734249308907403
1376.0, 0.0013801863042700035
1377.0, 0.001368995291093316
1378.0, 0.0021220606518579234
1379.0, 0.0026322763936592617
1380.0, 0.002197877180821597
1381.0, 0.002371742835254993
1382.0, 0.0025423350689739083
1383.0, 0.0026223143591754846
1384.0, 0.002259487379492714
1385.0, 0.00178215640749106
1386.0, 0.0014036039381705044
1387.0, 0.00041882314904257713
1388.0, 0.0012958344646335231
1389.0, 0.0006057957296958409
1390.0, 0.0011909142415658532
1391.0, 0.0017734284940504553
1392.0, 0.0009602741291900433
1393.0, 7.753322042712834e-05
1394.0, 0.0012318953503886684
1395.0, 0.00096188787073996
1396.0, 0.0004079614894354874
1397.0, 0.0007087310259605524
1398.0, 0.0014516693525193406
1399.0, 0.0006677910565722988
1400.0, 0.00130342623228044
1401.0, 0.0005458209875816075
1402.0, 0.0008011707140370736
1403.0, 0.000751322306315778
1404.0, 0.00012257538057641046
1405.0, 0.00026181219936782384
1406.0, 0.0008554177141202801
1407.0, 0.00087319214306126
1408.0, 0.001005195139447718
1409.0, 0.0009326523349018186
1410.0, 0.0007574082991096779
1411.0, 0.0007256477671648473
1412.0, 5.804645040984112e-05
1413.0, 0.0008957604663688011
1414.0, 0.000560964138184564
1415.0, 0.00019161367042842803
1416.0, 0.00025498707446383037
1417.0, 0.0006395271460326725
1418.0, 0.0011326145963372074
1419.0, 0.00040535346163300635
1420.0, 0.0004683477617435374
1421.0, 0.0007541582441286462
1422.0, 0.0006703085865214433
1423.0, 0.0005979058671233006
1424.0, 0.001955243294299676
1425.0, 0.0005320215259695638
1426.0, 0.0014869693929135455
1427.0, 0.001381086868844577
1428.0, 0.001306360405073141
1429.0, 0.0019055736450670673
1430.0, 0.0021918589883487298
1431.0, 0.001081733395129791
1432.0, 0.0006891835152136812
1433.0, 0.0005493770831578185
1434.0, 0.001050254698369461
1435.0, 0.0014398417505339049
1436.0, 0.0009174905859404053
1437.0, 0.0009483358784373141
1438.0, 0.00198904005342756
1439.0, 0.0008407915404008851
1440.0, 0.0008250086778631385
1441.0, 0.0013918943360414192
1442.0, 0.0016483770794951426
1443.0, 0.0028248256624830567
1444.0, 0.00038291763430106066
1445.0, 0.0002709819660031837
1446.0, 0.0009316090653090068
1447.0, 0.0023095141896582096
1448.0, 0.003331352732425518
1449.0, 0.002461348253565999
1450.0, 0.0025229851168116035
1451.0, 0.0032172121514842636
1452.0, 0.0024093453267501515
1453.0, 0.00269423509145484
1454.0, 0.0033609415478339268
1455.0, 0.00270141031584989
1456.0, 0.002345641734495282
1457.0, 0.0031109726964983135
1458.0, 0.0032301455873078827
1459.0, 0.003772277465059502
1460.0, 0.004320985966337509
1461.0, 0.004364878147334842
1462.0, 0.004015807261965474
1463.0, 0.003542274618177132
1464.0, 0.003562068476516302
1465.0, 0.003976796393719084
1466.0, 0.004018121800987959
1467.0, 0.00393963534635729
1468.0, 0.0044606168306457195
1469.0, 0.005171192484851315
1470.0, 0.004901432370599354
1471.0, 0.004248510337455916
1472.0, 0.00436150775268956
1473.0, 0.004432781524408167
1474.0, 0.0038386163466661446
1475.0, 0.0033914057488698608
1476.0, 0.003869611532731861
1477.0, 0.003099458150794165
1478.0, 0.0032520323716068076
1479.0, 0.0030774354417015893
1480.0, 0.003191846086253673
1481.0, 0.004613236796874171
1482.0, 0.004170894081888786
1483.0, 0.003946729202546063
1484.0, 0.0038398170307720773
1485.0, 0.003080495348982702
1486.0, 0.0029748023515848345
1487.0, 0.003677899690094934
1488.0, 0.0031194543376619507
1489.0, 0.0023410528466849176
1490.0, 0.002728389993674386
1491.0, 0.0029317571608052997
1492.0, 0.002411093477239743
1493.0, 0.0019279795529072298
1494.0, 0.0021766812125833296
1495.0, 0.0017906384649160067
1496.0, 0.003947286571374199
1497.0, 0.002973363342163668
1498.0, 0.0031434682818436634
1499.0, 0.0038754853325981557
1500.0, 0.003848054228544153
1501.0, 0.003013636317826869
1502.0, 0.002766457400835558
1503.0, 0.004016481950520939
1504.0, 0.004160150039845273
1505.0, 0.0034727432634595523
1506.0, 0.003445678350968164
1507.0, 0.004654955460509446
1508.0, 0.005292750090436368
1509.0, 0.005035429058732021
1510.0, 0.005548574512508818
1511.0, 0.004702603320559199
1512.0, 0.004633127470012389
1513.0, 0.005301269375670249
1514.0, 0.004944567906905621
1515.0, 0.004004867952497971
1516.0, 0.00445583680701874
1517.0, 0.0036258189423035055
1518.0, 0.004025741298474679
1519.0, 0.004895451171540761
1520.0, 0.004665843276414106
1521.0, 0.0029852891358983394
1522.0, 0.003053658752212025
1523.0, 0.004904982604424476
1524.0, 0.002821147816219259
1525.0, 0.0018592465762261817
1526.0, 0.0018063459967503318
1527.0, 0.0016157438714466297
1528.0, 0.003308217670635921
1529.0, 0.0024418366148963484
1530.0, 0.0016285322802407306
1531.0, 0.0016244197106487395
1532.0, 0.0013380301328868697
1533.0, 0.0009281140241047729
1534.0, 0.0008551196265546054
1535.0, 2.4952253152459815e-05
1536.0, 2.9872415745896258e-06
1537, 0.0
1538, 0.0
1539, 0.0
1540, 0.0
1541, 0.0
1542, 0.0
1543, 0.0
1544, 0.0
1545, 0.0
1546, 0.0
1547, 0.0
1548, 0.0
1549, 0.0
1550, 0.0
1551, 0.0
1552, 0.0
1553, 0.0
1554, 0.0
1555, 0.0
1556, 0.0
1557, 0.0
1558, 0.0
1559, 0.0
1560, 0.0
1561, 0.0
1562, 0.0
1563, 0.0
1564, 0.0
1565, 0.0
1566, 0.0
1567, 0.0
1568, 0.0
1569, 0.0
1570, 0.0
1571, 0.0
1572, 0.0
1573, 0.0
1574, 0.0
1575, 0.0
1576, 0.0
1577, 0.0
1578, 0.0
1579, 0.0
1580, 0.0
1581, 0.0
1582, 0.0
1583, 0.0
1584, 0.0
1585, 0.0
1586, 0.0
1587, 0.0
1588, 0.0
1589, 0.0
1590, 0.0
1591, 0.0
1592, 0.0
1593, 0.0
1594, 0.0
1595, 0.0
1596, 0.0
1597, 0.0
1598, 0.0
1599, 0.0
