30, 0.0
31, 0.0
32, 0.0
33, 0.0
34, 0.0
35, 0.0
36, 0.0
37, 0.0
38, 0.0
39, 0.0
40, 0.0
41, 0.0
42, 0.0
43, 0.0
44, 0.0
45, 0.0
46, 0.0
47, 0.0
48, 0.0
49, 0.0
50, 0.0
51, 0.0
52, 0.0
53, 0.0
54, 0.0
55, 0.0
56, 0.0
57, 0.0
58, 0.0
59, 0.0
60, 0.0
61, 0.0
62, 0.0
63, 0.0
64, 0.0
65, 0.0
66, 0.0
67, 0.0
68, 0.0
69, 0.0
70, 0.0
71, 0.0
72, 0.0
73, 0.0
74, 0.0
75, 0.0
76, 0.0
77, 0.0
78, 0.0
79, 0.0
80, 0.0
81, 0.0
82, 0.0
83, 0.0
84, 0.0
85, 0.0
86, 0.0
87, 0.0
88, 0.0
89.0, 6.046407972127203e-05
90.0, 0.0010820661908018574
91.0, 0.003952777063142955
92.0, 0.007183396042351774
93.0, 0.009601690269972065
94.0, 0.011318345599945469
95.0, 0.013226210732919222
96.0, 0.014594615294064403
97.0, 0.015775894290778535
98.0, 0.01698029848406553
99.0, 0.02048324292359062
100.0, 0.024849094008204183
101.0, 0.030645090188663904
102.0, 0.041949910691211616
103.0, 0.056898099681652214
104.0, 0.07403639669666304
105.0, 0.09287144744694478
106.0, 0.11773153815393497
107.0, 0.1507364927817867
108.0, 0.18803557345902866
109.0, 0.20890058696114697
110.0, 0.1751802203381226
111.0, 0.12887768431944374
112.0, 0.09706799758933482
113.0, 0.07147979477858889
114.0, 0.05183634028383086
115.0, 0.03756720882813155
116.0, 0.027243545523224777
117.0, 0.019327518885308242
118.0, 0.013265473007613823
119.0, 0.009133346307946197
120.0, 0.007584378218034751
121.0, 0.005943701267597644
122.0, 0.004363633571833526
123.0, 0.004097113925957532
124.0, 0.0028141340779525297
125.0, 0.0015313850344496021
126.0, 0.0008098854375816055
127.0, 0.0020877643374065916
128.0, 0.0035468354049083203
129.0, 0.004507213512057599
130.0, 0.0027612177290104374
131.0, 0.0014901176932483292
132.0, 0.0013974967728384033
133.0, 0.0029561194941772504
134.0, 0.007585807526427412
135.0, 0.013722851925638057
136.0, 0.020740920068076183
137.0, 0.027329140932742652
138.0, 0.03537538469808829
139.0, 0.04128038704180539
140.0, 0.043743599390369745
141.0, 0.04602814487045855
142.0, 0.04811264492601337
143.0, 0.05012413811286795
144.0, 0.052273303010953794
145.0, 0.057399902422584595
146.0, 0.06407272935248853
147.0, 0.07195372783225107
148.0, 0.07983946370270972
149.0, 0.08466386245292101
150.0, 0.08765775520893582
151.0, 0.08980438099203178
152.0, 0.09077819019168568
153.0, 0.08940621560300491
154.0, 0.08598431539054915
155.0, 0.08401849662139069
156.0, 0.08194965112933937
157.0, 0.07988970369138558
158.0, 0.07793264132441174
159.0, 0.07502278996609509
160.0, 0.07609357796399273
161.0, 0.08161870996261554
162.0, 0.09299793697455709
163.0, 0.11016357532223514
164.0, 0.13584426948162934
165.0, 0.17264404329264466
166.0, 0.20859489126510122
167.0, 0.2465808451811811
168.0, 0.28129590878109784
169.0, 0.29891034005407463
170.0, 0.3034767248085655
171.0, 0.2950688250249426
172.0, 0.2726553898756586
173.0, 0.23362511034530453
174.0, 0.19880560925185173
175.0, 0.1642646397066588
176.0, 0.12479002534204665
177.0, 0.09766394929220798
178.0, 0.07408882304098115
179.0, 0.052839765376532996
180.0, 0.03421146266894321
181.0, 0.02085019519256064
182.0, 0.010462629069095479
183.0, 0.0020206306279987995
184.0, 0.002276284392094988
185.0, 0.0015444715453402757
186.0, 0.0012382907986858878
187.0, 0.007266228678987952
188.0, 0.017667204284719854
189.0, 0.029955332923245214
190.0, 0.04345025216126757
191.0, 0.059225077186215024
192.0, 0.06978381603430614
193.0, 0.07536083701559158
194.0, 0.07494499724798548
195.0, 0.0673412427048351
196.0, 0.06002345654581007
197.0, 0.05477465723545714
198.0, 0.055697958188988914
199.0, 0.06183493015487062
200.0, 0.07237031078307139
201.0, 0.0875495752733982
202.0, 0.10832913954677498
203.0, 0.1349460260935989
204.0, 0.16472467000588428
205.0, 0.1911909721510327
206.0, 0.22460605794111732
207.0, 0.25615605269254815
208.0, 0.2828006592262119
209.0, 0.29992898092803866
210.0, 0.30679923244134666
211.0, 0.3039222073255367
212.0, 0.28955787499809305
213.0, 0.27274126932199994
214.0, 0.24901133394885427
215.0, 0.22035086215863361
216.0, 0.196340310877452
217.0, 0.16897123242422157
218.0, 0.1437110326541765
219.0, 0.12311868046998956
220.0, 0.1020733783355901
221.0, 0.08387626462306945
222.0, 0.06737702327390092
223.0, 0.05111185670046747
224.0, 0.039504748939785034
225.0, 0.02908998710877832
226.0, 0.01966593214799637
227.0, 0.013281698704357957
228.0, 0.008837145841650237
229.0, 0.005431697926843071
230.0, 0.0026797509677868835
231.0, 0.001791723772492216
232.0, 0.001421447851848936
233.0, 0.001472409384443196
234.0, 0.0018644356159836068
235.0, 0.003783912869196893
236.0, 0.006955288514301737
237.0, 0.011315777817310052
238.0, 0.016670454245838445
239.0, 0.023187628805069672
240.0, 0.03098682732694169
241.0, 0.0403324255127966
242.0, 0.04956080707341394
243.0, 0.06083406807227991
244.0, 0.0725013546220919
245.0, 0.0810856657742163
246.0, 0.088779324398091
247.0, 0.09444896226102631
248.0, 0.09851809187296742
249.0, 0.10591345797181866
250.0, 0.10935734307278426
251.0, 0.11304941119529148
252.0, 0.11970259230172205
253.0, 0.12030160039523519
254.0, 0.11903520037719277
255.0, 0.11548920664888139
256.0, 0.10831164951777118
257.0, 0.09803492643358158
258.0, 0.09025786902446678
259.0, 0.08555186811839965
260.0, 0.08124391908305703
261.0, 0.08233764288346646
262.0, 0.08663684842135057
263.0, 0.09329184175630255
264.0, 0.103502376982493
265.0, 0.11819968701821605
266.0, 0.13569681294507055
267.0, 0.15386444007365863
268.0, 0.17953149159559828
269.0, 0.20159851633334053
270.0, 0.22041042320400892
271.0, 0.24352701262568252
272.0, 0.26300058893142575
273.0, 0.27476353601892595
274.0, 0.27694225020896374
275.0, 0.2765419379341846
276.0, 0.26509917512276004
277.0, 0.24735229232994957
278.0, 0.22732193048067717
279.0, 0.20124833852486015
280.0, 0.17604556139216257
281.0, 0.1523480188475426
282.0, 0.13080917216017285
283.0, 0.11302001815114429
284.0, 0.09981936012730477
285.0, 0.09193526260950849
286.0, 0.09245025039745305
287.0, 0.09537493205263027
288.0, 0.10245255715023584
289.0, 0.1152786799898643
290.0, 0.12961009335519597
291.0, 0.14828628092810486
292.0, 0.1687204785038234
293.0, 0.18690071883449247
294.0, 0.20865551374206648
295.0, 0.22911638267147277
296.0, 0.24728217746380562
297.0, 0.26147341969401355
298.0, 0.2719478886290278
299.0, 0.27804172803024485
300.0, 0.28011639806125815
301.0, 0.28894484083944827
302.0, 0.2921573208239913
303.0, 0.29356283439301256
304.0, 0.2960491330111804
305.0, 0.29208288154102413
306.0, 0.28206931718834644
307.0, 0.26853412725711107
308.0, 0.25567916266985097
309.0, 0.23298001899135107
310.0, 0.21649178147455617
311.0, 0.20819347831500026
312.0, 0.20662170117873885
313.0, 0.22035004804126399
314.0, 0.24045620281726912
315.0, 0.2638145087128105
316.0, 0.2881552003252107
317.0, 0.3121768117418829
318.0, 0.3269189387077614
319.0, 0.324294549546579
320.0, 0.3104058080456997
321.0, 0.2840537907077394
322.0, 0.24867177620437356
323.0, 0.20880923594812
324.0, 0.17760125356797152
325.0, 0.14819030310893455
326.0, 0.12160255773928888
327.0, 0.10479492292714877
328.0, 0.09020889809258405
329.0, 0.07901942643582587
330.0, 0.07126414580273849
331.0, 0.06350555655580788
332.0, 0.059386847210754254
333.0, 0.058566529321020924
334.0, 0.061084880953360385
335.0, 0.06559044150271849
336.0, 0.0752370905256428
337.0, 0.09038469188590521
338.0, 0.11212112230405957
339.0, 0.14035323277593814
340.0, 0.17130299958153605
341.0, 0.20245120966951893
342.0, 0.22869212543800524
343.0, 0.24387214185639403
344.0, 0.2498704172223329
345.0, 0.24676624331509894
346.0, 0.233159602299014
347.0, 0.22328005166041828
348.0, 0.21297972224712863
349.0, 0.20167497819631588
350.0, 0.19784727189569237
351.0, 0.18871947212432116
352.0, 0.17734241531263312
353.0, 0.1652962676574841
354.0, 0.14313280436906692
355.0, 0.1183803187372362
356.0, 0.09398137231606894
357.0, 0.07335109972128209
358.0, 0.05464789267188179
359.0, 0.041219857147229616
360.0, 0.030937893516877254
361.0, 0.019612962284024316
362.0, 0.012876212546725685
363.0, 0.008336772997532145
364.0, 0.005086255312622737
365.0, 0.0012793235901143024
366.0, 0.001648845949208936
367.0, 0.0032437053474030516
368.0, 0.004972216159893569
369.0, 0.004836715475938247
370.0, 0.00432942433021299
371.0, 0.004320789283367531
372.0, 0.005042574833168041
373.0, 0.0038186252863671353
374.0, 0.004631218746119559
375.0, 0.004417060198073178
376.0, 0.0008995614792045375
377.0, 0.0015871423033014353
378.0, 0.005151994257793715
379.0, 0.010361558480069099
380.0, 0.015866929677064986
381.0, 0.02719050408092322
382.0, 0.041642443923632616
383.0, 0.0587199566241068
384.0, 0.07801482534265558
385.0, 0.10163600269319192
386.0, 0.12698856393464422
387.0, 0.1507087030683575
388.0, 0.16387119523653354
389.0, 0.1763854769077465
390.0, 0.18404244615482512
391.0, 0.1870812416401081
392.0, 0.19050723099033193
393.0, 0.1857334335891998
394.0, 0.17688097212398202
395.0, 0.1649436418667213
396.0, 0.14796703778283535
397.0, 0.12914140288481357
398.0, 0.11084954414985336
399.0, 0.09435962475523076
400.0, 0.08073048233622575
401.0, 0.07153286033614942
402.0, 0.06374439716447054
403.0, 0.0553906509221249
404.0, 0.04840717001069752
405.0, 0.04542322217501705
406.0, 0.043569616151198004
407.0, 0.04008649351544229
408.0, 0.0408694169101228
409.0, 0.04271925318760426
410.0, 0.047183732572323826
411.0, 0.056664175653359496
412.0, 0.06927806747734745
413.0, 0.08386176595767773
414.0, 0.10033945977772527
415.0, 0.11886541564413271
416.0, 0.1368484984599504
417.0, 0.14951200357444977
418.0, 0.15698122323144217
419.0, 0.1604067676402474
420.0, 0.16209371235733092
421.0, 0.16873257961512347
422.0, 0.1809509872817677
423.0, 0.1975180916776064
424.0, 0.22273478939462468
425.0, 0.25374319554792873
426.0, 0.28765111410165783
427.0, 0.31477998675336527
428.0, 0.3487490526429735
429.0, 0.3699537588454254
430.0, 0.37387639123631394
431.0, 0.36889682743048047
432.0, 0.3418411833066121
433.0, 0.30642132742343475
434.0, 0.2678741717439395
435.0, 0.2286164394787558
436.0, 0.18865716364886786
437.0, 0.15514752985347732
438.0, 0.13170986584292063
439.0, 0.11922806379235323
440.0, 0.11218545053666004
441.0, 0.10931562496001669
442.0, 0.10994935712201746
443.0, 0.11231048043637963
444.0, 0.11081107577301104
445.0, 0.10495248202963196
446.0, 0.09440018756892775
447.0, 0.0826644568713019
448.0, 0.06763681403988622
449.0, 0.052479890761725934
450.0, 0.03970462306500993
451.0, 0.03328536437269724
452.0, 0.026778572461503673
453.0, 0.021375496708497418
454.0, 0.01812560586182686
455.0, 0.014921291280398392
456.0, 0.012365435876710792
457.0, 0.010336468051244031
458.0, 0.00872600694339554
459.0, 0.0056326163538581876
460.0, 0.004130970631196453
461.0, 0.0031297807890466635
462.0, 0.0014415889470453772
463.0, 0.001612099561228679
464.0, 0.0034029442981473733
465.0, 0.005718261882596937
466.0, 0.00728310149462735
467.0, 0.010751251979042899
468.0, 0.01375615283965547
469.0, 0.016393775071525004
470.0, 0.018848249577720435
471.0, 0.01740210706054571
472.0, 0.014252349257911367
473.0, 0.011362856203930469
474.0, 0.011220395963095944
475.0, 0.007962982374167465
476.0, 0.007778799166844204
477.0, 0.009292750817112332
478.0, 0.010394933492314273
479.0, 0.013982542314532536
480.0, 0.01978679120153633
481.0, 0.026632374544340906
482.0, 0.032967606336180934
483.0, 0.04042781400346883
484.0, 0.046973669971466035
485.0, 0.04964157813200671
486.0, 0.04443127505240596
487.0, 0.03847525317399971
488.0, 0.029972816296058594
489.0, 0.020421738977837795
490.0, 0.011864047632229608
491.0, 0.006597890143676779
492.0, 0.0028748938912341536
493.0, 0.0018904496460293292
494.0, 0.005292875598903809
495.0, 0.0064037235370204325
496.0, 0.006859737718153595
497.0, 0.0074575574165493584
498.0, 0.009099959729594263
499.0, 0.007766760331956866
500.0, 0.0062275901553618795
501.0, 0.0049698876535874585
502.0, 0.004480038408553148
503.0, 0.0022354726929391254
504.0, 0.0009548209477655504
505.0, 0.00047039493661312734
506.0, 0.0005778966825372734
507.0, 0.001013724794554216
508.0, 0.0014072945471891474
509.0, 0.0020150518824732125
510.0, 0.0030477722965765214
511.0, 0.0028957842884238727
512.0, 0.003071507208685082
513.0, 0.003267785498894257
514.0, 0.0032301263406891967
515.0, 0.0029437331599310897
516.0, 0.0025998599182891578
517.0, 0.0020242592397269545
518.0, 0.0011149422879157688
519.0, 0.0003547542799970497
520.0, 0.00096114716594965
521.0, 0.0021872121972863253
522.0, 0.003453996675477129
523.0, 0.0032999844462193945
524.0, 0.003926251199609688
525.0, 0.004715158252878283
526.0, 0.005282698411635785
527.0, 0.005112392112508826
528.0, 0.005694098082059755
529.0, 0.0060536425322539455
530.0, 0.005748639411831914
531.0, 0.004699271251915313
532.0, 0.007058421984239351
533.0, 0.010271036387402822
534.0, 0.013881035973280036
535.0, 0.02007641710211148
536.0, 0.025032497541920377
537.0, 0.031215702282991118
538.0, 0.03954307960612291
539.0, 0.050876201157793045
540.0, 0.06282871106992569
541.0, 0.07543791278382272
542.0, 0.08855731102063429
543.0, 0.10175044710657072
544.0, 0.11290094997437147
545.0, 0.12012948831813058
546.0, 0.12254096668949026
547.0, 0.11866999344879618
548.0, 0.11380218796772686
549.0, 0.105068991639196
550.0, 0.09437615984473849
551.0, 0.08537526667585744
552.0, 0.08271900934277325
553.0, 0.08137344121369934
554.0, 0.082613153606512
555.0, 0.0883669580264685
556.0, 0.09243702262582532
557.0, 0.10405337155064087
558.0, 0.11658939298668458
559.0, 0.12361112537299418
560.0, 0.12579261055888635
561.0, 0.12511549502057268
562.0, 0.11854978334326632
563.0, 0.10490224700802328
564.0, 0.09588389454525745
565.0, 0.08720997069406944
566.0, 0.07929775992253328
567.0, 0.07286582569915645
568.0, 0.07140552795218616
569.0, 0.06776944123660483
570.0, 0.06759988491660633
571.0, 0.07121842013045748
572.0, 0.07137607599369673
573.0, 0.0709970059762363
574.0, 0.07023886195423747
575.0, 0.06849980097294019
576.0, 0.06393586953130626
577.0, 0.06443591322079015
578.0, 0.06470951530825066
579.0, 0.06542101873497738
580.0, 0.0693031391202843
581.0, 0.07497104305279643
582.0, 0.08301798438290833
583.0, 0.0938032241812999
584.0, 0.10767842626320688
585.0, 0.12109982495909963
586.0, 0.13282919702726112
587.0, 0.14211592456733313
588.0, 0.14795826776344945
589.0, 0.14233828542541876
590.0, 0.13351879301067532
591.0, 0.12104737773917189
592.0, 0.10479613416235617
593.0, 0.0857561594608811
594.0, 0.07232064967976279
595.0, 0.059314147806189224
596.0, 0.04668346692876979
597.0, 0.04222480436576475
598.0, 0.03618886925027361
599.0, 0.032453426789694824
600.0, 0.031230252758981905
601.0, 0.030942947460554385
602.0, 0.030043831856028116
603.0, 0.031070855029310698
604.0, 0.033462070207203196
605.0, 0.03591031952116539
606.0, 0.03944012557933178
607.0, 0.043495252157602825
608.0, 0.046313662305855936
609.0, 0.04646067410192261
610.0, 0.04934757893461312
611.0, 0.04753500565027744
612.0, 0.046255865486657784
613.0, 0.04808470015849359
614.0, 0.04890525053730341
615.0, 0.04784523134554355
616.0, 0.04892093580230874
617.0, 0.05212696528192501
618.0, 0.05225726532394455
619.0, 0.051097979287837166
620.0, 0.049880765867998104
621.0, 0.047699100533226846
622.0, 0.04221051481049557
623.0, 0.03697721063947954
624.0, 0.03148252092127323
625.0, 0.025924423126064924
626.0, 0.020596655688880583
627.0, 0.01656771207167243
628.0, 0.013641325570881832
629.0, 0.011886789479503546
630.0, 0.011094965751158817
631.0, 0.009072956389619712
632.0, 0.009094421492901676
633.0, 0.010649994848756233
634.0, 0.0132491436999162
635.0, 0.01573018167985676
636.0, 0.02022342416387138
637.0, 0.024098453063447232
638.0, 0.027864326334511823
639.0, 0.033645582651258395
640.0, 0.03784633951299207
641.0, 0.04194798594313115
642.0, 0.04505606287205549
643.0, 0.04608517449243476
644.0, 0.04496999235016452
645.0, 0.04425899324059129
646.0, 0.04222296982522382
647.0, 0.037966326708603775
648.0, 0.03278691080059645
649.0, 0.027533043287943683
650.0, 0.02296493771282392
651.0, 0.019109223255172673
652.0, 0.015276866167114952
653.0, 0.01319830228483568
654.0, 0.010365471173733433
655.0, 0.007771123108169728
656.0, 0.007489439161098759
657.0, 0.0069704755414038595
658.0, 0.006645222104624344
659.0, 0.006857215263662063
660.0, 0.007925075431767856
661.0, 0.010484056302673926
662.0, 0.014187202535373552
663.0, 0.017811469678940102
664.0, 0.021395340678460516
665.0, 0.02717861247286411
666.0, 0.03441642893381177
667.0, 0.043331517701320904
668.0, 0.05432628847277113
669.0, 0.06800825199813498
670.0, 0.08443406675915273
671.0, 0.10439975013884072
672.0, 0.12922597801290914
673.0, 0.15903028668452748
674.0, 0.1806414436306715
675.0, 0.20315330463799508
676.0, 0.21799718333652124
677.0, 0.22261138888755988
678.0, 0.2225405141203284
679.0, 0.2026868190441561
680.0, 0.18071790855426034
681.0, 0.15962840410525045
682.0, 0.1386386851347343
683.0, 0.1153136861609073
684.0, 0.09851423127288604
685.0, 0.0855135399805736
686.0, 0.07362867715155208
687.0, 0.0659190165987137
688.0, 0.06136581903045165
689.0, 0.057686620830476265
690.0, 0.05476768260010888
691.0, 0.05573950133308983
692.0, 0.05722444130628097
693.0, 0.05963867950204882
694.0, 0.06374893209620965
695.0, 0.07056692946633018
696.0, 0.07610721727133997
697.0, 0.08601425800313041
698.0, 0.09887485779710903
699.0, 0.11353583799231201
700.0, 0.13063085098619717
701.0, 0.15574442805969524
702.0, 0.1848270996044594
703.0, 0.21830608239051114
704.0, 0.26075161106963946
705.0, 0.3149913842656686
706.0, 0.37742134102435515
707.0, 0.4565090630989098
708.0, 0.5603125411028884
709.0, 0.654568634807449
710.0, 0.7645718404452351
711.0, 0.8663288232729593
712.0, 0.9448974375984511
713.0, 0.9891532449850676
714.0, 0.998428886675203
715.0, 0.9495125200265891
716.0, 0.8664119270840707
717.0, 0.7990570065926107
718.0, 0.6817308765879243
719.0, 0.5834497113293183
720.0, 0.49960059640843785
721.0, 0.4235201580670363
722.0, 0.3434598016051909
723.0, 0.29012590435093427
724.0, 0.24606691648538237
725.0, 0.20802700050413261
726.0, 0.18051163659740763
727.0, 0.15851804835673763
728.0, 0.13750104569339008
729.0, 0.12033750968537901
730.0, 0.10926799767567819
731.0, 0.09477364735405552
732.0, 0.08571010541128159
733.0, 0.07815233143500132
734.0, 0.07005210878022283
735.0, 0.05999523295770515
736.0, 0.057084394756546766
737.0, 0.05389350438384265
738.0, 0.04911304881961292
739.0, 0.042621461371500344
740.0, 0.042202846617590904
741.0, 0.03903828430813465
742.0, 0.036220076131241806
743.0, 0.03510574395564721
744.0, 0.03508484316577124
745.0, 0.032187797106838924
746.0, 0.03146578970724682
747.0, 0.03158764807833307
748.0, 0.0297718667396243
749.0, 0.028969510520841374
750.0, 0.030897425027196664
751.0, 0.032209796592194605
752.0, 0.032118085572096035
753.0, 0.034982443226862434
754.0, 0.04154410242791551
755.0, 0.04447694251269953
756.0, 0.04547287657068424
757.0, 0.04873033621740661
758.0, 0.05188395625431941
759.0, 0.059340567957322614
760.0, 0.06758574142900588
761.0, 0.07496998873077942
762.0, 0.08309192906013513
763.0, 0.0948465287117862
764.0, 0.10391694587607957
765.0, 0.11037315307495624
766.0, 0.11580023736922372
767.0, 0.11450017570304258
768.0, 0.11331789920833465
769.0, 0.10964400127668164
770.0, 0.10201791351084613
771.0, 0.090001837315998
772.0, 0.08379897237174927
773.0, 0.0744134841999414
774.0, 0.06399558122669115
775.0, 0.056947549862567386
776.0, 0.05060406519849869
777.0, 0.0437579645457676
778.0, 0.037717755046195144
779.0, 0.032751737023102453
780.0, 0.027720857512321697
781.0, 0.025244908699031038
782.0, 0.022529323782367622
783.0, 0.019060962516631776
784.0, 0.014925827243113603
785.0, 0.01368825370664543
786.0, 0.011360001475020766
787.0, 0.009088081848732
788.0, 0.007864260536305347
789.0, 0.009077494536704048
790.0, 0.005381440847360283
791.0, 0.0038419356136419414
792.0, 0.00370201761719964
793.0, 0.003572244332266074
794.0, 0.0017224868627018046
795.0, 0.0028720894003631237
796.0, 0.002587177126668923
797.0, 0.000977779678576946
798.0, 0.0006459201056709641
799.0, 0.0016059455646619686
800.0, 0.0016083910953824897
801.0, 0.0019514419383454492
802.0, 0.002915827591164433
803.0, 0.0015770383214057915
804.0, 0.0020102113145628905
805.0, 0.0033095043020626032
806.0, 0.004554590059176604
807.0, 0.004943427478320949
808.0, 0.009826177858364059
809.0, 0.011429869022396615
810.0, 0.012179431668504366
811.0, 0.013295407529481636
812.0, 0.01505279097507273
813.0, 0.010059438069555036
814.0, 0.008814283191135561
815.0, 0.008586559788628618
816.0, 0.006190163707127801
817.0, 0.002854708202390182
818.0, 0.0015487935849546998
819.0, 0.0017899425726910932
820.0, 0.002603711739630515
821.0, 0.002514154703756699
822.0, 0.002522077685235703
823.0, 0.0032658723235187695
824.0, 0.0034274025425703666
825.0, 0.002938875507571258
826.0, 0.0043357412296632205
827.0, 0.004296055986531457
828.0, 0.004323849059754303
829.0, 0.0046555297135665655
830.0, 0.005068182162966339
831.0, 0.002813714536564332
832.0, 0.004422634149540289
833.0, 0.0045375490569472595
834.0, 0.003350385362683077
835.0, 0.0044509457857235205
836.0, 0.004563431746291564
837.0, 0.003730522146069277
838.0, 0.0031148334123884346
839.0, 0.0031556957931531925
840.0, 0.002813431131713147
841.0, 0.002316958184629203
842.0, 0.00255172260392033
843.0, 0.002360721222494919
844.0, 0.0008561734532303906
845.0, 0.00191883572076222
846.0, 0.0010319154214365816
847.0, 0.0010829937907647243
848.0, 0.001664072305522082
849.0, 0.0006132386868872978
850.0, 0.0023427993197181647
851.0, 0.003658586207761998
852.0, 0.004269737480939709
853.0, 0.004504848696294403
854.0, 0.005832764545915352
855.0, 0.00672803462202261
856.0, 0.007598948849209235
857.0, 0.009051957813413933
858.0, 0.011421731167265591
859.0, 0.01381849406616728
860.0, 0.014483963311317445
861.0, 0.014109427042675742
862.0, 0.01451834211774325
863.0, 0.017671513551462615
864.0, 0.018339512352176186
865.0, 0.01815130498026312
866.0, 0.018819500981559104
867.0, 0.019806173562121582
868.0, 0.01851600464209378
869.0, 0.025168677462670364
870.0, 0.02644346952287836
871.0, 0.026450195070434116
872.0, 0.02727298815153209
873.0, 0.026015316864170756
874.0, 0.028065299539257963
875.0, 0.029759067239362898
876.0, 0.029684039816071622
877.0, 0.027744977506715427
878.0, 0.02908191876233002
879.0, 0.03310209495475127
880.0, 0.032894220393212874
881.0, 0.03305467205303194
882.0, 0.040362952291211146
883.0, 0.03250524240832533
884.0, 0.026192653670127214
885.0, 0.02446078905336709
886.0, 0.025948839614884693
887.0, 0.02587764186303348
888.0, 0.026827127437836242
889.0, 0.030638883828643288
890.0, 0.03358756331134307
891.0, 0.035426996883434474
892.0, 0.041221682452170755
893.0, 0.045394008542622113
894.0, 0.04894733710002824
895.0, 0.05422007934965526
896.0, 0.061553972977701966
897.0, 0.06533847417746913
898.0, 0.07479827251249084
899.0, 0.08344205128727815
900.0, 0.08905585979362052
901.0, 0.09114139507987672
902.0, 0.09445832906463622
903.0, 0.09446119709719976
904.0, 0.09219880828370486
905.0, 0.08806984900361785
906.0, 0.08220840694879836
907.0, 0.07194751675382159
908.0, 0.06401001458401503
909.0, 0.05634736833501906
910.0, 0.049100525908769205
911.0, 0.04353201892317118
912.0, 0.03983539066785647
913.0, 0.035899532810666795
914.0, 0.03308902183428225
915.0, 0.031346912085476256
916.0, 0.029310874752557215
917.0, 0.029854015995294924
918.0, 0.03099792943327326
919.0, 0.03127578485077166
920.0, 0.030327304629747753
921.0, 0.0293023277141103
922.0, 0.031754824404844645
923.0, 0.032261417704067555
924.0, 0.03408347577316104
925.0, 0.037655142117295586
926.0, 0.03638600119684129
927.0, 0.039107620343824784
928.0, 0.041394980700625784
929.0, 0.042280671682084915
930.0, 0.04209768050632535
931.0, 0.04407837283338444
932.0, 0.04353470444376491
933.0, 0.04205640815053887
934.0, 0.04205746495008623
935.0, 0.0441114960820427
936.0, 0.04049178518133122
937.0, 0.042613275914806396
938.0, 0.0455070495371593
939.0, 0.04780781376663734
940.0, 0.04913678855923753
941.0, 0.050567767099014234
942.0, 0.05365276458826642
943.0, 0.05821167102029146
944.0, 0.06360437491800491
945.0, 0.06912397160531604
946.0, 0.07508451830747824
947.0, 0.08496691208868354
948.0, 0.09067279736979673
949.0, 0.09645173584897974
950.0, 0.10954386292712961
951.0, 0.12493167503817768
952.0, 0.1371438227189088
953.0, 0.15523050297959215
954.0, 0.18317357549896449
955.0, 0.21984485483627092
956.0, 0.2321326908917491
957.0, 0.2742792621665839
958.0, 0.3160008067611805
959.0, 0.3563537159703081
960.0, 0.4047072610507451
961.0, 0.43832871506013227
962.0, 0.45452514974835245
963.0, 0.4628950707712096
964.0, 0.4570474886545759
965.0, 0.4263724318295389
966.0, 0.40127724195090836
967.0, 0.3748397296036523
968.0, 0.3522967475637666
969.0, 0.3379955312028813
970.0, 0.33507635779052686
971.0, 0.33806147313678464
972.0, 0.3466268465766129
973.0, 0.3688194417062358
974.0, 0.39678174688235224
975.0, 0.41638652700388745
976.0, 0.4423893654064089
977.0, 0.45601544356315865
978.0, 0.450394182668243
979.0, 0.4358321402441678
980.0, 0.4269651567298895
981.0, 0.3852686899618547
982.0, 0.35919513028640965
983.0, 0.33249517922132327
984.0, 0.3040856903599523
985.0, 0.27941140011899157
986.0, 0.2663543055531154
987.0, 0.2489170323332588
988.0, 0.23697663184378503
989.0, 0.23202389386727093
990.0, 0.23126938379769313
991.0, 0.22454848536681898
992.0, 0.22690096391588968
993.0, 0.23049795772480683
994.0, 0.23420109445743373
995.0, 0.2393306064409302
996.0, 0.25044149172539426
997.0, 0.2512496873649265
998.0, 0.2557128780497468
999.0, 0.262230719649217
1000.0, 0.26490364033345337
1001.0, 0.25551314684905474
1002.0, 0.2518055106472218
1003.0, 0.24372269426777465
1004.0, 0.22985288792176667
1005.0, 0.21262029892588769
1006.0, 0.20140949529179514
1007.0, 0.1798905831337316
1008.0, 0.16178607901955813
1009.0, 0.1465114988016155
1010.0, 0.13177173532052722
1011.0, 0.11594122472351927
1012.0, 0.10580862652856056
1013.0, 0.09438159935992135
1014.0, 0.08352356760146232
1015.0, 0.07572711859323533
1016.0, 0.07343337962804711
1017.0, 0.06487330414241672
1018.0, 0.06107954207547156
1019.0, 0.058086615982734145
1020.0, 0.05395639375449699
1021.0, 0.05001021969270338
1022.0, 0.053677535488577094
1023.0, 0.05300400136945868
1024.0, 0.052097457822248734
1025.0, 0.052644124838162665
1026.0, 0.054037945863907415
1027.0, 0.051983833069818304
1028.0, 0.0537846836201489
1029.0, 0.05421404093756477
1030.0, 0.0539473950941776
1031.0, 0.056140240792582785
1032.0, 0.057128521695877385
1033.0, 0.05723741449576167
1034.0, 0.058430081899023094
1035.0, 0.061571015045250525
1036.0, 0.06625072451724759
1037.0, 0.06778747086379541
1038.0, 0.0742866500851038
1039.0, 0.0766533447028995
1040.0, 0.0776527012886292
1041.0, 0.08038909931217093
1042.0, 0.0825750775251457
1043.0, 0.08105755226555371
1044.0, 0.0850174210304974
1045.0, 0.09063650719945655
1046.0, 0.09545130749060017
1047.0, 0.10112861219071788
1048.0, 0.11625886525527311
1049.0, 0.12561833087249144
1050.0, 0.13498897002879984
1051.0, 0.14503814517367608
1052.0, 0.15160584199939306
1053.0, 0.15545901259004904
1054.0, 0.16370598925190216
1055.0, 0.1624166243171296
1056.0, 0.15578766792696236
1057.0, 0.15436451629489084
1058.0, 0.14858610306904135
1059.0, 0.13432900867074182
1060.0, 0.12184699562622955
1061.0, 0.11033474051786646
1062.0, 0.09794638708305829
1063.0, 0.08842025216088896
1064.0, 0.08096926830158362
1065.0, 0.0734582722714394
1066.0, 0.06853115380309377
1067.0, 0.06708792264817576
1068.0, 0.06661133860211281
1069.0, 0.06438444269276868
1070.0, 0.06837075234036012
1071.0, 0.07290662629636499
1072.0, 0.07796673754581544
1073.0, 0.08780249572057897
1074.0, 0.10133355296610948
1075.0, 0.11280215167000103
1076.0, 0.1314789901172421
1077.0, 0.15307310553370626
1078.0, 0.1706927410014987
1079.0, 0.1889187658449876
1080.0, 0.19483250990422205
1081.0, 0.19872391863828473
1082.0, 0.19617319752407208
1083.0, 0.18514504390409375
1084.0, 0.17185414999993648
1085.0, 0.14838997700233886
1086.0, 0.1310681501635498
1087.0, 0.11533345226865907
1088.0, 0.09940981532133737
1089.0, 0.08508301822048338
1090.0, 0.0817950103368113
1091.0, 0.07019866623911886
1092.0, 0.06037270623120012
1093.0, 0.054220980984490616
1094.0, 0.05002100348449126
1095.0, 0.0442269013769573
1096.0, 0.04171203146593664
1097.0, 0.03938708560429516
1098.0, 0.037153825198361655
1099.0, 0.03545786995122861
1100.0, 0.034965995051374876
1101.0, 0.032313243602648326
1102.0, 0.03126104429622137
1103.0, 0.030582677995533613
1104.0, 0.02860433583317721
1105.0, 0.024476761044779905
1106.0, 0.02546783435594415
1107.0, 0.0227865668339119
1108.0, 0.020387814534571443
1109.0, 0.01900315368587748
1110.0, 0.017716334219116822
1111.0, 0.01355153867970636
1112.0, 0.013987208462254434
1113.0, 0.012665543430357857
1114.0, 0.011279394330451416
1115.0, 0.0108065204265898
1116.0, 0.0108196607172834
1117.0, 0.007854952857177468
1118.0, 0.008605019339599732
1119.0, 0.009389593210787594
1120.0, 0.008724486011519128
1121.0, 0.007013568138363385
1122.0, 0.008246620199372424
1123.0, 0.006098238722155341
1124.0, 0.004611700637599664
1125.0, 0.005091878677305538
1126.0, 0.005786564127642236
1127.0, 0.0023405647370773972
1128.0, 0.0031704633968736733
1129.0, 0.003339124487010449
1130.0, 0.002768872137009932
1131.0, 0.00256191140431551
1132.0, 0.0033205374816406372
1133.0, 0.0018058625371587434
1134.0, 0.00100394318242019
1135.0, 0.0023152432665964856
1136.0, 0.002582872738984772
1137.0, 0.0009620182547698589
1138.0, 7.945856180460289e-05
1139.0, 0.00039751987324040055
1140.0, 0.0007192692180931773
1141.0, 0.0016042631587763383
1142.0, 0.002059615031910807
1143.0, 0.0011721063969574563
1144.0, 0.000628089974116383
1145.0, 0.0024100799543609365
1146.0, 0.0012548484339237073
1147.0, 0.000795242097803152
1148.0, 0.0020550303673940525
1149.0, 0.002306166206599943
1150.0, 0.002027333812298067
1151.0, 0.0018259832915135323
1152.0, 0.000894622609532856
1153.0, 0.00018181826752474285
1154.0, 0.0004572230414794531
1155.0, 0.0002338596761345543
1156.0, 0.0003564091592714078
1157.0, 0.0004659075800331466
1158.0, 0.0007154496339434683
1159.0, 0.000952683207129293
1160.0, 0.0007887599293505655
1161.0, 0.00018435824723305567
1162.0, 0.00047966562751002907
1163.0, 0.0004938030522575418
1164.0, 0.0005186604480088356
1165.0, 0.0008141404105925634
1166.0, 0.000886975036795174
1167.0, 0.0006369431222678679
1168.0, 0.0012559726329985994
1169.0, 0.0014289661851972638
1170.0, 0.0013631355463559873
1171.0, 0.001822373876667725
1172.0, 0.0018410193507474898
1173.0, 0.0014698500234064545
1174.0, 0.0022196148327939995
1175.0, 0.0022859311399781256
1176.0, 0.0011473516608585057
1177.0, 0.00026355833098356586
1178.0, 8.091872020432031e-05
1179.0, 0.0006438868007355211
1180.0, 0.0010544909952408736
1181.0, 0.000979990878233719
1182.0, 0.0005597410762692344
1183.0, 0.0005450874490923158
1184.0, 0.0016366672701205323
1185.0, 0.001271144426427363
1186.0, 0.0011606148671225271
1187.0, 0.001356499487801894
1188.0, 0.0009525868181743857
1189.0, 0.000125369861144035
1190.0, 0.0008671670720639042
1191.0, 0.001296852583099246
1192.0, 0.0009123431776980038
1193.0, 0.0010096706734510135
1194.0, 0.0037400118155104713
1195.0, 0.0005739392020603215
1196.0, 0.00034762108044103296
1197.0, 0.001392504577299769
1198.0, 0.001603867452409057
1199.0, 0.0007436553319307224
1200.0, 0.002199702540961202
1201.0, 0.0006542102381161141
1202.0, 0.0006069954863866903
1203.0, 0.0010617007044554912
1204.0, 0.0016790744539910028
1205.0, 0.0020943748726818265
1206.0, 0.0006936978163687448
1207.0, 0.001029566385429078
1208.0, 0.0013301527302759014
1209.0, 0.001457998409244621
1210.0, 0.0017463040464367795
1211.0, 0.002302923223809346
1212.0, 0.00035600980189125653
1213.0, 0.0016184885275218421
1214.0, 0.0014530696612783593
1215.0, 0.0010461770969444738
1216.0, 0.00119612142353768
1217.0, 0.0012557852326867962
1218.0, 0.0011821971140579778
1219.0, 0.0019701153124654803
1220.0, 0.001754088886570315
1221.0, 0.0009979773039638924
1222.0, 0.0011241498096987387
1223.0, 0.00364654300043698
1224.0, 0.0006282234230554136
1225.0, 0.0009332500850689389
1226.0, 0.0007061557937146731
1227.0, 0.00010738526424433071
1228.0, 0.0004120250372905332
1229.0, 0.0018544420350005484
1230.0, 0.001316528257293639
1231.0, 0.000730604897935057
1232.0, 0.000802343153114567
1233.0, 0.0010420801998404182
1234.0, 0.0008562408011297515
1235.0, 0.001131341392967577
1236.0, 0.0014307670219816607
1237.0, 0.0014745402450002068
1238.0, 0.0018883478061216678
1239.0, 0.0021049575668469567
1240.0, 0.001329602560212256
1241.0, 0.0008448454606483248
1242.0, 0.0018823916865565913
1243.0, 0.0011469932059747722
1244.0, 0.0005403569778512144
1245.0, 0.0015382947094468732
1246.0, 0.0036104673826432183
1247.0, 0.00032848624231001907
1248.0, 0.002594496140115334
1249.0, 0.002770700097174858
1250.0, 0.0017569454364009716
1251.0, 0.0018518159729766677
1252.0, 0.00420968603218196
1253.0, 0.0020984868859026382
1254.0, 0.0021914923991550117
1255.0, 0.0029619356201785055
1256.0, 0.002763538259297332
1257.0, 0.0020780333507262345
1258.0, 0.0026759714194953673
1259.0, 0.0010740465548536764
1260.0, 0.0011818636453775266
1261.0, 0.003286557666070851
1262.0, 0.003911947019140589
1263.0, 0.0024557106511624515
1264.0, 0.0018668406687289477
1265.0, 0.004581427583598325
1266.0, 0.002604423923250368
1267.0, 0.002336747912580239
1268.0, 0.003084159090140418
1269.0, 0.0028568969952593734
1270.0, 0.0007416713098228659
1271.0, 0.003315882897464815
1272.0, 0.003869477267739396
1273.0, 0.0030421189499081226
1274.0, 0.0031266334873150405
1275.0, 0.0040271966999898415
1276.0, 0.0036410203715058114
1277.0, 0.004659961194945712
1278.0, 0.003745757047214516
1279.0, 0.0021250143495828953
1280.0, 0.0016529132253866369
1281.0, 0.0018380673404838398
1282.0, 0.000617177725741324
1283.0, 0.0003259938894366499
1284.0, 0.002676258674660556
1285.0, 0.0018736556064926448
1286.0, 0.0013726854638267273
1287.0, 0.0021299739538303882
1288.0, 0.00208365637681656
1289.0, 0.0006391466151652108
1290.0, 0.0015826746782105897
1291.0, 0.0016048725620871375
1292.0, 0.0011257605206476346
1293.0, 0.0013790190286256834
1294.0, 0.0026488515006061987
1295.0, 0.0005501308607820394
1296.0, 0.0007281592730877458
1297.0, 0.003018936580938856
1298.0, 0.003025635076344682
1299.0, 0.0016069420922949144
1300.0, 0.0015474262536761864
1301.0, 0.00039648668721929
1302.0, 0.00037062955309778467
1303.0, 0.0013659521287281622
1304.0, 0.0013620245108633073
1305.0, 0.0008512993921315531
1306.0, 0.0010519206127813418
1307.0, 0.0016398075527766544
1308.0, 0.0018148422138554324
1309.0, 0.001956429207961027
1310.0, 0.001279797665311744
1311.0, 0.0007094023412835104
1312.0, 0.0014076271964817994
1313.0, 0.003434565051637465
1314.0, 0.0015371412715323464
1315.0, 0.0007466536172576811
1316.0, 0.0019541120115956693
1317.0, 0.00227751913239701
1318.0, 0.0010248412279818913
1319.0, 0.0013351401681023136
1320.0, 0.003125362738531511
1321.0, 0.0017401974491469984
1322.0, 0.002623487552617018
1323.0, 0.0029269238867445043
1324.0, 0.0015643732289998646
1325.0, 0.0007763308382223225
1326.0, 0.003893463995013834
1327.0, 0.0012386851575666566
1328.0, 0.001390817387609631
1329.0, 0.0031812775129950073
1330.0, 0.0032421436588130096
1331.0, 0.0005652231964836049
1332.0, 0.0026155689428957116
1333.0, 0.0032741656208622955
1334.0, 0.0021893644951023216
1335.0, 0.0028353411658244227
1336.0, 0.0036744017907457283
1337.0, 0.0029744377277201948
1338.0, 0.0028142873983219054
1339.0, 0.006036530948149717
1340.0, 0.0038550160385484845
1341.0, 0.002910958336587772
1342.0, 0.004477447410597894
1343.0, 0.005347322968281556
1344.0, 0.0016108356668701727
1345.0, 0.005141703103830068
1346.0, 0.004887120481384104
1347.0, 0.0034428389770937463
1348.0, 0.004814717203094228
1349.0, 0.006588696192751433
1350.0, 0.0044630028754794335
1351.0, 0.002826158849833676
1352.0, 0.006739723862514764
1353.0, 0.00560299152577661
1354.0, 0.0054142175951121495
1355.0, 0.006122129580627296
1356.0, 0.005843081833624174
1357.0, 0.0048508183300343035
1358.0, 0.006953380253619474
1359.0, 0.005945624153856864
1360.0, 0.0039030399682073976
1361.0, 0.004671505410031046
1362.0, 0.0067300189179908465
1363.0, 0.005098809779824784
1364.0, 0.004125136145863236
1365.0, 0.006069255447838745
1366.0, 0.003989495670906223
1367.0, 0.004593206238031828
1368.0, 0.006391578867812695
1369.0, 0.005252987412890451
1370.0, 0.0027838317253553236
1371.0, 0.006000425280345075
1372.0, 0.005290191245693284
1373.0, 0.004165225191850053
1374.0, 0.005366556329489895
1375.0, 0.0068790991022499625
1376.0, 0.004281398792418194
1377.0, 0.006095789473976208
1378.0, 0.008276901631707821
1379.0, 0.005711813352487042
1380.0, 0.005172423175099522
1381.0, 0.00621144156614424
1382.0, 0.005605245344461674
1383.0, 0.005137881788323891
1384.0, 0.006677392151726763
1385.0, 0.00571552912194122
1386.0, 0.004541481079601713
1387.0, 0.0055159558757091375
1388.0, 0.006745117444604072
1389.0, 0.004193516595265634
1390.0, 0.004379417305656246
1391.0, 0.006516612137733377
1392.0, 0.004547877763283115
1393.0, 0.004924723876581846
1394.0, 0.006259848023021177
1395.0, 0.00518915539549571
1396.0, 0.00370395769576536
1397.0, 0.005668821974870497
1398.0, 0.0048056062888228385
1399.0, 0.0042955867151004724
1400.0, 0.005505142019808021
1401.0, 0.005768132782452811
1402.0, 0.0026707670516955963
1403.0, 0.004809894716290741
1404.0, 0.0067121221828685485
1405.0, 0.004038069858025087
1406.0, 0.004333948694712384
1407.0, 0.005879504690694653
1408.0, 0.005618626365326847
1409.0, 0.0046402545342754545
1410.0, 0.006986872342730957
1411.0, 0.004770408825404124
1412.0, 0.004868075640308479
1413.0, 0.006156175776766865
1414.0, 0.0059903682085297
1415.0, 0.0041842538730651364
1416.0, 0.0056235168617099224
1417.0, 0.006595271049347773
1418.0, 0.0030066292672360825
1419.0, 0.004571181728761765
1420.0, 0.006615929033218465
1421.0, 0.005555941558324988
1422.0, 0.00317021523472072
1423.0, 0.0048874792300539985
1424.0, 0.003590200367302238
1425.0, 0.004175516726486695
1426.0, 0.0057941556865051015
1427.0, 0.005237595783059653
1428.0, 0.003287715366691548
1429.0, 0.00456442394488127
1430.0, 0.004864014427597553
1431.0, 0.002886300102986009
1432.0, 0.004652095259215559
1433.0, 0.004734744963281585
1434.0, 0.003635716328378544
1435.0, 0.003830815292542705
1436.0, 0.0051393186987992445
1437.0, 0.004399708808341683
1438.0, 0.002982183269733566
1439.0, 0.005141244982873748
1440.0, 0.004594607789568336
1441.0, 0.0030659371371378544
1442.0, 0.004330538389119437
1443.0, 0.004901599940556818
1444.0, 0.0030943271138932377
1445.0, 0.005221290744985821
1446.0, 0.0044805150683521824
1447.0, 0.0023140252246403228
1448.0, 0.0025816573328241365
1449.0, 0.005582172126038047
1450.0, 0.003095705989368738
1451.0, 0.0025013546457192393
1452.0, 0.005071737546369202
1453.0, 0.004278901960874315
1454.0, 0.003524304871163569
1455.0, 0.004595258871844612
1456.0, 0.005213183320574223
1457.0, 0.0018151416674540735
1458.0, 0.005449824946843097
1459.0, 0.004820086412708016
1460.0, 0.002564977730944577
1461.0, 0.0033757271068819788
1462.0, 0.005132800254790877
1463.0, 0.0028308144381976735
1464.0, 0.002052380774625777
1465.0, 0.005837236349602482
1466.0, 0.003165395141538907
1467.0, 0.0032170756173128087
1468.0, 0.00507460813564068
1469.0, 0.004706792035829025
1470.0, 0.0014387406911277134
1471.0, 0.003989753744964579
1472.0, 0.0046966199144460544
1473.0, 0.0016813396687570046
1474.0, 0.00411667154897721
1475.0, 0.004979271673539753
1476.0, 0.0026122550403353956
1477.0, 0.0029395924216918086
1478.0, 0.006088637539418337
1479.0, 0.0016471574456733435
1480.0, 0.002861670480794805
1481.0, 0.005059031602482422
1482.0, 0.0036525645428281714
1483.0, 0.0015871282916649016
1484.0, 0.004021623478165783
1485.0, 0.004846576628011725
1486.0, 0.0017827688878363967
1487.0, 0.003971730625608408
1488.0, 0.004012421263191375
1489.0, 0.0025724014330285924
1490.0, 0.0027766611530122896
1491.0, 0.004713170034655833
1492.0, 0.0017557318952739305
1493.0, 0.0025433725270441613
1494.0, 0.004701162449343484
1495.0, 0.0021305408331657233
1496.0, 0.001530435888078733
1497.0, 0.0037563831778383606
1498.0, 0.0041975265008697485
1499.0, 0.0007088129538545453
1500.0, 0.005384423514191136
1501.0, 0.004591969159345771
1502.0, 0.0020865951965974676
1503.0, 0.0029287934699950215
1504.0, 0.003902272816386035
1505.0, 0.0018802453024748436
1506.0, 0.0014576859443266147
1507.0, 0.00515811303049655
1508.0, 0.0010183852851326774
1509.0, 3.4897108252284825e-06
1510, 0.0
1511, 0.0
1512, 0.0
1513, 0.0
1514, 0.0
1515, 0.0
1516, 0.0
1517, 0.0
1518, 0.0
1519, 0.0
1520, 0.0
1521, 0.0
1522, 0.0
1523, 0.0
1524, 0.0
1525, 0.0
1526, 0.0
1527, 0.0
1528, 0.0
1529, 0.0
1530, 0.0
1531, 0.0
1532, 0.0
1533, 0.0
1534, 0.0
1535, 0.0
1536, 0.0
1537, 0.0
1538, 0.0
1539, 0.0
1540, 0.0
1541, 0.0
1542, 0.0
1543, 0.0
1544, 0.0
1545, 0.0
1546, 0.0
1547, 0.0
1548, 0.0
1549, 0.0
1550, 0.0
1551, 0.0
1552, 0.0
1553, 0.0
1554, 0.0
1555, 0.0
1556, 0.0
1557, 0.0
1558, 0.0
1559, 0.0
1560, 0.0
1561, 0.0
1562, 0.0
1563, 0.0
1564, 0.0
1565, 0.0
1566, 0.0
1567, 0.0
1568, 0.0
1569, 0.0
1570, 0.0
1571, 0.0
1572, 0.0
1573, 0.0
1574, 0.0
1575, 0.0
1576, 0.0
1577, 0.0
1578, 0.0
1579, 0.0
1580, 0.0
1581, 0.0
1582, 0.0
1583, 0.0
1584, 0.0
1585, 0.0
1586, 0.0
1587, 0.0
1588, 0.0
1589, 0.0
1590, 0.0
1591, 0.0
1592, 0.0
1593, 0.0
1594, 0.0
1595, 0.0
1596, 0.0
1597, 0.0
1598, 0.0
1599, 0.0
