30, 0.0
31, 0.0
32, 0.0
33, 0.0
34, 0.0
35, 0.0
36, 0.0
37, 0.0
38, 0.0
39, 0.0
40, 0.0
41, 0.0
42, 0.0
43, 0.0
44, 0.0
45, 0.0
46, 0.0
47, 0.0
48, 0.0
49, 0.0
50, 0.0
51, 0.0
52, 0.0
53, 0.0
54, 0.0
55, 0.0
56, 0.0
57, 0.0
58, 0.0
59, 0.0
60, 0.0
61, 0.0
62, 0.0
63, 0.0
64, 0.0
65, 0.0
66, 0.0
67, 0.0
68, 0.0
69, 0.0
70, 0.0
71, 0.0
72, 0.0
73, 0.0
74, 0.0
75, 0.0
76, 0.0
77, 0.0
78, 0.0
79, 0.0
80, 0.0
81, 0.0
82, 0.0
83, 0.0
84, 0.0
85, 0.0
86, 0.0
87, 0.0
88, 0.0
89, 0.0
90, 0.0
91, 0.0
92, 0.0
93, 0.0
94, 0.0
95, 0.0
96, 0.0
97, 0.0
98, 0.0
99, 0.0
100, 0.0
101, 0.0
102, 0.0
103, 0.0
104, 0.0
105, 0.0
106, 0.0
107, 0.0
108, 0.0
109, 0.0
110, 0.0
111, 0.0
112, 0.0
113, 0.0
114, 0.0
115, 0.0
116, 0.0
117, 0.0
118, 0.0
119, 0.0
120, 0.0
121, 0.0
122, 0.0
123.0, 0.005604328956961332
124.0, 0.004724151746910786
125.0, 0.010499478050309206
126.0, 0.0116357797510569
127.0, 0.01957174700390073
128.0, 0.02622302350261694
129.0, 0.03487827034492228
130.0, 0.0499313342017845
131.0, 0.07218567941139623
132.0, 0.08735440195158592
133.0, 0.08994109601692384
134.0, 0.0862932534653499
135.0, 0.08425990525829263
136.0, 0.07705291248407103
137.0, 0.07458107009634836
138.0, 0.08769971854996461
139.0, 0.11695217412795055
140.0, 0.1549181470823413
141.0, 0.1926742950773775
142.0, 0.23686676422117037
143.0, 0.28191497695016465
144.0, 0.31725522418780855
145.0, 0.351585419687619
146.0, 0.3791439857307966
147.0, 0.3843937133997431
148.0, 0.3871903361509654
149.0, 0.38341406739251466
150.0, 0.3834363868274862
151.0, 0.3772397037034169
152.0, 0.3543226551992607
153.0, 0.309100777613274
154.0, 0.25908700936497103
155.0, 0.21330796554540246
156.0, 0.17996622888425615
157.0, 0.162744004489206
158.0, 0.1546191452439248
159.0, 0.14992111145307008
160.0, 0.1434009581156954
161.0, 0.13744473510807567
162.0, 0.14253619084901048
163.0, 0.1439780291745141
164.0, 0.1527565412247698
165.0, 0.1710589118945155
166.0, 0.19368071716411445
167.0, 0.22629266734117479
168.0, 0.2605633917839408
169.0, 0.29649882062802074
170.0, 0.32935175110012305
171.0, 0.3389866527822808
172.0, 0.32178104095132104
173.0, 0.29428526038936664
174.0, 0.2627339445930797
175.0, 0.22250379288260574
176.0, 0.1860126209842025
177.0, 0.14608231877841563
178.0, 0.1097783633652444
179.0, 0.08227937090670188
180.0, 0.05785432732021768
181.0, 0.041009539779658086
182.0, 0.026114824675909535
183.0, 0.014696383047738446
184.0, 0.014081627904614601
185.0, 0.01931293571539998
186.0, 0.02887261586309672
187.0, 0.043709983066691625
188.0, 0.0633824509306511
189.0, 0.0833042682377077
190.0, 0.11002655579436019
191.0, 0.14694645995337224
192.0, 0.18696491852407218
193.0, 0.21514253368415334
194.0, 0.22484517436284365
195.0, 0.20528452676288653
196.0, 0.17207781141839465
197.0, 0.1473927481798225
198.0, 0.13916139868990127
199.0, 0.1408888069622522
200.0, 0.15761555623221776
201.0, 0.18430137377512448
202.0, 0.2095267429040349
203.0, 0.2390497036210803
204.0, 0.26414787258454925
205.0, 0.28766583887078934
206.0, 0.3122505815482814
207.0, 0.33332279588039787
208.0, 0.34270531082096667
209.0, 0.343481293501594
210.0, 0.340767805058847
211.0, 0.3373528910651333
212.0, 0.3311050932665137
213.0, 0.3240217807523247
214.0, 0.31254615286153087
215.0, 0.2940397621184451
216.0, 0.26925235847600065
217.0, 0.2510414170367339
218.0, 0.22629123010433785
219.0, 0.19042627340749732
220.0, 0.14932223400536382
221.0, 0.13047977798232602
222.0, 0.10459569915526362
223.0, 0.07951850107173113
224.0, 0.06041239771638403
225.0, 0.04329674890402024
226.0, 0.025297795709220982
227.0, 0.010955801539114914
228.0, 0.007855440145471425
229.0, 0.004862738388078165
230.0, 0.003176647115520934
231.0, 0.002495090180906912
232.0, 0.0013054566760335377
233.0, 0.0015543672982489395
234.0, 0.0009402834798123887
235.0, 0.002364575385041827
236.0, 0.002912305524581293
237.0, 0.003633162721476725
238.0, 0.005784001831485047
239.0, 0.00874866826210648
240.0, 0.0136102040610695
241.0, 0.02054809221348649
242.0, 0.02712516495485656
243.0, 0.03216514749043383
244.0, 0.03849265152338768
245.0, 0.051006033975485685
246.0, 0.061521040340410116
247.0, 0.07182228420560732
248.0, 0.0877165506630762
249.0, 0.10956932770088419
250.0, 0.12218178628120499
251.0, 0.13592897538748755
252.0, 0.15259004072822274
253.0, 0.16589594520271228
254.0, 0.17774266624999366
255.0, 0.1810336946954649
256.0, 0.17951677270960187
257.0, 0.17787910799708526
258.0, 0.17810755571560805
259.0, 0.18619006546409422
260.0, 0.20002802915481827
261.0, 0.2180138719281136
262.0, 0.23954126541701218
263.0, 0.26465914353726105
264.0, 0.29754375846456693
265.0, 0.3346788724732622
266.0, 0.3689700290877694
267.0, 0.40016411357658027
268.0, 0.44144059496451726
269.0, 0.46165339990718784
270.0, 0.48167079691220566
271.0, 0.5010057378658639
272.0, 0.5020666160678747
273.0, 0.5013016558059068
274.0, 0.4931801259561028
275.0, 0.4723041028676303
276.0, 0.44762128544265184
277.0, 0.4267850481163395
278.0, 0.38510377330060985
279.0, 0.33702963974565303
280.0, 0.29303774590779663
281.0, 0.25586478816570624
282.0, 0.22499992872479024
283.0, 0.20563285959365957
284.0, 0.1880017250654324
285.0, 0.18030465674349366
286.0, 0.18522038839766208
287.0, 0.18305930216752486
288.0, 0.19073909132051292
289.0, 0.204748314815661
290.0, 0.2216245690218123
291.0, 0.24027529672161752
292.0, 0.2631932782978974
293.0, 0.28427714587052894
294.0, 0.30641079228723145
295.0, 0.33120459225742266
296.0, 0.3571344690422021
297.0, 0.3813271624157147
298.0, 0.40621963954662343
299.0, 0.4246516321723394
300.0, 0.43463076938986905
301.0, 0.43821801780440406
302.0, 0.4352672923241004
303.0, 0.4293617255892412
304.0, 0.42517821487525903
305.0, 0.42239798947398893
306.0, 0.4165980165529709
307.0, 0.4068894425866185
308.0, 0.3902940537570019
309.0, 0.36401739203349975
310.0, 0.3365929525579953
311.0, 0.31973378130562724
312.0, 0.30701358692937614
313.0, 0.30304093540960164
314.0, 0.3090173505980032
315.0, 0.32317926749579384
316.0, 0.34380580325167964
317.0, 0.36781996769222436
318.0, 0.38498182804135367
319.0, 0.3901387283175789
320.0, 0.38508760178394447
321.0, 0.3708516609310401
322.0, 0.3337310415427264
323.0, 0.2851234277183599
324.0, 0.24024339815597553
325.0, 0.20143036768379874
326.0, 0.16486721699577928
327.0, 0.14790725864293577
328.0, 0.13196542215052792
329.0, 0.1181715815935059
330.0, 0.11200735603823757
331.0, 0.11301205018075894
332.0, 0.10430034818440126
333.0, 0.10082988785743396
334.0, 0.10461192115812953
335.0, 0.11335021146939168
336.0, 0.12687247094065332
337.0, 0.15029731869251634
338.0, 0.17791732951181763
339.0, 0.21528870623800392
340.0, 0.25895462419874715
341.0, 0.2979468705569935
342.0, 0.3533975112556784
343.0, 0.3990061067668822
344.0, 0.4203424006844824
345.0, 0.42153105806335683
346.0, 0.4165747777276541
347.0, 0.39256750705330573
348.0, 0.37110249291943626
349.0, 0.3499145669701388
350.0, 0.33616576120433045
351.0, 0.33661412802811513
352.0, 0.32779892087812884
353.0, 0.3151341973745869
354.0, 0.2917829519085906
355.0, 0.25251010759448256
356.0, 0.20183281463067249
357.0, 0.15505561612153088
358.0, 0.1139629420312254
359.0, 0.08088885272183978
360.0, 0.05562185061458855
361.0, 0.03565469008933339
362.0, 0.0194215423438496
363.0, 0.011038366924451145
364.0, 0.010076476491833547
365.0, 0.0075559505451007645
366.0, 0.0058862588903156035
367.0, 0.004505141756605026
368.0, 0.004483722800797949
369.0, 0.003907392446466308
370.0, 0.004153727138253533
371.0, 0.003910227514973446
372.0, 0.0033369286351970524
373.0, 0.00464975254662275
374.0, 0.005622898377509729
375.0, 0.005940229721430512
376.0, 0.007207553696888197
377.0, 0.008832799737162302
378.0, 0.0104391614330549
379.0, 0.014609858089755373
380.0, 0.019789550023612015
381.0, 0.03287134474690255
382.0, 0.054963066656327525
383.0, 0.07137836592567895
384.0, 0.09456362665499395
385.0, 0.12324546525637234
386.0, 0.15509328801676334
387.0, 0.18649187142592633
388.0, 0.2115365102850476
389.0, 0.23701155541300098
390.0, 0.2567463973108745
391.0, 0.2632385488304774
392.0, 0.2522709967120852
393.0, 0.22440104990031068
394.0, 0.19545505244708608
395.0, 0.16406912033582216
396.0, 0.13635782106555822
397.0, 0.11318079986782699
398.0, 0.09253687998821188
399.0, 0.08467023635958293
400.0, 0.08018444493676001
401.0, 0.0749012502817741
402.0, 0.07309974486631125
403.0, 0.07653352800088072
404.0, 0.07649181222973725
405.0, 0.0790784907543068
406.0, 0.0861114259940839
407.0, 0.09788569280857573
408.0, 0.11570798450398992
409.0, 0.14207037971351175
410.0, 0.17678920181166669
411.0, 0.21400026509096198
412.0, 0.254519584986413
413.0, 0.3022720941809811
414.0, 0.35874532985585955
415.0, 0.4141043646404103
416.0, 0.47270179090746256
417.0, 0.5146388774911022
418.0, 0.516961785710091
419.0, 0.4781622049108583
420.0, 0.42281354916190117
421.0, 0.38471273007439705
422.0, 0.36061551546344417
423.0, 0.3536170220563958
424.0, 0.3613631987075618
425.0, 0.370697067151165
426.0, 0.3894523322950063
427.0, 0.4081837796674815
428.0, 0.42270051390256824
429.0, 0.4324029748561539
430.0, 0.4338957251069637
431.0, 0.41811682900168845
432.0, 0.3888150343342019
433.0, 0.35655517043120205
434.0, 0.31700972183097087
435.0, 0.270369200037108
436.0, 0.22960769958865118
437.0, 0.19207429539357826
438.0, 0.17242154900805476
439.0, 0.16352107165032628
440.0, 0.15975659862697608
441.0, 0.16127721943207773
442.0, 0.16599070152036288
443.0, 0.17628303225327427
444.0, 0.18634316766500214
445.0, 0.18750480858893628
446.0, 0.17531054011651723
447.0, 0.15175679180779153
448.0, 0.12161188230304133
449.0, 0.09306645138881392
450.0, 0.06796648459304577
451.0, 0.047696034274428416
452.0, 0.03343633529527551
453.0, 0.023321035089510698
454.0, 0.020496212627442834
455.0, 0.01409895015135726
456.0, 0.008640367647864555
457.0, 0.007269597936763884
458.0, 0.0058517728515040494
459.0, 0.0030500432304029464
460.0, 0.0013395528768016937
461.0, 0.00012756036328348476
462.0, 0.00041797392252443215
463.0, 0.0004147893023649287
464.0, 0.0014212050219579286
465.0, 0.0021485705497235456
466.0, 0.0027640490845999128
467.0, 0.005485257597380099
468.0, 0.008041784243553373
469.0, 0.010415502585312425
470.0, 0.01668562600262073
471.0, 0.020680638469161267
472.0, 0.026427982841892073
473.0, 0.03309960691073445
474.0, 0.04155213458025463
475.0, 0.054191093428949726
476.0, 0.06386733682055955
477.0, 0.0818237455163668
478.0, 0.10631967930493148
479.0, 0.13104563317753304
480.0, 0.15406368878377583
481.0, 0.18467512233118852
482.0, 0.22041203089704356
483.0, 0.2537389598089877
484.0, 0.28434118068685266
485.0, 0.3012259970548282
486.0, 0.2903116845384185
487.0, 0.25591049189843884
488.0, 0.2058503786011675
489.0, 0.1515834648309719
490.0, 0.11145888021639282
491.0, 0.08746698109020888
492.0, 0.06825068124040809
493.0, 0.05342478530279648
494.0, 0.047729462251790714
495.0, 0.04514493594401244
496.0, 0.04792872539743769
497.0, 0.05293515773637381
498.0, 0.052492915992702054
499.0, 0.05954046206894259
500.0, 0.06713665124995875
501.0, 0.07927177407730257
502.0, 0.08966655961292899
503.0, 0.0973145108016252
504.0, 0.11570917826866577
505.0, 0.12462720055946461
506.0, 0.13552317822874624
507.0, 0.1461794938836849
508.0, 0.15599660144625885
509.0, 0.1614062523158484
510.0, 0.15510911006705785
511.0, 0.15123956761158278
512.0, 0.13882807246592466
513.0, 0.12592467148922945
514.0, 0.11295103545454392
515.0, 0.0955314986497899
516.0, 0.07402880667840359
517.0, 0.056693622325294374
518.0, 0.04320486413021315
519.0, 0.03201870123067289
520.0, 0.02157409274924767
521.0, 0.01292591433630608
522.0, 0.011808037180484404
523.0, 0.008913751972474444
524.0, 0.00734486610632662
525.0, 0.006216957275092911
526.0, 0.005972431740162176
527.0, 0.005737233471995042
528.0, 0.006152775967012248
529.0, 0.0064165352304068135
530.0, 0.006476591171178303
531.0, 0.008713985220900748
532.0, 0.01039732622253545
533.0, 0.011386316416676128
534.0, 0.014409222364932991
535.0, 0.01862352653411739
536.0, 0.02710257959909114
537.0, 0.03644076655017274
538.0, 0.044157293318938876
539.0, 0.04895974532151251
540.0, 0.053843137336547796
541.0, 0.059645808754542916
542.0, 0.06716087412229772
543.0, 0.0738371532742951
544.0, 0.07983595523977888
545.0, 0.08559576792226446
546.0, 0.08775390266819916
547.0, 0.08068775633089281
548.0, 0.07343445807742685
549.0, 0.06833844402415115
550.0, 0.06250230513192824
551.0, 0.05629298972452369
552.0, 0.053287221432945155
553.0, 0.05124182941827887
554.0, 0.05850738425580091
555.0, 0.06475247267166159
556.0, 0.0716100741292106
557.0, 0.08014616191762271
558.0, 0.08697176239005888
559.0, 0.09608149446729905
560.0, 0.10103509662598907
561.0, 0.09939261242023519
562.0, 0.09725112577552801
563.0, 0.09442718112491968
564.0, 0.08875355841440574
565.0, 0.08655264058502697
566.0, 0.08328876774624289
567.0, 0.08510113147432695
568.0, 0.09244142258637002
569.0, 0.10074202370252246
570.0, 0.11023372193613275
571.0, 0.1256086324405653
572.0, 0.13517445555375734
573.0, 0.14201491092264273
574.0, 0.1479599903989081
575.0, 0.14916083092616184
576.0, 0.14653914844634724
577.0, 0.14565906329564576
578.0, 0.14017906056144736
579.0, 0.13117152101153584
580.0, 0.13102809258170856
581.0, 0.13817047992216597
582.0, 0.1461785165074821
583.0, 0.15474847701694006
584.0, 0.1663749862641702
585.0, 0.18268352538801888
586.0, 0.19477805515100047
587.0, 0.2064133042465969
588.0, 0.21570452649081143
589.0, 0.2146151347181392
590.0, 0.20558638802899318
591.0, 0.18679326708937727
592.0, 0.1571294785368539
593.0, 0.1313080753533545
594.0, 0.10686846247053243
595.0, 0.08152554922255693
596.0, 0.06456785345127014
597.0, 0.0518654669950942
598.0, 0.03989682370076883
599.0, 0.03364244789369328
600.0, 0.029275926911737794
601.0, 0.025793240845320434
602.0, 0.023740019782164033
603.0, 0.01939197648676551
604.0, 0.02254256974364901
605.0, 0.023150047336115132
606.0, 0.021381505068976635
607.0, 0.021854632178587585
608.0, 0.025215665897552843
609.0, 0.02833984523856675
610.0, 0.030789663220523057
611.0, 0.03015557660794358
612.0, 0.03425660769933669
613.0, 0.04064373584101624
614.0, 0.04388074587340353
615.0, 0.043177276437785204
616.0, 0.04255407439654335
617.0, 0.04164979513239202
618.0, 0.04471500387183334
619.0, 0.046645210356412226
620.0, 0.04535065992905848
621.0, 0.040906441507205
622.0, 0.034439586322916285
623.0, 0.02914707107414916
624.0, 0.023389778646470058
625.0, 0.018470651633249922
626.0, 0.011808222532596179
627.0, 0.0076477969881107695
628.0, 0.005656929465768638
629.0, 0.0038872994650943253
630.0, 0.003384246903859755
631.0, 0.003393285339497828
632.0, 0.00511946036387815
633.0, 0.006632022737137499
634.0, 0.010016511711775132
635.0, 0.013155155593136151
636.0, 0.015108167617515026
637.0, 0.021747132795944993
638.0, 0.026820662831287617
639.0, 0.032627062631453825
640.0, 0.0378202043823459
641.0, 0.04251177041660011
642.0, 0.04796865326371574
643.0, 0.04857703122244351
644.0, 0.0488184482597655
645.0, 0.04870618681903278
646.0, 0.04266554744300271
647.0, 0.0357051270579263
648.0, 0.029904941471429365
649.0, 0.022166880134214074
650.0, 0.017206589350184723
651.0, 0.010651859524840674
652.0, 0.01015732524189441
653.0, 0.007401387112860633
654.0, 0.006370061860185059
655.0, 0.005767363995225635
656.0, 0.005243297846875047
657.0, 0.005257882755035195
658.0, 0.005354133965216384
659.0, 0.006018393280821435
660.0, 0.0062262174428701885
661.0, 0.00782993605623021
662.0, 0.009420251347693141
663.0, 0.010116122121295876
664.0, 0.01570593016168831
665.0, 0.02120384384169279
666.0, 0.029676220948835378
667.0, 0.03840865069376391
668.0, 0.045583476208240256
669.0, 0.05595223919575268
670.0, 0.07458702727681617
671.0, 0.09311451564400458
672.0, 0.10986021726225184
673.0, 0.1265984360187667
674.0, 0.14292131130741534
675.0, 0.15956050397624227
676.0, 0.16901122023542858
677.0, 0.16410118533432871
678.0, 0.16320722777624402
679.0, 0.14843349858936136
680.0, 0.13268198395147124
681.0, 0.11608489960892686
682.0, 0.0968645272395392
683.0, 0.07836760131138268
684.0, 0.06405942711670243
685.0, 0.05089100129387921
686.0, 0.04515681872584142
687.0, 0.03959617316874777
688.0, 0.03509280421760714
689.0, 0.031851302274678195
690.0, 0.029728586361315337
691.0, 0.03115020474906659
692.0, 0.038483868954527094
693.0, 0.03936893781711793
694.0, 0.042475173757812186
695.0, 0.05134731303511054
696.0, 0.06004601024930434
697.0, 0.06952512182001097
698.0, 0.08320492480882324
699.0, 0.09963682546140132
700.0, 0.11977112801279122
701.0, 0.14437242227299335
702.0, 0.1771269852410916
703.0, 0.20827919720664162
704.0, 0.2514053728691896
705.0, 0.3139998931970166
706.0, 0.38244834061202815
707.0, 0.4541803174896097
708.0, 0.5422252053801692
709.0, 0.6334191674070592
710.0, 0.7272260616286759
711.0, 0.8215478677018799
712.0, 0.9059112070132463
713.0, 0.9680894074643992
714.0, 0.9983285073330542
715.0, 0.9790815951837024
716.0, 0.9118596867748057
717.0, 0.8117435286289438
718.0, 0.7015009955504103
719.0, 0.5895785787229946
720.0, 0.48356621365433194
721.0, 0.39491925986854304
722.0, 0.32072872874476477
723.0, 0.2650657401656939
724.0, 0.22319332528094152
725.0, 0.18159155371593058
726.0, 0.14900641145676813
727.0, 0.126734803049441
728.0, 0.10704598465901588
729.0, 0.09189578029021349
730.0, 0.0776121619053429
731.0, 0.06419671887725642
732.0, 0.05920793124552477
733.0, 0.04998006823085857
734.0, 0.04024985853907262
735.0, 0.035130679898592324
736.0, 0.03017869902226453
737.0, 0.030429898038655038
738.0, 0.026777012347264748
739.0, 0.02247272740625844
740.0, 0.02156484301894391
741.0, 0.02236929483346465
742.0, 0.021969012053074492
743.0, 0.017269121564030376
744.0, 0.009689306928373765
745.0, 0.013071407797851894
746.0, 0.018930715223485117
747.0, 0.016096484849494636
748.0, 0.014994562573926803
749.0, 0.016248950850559555
750.0, 0.01917409044383412
751.0, 0.02229927841145091
752.0, 0.022687256024036803
753.0, 0.024396621588418998
754.0, 0.02591903573213918
755.0, 0.03155233274209204
756.0, 0.039057079351597614
757.0, 0.0454244304145813
758.0, 0.051902953767443645
759.0, 0.0611235251237482
760.0, 0.07341517978061779
761.0, 0.08111095651272093
762.0, 0.08902117807015257
763.0, 0.10678526113937256
764.0, 0.11861442563392148
765.0, 0.12399693219362684
766.0, 0.13156815566994637
767.0, 0.13748060045700283
768.0, 0.13598899519143642
769.0, 0.1385618382660701
770.0, 0.12767071541204764
771.0, 0.11695111950538872
772.0, 0.10603176462684383
773.0, 0.09609921026333204
774.0, 0.08463977547087344
775.0, 0.07175892505484271
776.0, 0.06059999470876957
777.0, 0.048734055373170465
778.0, 0.043261950109417587
779.0, 0.03950326798696275
780.0, 0.035437955246521165
781.0, 0.02930968975731264
782.0, 0.02471137212177302
783.0, 0.022842356466067838
784.0, 0.02012124337062973
785.0, 0.017789279180930276
786.0, 0.013820401193540038
787.0, 0.010835800064439282
788.0, 0.010871055733573788
789.0, 0.009638024784117665
790.0, 0.007396256070916459
791.0, 0.0065779217449949854
792.0, 0.005761760711727671
793.0, 0.004537001246227219
794.0, 0.0077347262220897415
795.0, 0.006103205908827776
796.0, 0.004810467522705072
797.0, 0.005476765184080928
798.0, 0.007148952712936735
799.0, 0.00824271371833472
800.0, 0.007737588817024367
801.0, 0.006743520344161939
802.0, 0.00675467222486531
803.0, 0.008078103306884441
804.0, 0.011337001360802495
805.0, 0.014004669026667462
806.0, 0.02028677252542906
807.0, 0.027157513528616548
808.0, 0.03244417907280762
809.0, 0.03786141159751332
810.0, 0.0395333654067701
811.0, 0.04650727234169452
812.0, 0.048338337568962476
813.0, 0.04819556094618428
814.0, 0.0446288173765987
815.0, 0.0388081834528534
816.0, 0.032666454669648105
817.0, 0.027167261062065212
818.0, 0.021441150340618255
819.0, 0.014321690102008781
820.0, 0.01224076811633877
821.0, 0.010791983897942996
822.0, 0.005699619835865059
823.0, 0.005757572235107122
824.0, 0.004952034856342914
825.0, 0.005774076556030797
826.0, 0.008383030704658642
827.0, 0.004931159268636211
828.0, 0.006079413455789476
829.0, 0.007543028099524946
830.0, 0.008763064124854137
831.0, 0.005687330277723381
832.0, 0.005245106044775447
833.0, 0.006133505271224576
834.0, 0.005734313464211516
835.0, 0.005005579189691006
836.0, 0.004569528399424002
837.0, 0.005501670067383086
838.0, 0.006799414745261586
839.0, 0.009214528265383418
840.0, 0.007189091821543241
841.0, 0.009855884014507248
842.0, 0.01250945852645957
843.0, 0.011370667613747528
844.0, 0.012253961599480204
845.0, 0.01619589041751527
846.0, 0.02137513266169268
847.0, 0.02361139910025499
848.0, 0.02317027013926393
849.0, 0.02537129246025114
850.0, 0.026121548238949664
851.0, 0.02426370454775061
852.0, 0.024068244999441175
853.0, 0.02468299713753646
854.0, 0.022628112068621642
855.0, 0.02249410710099711
856.0, 0.0218215899345428
857.0, 0.023457234155341528
858.0, 0.020673239767935364
859.0, 0.016672663452996336
860.0, 0.016066949281239803
861.0, 0.015731307014248058
862.0, 0.01485325646948104
863.0, 0.015684014314568166
864.0, 0.01203601844960404
865.0, 0.014417174787292977
866.0, 0.014388804427479827
867.0, 0.009702612966548499
868.0, 0.009170255116564056
869.0, 0.0075610083049959045
870.0, 0.006125586633142759
871.0, 0.005418783418368897
872.0, 0.004294440253228279
873.0, 0.005427305286678141
874.0, 0.005979579847351437
875.0, 0.007762342556731575
876.0, 0.0057841557959192325
877.0, 0.005594890278852703
878.0, 0.007135566507231991
879.0, 0.007395559994112275
880.0, 0.0072751764895857595
881.0, 0.007970863609647398
882.0, 0.009991526591183348
883.0, 0.013253060858343012
884.0, 0.011376386828488483
885.0, 0.020131174564274535
886.0, 0.024115551859344598
887.0, 0.02704244494756874
888.0, 0.03374524152259867
889.0, 0.04251752053545583
890.0, 0.05270888653643657
891.0, 0.06421896979717112
892.0, 0.0753249277233954
893.0, 0.08752801935157734
894.0, 0.10264384566641516
895.0, 0.11841205974177786
896.0, 0.13294104511928753
897.0, 0.14831810943353516
898.0, 0.15743722611128413
899.0, 0.16243600684211276
900.0, 0.16876249550991576
901.0, 0.17197733963895953
902.0, 0.1675367882672221
903.0, 0.15865937955261555
904.0, 0.1449071232834289
905.0, 0.1420382110003201
906.0, 0.12949979802012027
907.0, 0.12445214131469082
908.0, 0.11182976098412144
909.0, 0.09674469496994702
910.0, 0.08871182049841563
911.0, 0.08205141210387842
912.0, 0.06958145627445846
913.0, 0.05576677253652355
914.0, 0.039273986562896546
915.0, 0.032950042066584855
916.0, 0.029090015833987272
917.0, 0.016595515502657733
918.0, 0.010097735729428292
919.0, 0.00471086673332783
920.0, 0.006487526535782971
921.0, 0.007192550021849493
922.0, 0.007923561855061222
923.0, 0.005483127636708602
924.0, 0.007106942405360031
925.0, 0.006952146967371254
926.0, 0.007278685916839584
927.0, 0.011831445071495535
928.0, 0.01668216347264639
929.0, 0.019959045325313195
930.0, 0.0225425325974444
931.0, 0.025855698493068395
932.0, 0.024537821332643626
933.0, 0.01852926965020849
934.0, 0.017930592680474772
935.0, 0.016852395874656194
936.0, 0.011150943162849952
937.0, 0.007185149331331166
938.0, 0.007696010140144678
939.0, 0.006474043143891784
940.0, 0.0046090278172181125
941.0, 0.006865709423064709
942.0, 0.013733010222537534
943.0, 0.020396049717490032
944.0, 0.0262870417943302
945.0, 0.03652316502927378
946.0, 0.04563860549953273
947.0, 0.05484318055290246
948.0, 0.06717235863573237
949.0, 0.08114924982265408
950.0, 0.09088626109806608
951.0, 0.10774077577511637
952.0, 0.1166320020598191
953.0, 0.12330855011260103
954.0, 0.14120047678751282
955.0, 0.15482648346374578
956.0, 0.16979904407800167
957.0, 0.19212591022962847
958.0, 0.20735644644804402
959.0, 0.23264575271906152
960.0, 0.26279945731627025
961.0, 0.2881606575184625
962.0, 0.3147941699917111
963.0, 0.33160114060916157
964.0, 0.33373161695386944
965.0, 0.32754998086930887
966.0, 0.31877647050899865
967.0, 0.30741376721353053
968.0, 0.2902738518940046
969.0, 0.27078171418961167
970.0, 0.25861750644077663
971.0, 0.26569775271795715
972.0, 0.2681179739922229
973.0, 0.28636000873488954
974.0, 0.3089740463840799
975.0, 0.3332117722717727
976.0, 0.3603190513987868
977.0, 0.37945825223635854
978.0, 0.3894322890124002
979.0, 0.39790863813656585
980.0, 0.3868174850344198
981.0, 0.3756236035847798
982.0, 0.34228867148293424
983.0, 0.32106609477556897
984.0, 0.29481320210253087
985.0, 0.2743748897289587
986.0, 0.24981628503512276
987.0, 0.23651652254876784
988.0, 0.23027491012825527
989.0, 0.22240063447550426
990.0, 0.21819892603211963
991.0, 0.21362144984326042
992.0, 0.20707232735334308
993.0, 0.20525297782426846
994.0, 0.21066351647248024
995.0, 0.212334339120969
996.0, 0.22135914827242437
997.0, 0.23289213749703963
998.0, 0.24340956055543267
999.0, 0.2609168686730802
1000.0, 0.27300441729737773
1001.0, 0.2825937893659437
1002.0, 0.29658780688226655
1003.0, 0.3046415401630765
1004.0, 0.30923700285294553
1005.0, 0.3059084085149667
1006.0, 0.29929550111282727
1007.0, 0.27470838731372915
1008.0, 0.2457583514231876
1009.0, 0.2182815065962095
1010.0, 0.1840457854755125
1011.0, 0.1574174316733999
1012.0, 0.13071148683881997
1013.0, 0.10671825278395188
1014.0, 0.09008176243933742
1015.0, 0.0718156627904005
1016.0, 0.05418165655804787
1017.0, 0.04598331710697075
1018.0, 0.03782304202638829
1019.0, 0.026085419020930582
1020.0, 0.023704466947759524
1021.0, 0.022258743641428654
1022.0, 0.016882039557321864
1023.0, 0.01854389060655261
1024.0, 0.021892007562741168
1025.0, 0.025043827838722357
1026.0, 0.02672011828893946
1027.0, 0.028235922581091893
1028.0, 0.029324411693483956
1029.0, 0.026659434311837184
1030.0, 0.022670958768280854
1031.0, 0.01826405431543739
1032.0, 0.011565519401283827
1033.0, 0.012813480950290704
1034.0, 0.00687780666792611
1035.0, 0.005429112243699122
1036.0, 0.00474818893330496
1037.0, 0.006428603026215059
1038.0, 0.007211872591218498
1039.0, 0.007612343217672777
1040.0, 0.008320878310584352
1041.0, 0.006931255111026863
1042.0, 0.0048144643749979815
1043.0, 0.006524677622577953
1044.0, 0.007457849796867672
1045.0, 0.005194080426026122
1046.0, 0.006317801710397921
1047.0, 0.004849680332531321
1048.0, 0.005758567864961333
1049.0, 0.004838044985209665
1050.0, 0.00591589568527688
1051.0, 0.007840225413804348
1052.0, 0.011213700401326604
1053.0, 0.016321433949452378
1054.0, 0.020783547213918827
1055.0, 0.021408065581478113
1056.0, 0.023150992703566138
1057.0, 0.02632168311865806
1058.0, 0.021923258059949765
1059.0, 0.026772032602597685
1060.0, 0.0249691340396042
1061.0, 0.024653371173304555
1062.0, 0.028830437009678824
1063.0, 0.0233243797012457
1064.0, 0.02047026708446907
1065.0, 0.019683259525235794
1066.0, 0.01508158874121727
1067.0, 0.01155181629992633
1068.0, 0.009065900724448557
1069.0, 0.008849347447063435
1070.0, 0.00879608611990216
1071.0, 0.008469464642089126
1072.0, 0.011776592988567421
1073.0, 0.01446534959972764
1074.0, 0.01801663872802887
1075.0, 0.025493658374913707
1076.0, 0.029947731143534384
1077.0, 0.03661090118909184
1078.0, 0.04622544130789009
1079.0, 0.053836181965969454
1080.0, 0.06380748529078303
1081.0, 0.0723425797847621
1082.0, 0.08029157294541296
1083.0, 0.08232455761533909
1084.0, 0.07743214598227625
1085.0, 0.07035447745978274
1086.0, 0.06618766224182293
1087.0, 0.06161218234117675
1088.0, 0.052757279395761934
1089.0, 0.04844455583679926
1090.0, 0.04117609515305569
1091.0, 0.036803163327306425
1092.0, 0.027205890324564042
1093.0, 0.02765002490574808
1094.0, 0.025523260542791647
1095.0, 0.018640007614989806
1096.0, 0.020993388053564543
1097.0, 0.02306687618840942
1098.0, 0.025856559961897622
1099.0, 0.02379253332079892
1100.0, 0.02146677422952511
1101.0, 0.0228039194563414
1102.0, 0.02492834897277201
1103.0, 0.025356416401278396
1104.0, 0.024406144786429215
1105.0, 0.026012838188604864
1106.0, 0.027926396056983972
1107.0, 0.027462169422134804
1108.0, 0.02562861579812326
1109.0, 0.023279034191099477
1110.0, 0.019425920201243084
1111.0, 0.01788445807204801
1112.0, 0.015356908886558518
1113.0, 0.0165247046985531
1114.0, 0.015362802947967562
1115.0, 0.013433347103336333
1116.0, 0.012432091012893052
1117.0, 0.013679920384268232
1118.0, 0.012880484293222052
1119.0, 0.01366406218698206
1120.0, 0.011066449776421365
1121.0, 0.005762934082833075
1122.0, 0.008916588517677288
1123.0, 0.010298803446115128
1124.0, 0.008662317821910613
1125.0, 0.006388550432995127
1126.0, 0.008867513362344715
1127.0, 0.0065465614430364645
1128.0, 0.005174483792077091
1129.0, 0.005774440853214845
1130.0, 0.005042786955843267
1131.0, 0.006304999790733258
1132.0, 0.0052923667414121
1133.0, 0.005353166487474427
1134.0, 0.005358126548300944
1135.0, 0.004528896091281873
1136.0, 0.0040794466174075405
1137.0, 0.005689381018489169
1138.0, 0.005754532074062765
1139.0, 0.004647473678964513
1140.0, 0.0045140728110026306
1141.0, 0.004345761448387562
1142.0, 0.004346290471670433
1143.0, 0.0053243567171556
1144.0, 0.007708021154437376
1145.0, 0.005928790260108462
1146.0, 0.005223975662717629
1147.0, 0.005718819873245763
1148.0, 0.005174765689214078
1149.0, 0.007214784213508681
1150.0, 0.0052132961782027755
1151.0, 0.0097472301364626
1152.0, 0.009067899243439561
1153.0, 0.0057750043736527834
1154.0, 0.005080399417342944
1155.0, 0.006671177201910581
1156.0, 0.007156180515341521
1157.0, 0.006890985159256407
1158.0, 0.007441423585800423
1159.0, 0.007504611095674058
1160.0, 0.0057521353918436715
1161.0, 0.007892209327277954
1162.0, 0.009094457398043123
1163.0, 0.006719791659412676
1164.0, 0.00909118739570063
1165.0, 0.008227574181051392
1166.0, 0.0063163231361054025
1167.0, 0.010085336070638547
1168.0, 0.012067406556396513
1169.0, 0.008979338839747136
1170.0, 0.007069518595492336
1171.0, 0.007003472895208073
1172.0, 0.009594930192397055
1173.0, 0.008720193879580548
1174.0, 0.008571651782063766
1175.0, 0.008170141069490607
1176.0, 0.008431106441272757
1177.0, 0.00823545106698246
1178.0, 0.00813564275760861
1179.0, 0.006710594907707596
1180.0, 0.007188833565199257
1181.0, 0.010296012384816233
1182.0, 0.010775986463059526
1183.0, 0.010908900271105979
1184.0, 0.012084335157992305
1185.0, 0.010998307689282068
1186.0, 0.008689699694364996
1187.0, 0.0077737295320173165
1188.0, 0.012054738538319386
1189.0, 0.014586389372131966
1190.0, 0.014474042015588603
1191.0, 0.011299824896421588
1192.0, 0.011639911754578338
1193.0, 0.011478684194790542
1194.0, 0.0092895735488131
1195.0, 0.00997573077533559
1196.0, 0.010547674097789351
1197.0, 0.0092526166155525
1198.0, 0.011719678724726425
1199.0, 0.012090910303310118
1200.0, 0.013513172870223904
1201.0, 0.009160820541375904
1202.0, 0.008092367183452527
1203.0, 0.006629843717346403
1204.0, 0.005786679936757286
1205.0, 0.007389969636544467
1206.0, 0.006500411837292856
1207.0, 0.007150552779757031
1208.0, 0.007934224435904783
1209.0, 0.005879823081851158
1210.0, 0.009943925596871886
1211.0, 0.010828264830365942
1212.0, 0.00861645900562279
1213.0, 0.008824518104663202
1214.0, 0.011192845918847692
1215.0, 0.010703385119676423
1216.0, 0.011674265521974257
1217.0, 0.007906752227731477
1218.0, 0.00832454913041663
1219.0, 0.007893088707643221
1220.0, 0.009244720195453722
1221.0, 0.009738987489730486
1222.0, 0.009868388491641525
1223.0, 0.00887886606119481
1224.0, 0.009299543290593341
1225.0, 0.008123684809773867
1226.0, 0.008592153250055204
1227.0, 0.00934566911956763
1228.0, 0.010746501638548287
1229.0, 0.011050975050670906
1230.0, 0.011540091542975256
1231.0, 0.0087218775589345
1232.0, 0.008600573896367928
1233.0, 0.009451846518927262
1234.0, 0.009427101633906086
1235.0, 0.007498111495197625
1236.0, 0.005927251196927756
1237.0, 0.007383643615487158
1238.0, 0.006281076978640674
1239.0, 0.0054075963479913135
1240.0, 0.005914564026145354
1241.0, 0.01094854746557301
1242.0, 0.011518121653519718
1243.0, 0.010493502718197031
1244.0, 0.007795710633505832
1245.0, 0.007112191558080957
1246.0, 0.011639411892264487
1247.0, 0.010820816133009298
1248.0, 0.011061857232228384
1249.0, 0.011675950928486598
1250.0, 0.01240313372190691
1251.0, 0.005753120519730594
1252.0, 0.006626154146902739
1253.0, 0.006995067708866339
1254.0, 0.007009579913913862
1255.0, 0.005223104418946536
1256.0, 0.005264236337846453
1257.0, 0.008563662267400036
1258.0, 0.004263636974377183
1259.0, 0.008302416525794503
1260.0, 0.00809838854110347
1261.0, 0.004696377387572084
1262, 0.0
1263, 0.0
1264, 0.0
1265, 0.0
1266, 0.0
1267, 0.0
1268, 0.0
1269, 0.0
1270, 0.0
1271, 0.0
1272, 0.0
1273, 0.0
1274, 0.0
1275, 0.0
1276, 0.0
1277, 0.0
1278, 0.0
1279, 0.0
1280, 0.0
1281, 0.0
1282, 0.0
1283, 0.0
1284, 0.0
1285, 0.0
1286, 0.0
1287, 0.0
1288, 0.0
1289, 0.0
1290, 0.0
1291, 0.0
1292, 0.0
1293, 0.0
1294, 0.0
1295, 0.0
1296, 0.0
1297, 0.0
1298, 0.0
1299, 0.0
1300, 0.0
1301, 0.0
1302, 0.0
1303, 0.0
1304, 0.0
1305, 0.0
1306, 0.0
1307, 0.0
1308, 0.0
1309, 0.0
1310, 0.0
1311, 0.0
1312, 0.0
1313, 0.0
1314, 0.0
1315, 0.0
1316, 0.0
1317, 0.0
1318, 0.0
1319, 0.0
1320, 0.0
1321, 0.0
1322, 0.0
1323, 0.0
1324, 0.0
1325, 0.0
1326, 0.0
1327, 0.0
1328, 0.0
1329, 0.0
1330, 0.0
1331, 0.0
1332, 0.0
1333, 0.0
1334, 0.0
1335, 0.0
1336, 0.0
1337, 0.0
1338, 0.0
1339, 0.0
1340, 0.0
1341, 0.0
1342, 0.0
1343, 0.0
1344, 0.0
1345, 0.0
1346, 0.0
1347, 0.0
1348, 0.0
1349, 0.0
1350, 0.0
1351, 0.0
1352, 0.0
1353, 0.0
1354, 0.0
1355, 0.0
1356, 0.0
1357, 0.0
1358, 0.0
1359, 0.0
1360, 0.0
1361, 0.0
1362, 0.0
1363, 0.0
1364, 0.0
1365, 0.0
1366, 0.0
1367, 0.0
1368, 0.0
1369, 0.0
1370, 0.0
1371, 0.0
1372, 0.0
1373, 0.0
1374, 0.0
1375, 0.0
1376, 0.0
1377, 0.0
1378, 0.0
1379, 0.0
1380, 0.0
1381, 0.0
1382, 0.0
1383, 0.0
1384, 0.0
1385, 0.0
1386, 0.0
1387, 0.0
1388, 0.0
1389, 0.0
1390, 0.0
1391, 0.0
1392, 0.0
1393, 0.0
1394, 0.0
1395, 0.0
1396, 0.0
1397, 0.0
1398, 0.0
1399, 0.0
1400, 0.0
1401, 0.0
1402, 0.0
1403, 0.0
1404, 0.0
1405, 0.0
1406, 0.0
1407, 0.0
1408, 0.0
1409, 0.0
1410, 0.0
1411, 0.0
1412, 0.0
1413, 0.0
1414, 0.0
1415, 0.0
1416, 0.0
1417, 0.0
1418, 0.0
1419, 0.0
1420, 0.0
1421, 0.0
1422, 0.0
1423, 0.0
1424, 0.0
1425, 0.0
1426, 0.0
1427, 0.0
1428, 0.0
1429, 0.0
1430, 0.0
1431, 0.0
1432, 0.0
1433, 0.0
1434, 0.0
1435, 0.0
1436, 0.0
1437, 0.0
1438, 0.0
1439, 0.0
1440, 0.0
1441, 0.0
1442, 0.0
1443, 0.0
1444, 0.0
1445, 0.0
1446, 0.0
1447, 0.0
1448, 0.0
1449, 0.0
1450, 0.0
1451, 0.0
1452, 0.0
1453, 0.0
1454, 0.0
1455, 0.0
1456, 0.0
1457, 0.0
1458, 0.0
1459, 0.0
1460, 0.0
1461, 0.0
1462, 0.0
1463, 0.0
1464, 0.0
1465, 0.0
1466, 0.0
1467, 0.0
1468, 0.0
1469, 0.0
1470, 0.0
1471, 0.0
1472, 0.0
1473, 0.0
1474, 0.0
1475, 0.0
1476, 0.0
1477, 0.0
1478, 0.0
1479, 0.0
1480, 0.0
1481, 0.0
1482, 0.0
1483, 0.0
1484, 0.0
1485, 0.0
1486, 0.0
1487, 0.0
1488, 0.0
1489, 0.0
1490, 0.0
1491, 0.0
1492, 0.0
1493, 0.0
1494, 0.0
1495, 0.0
1496, 0.0
1497, 0.0
1498, 0.0
1499, 0.0
1500, 0.0
1501, 0.0
1502, 0.0
1503, 0.0
1504, 0.0
1505, 0.0
1506, 0.0
1507, 0.0
1508, 0.0
1509, 0.0
1510, 0.0
1511, 0.0
1512, 0.0
1513, 0.0
1514, 0.0
1515, 0.0
1516, 0.0
1517, 0.0
1518, 0.0
1519, 0.0
1520, 0.0
1521, 0.0
1522, 0.0
1523, 0.0
1524, 0.0
1525, 0.0
1526, 0.0
1527, 0.0
1528, 0.0
1529, 0.0
1530, 0.0
1531, 0.0
1532, 0.0
1533, 0.0
1534, 0.0
1535, 0.0
1536, 0.0
1537, 0.0
1538, 0.0
1539, 0.0
1540, 0.0
1541, 0.0
1542, 0.0
1543, 0.0
1544, 0.0
1545, 0.0
1546, 0.0
1547, 0.0
1548, 0.0
1549, 0.0
1550, 0.0
1551, 0.0
1552, 0.0
1553, 0.0
1554, 0.0
1555, 0.0
1556, 0.0
1557, 0.0
1558, 0.0
1559, 0.0
1560, 0.0
1561, 0.0
1562, 0.0
1563, 0.0
1564, 0.0
1565, 0.0
1566, 0.0
1567, 0.0
1568, 0.0
1569, 0.0
1570, 0.0
1571, 0.0
1572, 0.0
1573, 0.0
1574, 0.0
1575, 0.0
1576, 0.0
1577, 0.0
1578, 0.0
1579, 0.0
1580, 0.0
1581, 0.0
1582, 0.0
1583, 0.0
1584, 0.0
1585, 0.0
1586, 0.0
1587, 0.0
1588, 0.0
1589, 0.0
1590, 0.0
1591, 0.0
1592, 0.0
1593, 0.0
1594, 0.0
1595, 0.0
1596, 0.0
1597, 0.0
1598, 0.0
1599, 0.0
