30, 0.0
31, 0.0
32, 0.0
33, 0.0
34, 0.0
35, 0.0
36, 0.0
37, 0.0
38, 0.0
39, 0.0
40, 0.0
41, 0.0
42, 0.0
43, 0.0
44, 0.0
45, 0.0
46, 0.0
47, 0.0
48, 0.0
49, 0.0
50, 0.0
51, 0.0
52, 0.0
53, 0.0
54, 0.0
55, 0.0
56, 0.0
57, 0.0
58, 0.0
59, 0.0
60, 0.0
61, 0.0
62, 0.0
63, 0.0
64, 0.0
65, 0.0
66, 0.0
67, 0.0
68, 0.0
69, 0.0
70, 0.0
71, 0.0
72, 0.0
73, 0.0
74, 0.0
75, 0.0
76, 0.0
77, 0.0
78, 0.0
79, 0.0
80, 0.0
81, 0.0
82, 0.0
83, 0.0
84, 0.0
85, 0.0
86, 0.0
87, 0.0
88, 0.0
89, 0.0
90, 0.0
91, 0.0
92, 0.0
93, 0.0
94, 0.0
95, 0.0
96, 0.0
97, 0.0
98, 0.0
99, 0.0
100, 0.0
101, 0.0
102, 0.0
103, 0.0
104, 0.0
105, 0.0
106, 0.0
107, 0.0
108, 0.0
109, 0.0
110, 0.0
111, 0.0
112, 0.0
113, 0.0
114, 0.0
115, 0.0
116, 0.0
117, 0.0
118, 0.0
119, 0.0
120, 0.0
121, 0.0
122, 0.0
123, 0.0
124, 0.0
125, 0.0
126, 0.0
127, 0.0
128, 0.0
129, 0.0
130, 0.0
131, 0.0
132, 0.0
133, 0.0
134, 0.0
135, 0.0
136, 0.0
137.0, 0.0030058050116847164
138.0, 0.01396597662070701
139.0, 0.0192301050568817
140.0, 0.018032786157682258
141.0, 0.012930152727327138
142.0, 0.0049259598889759915
143.0, 0.002343619758810538
144.0, 0.00136755264041103
145.0, 0.0019180229720701758
146.0, 0.0022915108019252854
147.0, 0.008397712222908083
148.0, 0.015746462392298686
149.0, 0.02423421568309182
150.0, 0.03349385545800672
151.0, 0.0383338807826861
152.0, 0.03760805797001504
153.0, 0.035306961009229955
154.0, 0.034823235344661745
155.0, 0.036584641356387074
156.0, 0.037756619071351555
157.0, 0.039325457765939376
158.0, 0.04243242038058011
159.0, 0.04773946349434981
160.0, 0.055990189907383414
161.0, 0.06131601095040508
162.0, 0.06742963314508181
163.0, 0.08186061475720272
164.0, 0.09997097577445949
165.0, 0.11683586989310438
166.0, 0.13688907072449552
167.0, 0.1646284905146549
168.0, 0.19856918977394272
169.0, 0.23226995149321455
170.0, 0.2504879680748581
171.0, 0.24720822401113748
172.0, 0.23139893490089153
173.0, 0.20637354546491884
174.0, 0.17610780882099294
175.0, 0.14347199100436503
176.0, 0.11040011678874989
177.0, 0.08020687100183477
178.0, 0.054681108459173094
179.0, 0.03491832809332638
180.0, 0.02106405662171413
181.0, 0.011698052213342785
182.0, 0.00834870275135118
183.0, 0.0076003646073093825
184.0, 0.008085459444380626
185.0, 0.015313125588427668
186.0, 0.026221846309027016
187.0, 0.03422463231771145
188.0, 0.043169099741010714
189.0, 0.05925873371866021
190.0, 0.07346538703237826
191.0, 0.08846508076879567
192.0, 0.11023417978952456
193.0, 0.1388114929918693
194.0, 0.1512710346381048
195.0, 0.15115433701325068
196.0, 0.14491278386680514
197.0, 0.13885320892589004
198.0, 0.14256535551165336
199.0, 0.15848177520489332
200.0, 0.18028463447294293
201.0, 0.20608513953201033
202.0, 0.23725376776273022
203.0, 0.2676581256693214
204.0, 0.3030480947103302
205.0, 0.34033909483420755
206.0, 0.3680859994309115
207.0, 0.3657457749108387
208.0, 0.3580450500831348
209.0, 0.3461536651750771
210.0, 0.3307076504853105
211.0, 0.3155297357616196
212.0, 0.28335305441261066
213.0, 0.24531459481975662
214.0, 0.21318164113223004
215.0, 0.19007615697399174
216.0, 0.15878963671610205
217.0, 0.1324287869027921
218.0, 0.11112212527503776
219.0, 0.09267052062206874
220.0, 0.07799707347270403
221.0, 0.0602066956768401
222.0, 0.043536068223421584
223.0, 0.030805864768888486
224.0, 0.02186718985005616
225.0, 0.0071852348189960415
226.0, 0.003612125521430325
227.0, 0.0033646058430906165
228.0, 0.0027539185429263343
229.0, 0.0028560146628680656
230.0, 0.0023647743700904427
231.0, 0.0032236664946687726
232.0, 0.002540666287690076
233.0, 0.003656169660154777
234.0, 0.0034793182971129375
235.0, 0.0019669461821412407
236.0, 0.002525523359410735
237.0, 0.0028195403538398773
238.0, 0.011148150697228723
239.0, 0.01533034681478021
240.0, 0.02298085287179493
241.0, 0.03446888944866902
242.0, 0.041604072719754026
243.0, 0.04784965431115989
244.0, 0.05263254717501587
245.0, 0.059038046564654355
246.0, 0.06827397934891852
247.0, 0.07447601509265854
248.0, 0.07673769139380142
249.0, 0.07954109345710006
250.0, 0.08632476706694038
251.0, 0.0982775020975676
252.0, 0.1058868656660185
253.0, 0.11727602179012936
254.0, 0.13298719750606805
255.0, 0.1466461786748583
256.0, 0.14662340135117644
257.0, 0.14200363448680933
258.0, 0.13636982201368666
259.0, 0.13312799232053027
260.0, 0.1355142732945247
261.0, 0.13923540059754938
262.0, 0.14957930950652062
263.0, 0.16389233719056612
264.0, 0.1800949008683364
265.0, 0.2049672551459835
266.0, 0.22496677285663721
267.0, 0.2513502271778608
268.0, 0.2870760365342896
269.0, 0.322686586140036
270.0, 0.35074153204829034
271.0, 0.3705102826622345
272.0, 0.38568119593618183
273.0, 0.3974171710962137
274.0, 0.40123708397545604
275.0, 0.39626889126930603
276.0, 0.37420435347200626
277.0, 0.3386437491983977
278.0, 0.3009316775782911
279.0, 0.27074481073774687
280.0, 0.24181398978293553
281.0, 0.21348881824088115
282.0, 0.1874393838528153
283.0, 0.16571098945661983
284.0, 0.1566992013850115
285.0, 0.1524434377404304
286.0, 0.1520985932428699
287.0, 0.15706258859848093
288.0, 0.1608516665652963
289.0, 0.16828184810782731
290.0, 0.17759440507159796
291.0, 0.19045311846507906
292.0, 0.20974069482033272
293.0, 0.2249134328168137
294.0, 0.24057456702606236
295.0, 0.2621706804984776
296.0, 0.2844736472637118
297.0, 0.2930028012939296
298.0, 0.306793024917002
299.0, 0.32248239952131674
300.0, 0.33907266826520444
301.0, 0.3574241102675678
302.0, 0.3695488317631397
303.0, 0.38423253715187133
304.0, 0.4055355894215302
305.0, 0.4237942358842243
306.0, 0.42284304907260845
307.0, 0.41409745402466996
308.0, 0.39368885483427274
309.0, 0.360971442821608
310.0, 0.32176731684802873
311.0, 0.28838530031847387
312.0, 0.27131014350966937
313.0, 0.26105721006261184
314.0, 0.25785802783340595
315.0, 0.26558932195145957
316.0, 0.2787425028938834
317.0, 0.29084374052575535
318.0, 0.2960938647258117
319.0, 0.29155566596121385
320.0, 0.27599093550993753
321.0, 0.24433076755957334
322.0, 0.20880060529137656
323.0, 0.17321955118527665
324.0, 0.14121182446180996
325.0, 0.12220638702737724
326.0, 0.11144935390919154
327.0, 0.10543655863286226
328.0, 0.10278674092294982
329.0, 0.10223506729475065
330.0, 0.09870106142487371
331.0, 0.0885587129889949
332.0, 0.0857557278144296
333.0, 0.09048914830158002
334.0, 0.09165583963247471
335.0, 0.0943577788656187
336.0, 0.10755871545790707
337.0, 0.13080216161719554
338.0, 0.15807384391615495
339.0, 0.18373507370427694
340.0, 0.22210522993436055
341.0, 0.2615882963012952
342.0, 0.3025440602866834
343.0, 0.34525859881781756
344.0, 0.3696912156546873
345.0, 0.3734154452926477
346.0, 0.353605875300511
347.0, 0.32829107459047674
348.0, 0.3169390155816648
349.0, 0.3031809653533101
350.0, 0.2999246312435556
351.0, 0.2946094241404748
352.0, 0.27902283046925797
353.0, 0.2542798773406051
354.0, 0.21558778842294296
355.0, 0.1672190254691344
356.0, 0.12234493903257791
357.0, 0.08724962388124959
358.0, 0.05974080608404993
359.0, 0.039542815976734015
360.0, 0.02633575087321625
361.0, 0.01573420917883131
362.0, 0.004029358884253099
363.0, 0.0018039995532590806
364.0, 0.0011993545669634806
365.0, 0.0009970814076484228
366.0, 0.0014794559941007739
367.0, 0.0010996218660413017
368.0, 0.001966544085665627
369.0, 0.0012631859935112108
370.0, 0.002559102789129937
371.0, 0.002337623759684896
372.0, 0.0012818467321774269
373.0, 0.0018566413922462455
374.0, 0.0018533818229949255
375.0, 0.0027865119132658408
376.0, 0.008821053211051417
377.0, 0.01738243343103197
378.0, 0.027205194516556955
379.0, 0.04228594712087552
380.0, 0.05504853815837005
381.0, 0.06731049704062156
382.0, 0.0875375431621632
383.0, 0.11004899914546323
384.0, 0.13206935445092233
385.0, 0.1588350118960569
386.0, 0.1894177945504437
387.0, 0.2157617872304296
388.0, 0.23298950165105312
389.0, 0.254681859589116
390.0, 0.26458226614319824
391.0, 0.2508847507859164
392.0, 0.22197199362830902
393.0, 0.19309044324379965
394.0, 0.16868906671595435
395.0, 0.14288965645323978
396.0, 0.1151290738992797
397.0, 0.09245495283422166
398.0, 0.08005378933451109
399.0, 0.07115065081732455
400.0, 0.06528136758333933
401.0, 0.06418727910114201
402.0, 0.06833066499213973
403.0, 0.07067172930766434
404.0, 0.07310164780461667
405.0, 0.08111608577890311
406.0, 0.09596244043432643
407.0, 0.11338328687273094
408.0, 0.13739406853319977
409.0, 0.16376896316384057
410.0, 0.1928136151711805
411.0, 0.2266827681111533
412.0, 0.26664041741676947
413.0, 0.3091229436563787
414.0, 0.3609564611663539
415.0, 0.42453364403088273
416.0, 0.4943509345821726
417.0, 0.5537779683223305
418.0, 0.5617397080410145
419.0, 0.5195876306757428
420.0, 0.4593132544417623
421.0, 0.40953224248199677
422.0, 0.38218798665826614
423.0, 0.3720286521719287
424.0, 0.3692350743876167
425.0, 0.3754314074444691
426.0, 0.3892148696457544
427.0, 0.3919844291952844
428.0, 0.4019016951305638
429.0, 0.39909485111105913
430.0, 0.37833121806340264
431.0, 0.3461854086384796
432.0, 0.30838728456685405
433.0, 0.26490182931966383
434.0, 0.22315000648409308
435.0, 0.18967269838328102
436.0, 0.1653580434437497
437.0, 0.14522442279998732
438.0, 0.13179018246603577
439.0, 0.12683583493953718
440.0, 0.1283235818394691
441.0, 0.13444198477019184
442.0, 0.14497235617932286
443.0, 0.1528205007908277
444.0, 0.16029335295846325
445.0, 0.15748320665450086
446.0, 0.13958300920254435
447.0, 0.11392421954006898
448.0, 0.0862660649884814
449.0, 0.06128185451027386
450.0, 0.041820520108539996
451.0, 0.028541501163184005
452.0, 0.0198903049393597
453.0, 0.011746442941850219
454.0, 0.01052384194378049
455.0, 0.007276703807464849
456.0, 0.0010727144747731472
457.0, 0.002444967808671188
458.0, 0.0018220807813704846
459.0, 0.0014776962521502333
460.0, 0.0018222881412482514
461.0, 0.0013485505451698513
462.0, 0.002137953277851235
463.0, 0.0013618906967090257
464.0, 0.002572053996170498
465.0, 0.0022890672525614384
466.0, 0.0014198935330565063
467.0, 0.00813477828607892
468.0, 0.011188153205612979
469.0, 0.019884399359952887
470.0, 0.0280330313242121
471.0, 0.03514659272933107
472.0, 0.04660113814304854
473.0, 0.06450199612597114
474.0, 0.07705537559302944
475.0, 0.09050951353536937
476.0, 0.10527594101974183
477.0, 0.12267445267377336
478.0, 0.14963024643440292
479.0, 0.16768490899652375
480.0, 0.1927602118542397
481.0, 0.2204545055072339
482.0, 0.2454140789760184
483.0, 0.26931103249111066
484.0, 0.28034447039670174
485.0, 0.28126478029763646
486.0, 0.2568916137224706
487.0, 0.20974236046734995
488.0, 0.16012445169938816
489.0, 0.11849019971599802
490.0, 0.09014210518871565
491.0, 0.06727175099930431
492.0, 0.05135832095695759
493.0, 0.04600928450501164
494.0, 0.042925223716086945
495.0, 0.043393074746692815
496.0, 0.04189430462292192
497.0, 0.04089811409662587
498.0, 0.0433970474066585
499.0, 0.04654744326819039
500.0, 0.05576809452003051
501.0, 0.05886816600863197
502.0, 0.06398751419327803
503.0, 0.07420251332501002
504.0, 0.08094817099984372
505.0, 0.08383804265866757
506.0, 0.08947109669838561
507.0, 0.09196044961453326
508.0, 0.0916559065364897
509.0, 0.09327844609321467
510.0, 0.09104349836577277
511.0, 0.08845159999536781
512.0, 0.08109798756917119
513.0, 0.06920089901097667
514.0, 0.05818407880709839
515.0, 0.0532129126741698
516.0, 0.040193349822132914
517.0, 0.028761876091226046
518.0, 0.020131896602360047
519.0, 0.01239417754227545
520.0, 0.004930298186776016
521.0, 0.0026308418077806415
522.0, 0.0014455685478791443
523.0, 0.0034893066156015846
524.0, 0.0021048345831078796
525.0, 0.0022844136653858145
526.0, 0.0025561766574908606
527.0, 0.003353900882336579
528.0, 0.0037505555777174343
529.0, 0.004390260926044413
530.0, 0.004917279567826544
531.0, 0.013076470134220171
532.0, 0.013822105116015018
533.0, 0.014937234241943721
534.0, 0.018985661378114138
535.0, 0.02468518643839521
536.0, 0.029776477400112064
537.0, 0.03494808502908944
538.0, 0.034244497575810745
539.0, 0.03754051502330162
540.0, 0.045416972183751764
541.0, 0.05084217681976432
542.0, 0.05257484270515069
543.0, 0.05778384590298813
544.0, 0.0634260094597203
545.0, 0.06960960101067604
546.0, 0.0736478071215682
547.0, 0.06970392303579376
548.0, 0.06242182232556667
549.0, 0.05583518475504699
550.0, 0.04965396825117032
551.0, 0.04653633088017092
552.0, 0.04711347526738476
553.0, 0.04383794165110264
554.0, 0.04151326629521022
555.0, 0.045512580598215176
556.0, 0.051982472803725484
557.0, 0.058116686759121475
558.0, 0.06620331333560486
559.0, 0.07809386227643036
560.0, 0.08525938094172578
561.0, 0.0892629294719589
562.0, 0.09179961793737428
563.0, 0.09322357029326689
564.0, 0.0929467810392953
565.0, 0.0888935851707043
566.0, 0.08969683283678306
567.0, 0.09466317770861069
568.0, 0.1020151460881136
569.0, 0.11200293526042328
570.0, 0.12057088204800338
571.0, 0.13318521711146047
572.0, 0.14184511847651582
573.0, 0.14349552428303375
574.0, 0.14094613071886192
575.0, 0.13854784920135138
576.0, 0.1379869323794164
577.0, 0.13719145127373247
578.0, 0.13411928980106744
579.0, 0.13135612933242685
580.0, 0.1336608133357799
581.0, 0.13884461002703363
582.0, 0.14218184744112614
583.0, 0.146566768865025
584.0, 0.1588417131999373
585.0, 0.17846740066120836
586.0, 0.19617900148036527
587.0, 0.2006394785601323
588.0, 0.2055441670339245
589.0, 0.20758773969008804
590.0, 0.19972748142978147
591.0, 0.17846630110126355
592.0, 0.15051413655972606
593.0, 0.12898403815369533
594.0, 0.10228998821255304
595.0, 0.07987451501939438
596.0, 0.06557622309254606
597.0, 0.05210455206431269
598.0, 0.043690330118950634
599.0, 0.03408135730593905
600.0, 0.029765345979016825
601.0, 0.028458422237556166
602.0, 0.025371531778297738
603.0, 0.019562193190471838
604.0, 0.018842055231576386
605.0, 0.018908074832002277
606.0, 0.019876327098132564
607.0, 0.020761323225886367
608.0, 0.02109506614488125
609.0, 0.024189341959110065
610.0, 0.029856969422111867
611.0, 0.030199976058541893
612.0, 0.03172649779585199
613.0, 0.03417425668852874
614.0, 0.032441875618313895
615.0, 0.035134331959181996
616.0, 0.03791199417930243
617.0, 0.03344671403599932
618.0, 0.028987336154933326
619.0, 0.0284733477239149
620.0, 0.025973951034921925
621.0, 0.021836487941025683
622.0, 0.018503227003469354
623.0, 0.01647977457843106
624.0, 0.009461178688159844
625.0, 0.0028007092920031675
626.0, 0.003881277180190083
627.0, 0.0018447174676610048
628.0, 0.004910967360464209
629.0, 0.005516443135649846
630.0, 0.004056528618278489
631.0, 0.004034384320636783
632.0, 0.002231918326024484
633.0, 0.001912528985754959
634.0, 0.0033106784202575294
635.0, 0.007634112039386599
636.0, 0.01197667169368694
637.0, 0.013436383332252706
638.0, 0.018395046733489333
639.0, 0.02655782807962559
640.0, 0.027095018405559897
641.0, 0.031685781063319686
642.0, 0.0386499382148608
643.0, 0.03791902777942078
644.0, 0.03474818542118291
645.0, 0.03820983657601708
646.0, 0.03904339608780247
647.0, 0.03300068481478007
648.0, 0.02253555368516027
649.0, 0.013454811946724765
650.0, 0.008920620783424768
651.0, 0.007836337993838349
652.0, 0.0033825331410349364
653.0, 0.004343740543213029
654.0, 0.0016810886714290927
655.0, 0.0069541946029002336
656.0, 0.008773769871136188
657.0, 0.006874689610667599
658.0, 0.006376726553113721
659.0, 0.006330036995612748
660.0, 0.0027447322992315893
661.0, 0.005129140199896489
662.0, 0.00575811074185001
663.0, 0.015301684225985358
664.0, 0.01909283007992433
665.0, 0.024098767468541435
666.0, 0.0337997490147022
667.0, 0.0431089733619057
668.0, 0.05585018491645814
669.0, 0.06690588826965635
670.0, 0.08063031513291903
671.0, 0.09542531988666889
672.0, 0.10960890400013144
673.0, 0.12445427362771529
674.0, 0.14096574016147917
675.0, 0.15784037625630992
676.0, 0.1634660443254831
677.0, 0.1597378551752859
678.0, 0.15048778396355117
679.0, 0.13680510089235362
680.0, 0.11941057854965756
681.0, 0.09819142941161825
682.0, 0.07902813186225205
683.0, 0.06452432665601454
684.0, 0.053652032436737856
685.0, 0.04457977787696185
686.0, 0.035734830682486396
687.0, 0.0265534202971694
688.0, 0.027281269501473464
689.0, 0.031944029604446186
690.0, 0.03428638077151398
691.0, 0.035715176555630904
692.0, 0.04126961656573793
693.0, 0.04797079845595973
694.0, 0.05534196662455774
695.0, 0.06912640260942582
696.0, 0.08318753137684216
697.0, 0.09595072717385561
698.0, 0.12292589487947678
699.0, 0.15200669178038728
700.0, 0.1822504889523417
701.0, 0.2222829897528611
702.0, 0.27161661726457287
703.0, 0.3248949095229318
704.0, 0.3812766072574478
705.0, 0.4477172067326326
706.0, 0.517803361947948
707.0, 0.6009407500890168
708.0, 0.6858344130714997
709.0, 0.7639850676913633
710.0, 0.8407910365352601
711.0, 0.9174620051189032
712.0, 0.971004921077193
713.0, 0.997770221678602
714.0, 0.9792529281506565
715.0, 0.9102261757292013
716.0, 0.8080495072682575
717.0, 0.6967601160620001
718.0, 0.5916716577223666
719.0, 0.49605181754222405
720.0, 0.4084155647214476
721.0, 0.33511742496121955
722.0, 0.27901870138178037
723.0, 0.2315462460450372
724.0, 0.19195004794718984
725.0, 0.1590539013232899
726.0, 0.13676448413102454
727.0, 0.11649814283458247
728.0, 0.0949349174919199
729.0, 0.07957129031685445
730.0, 0.06714784576812649
731.0, 0.05642687807866183
732.0, 0.0497505040615691
733.0, 0.044270764382059256
734.0, 0.03868790113137907
735.0, 0.03164297267747861
736.0, 0.02001018899917849
737.0, 0.020455532151485573
738.0, 0.014527521773994195
739.0, 0.010951730258853935
740.0, 0.010173872350540755
741.0, 0.008701771428913449
742.0, 0.008732015923360223
743.0, 0.0038356234316046824
744.0, 0.004196804558850295
745.0, 0.00598391534404509
746.0, 0.006872122903406687
747.0, 0.00852392815509192
748.0, 0.011046885558666376
749.0, 0.008259346453137544
750.0, 0.014224929655445055
751.0, 0.021237248550510776
752.0, 0.02539223850437136
753.0, 0.029523891776993494
754.0, 0.036324809460438305
755.0, 0.04348619390821377
756.0, 0.050463352946501956
757.0, 0.06086040739406847
758.0, 0.07522926396446067
759.0, 0.08796274902051376
760.0, 0.09655953774812381
761.0, 0.10440463839224068
762.0, 0.11547976691180965
763.0, 0.12333398841553027
764.0, 0.13430388548022926
765.0, 0.14254763742612223
766.0, 0.14371789192184614
767.0, 0.1422589181929703
768.0, 0.14429188187503436
769.0, 0.13983946511189774
770.0, 0.12850009791337078
771.0, 0.11481933861269729
772.0, 0.10340737115142282
773.0, 0.09238287266416519
774.0, 0.07937671361543071
775.0, 0.06831828425563638
776.0, 0.05784835851378139
777.0, 0.05057278185872506
778.0, 0.04575808812281316
779.0, 0.043207501623565236
780.0, 0.04008615058466097
781.0, 0.03452756595170279
782.0, 0.032394254188415926
783.0, 0.02521603960246183
784.0, 0.021544959705587324
785.0, 0.017935241977551003
786.0, 0.01418619696080913
787.0, 0.01255333847834575
788.0, 0.011303015081051969
789.0, 0.005524713214722938
790.0, 0.006384542641454627
791.0, 0.004760496543890794
792.0, 0.003369731173743285
793.0, 0.004711195098764352
794.0, 0.007126750449048961
795.0, 0.008709454648713356
796.0, 0.0038119812259192823
797.0, 0.006540924015049075
798.0, 0.005411056811745238
799.0, 0.005996149943546066
800.0, 0.00930195893503305
801.0, 0.01004503463212839
802.0, 0.01322197109625001
803.0, 0.010884787991642539
804.0, 0.019873703538550936
805.0, 0.01759022396069051
806.0, 0.01612055875528056
807.0, 0.024632379679415766
808.0, 0.02847989525169826
809.0, 0.025132205267723005
810.0, 0.029453163240868975
811.0, 0.031973250135125954
812.0, 0.036199530820310626
813.0, 0.03354661572704296
814.0, 0.023912324044878357
815.0, 0.020501555259608988
816.0, 0.02228675415842763
817.0, 0.017184672493701873
818.0, 0.013723190844112543
819.0, 0.009006846832913983
820.0, 0.008239097788975755
821.0, 0.008386144940239933
822.0, 0.0024420677686380473
823.0, 0.004772002514036105
824.0, 0.004459525869860984
825.0, 0.004189366041236542
826.0, 0.0063271010060923045
827.0, 0.006881583603127705
828.0, 0.005317780827782935
829.0, 0.00626482534526204
830.0, 0.006860378837817064
831.0, 0.0047880228404190645
832.0, 0.0035604603761836343
833.0, 0.0018593788335013943
834.0, 0.002387588488912331
835.0, 0.004915111768649212
836.0, 0.0035942144097160815
837.0, 0.0018807337291175522
838.0, 0.0014111455236671617
839.0, 0.00259953005041912
840.0, 0.0037932826018207753
841.0, 0.0030530298427611266
842.0, 0.004071571289647344
843.0, 0.009260489882957268
844.0, 0.009017856076753015
845.0, 0.01607688491808142
846.0, 0.018318942001639485
847.0, 0.01457167757889311
848.0, 0.014639659801678763
849.0, 0.016678015951074522
850.0, 0.014507515139273277
851.0, 0.019162393492423917
852.0, 0.021065060209815578
853.0, 0.0186003912854998
854.0, 0.014622238351409855
855.0, 0.012645244603363217
856.0, 0.012304569402061313
857.0, 0.01261871378638555
858.0, 0.01451310112741305
859.0, 0.011537442425776527
860.0, 0.01066673605734572
861.0, 0.012784990115212282
862.0, 0.01471609946411775
863.0, 0.012738544242153396
864.0, 0.008249255755562021
865.0, 0.007001864141943857
866.0, 0.007581061183737294
867.0, 0.0057181838255133425
868.0, 0.009900777955932978
869.0, 0.00882125552964768
870.0, 0.005675414143817089
871.0, 0.0066611077912893295
872.0, 0.008671610257391743
873.0, 0.00868438341299789
874.0, 0.0069438656679425
875.0, 0.01198312917376423
876.0, 0.01629456742488076
877.0, 0.01584426259883538
878.0, 0.014328569232709398
879.0, 0.016793554611065072
880.0, 0.022246048669756324
881.0, 0.022228343657779186
882.0, 0.018422312493666985
883.0, 0.026447883201120397
884.0, 0.031231461294529365
885.0, 0.03416769989482174
886.0, 0.042626471274859454
887.0, 0.04911697595559583
888.0, 0.0550313146236798
889.0, 0.06195563325920656
890.0, 0.07340856916073173
891.0, 0.08635669392817436
892.0, 0.09948481838541974
893.0, 0.10953299663753571
894.0, 0.11899321978106618
895.0, 0.1411675919319736
896.0, 0.15869188500167808
897.0, 0.16458947182422198
898.0, 0.17245405133997374
899.0, 0.17827022501089476
900.0, 0.17938574732993282
901.0, 0.18246144783327478
902.0, 0.19089423360017416
903.0, 0.19296627312339984
904.0, 0.1952269245458437
905.0, 0.19278218617306478
906.0, 0.192105367799515
907.0, 0.19301209170364794
908.0, 0.19019449655178824
909.0, 0.1827841034954558
910.0, 0.1738423594257818
911.0, 0.1560489349722135
912.0, 0.13846946071145963
913.0, 0.11948386964181214
914.0, 0.09890572278828516
915.0, 0.08133335291772625
916.0, 0.06455787188502435
917.0, 0.04606200727175241
918.0, 0.03511575287432486
919.0, 0.024413570180197186
920.0, 0.02048195094580806
921.0, 0.013040486096055282
922.0, 0.009913967002023582
923.0, 0.006915607238742325
924.0, 0.001709975830901765
925.0, 0.002988289304031507
926.0, 0.005109755345198171
927.0, 0.008779488790788012
928.0, 0.012699926965589645
929.0, 0.010114743507206028
930.0, 0.00986709237189457
931.0, 0.009196270283936651
932.0, 0.0026404232948129803
933.0, 0.002794017334430054
934.0, 0.0013389377712046877
935.0, 0.00283672760632672
936.0, 0.0072636924430881
937.0, 0.013495013821921616
938.0, 0.006351005556082846
939.0, 0.007149853959041669
940.0, 0.006503054546290937
941.0, 0.00790032487213161
942.0, 0.011383233083396692
943.0, 0.019011365930931678
944.0, 0.025176024745277234
945.0, 0.03956629511400855
946.0, 0.052406830183469345
947.0, 0.0650251048472885
948.0, 0.08372741256919185
949.0, 0.10174001820062857
950.0, 0.11872267059944205
951.0, 0.1416615779580103
952.0, 0.1555721666677925
953.0, 0.1812942614972675
954.0, 0.2096135180339381
955.0, 0.23423962635571913
956.0, 0.26686049706088655
957.0, 0.3069785665596554
958.0, 0.33141600912078295
959.0, 0.3698754654901721
960.0, 0.41040197698566055
961.0, 0.4449678069074518
962.0, 0.4699505319963512
963.0, 0.4854717985333063
964.0, 0.4866163455353823
965.0, 0.46996537696931506
966.0, 0.44985298361449144
967.0, 0.4137878746516539
968.0, 0.38447377662711124
969.0, 0.36296247152874495
970.0, 0.3507877072166246
971.0, 0.34772300646307663
972.0, 0.35381475650139077
973.0, 0.36647504382075907
974.0, 0.3789730851055145
975.0, 0.4054765841488694
976.0, 0.42779077985429187
977.0, 0.44928149647480603
978.0, 0.4594666121589991
979.0, 0.46815618731154895
980.0, 0.46874028816769897
981.0, 0.44340252901394933
982.0, 0.4086836674859214
983.0, 0.39308730336927605
984.0, 0.3761377507107074
985.0, 0.34445767255164145
986.0, 0.3361567694931971
987.0, 0.3366181821189739
988.0, 0.33443098576717095
989.0, 0.33609618947321585
990.0, 0.34117346923633934
991.0, 0.3483793807833788
992.0, 0.3602288853152716
993.0, 0.36256365431225046
994.0, 0.3669384242936714
995.0, 0.3739583543827558
996.0, 0.37715453861104964
997.0, 0.3855517128955088
998.0, 0.40137052373425025
999.0, 0.4049797650414112
1000.0, 0.41173343809172713
1001.0, 0.4153397168838017
1002.0, 0.413465909859299
1003.0, 0.40867895534632703
1004.0, 0.3904029237246281
1005.0, 0.3614440304674688
1006.0, 0.33752933370999005
1007.0, 0.3153287215048431
1008.0, 0.2636254659060365
1009.0, 0.22739486878560733
1010.0, 0.1967655111117978
1011.0, 0.161846435351498
1012.0, 0.13143110252046747
1013.0, 0.10406511902673424
1014.0, 0.07927321582838821
1015.0, 0.06198503165825511
1016.0, 0.05224428378141353
1017.0, 0.047092354772281644
1018.0, 0.0297140495977547
1019.0, 0.030233973486387875
1020.0, 0.02822975354851222
1021.0, 0.02716041530466792
1022.0, 0.029522072685139837
1023.0, 0.03039386862590577
1024.0, 0.03019865920191925
1025.0, 0.03206199387471261
1026.0, 0.029418479377567124
1027.0, 0.03335033934187463
1028.0, 0.03153604034322836
1029.0, 0.025427038741476025
1030.0, 0.016602368447235012
1031.0, 0.013899823778793532
1032.0, 0.01219320247167137
1033.0, 0.004433076050371153
1034.0, 0.002200027296385137
1035.0, 0.005294105597303976
1036.0, 0.006191810326201404
1037.0, 0.0043595203121973266
1038.0, 0.005843069217451338
1039.0, 0.002612087082925118
1040.0, 0.0016104731214746123
1041.0, 0.005045133306803598
1042.0, 0.005207900646290745
1043.0, 0.0031585325187139116
1044.0, 0.004554000188308391
1045.0, 0.008738449922551251
1046.0, 0.011788606029258245
1047.0, 0.014123954657867654
1048.0, 0.019359796000748553
1049.0, 0.02444742583730539
1050.0, 0.02893120377633921
1051.0, 0.03456580743673639
1052.0, 0.03929991577139803
1053.0, 0.042991191619026724
1054.0, 0.04267629079806035
1055.0, 0.045242059655997216
1056.0, 0.04108169968450679
1057.0, 0.039651022702385914
1058.0, 0.03704918528151131
1059.0, 0.03543546120558409
1060.0, 0.03330999456636815
1061.0, 0.023022022306945094
1062.0, 0.01636615417427345
1063.0, 0.008483101093679021
1064.0, 0.002600674119257821
1065.0, 0.004059627451842483
1066.0, 0.0018490731380756526
1067.0, 0.00673222972479205
1068.0, 0.0028947041345379824
1069.0, 0.0035634551720052487
1070.0, 0.0015394107014624237
1071.0, 0.00848194888901721
1072.0, 0.013705542065171468
1073.0, 0.015978469440150116
1074.0, 0.021302747820507808
1075.0, 0.025658356474551516
1076.0, 0.03987155251879254
1077.0, 0.05399769314803086
1078.0, 0.06361874829579152
1079.0, 0.07474262092018796
1080.0, 0.08664319451197663
1081.0, 0.09542227327624161
1082.0, 0.09799036624619312
1083.0, 0.10046996687455585
1084.0, 0.09907570226920565
1085.0, 0.09221487323147617
1086.0, 0.08473788446541772
1087.0, 0.07273381087502372
1088.0, 0.05759289982337859
1089.0, 0.04709746768240477
1090.0, 0.04136940393823139
1091.0, 0.03729704370200899
1092.0, 0.03389415709446919
1093.0, 0.031673249208577614
1094.0, 0.02525038804368524
1095.0, 0.021977987893838296
1096.0, 0.02055703140940609
1097.0, 0.023733712769587606
1098.0, 0.027309693482164034
1099.0, 0.024342351946896972
1100.0, 0.020250867895207927
1101.0, 0.01983739708531362
1102.0, 0.03190853665124861
1103.0, 0.03251234362911591
1104.0, 0.030719183217154146
1105.0, 0.030124472282245497
1106.0, 0.027710526503147197
1107.0, 0.02703456275867222
1108.0, 0.027035102228249057
1109.0, 0.025424852331442087
1110.0, 0.02462089702891839
1111.0, 0.018850770673910763
1112.0, 0.019000605979055386
1113.0, 0.021590262446131787
1114.0, 0.012452368966330904
1115.0, 0.006612831953662357
1116.0, 0.004000674213977148
1117.0, 0.006133131666321029
1118.0, 0.01101513285512495
1119.0, 0.01092759870555795
1120.0, 0.00543936816628199
1121.0, 0.002207600374583841
1122.0, 0.007794660532571699
1123.0, 0.003158817031759234
1124.0, 0.0018963781348297383
1125.0, 0.003725686192487258
1126.0, 0.002466092045590534
1127.0, 0.002083132641168457
1128.0, 0.00206674756255886
1129.0, 0.0025755720827351477
1130.0, 0.001944143486803964
1131.0, 0.0060340158993085905
1132.0, 0.005701349366848847
1133.0, 0.006356311474564969
1134.0, 0.0018387610209998008
1135.0, 0.0016566498789771658
1136.0, 0.0040634377520453804
1137.0, 0.001370605144116853
1138.0, 0.0020923708175887385
1139.0, 0.0028712866864691595
1140.0, 0.0033005225111693948
1141.0, 0.007063906971535133
1142.0, 0.0031468155741084785
1143.0, 0.004542518340135139
1144.0, 0.0015277021710475782
1145.0, 0.0013232829632709227
1146.0, 0.0017968679229503355
1147.0, 0.0014681977832552207
1148.0, 0.0013567284100680945
1149.0, 0.00274963518158301
1150.0, 0.0024031552527190012
1151.0, 0.0016942774488999252
1152.0, 0.00280044896944544
1153.0, 0.0014982924179658167
1154.0, 0.005272879010258906
1155.0, 0.0016073138805670119
1156.0, 0.002119372683188833
1157.0, 0.003231337926390942
1158.0, 0.00485216314934609
1159.0, 0.004817436454248585
1160.0, 0.005134403018662298
1161.0, 0.0063393322473848995
1162.0, 0.007640529766381397
1163.0, 0.010055070092802
1164.0, 0.005439906567081251
1165.0, 0.0017883604505751272
1166.0, 0.0023988126985844526
1167.0, 0.005872029539711301
1168.0, 0.006782107079405225
1169.0, 0.005607647246673853
1170.0, 0.005438732618207773
1171.0, 0.006036414155789351
1172.0, 0.008555900056470826
1173.0, 0.011503719503113317
1174.0, 0.009642481072664914
1175.0, 0.008278759257482707
1176.0, 0.009160064365553111
1177.0, 0.015194120854881666
1178.0, 0.014502436231487038
1179.0, 0.008044120419596216
1180.0, 0.00853328308410467
1181.0, 0.007198381377685822
1182.0, 0.00747747304207939
1183.0, 0.0069803455008408425
1184.0, 0.0027501336813359305
1185.0, 0.005665424168864752
1186.0, 0.009522244713518358
1187.0, 0.00766118617235083
1188.0, 0.010494869206606543
1189.0, 0.0038665384090944637
1190.0, 0.010888508936407791
1191.0, 0.011550873952105689
1192.0, 0.007057627841817551
1193.0, 0.003795715235816459
1194.0, 0.005466748961087546
1195.0, 0.010280402506209159
1196.0, 0.010779632137390884
1197.0, 0.0070603732568329395
1198.0, 0.010315752085136033
1199.0, 0.008606087294750701
1200.0, 0.01070030305616561
1201.0, 0.013722877125526575
1202.0, 0.009477644705948576
1203.0, 0.007130848017770423
1204.0, 0.006043175106582501
1205.0, 0.0038938797272673248
1206.0, 0.0036514139021593265
1207.0, 0.004883142959641913
1208.0, 0.005363730205564153
1209.0, 0.008938808765498116
1210.0, 0.014125460073797723
1211.0, 0.009714058084508835
1212.0, 0.0075047385048941
1213.0, 0.006609489392232016
1214.0, 0.006466821015078964
1215.0, 0.012112675128561826
1216.0, 0.004284051064839388
1217.0, 0.002590361847512548
1218.0, 0.007975487427436615
1219.0, 0.007817484124143953
1220.0, 0.004742921068037093
1221.0, 0.004504065581270555
1222.0, 0.0015623295459975442
1223.0, 0.005735050069125489
1224.0, 0.010388761061258769
1225.0, 0.004838169836370948
1226.0, 0.007588100488945114
1227.0, 0.006446648068522577
1228.0, 0.009108202695986424
1229.0, 0.0064584809617125654
1230.0, 0.002285475321992157
1231.0, 0.0023129010271597363
1232.0, 0.003450165708886535
1233.0, 0.001042997152887323
1234.0, 0.001713313127967705
1235.0, 0.005607451551869782
1236.0, 0.005150476566447424
1237.0, 0.006126245129790828
1238.0, 0.0029995416409878107
1239.0, 0.002906921963700362
1240.0, 0.004290897297466517
1241.0, 0.001980600066258868
1242.0, 0.0018208909722731551
1243.0, 0.007060351710886919
1244.0, 0.007436432418471716
1245.0, 0.004855334740370683
1246.0, 0.005651060549428507
1247.0, 0.0012784119343511185
1248.0, 0.004990031368705184
1249.0, 0.0015678648855213641
1250.0, 0.006661770059956734
1251.0, 0.008228608733945283
1252.0, 0.007176638504647011
1253.0, 0.0057894173354100615
1254.0, 0.00418034192031614
1255.0, 0.004738203611976571
1256.0, 0.0039428051011623595
1257.0, 0.0030272736362500817
1258.0, 0.004482315964088337
1259.0, 0.005621695153421664
1260.0, 0.007205243951774023
1261.0, 0.010059472270065052
1262.0, 0.004759291054571861
1263.0, 0.0062462144823657055
1264.0, 0.0018146834971513911
1265.0, 0.005661732318386588
1266.0, 0.00873111102537034
1267.0, 0.0029374658175843286
1268.0, 0.0018488066938844268
1269.0, 0.004654637937422446
1270.0, 0.006695039468616267
1271.0, 0.006455286632593505
1272.0, 0.004898837001391289
1273.0, 0.004811887343288247
1274.0, 0.0052691125239201315
1275.0, 0.0055927455659681895
1276.0, 0.006384901822492233
1277.0, 0.007979206592163585
1278.0, 0.003084465912082047
1279.0, 0.004881327703685077
1280.0, 0.0063018966151306725
1281.0, 0.008392369027071673
1282.0, 0.006877753920181113
1283.0, 0.008645201503292194
1284.0, 0.00626731264372112
1285.0, 0.005747442565737126
1286.0, 0.008553132993279278
1287.0, 0.005229045505500129
1288.0, 0.005190857168513592
1289.0, 0.006355857860390738
1290.0, 0.0101017527009566
1291.0, 0.0016618259978716503
1292.0, 0.0043930742882906165
1293.0, 0.0071536078532296425
1294.0, 0.0027382617849482757
1295.0, 0.0011931758546120906
1296.0, 0.004557567586557164
1297.0, 0.003873084993540516
1298.0, 0.0032414620113615468
1299.0, 0.005165618824624295
1300.0, 0.007051390803366362
1301.0, 0.006886350439454558
1302.0, 0.0025928757168817915
1303.0, 0.0008881995284380393
1304, 0.0
1305, 0.0
1306, 0.0
1307, 0.0
1308, 0.0
1309, 0.0
1310, 0.0
1311, 0.0
1312, 0.0
1313, 0.0
1314, 0.0
1315, 0.0
1316, 0.0
1317, 0.0
1318, 0.0
1319, 0.0
1320, 0.0
1321, 0.0
1322, 0.0
1323, 0.0
1324, 0.0
1325, 0.0
1326, 0.0
1327, 0.0
1328, 0.0
1329, 0.0
1330, 0.0
1331, 0.0
1332, 0.0
1333, 0.0
1334, 0.0
1335, 0.0
1336, 0.0
1337, 0.0
1338, 0.0
1339, 0.0
1340, 0.0
1341, 0.0
1342, 0.0
1343, 0.0
1344, 0.0
1345, 0.0
1346, 0.0
1347, 0.0
1348, 0.0
1349, 0.0
1350, 0.0
1351, 0.0
1352, 0.0
1353, 0.0
1354, 0.0
1355, 0.0
1356, 0.0
1357, 0.0
1358, 0.0
1359, 0.0
1360, 0.0
1361, 0.0
1362, 0.0
1363, 0.0
1364, 0.0
1365, 0.0
1366, 0.0
1367, 0.0
1368, 0.0
1369, 0.0
1370, 0.0
1371, 0.0
1372, 0.0
1373, 0.0
1374, 0.0
1375, 0.0
1376, 0.0
1377, 0.0
1378, 0.0
1379, 0.0
1380, 0.0
1381, 0.0
1382, 0.0
1383, 0.0
1384, 0.0
1385, 0.0
1386, 0.0
1387, 0.0
1388, 0.0
1389, 0.0
1390, 0.0
1391, 0.0
1392, 0.0
1393, 0.0
1394, 0.0
1395, 0.0
1396, 0.0
1397, 0.0
1398, 0.0
1399, 0.0
1400, 0.0
1401, 0.0
1402, 0.0
1403, 0.0
1404, 0.0
1405, 0.0
1406, 0.0
1407, 0.0
1408, 0.0
1409, 0.0
1410, 0.0
1411, 0.0
1412, 0.0
1413, 0.0
1414, 0.0
1415, 0.0
1416, 0.0
1417, 0.0
1418, 0.0
1419, 0.0
1420, 0.0
1421, 0.0
1422, 0.0
1423, 0.0
1424, 0.0
1425, 0.0
1426, 0.0
1427, 0.0
1428, 0.0
1429, 0.0
1430, 0.0
1431, 0.0
1432, 0.0
1433, 0.0
1434, 0.0
1435, 0.0
1436, 0.0
1437, 0.0
1438, 0.0
1439, 0.0
1440, 0.0
1441, 0.0
1442, 0.0
1443, 0.0
1444, 0.0
1445, 0.0
1446, 0.0
1447, 0.0
1448, 0.0
1449, 0.0
1450, 0.0
1451, 0.0
1452, 0.0
1453, 0.0
1454, 0.0
1455, 0.0
1456, 0.0
1457, 0.0
1458, 0.0
1459, 0.0
1460, 0.0
1461, 0.0
1462, 0.0
1463, 0.0
1464, 0.0
1465, 0.0
1466, 0.0
1467, 0.0
1468, 0.0
1469, 0.0
1470, 0.0
1471, 0.0
1472, 0.0
1473, 0.0
1474, 0.0
1475, 0.0
1476, 0.0
1477, 0.0
1478, 0.0
1479, 0.0
1480, 0.0
1481, 0.0
1482, 0.0
1483, 0.0
1484, 0.0
1485, 0.0
1486, 0.0
1487, 0.0
1488, 0.0
1489, 0.0
1490, 0.0
1491, 0.0
1492, 0.0
1493, 0.0
1494, 0.0
1495, 0.0
1496, 0.0
1497, 0.0
1498, 0.0
1499, 0.0
1500, 0.0
1501, 0.0
1502, 0.0
1503, 0.0
1504, 0.0
1505, 0.0
1506, 0.0
1507, 0.0
1508, 0.0
1509, 0.0
1510, 0.0
1511, 0.0
1512, 0.0
1513, 0.0
1514, 0.0
1515, 0.0
1516, 0.0
1517, 0.0
1518, 0.0
1519, 0.0
1520, 0.0
1521, 0.0
1522, 0.0
1523, 0.0
1524, 0.0
1525, 0.0
1526, 0.0
1527, 0.0
1528, 0.0
1529, 0.0
1530, 0.0
1531, 0.0
1532, 0.0
1533, 0.0
1534, 0.0
1535, 0.0
1536, 0.0
1537, 0.0
1538, 0.0
1539, 0.0
1540, 0.0
1541, 0.0
1542, 0.0
1543, 0.0
1544, 0.0
1545, 0.0
1546, 0.0
1547, 0.0
1548, 0.0
1549, 0.0
1550, 0.0
1551, 0.0
1552, 0.0
1553, 0.0
1554, 0.0
1555, 0.0
1556, 0.0
1557, 0.0
1558, 0.0
1559, 0.0
1560, 0.0
1561, 0.0
1562, 0.0
1563, 0.0
1564, 0.0
1565, 0.0
1566, 0.0
1567, 0.0
1568, 0.0
1569, 0.0
1570, 0.0
1571, 0.0
1572, 0.0
1573, 0.0
1574, 0.0
1575, 0.0
1576, 0.0
1577, 0.0
1578, 0.0
1579, 0.0
1580, 0.0
1581, 0.0
1582, 0.0
1583, 0.0
1584, 0.0
1585, 0.0
1586, 0.0
1587, 0.0
1588, 0.0
1589, 0.0
1590, 0.0
1591, 0.0
1592, 0.0
1593, 0.0
1594, 0.0
1595, 0.0
1596, 0.0
1597, 0.0
1598, 0.0
1599, 0.0
