30, 0.0
31, 0.0
32, 0.0
33, 0.0
34, 0.0
35, 0.0
36, 0.0
37, 0.0
38, 0.0
39, 0.0
40, 0.0
41, 0.0
42, 0.0
43, 0.0
44, 0.0
45, 0.0
46, 0.0
47, 0.0
48, 0.0
49, 0.0
50, 0.0
51, 0.0
52, 0.0
53, 0.0
54, 0.0
55, 0.0
56, 0.0
57, 0.0
58, 0.0
59, 0.0
60, 0.0
61, 0.0
62, 0.0
63, 0.0
64, 0.0
65, 0.0
66, 0.0
67, 0.0
68, 0.0
69, 0.0
70, 0.0
71, 0.0
72, 0.0
73, 0.0
74, 0.0
75, 0.0
76, 0.0
77, 0.0
78, 0.0
79, 0.0
80, 0.0
81, 0.0
82, 0.0
83, 0.0
84, 0.0
85, 0.0
86, 0.0
87, 0.0
88, 0.0
89, 0.0
90, 0.0
91, 0.0
92.0, 0.00017247238742213193
93.0, 0.001993656605837722
94.0, 0.007142306896068759
95.0, 0.012395097940092758
96.0, 0.022184532496533422
97.0, 0.03512034693860549
98.0, 0.043284192635401175
99.0, 0.05122157181387289
100.0, 0.06287898497618472
101.0, 0.08140318556366712
102.0, 0.12868123871305312
103.0, 0.1271266854921959
104.0, 0.09780943296080952
105.0, 0.11213373301257647
106.0, 0.1431721489229784
107.0, 0.18188325627449922
108.0, 0.22563890399827835
109.0, 0.3092617707023383
110.0, 0.37590937995963414
111.0, 0.42442287973833903
112.0, 0.447092360615824
113.0, 0.42007599731779266
114.0, 0.3603178408862623
115.0, 0.27334935917840203
116.0, 0.21569009767091654
117.0, 0.16175519065150892
118.0, 0.11710807012766775
119.0, 0.09230727961839084
120.0, 0.060159244534708084
121.0, 0.036206563905156225
122.0, 0.022154245005369555
123.0, 0.01170558235777715
124.0, 0.008591108653926961
125.0, 0.009375169193970495
126.0, 0.012154633324857078
127.0, 0.005774473776033713
128.0, 0.0049591018788689
129.0, 0.00790402169644317
130.0, 0.0038264850427757774
131.0, 0.0015781350397576
132.0, 0.002009741554519323
133.0, 0.005859358981593591
134.0, 0.01543323975351915
135.0, 0.025630892900992817
136.0, 0.037696434127859293
137.0, 0.054919078193651154
138.0, 0.09805052342138923
139.0, 0.12967755924620936
140.0, 0.14191508917185866
141.0, 0.1672927898144636
142.0, 0.17377199373346225
143.0, 0.16538519345238178
144.0, 0.14274666650765197
145.0, 0.13476377678882223
146.0, 0.12602331914980894
147.0, 0.11807460653781623
148.0, 0.12867299918636252
149.0, 0.13843639809918937
150.0, 0.15108824023619755
151.0, 0.16924940234055452
152.0, 0.16491415401334977
153.0, 0.14761256963202474
154.0, 0.12180428668619066
155.0, 0.09581758328163746
156.0, 0.07634424453339608
157.0, 0.06241813736458117
158.0, 0.053742367977229574
159.0, 0.04518231775595915
160.0, 0.042892720180413145
161.0, 0.04458213325496657
162.0, 0.048663785945214894
163.0, 0.05471650759134538
164.0, 0.061528476608807475
165.0, 0.07033323457631757
166.0, 0.08777333476098466
167.0, 0.10133316671165649
168.0, 0.12187527978022437
169.0, 0.15559252202014884
170.0, 0.19264082479220387
171.0, 0.23266477790662587
172.0, 0.26830387397051564
173.0, 0.2841740280747099
174.0, 0.2904114190823723
175.0, 0.27403756877542435
176.0, 0.23512537874676454
177.0, 0.20097298856870519
178.0, 0.16442687548849294
179.0, 0.12761085628997876
180.0, 0.09213777588672571
181.0, 0.07735421987609872
182.0, 0.052743987880595034
183.0, 0.025755412714856877
184.0, 0.021414432819055643
185.0, 0.010906000844471074
186.0, 0.006480815003712746
187.0, 0.010835288777862013
188.0, 0.0026826231944316816
189.0, 0.0035708365631851443
190.0, 0.010025506180068429
191.0, 0.01955749679364782
192.0, 0.03995390515852807
193.0, 0.06758225886481704
194.0, 0.09815013549836732
195.0, 0.11725702525203309
196.0, 0.1301337847933075
197.0, 0.12995896009967584
198.0, 0.11348227283218972
199.0, 0.0928952556680981
200.0, 0.08773478756693619
201.0, 0.0919271252495759
202.0, 0.09968114310380571
203.0, 0.13204815235535533
204.0, 0.169581328949977
205.0, 0.21239087902201656
206.0, 0.2713132429513376
207.0, 0.3129070276197056
208.0, 0.34474499861542124
209.0, 0.36897742908077913
210.0, 0.3780747811300738
211.0, 0.3646391776996853
212.0, 0.34264411249037185
213.0, 0.3295166768219964
214.0, 0.29655202762530203
215.0, 0.26179657050161903
216.0, 0.2275001602700972
217.0, 0.19405534379410624
218.0, 0.16060757140065973
219.0, 0.13748048385173492
220.0, 0.12878448568785858
221.0, 0.10045980668712516
222.0, 0.08249894790982026
223.0, 0.06712575553230307
224.0, 0.044824517670248934
225.0, 0.03359953310357036
226.0, 0.021420565407791498
227.0, 0.008747897364279346
228.0, 0.0021074602149160145
229.0, 0.0033392749322502264
230.0, 0.010238666553800608
231.0, 0.021584758959941067
232.0, 0.02322789543937321
233.0, 0.020716145891864046
234.0, 0.01757689855454807
235.0, 0.017420761424615513
236.0, 0.016219089814594558
237.0, 0.013064476167387795
238.0, 0.009066918059200048
239.0, 0.007548917520893904
240.0, 0.0037257783083652044
241.0, 0.005744863477185663
242.0, 0.01497105222467043
243.0, 0.02009254093784063
244.0, 0.03183590836269563
245.0, 0.04231425740387912
246.0, 0.045355072703530605
247.0, 0.052166850942742544
248.0, 0.06080789432450382
249.0, 0.06662813906191628
250.0, 0.05974054633704206
251.0, 0.07031159346001051
252.0, 0.0797434814050969
253.0, 0.08589776412058223
254.0, 0.09557953363380454
255.0, 0.1114562969319135
256.0, 0.12666453626122282
257.0, 0.137851540617426
258.0, 0.1472366002546766
259.0, 0.13502318950597145
260.0, 0.11496621544647226
261.0, 0.10286920157501309
262.0, 0.10298503246776725
263.0, 0.10073348208428239
264.0, 0.09923500049031918
265.0, 0.11209822459705532
266.0, 0.1179050354353605
267.0, 0.132320121296894
268.0, 0.15878663124334208
269.0, 0.18662892862795064
270.0, 0.20972391109549374
271.0, 0.23841413984622753
272.0, 0.28016393221145364
273.0, 0.3106768044548193
274.0, 0.3542952656813298
275.0, 0.3928578166257713
276.0, 0.3962483395496347
277.0, 0.40903360230570857
278.0, 0.41018776439519244
279.0, 0.3968611186005606
280.0, 0.36638486504199336
281.0, 0.34090642253178965
282.0, 0.3040151615433936
283.0, 0.25446718121147466
284.0, 0.2403424688997467
285.0, 0.21707537025700965
286.0, 0.19671894988945704
287.0, 0.18825911120294841
288.0, 0.18508649222997775
289.0, 0.17715317955752383
290.0, 0.1724489396531941
291.0, 0.18451506770070786
292.0, 0.17323211759854232
293.0, 0.17745328621444478
294.0, 0.19407694285438742
295.0, 0.1974928596375641
296.0, 0.20734610346112506
297.0, 0.22354875198893287
298.0, 0.24314176507872495
299.0, 0.23925998723390923
300.0, 0.2582882668565235
301.0, 0.27752856442738333
302.0, 0.2835055822549448
303.0, 0.3171985419824944
304.0, 0.3515396037187978
305.0, 0.3852875353490628
306.0, 0.41674754205004866
307.0, 0.4658713970269384
308.0, 0.4830917322117151
309.0, 0.47565230041250267
310.0, 0.4689252678496458
311.0, 0.4189309076092607
312.0, 0.36508652442292633
313.0, 0.31857266627178316
314.0, 0.29526483690027155
315.0, 0.26327204066937715
316.0, 0.2512082924695927
317.0, 0.2696420721257664
318.0, 0.2742017214936464
319.0, 0.2969766526278216
320.0, 0.3188982640387354
321.0, 0.32430341638117244
322.0, 0.3113991141986361
323.0, 0.3003535585376001
324.0, 0.27973228198541483
325.0, 0.2299458265946796
326.0, 0.21668050552010581
327.0, 0.19747949514516414
328.0, 0.1768406298089682
329.0, 0.18026585868811223
330.0, 0.18166314112995127
331.0, 0.17293939412479722
332.0, 0.15589350384863374
333.0, 0.1513637367878345
334.0, 0.13245087208132178
335.0, 0.1146379715258693
336.0, 0.10480216484100442
337.0, 0.10581708483743789
338.0, 0.10913541721628602
339.0, 0.11885671225573102
340.0, 0.1385036002920548
341.0, 0.15958626822638292
342.0, 0.20094056676421415
343.0, 0.24776379185162628
344.0, 0.2809127340851828
345.0, 0.31959205445927075
346.0, 0.3411961030362181
347.0, 0.3428421273432832
348.0, 0.3194060113973677
349.0, 0.3241224370080982
350.0, 0.32019644542702114
351.0, 0.31172215967374967
352.0, 0.3366463064264205
353.0, 0.3359588438756718
354.0, 0.32293434427850953
355.0, 0.30066359259617886
356.0, 0.26552806548393465
357.0, 0.2165407280733437
358.0, 0.1736953707931955
359.0, 0.14557055426196477
360.0, 0.11028842086441729
361.0, 0.0874430451564198
362.0, 0.0714180686443313
363.0, 0.05838279883627048
364.0, 0.04722262436633374
365.0, 0.03952887102032581
366.0, 0.032389341241058946
367.0, 0.022273349192069098
368.0, 0.02056888304337734
369.0, 0.017645537220834274
370.0, 0.014194497012264315
371.0, 0.012401330625284408
372.0, 0.02025773486212326
373.0, 0.021641022005711528
374.0, 0.018758922790452458
375.0, 0.02309707161894849
376.0, 0.02024944625954634
377.0, 0.02024403215099571
378.0, 0.024215451773035485
379.0, 0.028115179825567084
380.0, 0.026811570035011924
381.0, 0.03007161700361073
382.0, 0.03981774317691272
383.0, 0.04697915248139364
384.0, 0.05787348226727622
385.0, 0.07577647923802741
386.0, 0.10212591327763676
387.0, 0.13157456432811157
388.0, 0.17157696117149646
389.0, 0.2070207600744549
390.0, 0.22823190348604366
391.0, 0.25784462098723915
392.0, 0.2652000752065234
393.0, 0.256419974098178
394.0, 0.2362548370558436
395.0, 0.21131409152587186
396.0, 0.18269116846885794
397.0, 0.15382624259310423
398.0, 0.12919234274578642
399.0, 0.10128250948138681
400.0, 0.08423126781885021
401.0, 0.07354331751821862
402.0, 0.06056043547561267
403.0, 0.05410146868275104
404.0, 0.05000850864093882
405.0, 0.04603050243329062
406.0, 0.037897637148011726
407.0, 0.04229334145233755
408.0, 0.0448518954995729
409.0, 0.046637088744682864
410.0, 0.05774381136002161
411.0, 0.07266531034209285
412.0, 0.08917693686703401
413.0, 0.11134187430950876
414.0, 0.1577798618215586
415.0, 0.2138373476674103
416.0, 0.29044208499116453
417.0, 0.38425980506931734
418.0, 0.4592699811282325
419.0, 0.4871683829042282
420.0, 0.49098527155233057
421.0, 0.47310818353103157
422.0, 0.3951523964004954
423.0, 0.35078992183007973
424.0, 0.31951752837092806
425.0, 0.2946488276371683
426.0, 0.29704595447947074
427.0, 0.31149400943389466
428.0, 0.32174973088463216
429.0, 0.32130113188393494
430.0, 0.34752513825110914
431.0, 0.3368276068477516
432.0, 0.3167439588551542
433.0, 0.30372722408421265
434.0, 0.2697569330422207
435.0, 0.2322740296452308
436.0, 0.19627634101104224
437.0, 0.16543469702927288
438.0, 0.12903932590648923
439.0, 0.11012767788240607
440.0, 0.10010847647984204
441.0, 0.09156000680926427
442.0, 0.09618141284915625
443.0, 0.1095470316340933
444.0, 0.12288999845931509
445.0, 0.12716107391915124
446.0, 0.12466246372881828
447.0, 0.12959252899758467
448.0, 0.1271916803655942
449.0, 0.09987055495215988
450.0, 0.08067057019787527
451.0, 0.057911019656178876
452.0, 0.03807512810558467
453.0, 0.029960696392109347
454.0, 0.02008575135902852
455.0, 0.011725447640434037
456.0, 0.006340471121305474
457.0, 0.005923792885054998
458.0, 0.0026098766478255277
459.0, 0.001267490157741336
460.0, 0.0032919731177321605
461.0, 0.01055928846288726
462.0, 0.00831721967022199
463.0, 0.005441705865975545
464.0, 0.006066919736301518
465.0, 0.016043572155111284
466.0, 0.013957986531605942
467.0, 0.01253861863974447
468.0, 0.009850925796486233
469.0, 0.001293219355247315
470.0, 0.003353575677513275
471.0, 0.0036607800337430663
472.0, 0.003137117926944471
473.0, 0.004769465474528767
474.0, 0.009960942986903016
475.0, 0.017275118396264763
476.0, 0.02615363989656166
477.0, 0.03591861473240949
478.0, 0.04758343246161371
479.0, 0.06596644159463289
480.0, 0.08808776073457553
481.0, 0.10853520801697086
482.0, 0.1526358405023118
483.0, 0.18843001130789902
484.0, 0.22326452924252657
485.0, 0.27289719994430256
486.0, 0.2861169711629372
487.0, 0.27558121674095226
488.0, 0.2497875269676496
489.0, 0.22008319590365738
490.0, 0.15994927395509173
491.0, 0.11876933657160688
492.0, 0.09162830606326143
493.0, 0.06722526158862081
494.0, 0.053002808388377294
495.0, 0.04666291066136095
496.0, 0.043447712343739356
497.0, 0.03697985608121546
498.0, 0.04155963388834607
499.0, 0.04337988784675129
500.0, 0.04641528343046508
501.0, 0.05652662129069472
502.0, 0.06950110107488476
503.0, 0.07557013049352289
504.0, 0.0846542467012107
505.0, 0.10869159757684817
506.0, 0.11424328565872592
507.0, 0.12443750394665969
508.0, 0.14055408360896718
509.0, 0.16352148558537544
510.0, 0.15815794847846742
511.0, 0.1683202262114929
512.0, 0.17812015708336607
513.0, 0.17304024769247756
514.0, 0.17506779140769677
515.0, 0.1633794169696347
516.0, 0.14226848730314134
517.0, 0.11597304750233546
518.0, 0.10405157589664131
519.0, 0.08438989208284886
520.0, 0.06583273578212864
521.0, 0.054074531281876934
522.0, 0.04066034229742795
523.0, 0.03145034035552884
524.0, 0.026461364126966282
525.0, 0.02493477079873973
526.0, 0.017920599043427528
527.0, 0.014347521941696936
528.0, 0.011262973198389755
529.0, 0.007957743743553628
530.0, 0.010182088169808994
531.0, 0.013135989273439348
532.0, 0.013961773625592918
533.0, 0.013166799295018895
534.0, 0.020476370068306576
535.0, 0.023603981905115638
536.0, 0.024730496572472067
537.0, 0.02584944515251358
538.0, 0.03268081174902149
539.0, 0.03151390296073312
540.0, 0.03434583849806878
541.0, 0.04112578040560795
542.0, 0.04153282168358393
543.0, 0.05049481488863146
544.0, 0.05732403345467355
545.0, 0.06072412171581125
546.0, 0.06248086974178151
547.0, 0.07410721828560492
548.0, 0.07455356602497126
549.0, 0.06903520577398103
550.0, 0.07315386130235815
551.0, 0.061173741027481604
552.0, 0.05354145912112752
553.0, 0.050424203167741315
554.0, 0.04956237623624047
555.0, 0.05115775461902701
556.0, 0.05374791462835614
557.0, 0.056755397620911315
558.0, 0.05958895538431005
559.0, 0.06277905254850562
560.0, 0.07553668449569108
561.0, 0.08409339098860677
562.0, 0.07800979224483474
563.0, 0.08620339446605092
564.0, 0.0845840289702556
565.0, 0.08293208175141174
566.0, 0.0870915136605373
567.0, 0.09414957713915384
568.0, 0.09236000328436446
569.0, 0.09572266751243687
570.0, 0.10830144575201472
571.0, 0.11659114743806935
572.0, 0.13054558417940046
573.0, 0.1458513440184987
574.0, 0.15796474768889898
575.0, 0.15457517414407082
576.0, 0.15672841520787306
577.0, 0.15197661823725034
578.0, 0.14141429279782192
579.0, 0.13441711599010642
580.0, 0.13288109400821174
581.0, 0.12332459925043958
582.0, 0.11560303071035723
583.0, 0.12977696807530129
584.0, 0.12825668150551264
585.0, 0.1405607372107967
586.0, 0.15915292333871725
587.0, 0.17307086351226772
588.0, 0.18672432402889322
589.0, 0.20568848816861857
590.0, 0.21371758968220997
591.0, 0.19961959398607082
592.0, 0.19691417341184042
593.0, 0.180097344764907
594.0, 0.15475193425615072
595.0, 0.12669144677690924
596.0, 0.11580016233095408
597.0, 0.08944943277683769
598.0, 0.06787925907753328
599.0, 0.05638849859787334
600.0, 0.047687860988918696
601.0, 0.03568529600741837
602.0, 0.030688898062054184
603.0, 0.029161561224427868
604.0, 0.017103017369432264
605.0, 0.021180627122492583
606.0, 0.02240740435765468
607.0, 0.01935173971662366
608.0, 0.01301895965479558
609.0, 0.02124736833210261
610.0, 0.02152981636779673
611.0, 0.020388188475242593
612.0, 0.024553681576335168
613.0, 0.02433769494623389
614.0, 0.02760354817085671
615.0, 0.033724372114783546
616.0, 0.04058088966597151
617.0, 0.034295377007646226
618.0, 0.038197926001034076
619.0, 0.04209819688774185
620.0, 0.04217052560537586
621.0, 0.03812225474812099
622.0, 0.03612228211346827
623.0, 0.029365436780555032
624.0, 0.021369884824776607
625.0, 0.02332530011082347
626.0, 0.01339554123712062
627.0, 0.0050893692047839865
628.0, 0.0012986342367574454
629.0, 0.004102002668800112
630.0, 0.008589949507780255
631.0, 0.0069791135598190075
632.0, 0.00421135635822945
633.0, 0.004177501070424994
634.0, 0.004029172699016743
635.0, 0.00172344582214195
636.0, 0.00015823875234884205
637.0, 0.002063478284246559
638.0, 0.014425723235870668
639.0, 0.017129627184596447
640.0, 0.019546567533040182
641.0, 0.024105740845901336
642.0, 0.031010200283305374
643.0, 0.0335620346880113
644.0, 0.03734058644042421
645.0, 0.040864030210456107
646.0, 0.0411594588111898
647.0, 0.03955041951773947
648.0, 0.036112401570103383
649.0, 0.02934460146433844
650.0, 0.019185360694193947
651.0, 0.01921078860258949
652.0, 0.01230494824040703
653.0, 0.005191433986206202
654.0, 0.001071474204651694
655.0, 0.0007871600651349553
656.0, 0.004966829333808784
657.0, 0.006273156643081417
658.0, 0.0061018983456212995
659.0, 0.01135922341826055
660.0, 0.005736997797880646
661.0, 0.0021226045999128062
662.0, 0.002965964720935322
663.0, 0.009445384866477228
664.0, 0.0032737857861750074
665.0, 0.0009571305328832509
666.0, 0.0014771766159670978
667.0, 0.004227781848440854
668.0, 0.010192539942183793
669.0, 0.014260553022775312
670.0, 0.022972318028851392
671.0, 0.03636679670803798
672.0, 0.047807194840357864
673.0, 0.0633629862812759
674.0, 0.08162904085413007
675.0, 0.10065713333752825
676.0, 0.11774380206147861
677.0, 0.1464256860702714
678.0, 0.15444870598033394
679.0, 0.15636227606651878
680.0, 0.16230788689797226
681.0, 0.14657040105176153
682.0, 0.12573855991774627
683.0, 0.11122457122501064
684.0, 0.10131033092557865
685.0, 0.07270525724489287
686.0, 0.06628972223444339
687.0, 0.05771513047557146
688.0, 0.04615329106198095
689.0, 0.037269214609695754
690.0, 0.04160752187981136
691.0, 0.03528267160779213
692.0, 0.03145277447881356
693.0, 0.040395128330480964
694.0, 0.042482363640449945
695.0, 0.04229852168613051
696.0, 0.0479921131022759
697.0, 0.0581265002738244
698.0, 0.0549594771422429
699.0, 0.07137790939769359
700.0, 0.08260424689953186
701.0, 0.09221545522742973
702.0, 0.11274151345594378
703.0, 0.15075488700176512
704.0, 0.1690619167141971
705.0, 0.19195943979339708
706.0, 0.23765909185291356
707.0, 0.2878843036692377
708.0, 0.3370134821225284
709.0, 0.4125802786243151
710.0, 0.5100756697679426
711.0, 0.5841582576452377
712.0, 0.6906064106207837
713.0, 0.7992254165935864
714.0, 0.8881533179495902
715.0, 0.9345247205891558
716.0, 0.9853595648522332
717.0, 0.939568807096009
718.0, 0.855186357347788
719.0, 0.7710065329520192
720.0, 0.6832727897186104
721.0, 0.5575932558066314
722.0, 0.47131527655162975
723.0, 0.4166172514925574
724.0, 0.32774184376881116
725.0, 0.27817355533518223
726.0, 0.2385882320139595
727.0, 0.20196552305192642
728.0, 0.1648253694791537
729.0, 0.1548374447045848
730.0, 0.1301993320933003
731.0, 0.10775937023167104
732.0, 0.09485246003505565
733.0, 0.09058575549220188
734.0, 0.07456851691755953
735.0, 0.06554083112501116
736.0, 0.06122896610345215
737.0, 0.053827624083982166
738.0, 0.0475867864801355
739.0, 0.04540638290216681
740.0, 0.04206060794840164
741.0, 0.035894144194147985
742.0, 0.03788647448378463
743.0, 0.03421543531516773
744.0, 0.03317276753708525
745.0, 0.03352085327336624
746.0, 0.0283430202184141
747.0, 0.02739472209817337
748.0, 0.028805894969122517
749.0, 0.02883444337831032
750.0, 0.025021560057213517
751.0, 0.024412983175733025
752.0, 0.02614960776783044
753.0, 0.024941859915716885
754.0, 0.02355263269013889
755.0, 0.034603143161930125
756.0, 0.034157738441816354
757.0, 0.03755808125368203
758.0, 0.04447164360982747
759.0, 0.05240848695385732
760.0, 0.05430254751639005
761.0, 0.07270848258344709
762.0, 0.08769055089106689
763.0, 0.0943246692333979
764.0, 0.10599435099125536
765.0, 0.1282300793131024
766.0, 0.13710814406094296
767.0, 0.14218487849453007
768.0, 0.15879493634955735
769.0, 0.1638395628731804
770.0, 0.15358983374395935
771.0, 0.14915704185680792
772.0, 0.15278022703474908
773.0, 0.13067731720841055
774.0, 0.1214856351236527
775.0, 0.10805803226224871
776.0, 0.09087493444124065
777.0, 0.07475364155659565
778.0, 0.07396407852792315
779.0, 0.06163498471852879
780.0, 0.05153893560936104
781.0, 0.04878138443769648
782.0, 0.04277101855178043
783.0, 0.0328784087973131
784.0, 0.0306542178308785
785.0, 0.02879309716633977
786.0, 0.014926364357219968
787.0, 0.020613816929936787
788.0, 0.01712778255770536
789.0, 0.01207932515517589
790.0, 0.009671686935455852
791.0, 0.009568313088406574
792.0, 0.0035261517968644086
793.0, 0.000465802518196183
794.0, 0.00033768042590677375
795.0, 0.0009956726610804991
796.0, 0.003576354194768998
797.0, 0.0027016249029631727
798.0, 0.0015545529080522513
799.0, 0.0015269420739965687
800.0, 0.0015932297206760577
801.0, 0.000534545837505168
802.0, 0.0020314274106991207
803.0, 0.003956057035180868
804.0, 0.0032366787160443334
805.0, 0.0035118742094306502
806.0, 0.0017802976082202794
807.0, 0.0024265680787460492
808.0, 0.006575095896074429
809.0, 0.011614860903413756
810.0, 0.0183844206749691
811.0, 0.021035918603346682
812.0, 0.022801502203877676
813.0, 0.02737222870932174
814.0, 0.03003410695790192
815.0, 0.022402054082263322
816.0, 0.022265709839133833
817.0, 0.027056459980908144
818.0, 0.014921785444470082
819.0, 0.004176103984483009
820.0, 0.004810263898973267
821.0, 0.008812850837163806
822.0, 0.009062661903983643
823.0, 0.008055892129821147
824.0, 0.007499849193281252
825.0, 0.007832492023223066
826.0, 0.007318258430386073
827.0, 0.002701246644071152
828.0, 0.005958856326446519
829.0, 0.0053221968623873225
830.0, 0.005014712880122394
831.0, 0.006711151019385072
832.0, 0.005267126649407273
833.0, 0.004933803198528016
834.0, 0.005030494614019517
835.0, 0.004415580525886846
836.0, 0.0020019036152136792
837.0, 0.0021938177564150953
838.0, 0.0013485116057652875
839.0, 0.0014504961403023556
840.0, 0.002503125995255892
841.0, 0.002079428863878223
842.0, 0.0031848583040833033
843.0, 0.005141850139617222
844.0, 0.005839689981461358
845.0, 0.005093545362675272
846.0, 0.01542104996027735
847.0, 0.016835204694601563
848.0, 0.016122552740193852
849.0, 0.017792133323645487
850.0, 0.02631394536240336
851.0, 0.02259952504922934
852.0, 0.02884434861667487
853.0, 0.03472191718763231
854.0, 0.034450703107234866
855.0, 0.029451384039503373
856.0, 0.032279227308049586
857.0, 0.029708548896183334
858.0, 0.029084873653305796
859.0, 0.03829507306701838
860.0, 0.036836433361257075
861.0, 0.03304992838791997
862.0, 0.03629994886910319
863.0, 0.041907154158648645
864.0, 0.03436418855693777
865.0, 0.041424535258562
866.0, 0.04100750098207738
867.0, 0.037841629917084806
868.0, 0.03779600562001921
869.0, 0.05079255076622947
870.0, 0.045542790614128456
871.0, 0.04146608190769996
872.0, 0.04271628992693525
873.0, 0.04901216884552204
874.0, 0.04264592061522084
875.0, 0.04930675701237453
876.0, 0.052308090827979596
877.0, 0.04903297044286915
878.0, 0.04548546280334519
879.0, 0.05834850682914058
880.0, 0.05547143452591654
881.0, 0.05429600186798804
882.0, 0.06165361560322965
883.0, 0.061021582403127876
884.0, 0.06646698184029907
885.0, 0.07384079519197378
886.0, 0.07975269416451454
887.0, 0.0824365207936935
888.0, 0.0918358604915158
889.0, 0.09815941080875636
890.0, 0.10442402076061148
891.0, 0.11460928424153445
892.0, 0.13334214783009105
893.0, 0.1416511302031696
894.0, 0.1575696933331913
895.0, 0.1776190971407779
896.0, 0.19565390316347778
897.0, 0.19959243264669707
898.0, 0.23452296337045497
899.0, 0.24391298780925655
900.0, 0.24685303562647878
901.0, 0.2606191552681019
902.0, 0.27587612054517335
903.0, 0.26526234352341427
904.0, 0.26511532025317003
905.0, 0.26947778860142707
906.0, 0.2634281157931147
907.0, 0.25678139624111523
908.0, 0.2671248340143677
909.0, 0.261017451618362
910.0, 0.2434318845314938
911.0, 0.24464282087241318
912.0, 0.23444103115895354
913.0, 0.21504997557311423
914.0, 0.20093805687711053
915.0, 0.19116906376542672
916.0, 0.1595454004063089
917.0, 0.14822155846629673
918.0, 0.13907749115842627
919.0, 0.12635999594922617
920.0, 0.11129089676157329
921.0, 0.11754465253944306
922.0, 0.10384271159570059
923.0, 0.09782386042133405
924.0, 0.09928850699823616
925.0, 0.10116578777512918
926.0, 0.09094456108438703
927.0, 0.10634735184591806
928.0, 0.11540126803080047
929.0, 0.11428711447032468
930.0, 0.11234186790581165
931.0, 0.12436877903947964
932.0, 0.1159650849335737
933.0, 0.11465806901440212
934.0, 0.12188598895017717
935.0, 0.11376895452284626
936.0, 0.10439344397512315
937.0, 0.10506649317638192
938.0, 0.10266749285513131
939.0, 0.09409246528030503
940.0, 0.09615196143972575
941.0, 0.10272279885183783
942.0, 0.09828833689821655
943.0, 0.09920084397109494
944.0, 0.11378974495040217
945.0, 0.11269678296605126
946.0, 0.12079837161235524
947.0, 0.13505913514127388
948.0, 0.14728975546700052
949.0, 0.15212996495284073
950.0, 0.17107057128949132
951.0, 0.1870711428542958
952.0, 0.19612529273665935
953.0, 0.2089183317053655
954.0, 0.23782384240481205
955.0, 0.23890389678680374
956.0, 0.25673683809257775
957.0, 0.283246302677963
958.0, 0.30978797367666605
959.0, 0.3275792487863752
960.0, 0.3858601586438442
961.0, 0.42044342341029617
962.0, 0.4553355817519538
963.0, 0.5015799321017343
964.0, 0.5596349652448397
965.0, 0.538131214244703
966.0, 0.5545585236429601
967.0, 0.5531236244372174
968.0, 0.5152837510919515
969.0, 0.4757118494848129
970.0, 0.4731123109247709
971.0, 0.4315154895494873
972.0, 0.40621860183157726
973.0, 0.4197179076056093
974.0, 0.41742956895987887
975.0, 0.4260705480375712
976.0, 0.4598103959120969
977.0, 0.48998293197529064
978.0, 0.5042353770076368
979.0, 0.5476236868194959
980.0, 0.5748797886341814
981.0, 0.5617881802951038
982.0, 0.5434538870647684
983.0, 0.5436996809473609
984.0, 0.5088936620170448
985.0, 0.48150770365921297
986.0, 0.46933959585605534
987.0, 0.4513174503158334
988.0, 0.41646228250869033
989.0, 0.43528439465144186
990.0, 0.43358782663705564
991.0, 0.4224907777689764
992.0, 0.4208889360526666
993.0, 0.43856426914658025
994.0, 0.41189987940710515
995.0, 0.4168542541127759
996.0, 0.4291188342058965
997.0, 0.4311375483176677
998.0, 0.41620888038806636
999.0, 0.4532448483423531
1000.0, 0.4614639401272164
1001.0, 0.4696275257452299
1002.0, 0.49235014505327185
1003.0, 0.5304239512575843
1004.0, 0.4973466170451967
1005.0, 0.5269446867834267
1006.0, 0.5294095466502007
1007.0, 0.49513473495503674
1008.0, 0.4497945534735128
1009.0, 0.44777660700902594
1010.0, 0.39114258088309545
1011.0, 0.3431880267356681
1012.0, 0.3192250091263471
1013.0, 0.30872716417352775
1014.0, 0.23845255083701236
1015.0, 0.2164129852382613
1016.0, 0.19551043770303383
1017.0, 0.1712415626672367
1018.0, 0.15701051447680148
1019.0, 0.1561632375734398
1020.0, 0.13991221524424885
1021.0, 0.12971242173335465
1022.0, 0.12652761213916464
1023.0, 0.12280551313315187
1024.0, 0.1217711614929811
1025.0, 0.1309389769380786
1026.0, 0.13258407074526116
1027.0, 0.13184074480136498
1028.0, 0.14124881536044964
1029.0, 0.14248268740669479
1030.0, 0.13276447390877905
1031.0, 0.1232256036386132
1032.0, 0.11565267186146465
1033.0, 0.10765444308163537
1034.0, 0.09248072821296227
1035.0, 0.0900206221084886
1036.0, 0.08158455967683872
1037.0, 0.07370934582603735
1038.0, 0.07784285470467674
1039.0, 0.07079019283743805
1040.0, 0.07038520870847302
1041.0, 0.07063299393092654
1042.0, 0.07024228972610368
1043.0, 0.06957516773590099
1044.0, 0.07041067762884372
1045.0, 0.07269623783230693
1046.0, 0.07100100137017905
1047.0, 0.07034392403800709
1048.0, 0.0748625489167798
1049.0, 0.06999667635019924
1050.0, 0.07138119420087398
1051.0, 0.08260898928741371
1052.0, 0.0899596107250828
1053.0, 0.08497094585910595
1054.0, 0.09403129258865588
1055.0, 0.1001851386692285
1056.0, 0.1041295887715495
1057.0, 0.1074838549986199
1058.0, 0.10878056570808274
1059.0, 0.09643333082410595
1060.0, 0.09059287153468781
1061.0, 0.09092502131860543
1062.0, 0.08728400670743748
1063.0, 0.07697200960815091
1064.0, 0.07571967629897523
1065.0, 0.0666386647185297
1066.0, 0.05647805850235922
1067.0, 0.054814227261348755
1068.0, 0.05826228464036722
1069.0, 0.043042750320276324
1070.0, 0.044810245703078615
1071.0, 0.05144775664169373
1072.0, 0.051897529460364224
1073.0, 0.04872596938342541
1074.0, 0.05893812407367808
1075.0, 0.05620200967998465
1076.0, 0.05906212613929816
1077.0, 0.07041930855182002
1078.0, 0.0831580794566455
1079.0, 0.0843096742475851
1080.0, 0.09463315646498967
1081.0, 0.107126445293628
1082.0, 0.11213447959821024
1083.0, 0.12008586383457441
1084.0, 0.14389590311914935
1085.0, 0.12697215590914346
1086.0, 0.12300035439889981
1087.0, 0.12181426186970437
1088.0, 0.11280447775595798
1089.0, 0.09215313935243827
1090.0, 0.08961106216733103
1091.0, 0.07855919463819525
1092.0, 0.06940760703849928
1093.0, 0.06574428124447433
1094.0, 0.06502813869618507
1095.0, 0.051078508209883466
1096.0, 0.0477297969220683
1097.0, 0.04931493971179328
1098.0, 0.04735892979475032
1099.0, 0.042662443752644635
1100.0, 0.05170214526986505
1101.0, 0.048960093465464066
1102.0, 0.04702352739879305
1103.0, 0.0492166354882281
1104.0, 0.05286352583415515
1105.0, 0.050404886441086184
1106.0, 0.05413195552729929
1107.0, 0.05555698111588935
1108.0, 0.050617553871908506
1109.0, 0.04568783753160783
1110.0, 0.04977745984289429
1111.0, 0.044233945426635154
1112.0, 0.035363336921249
1113.0, 0.03538722765853021
1114.0, 0.03502911852534672
1115.0, 0.025649681587515828
1116.0, 0.026688265543168603
1117.0, 0.022886608207134958
1118.0, 0.01874989520783434
1119.0, 0.017536693975681996
1120.0, 0.018545685127026514
1121.0, 0.013654560354426103
1122.0, 0.012650532700700719
1123.0, 0.014195670206911962
1124.0, 0.01275475568167324
1125.0, 0.010825167230060653
1126.0, 0.018149218683494003
1127.0, 0.013451137799790538
1128.0, 0.007411216242997346
1129.0, 0.00794379881654668
1130.0, 0.009940307411555467
1131.0, 0.004394513162434178
1132.0, 0.003265845316578429
1133.0, 0.0071116915205979535
1134.0, 0.005332438244243831
1135.0, 0.0034533082938303177
1136.0, 0.006373130241266862
1137.0, 0.005532728030854998
1138.0, 0.004947772026868681
1139.0, 0.007426346372616363
1140.0, 0.007855553531460498
1141.0, 0.004311496463501142
1142.0, 0.0001580480133763593
1143.0, 0.002404387660236465
1144.0, 0.0024734919784311048
1145.0, 0.003867811578303368
1146.0, 0.005268807877122832
1147.0, 0.0033305886950640217
1148.0, 0.003708199293447699
1149.0, 0.0063072212641240724
1150.0, 0.0037505184913833463
1151.0, 0.00031011679611519144
1152.0, 0.0008109197948362885
1153.0, 0.0019766772774398077
1154.0, 0.0037470570700836765
1155.0, 0.002960911305888615
1156.0, 0.0012928609145878166
1157.0, 0.0007646783536033652
1158.0, 0.0029970275993880646
1159.0, 0.0034030021293962125
1160.0, 0.001998783967949701
1161.0, 0.0007347969523260806
1162.0, 0.0015672240362046832
1163.0, 0.004906903311638114
1164.0, 0.00173372810386838
1165.0, 0.002328909711377564
1166.0, 0.005214531266701766
1167.0, 0.005359749976106119
1168.0, 0.001430167281243119
1169.0, 0.001959586574550038
1170.0, 0.004507537726246634
1171.0, 0.0029752296769350694
1172.0, 0.0012818565110711906
1173.0, 0.000845182849436576
1174.0, 0.00041734488788583733
1175.0, 0.0006950684038795809
1176.0, 0.0024905767974485594
1177.0, 0.00221867841945791
1178.0, 0.001300097410400765
1179.0, 0.002069152544454194
1180.0, 0.003875744121844182
1181.0, 0.002310046025837483
1182.0, 0.0017600489383611964
1183.0, 0.0020727247331122287
1184.0, 0.0031556602956550857
1185.0, 0.0053883788984841275
1186.0, 0.0034963034050877638
1187.0, 0.002989311093365092
1188.0, 0.002790206542247022
1189.0, 0.002670467560067201
1190.0, 0.00254361582465048
1191.0, 0.0010399494822560982
1192.0, 0.0011716307980891233
1193.0, 0.002895628295346652
1194.0, 0.00450480398991713
1195.0, 0.004778386952102827
1196.0, 0.0037018755279946665
1197.0, 0.001256065005879953
1198.0, 0.002547600839853311
1199.0, 0.0019591122044623037
1200.0, 0.0011823747252475564
1201.0, 0.0044846245870896655
1202.0, 0.008697216498317764
1203.0, 0.002757700022736504
1204.0, 0.0026430991290334947
1205.0, 0.003045364094186611
1206.0, 0.00105496278008727
1207.0, 0.002728698028717904
1208.0, 0.00698630581701548
1209.0, 0.004630982419238271
1210.0, 0.0038753219343978687
1211.0, 0.004936871765802795
1212.0, 0.004291808978842094
1213.0, 0.0020755778720416085
1214.0, 0.002737930510536676
1215.0, 0.0018584414746212435
1216.0, 0.0016066849428829247
1217.0, 0.003466339668170235
1218.0, 0.006352240660675733
1219.0, 0.001380777232542782
1220.0, 0.00446507458499301
1221.0, 0.005104312182291827
1222.0, 0.0026165378945721372
1223.0, 0.0009048075385403654
1224.0, 0.0034038267005720166
1225.0, 0.001712218826142452
1226.0, 0.0019885374261592445
1227.0, 0.005689283426853651
1228.0, 0.009018794317099942
1229.0, 0.004602645721093161
1230.0, 0.005873938721026976
1231.0, 0.007372903653209447
1232.0, 0.006237083822958632
1233.0, 0.0047384468278029715
1234.0, 0.0051860951078879424
1235.0, 0.005399940612509859
1236.0, 0.0034020495555297623
1237.0, 0.004302346313160094
1238.0, 0.004270908868326544
1239.0, 0.0034362726039619696
1240.0, 0.0045662486227051845
1241.0, 0.004490884694865163
1242.0, 0.0028412373980474404
1243.0, 0.0059854103274655035
1244.0, 0.005938821580696906
1245.0, 0.0015793982763431828
1246.0, 0.006813339841528378
1247.0, 0.009869385178031627
1248.0, 0.0055181506384185865
1249.0, 0.0021774201222296012
1250.0, 0.0026649792966107733
1251.0, 0.0056746326404180794
1252.0, 0.005777200512082232
1253.0, 0.009182386778581806
1254.0, 0.006474897174101544
1255.0, 0.0038576039832775287
1256.0, 0.0046563916484310755
1257.0, 0.007430407240542801
1258.0, 0.005906825103259894
1259.0, 0.002833117997690633
1260.0, 0.0066474345200074085
1261.0, 0.007919401966382354
1262.0, 0.002850319010384789
1263.0, 0.004036976033352016
1264.0, 0.009086351040123487
1265.0, 0.00422646348174839
1266.0, 0.006990691664190965
1267.0, 0.011706010116648258
1268.0, 0.007939957281112062
1269.0, 0.005495160423791562
1270.0, 0.01187270117126075
1271.0, 0.009176966480099297
1272.0, 0.0070078544457942765
1273.0, 0.0076538713789687015
1274.0, 0.006441031634224163
1275.0, 0.003940276772672284
1276.0, 0.010525353567203497
1277.0, 0.009886972060203806
1278.0, 0.005501772093037526
1279.0, 0.004965922118277736
1280.0, 0.014126212319122422
1281.0, 0.007311164121610163
1282.0, 0.006428106688435749
1283.0, 0.007950988953470161
1284.0, 0.0076433721406623835
1285.0, 0.004435476377640193
1286.0, 0.004126692516756081
1287.0, 0.0050476316338286965
1288.0, 0.0029747638524261046
1289.0, 0.004301058902848139
1290.0, 0.006299833182681551
1291.0, 0.00446546980180922
1292.0, 0.0048139405248574735
1293.0, 0.011051101712179996
1294.0, 0.0058458530156541445
1295.0, 0.0026517639108744047
1296.0, 0.005582061658594185
1297.0, 0.008825852226754988
1298.0, 0.003412278135848737
1299.0, 0.003728532128403742
1300.0, 0.004794236876812767
1301.0, 0.005015298852144548
1302.0, 0.00529483652229476
1303.0, 0.007827024032172888
1304.0, 0.0068332769812960185
1305.0, 0.00957820669577723
1306.0, 0.007999108503634585
1307.0, 0.005303574900761274
1308.0, 0.004267400242933026
1309.0, 0.0033286339707141004
1310.0, 0.004091688532526193
1311.0, 0.0016757628037840193
1312.0, 0.004642090639397531
1313.0, 0.005894925487117512
1314.0, 0.002004661467570587
1315.0, 0.005157257241106464
1316.0, 0.004751695612440587
1317.0, 0.00240096127869724
1318.0, 0.003238434785216025
1319.0, 0.005055263524332538
1320.0, 0.004301520470197588
1321.0, 0.0019195212725113518
1322.0, 0.004281724107287069
1323.0, 0.006211985517346942
1324.0, 0.006697630441012516
1325.0, 0.00604883842310692
1326.0, 0.00504746822784538
1327.0, 0.0038082237075281215
1328.0, 0.003499340446638406
1329.0, 0.005497312642133646
1330.0, 0.004960092543980081
1331.0, 0.004481983466834113
1332.0, 0.0072538365235500805
1333.0, 0.0023915042516564114
1334.0, 0.0008782678079787195
1335.0, 0.0021880795305586637
1336.0, 0.003917983317680635
1337.0, 0.005053094963175653
1338.0, 0.005695330105212457
1339.0, 0.0057341248140627635
1340.0, 0.0015416978576383382
1341.0, 0.005693536692245251
1342.0, 0.005084633598422319
1343.0, 0.0005176151779648908
1344.0, 0.0019369325492278474
1345.0, 0.006670263110877744
1346.0, 0.008594976149219894
1347.0, 0.004948844943515994
1348.0, 0.00434237782457771
1349.0, 0.005626366707069012
1350.0, 0.0026988095341410165
1351.0, 0.005405947797310431
1352.0, 0.00953821476405231
1353.0, 0.00522527430566629
1354.0, 0.004590389529828177
1355.0, 0.007416930534301608
1356.0, 0.005818212950904335
1357.0, 0.009075278601735626
1358.0, 0.008771361371581165
1359.0, 0.004781391483538989
1360.0, 0.003310902099123172
1361.0, 0.005825851528487984
1362.0, 0.008488331341549549
1363.0, 0.0032448899191302866
1364.0, 0.012923286421526528
1365.0, 0.009643450722001541
1366.0, 0.0054778357865400635
1367.0, 0.007652673488396215
1368.0, 0.013593534507877645
1369.0, 0.008547678009932232
1370.0, 0.00859430339040741
1371.0, 0.008933702791305162
1372.0, 0.008201608437078865
1373.0, 0.006393778487718881
1374.0, 0.0051749688316327725
1375.0, 0.008975911134239335
1376.0, 0.005123899725670919
1377.0, 0.007465098380966837
1378.0, 0.00841621805635781
1379.0, 0.00512448098597239
1380.0, 0.0015039305357564198
1381.0, 0.00954444004446485
1382.0, 0.005795914322502579
1383.0, 0.008496903775857519
1384.0, 0.008408203863200587
1385.0, 0.007485819857332634
1386.0, 0.008996758599406636
1387.0, 0.006641017556141254
1388.0, 0.011674414433699706
1389.0, 0.006109515972914036
1390.0, 0.008229093277195093
1391.0, 0.01080077832311683
1392.0, 0.0073427956135940645
1393.0, 0.00947289614532499
1394.0, 0.011103112404288164
1395.0, 0.008153557533422414
1396.0, 0.008450910848985995
1397.0, 0.008373096223811887
1398.0, 0.005784565274285597
1399.0, 0.0051981659785929925
1400.0, 0.010600662138700857
1401.0, 0.011062710814351723
1402.0, 0.00615439955599913
1403.0, 0.005422292218908397
1404.0, 0.0087766812891966
1405.0, 0.006876183931108514
1406.0, 0.008276355892882415
1407.0, 0.008686600453339627
1408.0, 0.009690732647403989
1409.0, 0.010334740306832959
1410.0, 0.009280991009231795
1411.0, 0.00568056530909639
1412.0, 0.00028152979794162595
1413.0, 0.005375270991625892
1414.0, 0.00984226890007997
1415.0, 0.00811035309142848
1416.0, 0.007601183638304439
1417.0, 0.013505368190939875
1418.0, 0.00965655649776498
1419.0, 0.008492063867500607
1420.0, 0.012990841945139242
1421.0, 0.012420688812073593
1422.0, 0.01105800941121082
1423.0, 0.01167617809162565
1424.0, 0.006506598469555429
1425.0, 0.001329707228996421
1426.0, 0.007523091321883413
1427.0, 0.012492880150561892
1428.0, 0.009545192882451044
1429.0, 0.006103615790567729
1430.0, 0.014901672711797504
1431.0, 0.005589917708081402
1432.0, 0.005001180819440485
1433.0, 0.006156193654855781
1434.0, 0.005161306695075181
1435.0, 0.0042965117823302625
1436.0, 0.007375483055357695
1437.0, 0.010690918688561259
1438.0, 0.005371340768930397
1439.0, 0.00781674929939071
1440.0, 0.0074329659108932356
1441.0, 0.004794883788880363
1442.0, 0.0041616230078541615
1443.0, 0.00654407566499616
1444.0, 0.009871770431520733
1445.0, 0.005094334726979919
1446.0, 0.006656599515178845
1447.0, 0.005565966775453894
1448.0, 0.00383372037655462
1449.0, 0.014103645035937334
1450.0, 0.016717720748805915
1451.0, 0.007377940869640822
1452.0, 0.007906004004674104
1453.0, 0.009495722546392011
1454.0, 0.008133005101858626
1455.0, 0.006751160542765299
1456.0, 0.012064450670910512
1457.0, 0.004136197582468085
1458.0, 0.0076407793337076695
1459.0, 0.011812966344650934
1460.0, 0.011680531832560636
1461.0, 0.008231191001931534
1462.0, 0.006711070149761302
1463.0, 0.007860348009698735
1464.0, 0.005372042341829089
1465.0, 0.0054538137713529755
1466.0, 0.00888757236528895
1467.0, 0.010382860131664402
1468.0, 0.006794812501100115
1469.0, 0.011851243841298025
1470.0, 0.004784176723928233
1471.0, 0.003787221416565769
1472.0, 0.006944779177054883
1473.0, 0.008736271280796955
1474.0, 0.007023309650799475
1475.0, 0.006594235070440928
1476.0, 0.013887114868646418
1477.0, 0.005894783405468485
1478.0, 0.006289287768022664
1479.0, 0.0063088423142845735
1480.0, 0.004155816560820226
1481.0, 0.004845582056487566
1482.0, 0.005192614899107027
1483.0, 0.0038463288145692324
1484.0, 0.005641941697644928
1485.0, 0.007605881396283755
1486.0, 0.007028803670016156
1487.0, 0.0051713949103855275
1488.0, 0.00683853008925521
1489.0, 0.006122205051449613
1490.0, 0.002086226805177157
1491.0, 0.007732018364104156
1492.0, 0.011608141742846793
1493.0, 0.010505535312269023
1494.0, 0.008190153610760918
1495.0, 0.005001933006848389
1496.0, 0.006065603862901592
1497.0, 0.004004702100095589
1498.0, 0.005478269901469743
1499.0, 0.008013285896770712
1500.0, 0.006858499532731807
1501.0, 0.001554695408692568
1502.0, 0.008042034104286219
1503.0, 0.003292056869398906
1504.0, 0.003037867241223969
1505.0, 0.005399322112299111
1506.0, 0.005644202407674611
1507.0, 0.0032225269753691807
1508.0, 0.005327980093074664
1509.0, 0.009188593876055539
1510.0, 0.002504293058809366
1511.0, 0.00135834867429176
1512.0, 0.001477186838569873
1513.0, 0.0005159379389131173
1514.0, 0.0006590603298602884
1515.0, 0.002868444275994417
1516.0, 0.00042513569337561787
1517, 0.0
1518, 0.0
1519, 0.0
1520, 0.0
1521, 0.0
1522, 0.0
1523, 0.0
1524, 0.0
1525, 0.0
1526, 0.0
1527, 0.0
1528, 0.0
1529, 0.0
1530, 0.0
1531, 0.0
1532, 0.0
1533, 0.0
1534, 0.0
1535, 0.0
1536, 0.0
1537, 0.0
1538, 0.0
1539, 0.0
1540, 0.0
1541, 0.0
1542, 0.0
1543, 0.0
1544, 0.0
1545, 0.0
1546, 0.0
1547, 0.0
1548, 0.0
1549, 0.0
1550, 0.0
1551, 0.0
1552, 0.0
1553, 0.0
1554, 0.0
1555, 0.0
1556, 0.0
1557, 0.0
1558, 0.0
1559, 0.0
1560, 0.0
1561, 0.0
1562, 0.0
1563, 0.0
1564, 0.0
1565, 0.0
1566, 0.0
1567, 0.0
1568, 0.0
1569, 0.0
1570, 0.0
1571, 0.0
1572, 0.0
1573, 0.0
1574, 0.0
1575, 0.0
1576, 0.0
1577, 0.0
1578, 0.0
1579, 0.0
1580, 0.0
1581, 0.0
1582, 0.0
1583, 0.0
1584, 0.0
1585, 0.0
1586, 0.0
1587, 0.0
1588, 0.0
1589, 0.0
1590, 0.0
1591, 0.0
1592, 0.0
1593, 0.0
1594, 0.0
1595, 0.0
1596, 0.0
1597, 0.0
1598, 0.0
1599, 0.0
