30, 0.0
31, 0.0
32, 0.0
33, 0.0
34, 0.0
35, 0.0
36, 0.0
37, 0.0
38, 0.0
39, 0.0
40, 0.0
41, 0.0
42, 0.0
43, 0.0
44, 0.0
45, 0.0
46, 0.0
47, 0.0
48, 0.0
49, 0.0
50, 0.0
51, 0.0
52, 0.0
53, 0.0
54, 0.0
55, 0.0
56, 0.0
57, 0.0
58, 0.0
59, 0.0
60, 0.0
61, 0.0
62, 0.0
63, 0.0
64, 0.0
65, 0.0
66, 0.0
67, 0.0
68, 0.0
69, 0.0
70, 0.0
71, 0.0
72, 0.0
73, 0.0
74, 0.0
75, 0.0
76, 0.0
77, 0.0
78, 0.0
79, 0.0
80, 0.0
81, 0.0
82, 0.0
83, 0.0
84, 0.0
85, 0.0
86, 0.0
87, 0.0
88, 0.0
89, 0.0
90, 0.0
91, 0.0
92.0, 0.0001753023047555564
93.0, 0.0013160590868001069
94.0, 0.0030050306710073423
95.0, 0.0028287031913361133
96.0, 0.0047256389732695
97.0, 0.005945594775198354
98.0, 0.004242080351840823
99.0, 0.0023631104161186086
100.0, 0.0016467656971111456
101.0, 0.002618935705851394
102.0, 0.007923164862945387
103.0, 0.02128000285286104
104.0, 0.04214529365611986
105.0, 0.07217731938827998
106.0, 0.10384472250466746
107.0, 0.13256842817368691
108.0, 0.15687041609438884
109.0, 0.1699080762866524
110.0, 0.1700876216578211
111.0, 0.16093544104949978
112.0, 0.14255648601991597
113.0, 0.11829763637464412
114.0, 0.0993165566112052
115.0, 0.08545209974679359
116.0, 0.07319892423372587
117.0, 0.06669101309765453
118.0, 0.06123598793221111
119.0, 0.054042177717917216
120.0, 0.058762158827258285
121.0, 0.07054670282684342
122.0, 0.08332096664865295
123.0, 0.07346929210545579
124.0, 0.06918063951974718
125.0, 0.06506976286092228
126.0, 0.058200030289819696
127.0, 0.05175694961439938
128.0, 0.046422580079260714
129.0, 0.042211533438607694
130.0, 0.039419508515884154
131.0, 0.03772652092263203
132.0, 0.03817132719878899
133.0, 0.041507687626774745
134.0, 0.0475489645267092
135.0, 0.056786331593221044
136.0, 0.06812088165216158
137.0, 0.07936809629954573
138.0, 0.0921879045851166
139.0, 0.10227468581318236
140.0, 0.10786680583169424
141.0, 0.10565581996344313
142.0, 0.10233397631165042
143.0, 0.09941273663781712
144.0, 0.09980836673979042
145.0, 0.10279102537468451
146.0, 0.1113102750498021
147.0, 0.12550192148708494
148.0, 0.13375040237614766
149.0, 0.14346766870870786
150.0, 0.15065858771395046
151.0, 0.1495013333285748
152.0, 0.14698078918144197
153.0, 0.14080511348428967
154.0, 0.13124517972353814
155.0, 0.12286181564452474
156.0, 0.11557006239988318
157.0, 0.10885337015334617
158.0, 0.10243041722732349
159.0, 0.10063289810793308
160.0, 0.1030682148420235
161.0, 0.10998253689538921
162.0, 0.12346030010407136
163.0, 0.14472874414111875
164.0, 0.1721084433021151
165.0, 0.20564988275984666
166.0, 0.2489466574221869
167.0, 0.2902463634159078
168.0, 0.3257134998315841
169.0, 0.3447951679103941
170.0, 0.35411376716015824
171.0, 0.346611529597033
172.0, 0.3194393674574602
173.0, 0.2793177850935398
174.0, 0.2377453655589904
175.0, 0.19621697421015588
176.0, 0.15675756927382645
177.0, 0.12620255047428394
178.0, 0.09881837631455861
179.0, 0.07409524262470969
180.0, 0.05415454339064066
181.0, 0.03741721054376113
182.0, 0.023212275578447704
183.0, 0.011577056656237622
184.0, 0.00371304830718872
185.0, 0.0028913699108507533
186.0, 0.006800877528311563
187.0, 0.0089215257087574
188.0, 0.007692148075871294
189.0, 0.005539050011522772
190.0, 0.0035765302034713392
191.0, 0.011158365054209004
192.0, 0.016202699660281
193.0, 0.019234621587716574
194.0, 0.0204913071091882
195.0, 0.02134403994430594
196.0, 0.02008385630344958
197.0, 0.017077935071318568
198.0, 0.016605025630027692
199.0, 0.01975662481392569
200.0, 0.025151105701217518
201.0, 0.03225399677319874
202.0, 0.04563791795265838
203.0, 0.060769446596895246
204.0, 0.07742685540011021
205.0, 0.09580461771895975
206.0, 0.11358691934824122
207.0, 0.13194180411837889
208.0, 0.15082381530676947
209.0, 0.16368862678700521
210.0, 0.16879911028866001
211.0, 0.16929370080895584
212.0, 0.16761948826790113
213.0, 0.1578686353938045
214.0, 0.14490101195719013
215.0, 0.12972291339651598
216.0, 0.11418248981145569
217.0, 0.09702991176002018
218.0, 0.0813252112481855
219.0, 0.06847422110825487
220.0, 0.05259925893508882
221.0, 0.039649290636503014
222.0, 0.028582844676877696
223.0, 0.018156938331982047
224.0, 0.010704883223661296
225.0, 0.004842769869410226
226.0, 0.0010985297534209884
227.0, 0.003960853212784765
228.0, 0.0063790139602712135
229.0, 0.00898024366834042
230.0, 0.012151770114819941
231.0, 0.012343031614398108
232.0, 0.01198314072376213
233.0, 0.01113154121049733
234.0, 0.009762152495290347
235.0, 0.006992401447376845
236.0, 0.004241258187823733
237.0, 0.002828961569298854
238.0, 0.010236985349141966
239.0, 0.017385495392669766
240.0, 0.026052591899925297
241.0, 0.03762510466308799
242.0, 0.04534968882921997
243.0, 0.055832271425264916
244.0, 0.06675744796159548
245.0, 0.07308545508692872
246.0, 0.07698072957999545
247.0, 0.08072599609905315
248.0, 0.08470178239746708
249.0, 0.0883226735174254
250.0, 0.09132530341822213
251.0, 0.09440179876258319
252.0, 0.09800361220330679
253.0, 0.09932788363674641
254.0, 0.10172721704211307
255.0, 0.10301945797938422
256.0, 0.09864176054666884
257.0, 0.09628321525657639
258.0, 0.09179331880425178
259.0, 0.08583773657345083
260.0, 0.08701261447914058
261.0, 0.08806366383692162
262.0, 0.09279646201858063
263.0, 0.10363108781110937
264.0, 0.11756367095346563
265.0, 0.13615690624723567
266.0, 0.15847465396991522
267.0, 0.18374109270019046
268.0, 0.2083977824302725
269.0, 0.23520969393935018
270.0, 0.26355403261812976
271.0, 0.2892730413031016
272.0, 0.3153418960008457
273.0, 0.3345031129685685
274.0, 0.34334231490948114
275.0, 0.3426384301365049
276.0, 0.33938101736699544
277.0, 0.3286231525270237
278.0, 0.3036970002305271
279.0, 0.2733511946554537
280.0, 0.245291479137819
281.0, 0.21896624696834496
282.0, 0.1915736669969226
283.0, 0.17140479051358226
284.0, 0.15351082628325471
285.0, 0.1377324332225031
286.0, 0.13279393606645654
287.0, 0.1274189959818349
288.0, 0.12373377197033826
289.0, 0.12331105466728583
290.0, 0.12778455639963848
291.0, 0.13138391296181154
292.0, 0.13585364880603668
293.0, 0.14426825995504516
294.0, 0.14968777216046208
295.0, 0.1561751329481266
296.0, 0.16362597447097854
297.0, 0.16958950747446294
298.0, 0.1737688058472919
299.0, 0.17653474352577114
300.0, 0.17800733467651864
301.0, 0.17906395418285556
302.0, 0.181221123089095
303.0, 0.1830135929013897
304.0, 0.1831926960748405
305.0, 0.1805183996431402
306.0, 0.17640343384087662
307.0, 0.17075518977007972
308.0, 0.16308683052293116
309.0, 0.15383649892813012
310.0, 0.14426031019443167
311.0, 0.13562806690097035
312.0, 0.1326404072977386
313.0, 0.13620990443492487
314.0, 0.1443703368817452
315.0, 0.1563302910967815
316.0, 0.1680820590146588
317.0, 0.17699102979575165
318.0, 0.18248698124136462
319.0, 0.18373988635335914
320.0, 0.1784014091133069
321.0, 0.16364258083224048
322.0, 0.1456651488225644
323.0, 0.1346238781270783
324.0, 0.11948935779221956
325.0, 0.11159407573120704
326.0, 0.10937743099382022
327.0, 0.1029754688789475
328.0, 0.10331889852129542
329.0, 0.10372885311923782
330.0, 0.10213647251038574
331.0, 0.09773688963003688
332.0, 0.09234373473229333
333.0, 0.08559086641097745
334.0, 0.07730020897505817
335.0, 0.07465231062746011
336.0, 0.07451044184345756
337.0, 0.07684398469954451
338.0, 0.08191531379416432
339.0, 0.09332191039024505
340.0, 0.10472901035169711
341.0, 0.11713244275926098
342.0, 0.13380723116093043
343.0, 0.1438612523833245
344.0, 0.15304838047096408
345.0, 0.1603848897388019
346.0, 0.15712521162039533
347.0, 0.15493931264905172
348.0, 0.15435613124555128
349.0, 0.15517408699957033
350.0, 0.15307595415268144
351.0, 0.152190509873422
352.0, 0.14953814216726985
353.0, 0.14302677848161868
354.0, 0.1282895606202806
355.0, 0.11103093821462225
356.0, 0.09147324871738974
357.0, 0.06961884392376752
358.0, 0.05472238887658886
359.0, 0.041794372025731434
360.0, 0.030235581996846048
361.0, 0.019554658190876394
362.0, 0.011450480003836179
363.0, 0.006391128687461512
364.0, 0.003654918327380766
365.0, 0.0007211430412405785
366.0, 0.0013209855316886703
367.0, 0.0014179537890049304
368.0, 0.0005941667253613738
369.0, 0.003094429546000992
370.0, 0.006447432327141131
371.0, 0.008917248977245058
372.0, 0.009922395425575966
373.0, 0.013060686894664683
374.0, 0.014447899968538054
375.0, 0.014601223254081662
376.0, 0.013802261317896787
377.0, 0.009857869239994552
378.0, 0.008717298963183653
379.0, 0.009241856600548772
380.0, 0.010197535283697547
381.0, 0.01278395377036849
382.0, 0.018260042438671898
383.0, 0.02661910144306303
384.0, 0.03802268401629103
385.0, 0.050997062950721476
386.0, 0.06974401009937396
387.0, 0.09210577546077336
388.0, 0.11069714063895794
389.0, 0.12840657813447343
390.0, 0.14717945445785532
391.0, 0.1658750860956689
392.0, 0.17748819427985935
393.0, 0.18530700669025194
394.0, 0.18612429349550408
395.0, 0.17902044963073988
396.0, 0.16630893733585192
397.0, 0.1548633222084953
398.0, 0.13865982725916642
399.0, 0.11572938011442861
400.0, 0.10256186128238046
401.0, 0.09285677086774839
402.0, 0.08378322396844784
403.0, 0.07344411679367421
404.0, 0.063237277731605
405.0, 0.05545436278057099
406.0, 0.049874751655830836
407.0, 0.04641814680822203
408.0, 0.04045329648990446
409.0, 0.039315622845806766
410.0, 0.041308422199346044
411.0, 0.04413715092421343
412.0, 0.05285899998022989
413.0, 0.06690030742680471
414.0, 0.08449140294272638
415.0, 0.10272362698088833
416.0, 0.12570066332765922
417.0, 0.1417176643509562
418.0, 0.15116043606280824
419.0, 0.1575898989868302
420.0, 0.15608757062662543
421.0, 0.15370320565376258
422.0, 0.15323376956752838
423.0, 0.16012053659200914
424.0, 0.16872979774255048
425.0, 0.18231044510792985
426.0, 0.20076437311717216
427.0, 0.22057695827341484
428.0, 0.26071043029848573
429.0, 0.2788489426008136
430.0, 0.2686233746879373
431.0, 0.2666713150025583
432.0, 0.258816246483396
433.0, 0.24451830717469492
434.0, 0.22339106242851237
435.0, 0.19534615652899293
436.0, 0.16608752700801074
437.0, 0.13760530071422375
438.0, 0.11197526975656565
439.0, 0.10069418816933846
440.0, 0.08949054824012384
441.0, 0.08181959332371476
442.0, 0.07978692014409548
443.0, 0.08404773007828878
444.0, 0.08130879774488509
445.0, 0.0772590499483808
446.0, 0.07524130255564139
447.0, 0.06712081410720674
448.0, 0.05608107471328515
449.0, 0.04524524306659711
450.0, 0.036954925998393874
451.0, 0.029196241828167067
452.0, 0.026464035292731607
453.0, 0.025175180496835103
454.0, 0.022300588171812793
455.0, 0.024698184707466198
456.0, 0.024547499792042037
457.0, 0.02299528270232832
458.0, 0.021138455448681648
459.0, 0.019621061823754234
460.0, 0.016125302542791518
461.0, 0.011802784544455318
462.0, 0.007896443421835226
463.0, 0.0062533807832879235
464.0, 0.003758241591318562
465.0, 0.0020956793951583796
466.0, 0.003330999129200511
467.0, 0.004899185520980937
468.0, 0.008751251737583551
469.0, 0.012749996986346337
470.0, 0.014166078555826207
471.0, 0.016797339950012848
472.0, 0.017401271781256146
473.0, 0.016607668644784107
474.0, 0.015334053107783177
475.0, 0.013667364562762681
476.0, 0.012688837654186115
477.0, 0.013007343982317572
478.0, 0.01542953057704829
479.0, 0.017084809505475772
480.0, 0.022294424269971996
481.0, 0.03054337838785014
482.0, 0.04098132190600091
483.0, 0.0461290646239879
484.0, 0.0551884391595606
485.0, 0.06341562540068223
486.0, 0.06388306243100352
487.0, 0.05726958785184958
488.0, 0.048237241451782945
489.0, 0.03715738603590916
490.0, 0.024220505724497896
491.0, 0.0163642415889939
492.0, 0.008445769107056883
493.0, 0.0033172691522777484
494.0, 0.004886373911013526
495.0, 0.007474920737759861
496.0, 0.008949929908360361
497.0, 0.009469774744611522
498.0, 0.009284125791979812
499.0, 0.010493434268555101
500.0, 0.008418178787622221
501.0, 0.004794300366806325
502.0, 0.0016688116248252732
503.0, 0.003671831412522822
504.0, 0.009018696794270626
505.0, 0.015288888431678475
506.0, 0.020023956902110902
507.0, 0.02793109958671787
508.0, 0.03398654949470385
509.0, 0.038262633062301175
510.0, 0.04091271324640049
511.0, 0.046559364973385246
512.0, 0.0484509654447158
513.0, 0.04881362124696677
514.0, 0.04929171365880039
515.0, 0.04454192203356596
516.0, 0.040290722691525706
517.0, 0.034861649768551176
518.0, 0.02734986981848697
519.0, 0.023537135972102084
520.0, 0.01882553947575243
521.0, 0.013599440085262055
522.0, 0.008233349868300592
523.0, 0.004436508393020135
524.0, 0.00296462128011558
525.0, 0.002735483260152318
526.0, 0.0030831754164748
527.0, 0.003017006528195305
528.0, 0.0028750265801631347
529.0, 0.003631744637306389
530.0, 0.005223575209590398
531.0, 0.004396276125710162
532.0, 0.0031492746358819396
533.0, 0.0028268730005882553
534.0, 0.0032691899424315144
535.0, 0.0013166258689162604
536.0, 0.0007848996681833952
537.0, 0.0015700028534011475
538.0, 0.003573622070649937
539.0, 0.006530011480925306
540.0, 0.00905953256039769
541.0, 0.011151607692505104
542.0, 0.013866203063010278
543.0, 0.02027802954061739
544.0, 0.024504196954608287
545.0, 0.026556546090442525
546.0, 0.028283687643382228
547.0, 0.03375582427019276
548.0, 0.029906444431003522
549.0, 0.02834808216741955
550.0, 0.027479107245974084
551.0, 0.022615410716203745
552.0, 0.024207504593982652
553.0, 0.02630031691271247
554.0, 0.029347149845205697
555.0, 0.03432415537091982
556.0, 0.04135460082800974
557.0, 0.05365558266899846
558.0, 0.06794299531237083
559.0, 0.08113371254115401
560.0, 0.09762074551575127
561.0, 0.10532687705311565
562.0, 0.10683507435293406
563.0, 0.10378464477764825
564.0, 0.09357372485246508
565.0, 0.08124749148677689
566.0, 0.06914103086715105
567.0, 0.058600845038605576
568.0, 0.050758703858353287
569.0, 0.04452914083412343
570.0, 0.04215684669623659
571.0, 0.043252874223293
572.0, 0.042657709765098
573.0, 0.04336197506982133
574.0, 0.04448221568056435
575.0, 0.04504116357995961
576.0, 0.042827537701841396
577.0, 0.043527170394947336
578.0, 0.0422680593826786
579.0, 0.039538874879275515
580.0, 0.03759996314977024
581.0, 0.03826565950586137
582.0, 0.04177917053387576
583.0, 0.04622509064478108
584.0, 0.04911680187508593
585.0, 0.05769628078057182
586.0, 0.06343385552548281
587.0, 0.0691875816007238
588.0, 0.0772023038188474
589.0, 0.08060382710973345
590.0, 0.07898028277700546
591.0, 0.07484127224067842
592.0, 0.06934930571346712
593.0, 0.06018730792335421
594.0, 0.048421359272003875
595.0, 0.03801574859772373
596.0, 0.030017484849967694
597.0, 0.022694160157064477
598.0, 0.017748069503659838
599.0, 0.013847702190806863
600.0, 0.0106092651775575
601.0, 0.007803235359627864
602.0, 0.010412004526686324
603.0, 0.010684017558884108
604.0, 0.01058616479738186
605.0, 0.014455219708807795
606.0, 0.01731179902522133
607.0, 0.020014953762045064
608.0, 0.0229638455647323
609.0, 0.02647209703607684
610.0, 0.029527369644518242
611.0, 0.03278719983075047
612.0, 0.035988557999602766
613.0, 0.0390172736324243
614.0, 0.04219327276842754
615.0, 0.04858154339044605
616.0, 0.055032061338189685
617.0, 0.06179076525355774
618.0, 0.07383723009142391
619.0, 0.07921692607168618
620.0, 0.08319258807130063
621.0, 0.0848532770597494
622.0, 0.08030832650076973
623.0, 0.07162736290704796
624.0, 0.06204382089959869
625.0, 0.05145551556254451
626.0, 0.039567256128396636
627.0, 0.03209229128487438
628.0, 0.02478219561236815
629.0, 0.01797408323255708
630.0, 0.012270501503578389
631.0, 0.011151316377260688
632.0, 0.007751627600665928
633.0, 0.007090664195141208
634.0, 0.010016516213796746
635.0, 0.012031859885603523
636.0, 0.015585955151885392
637.0, 0.020456884054599164
638.0, 0.026158640967558357
639.0, 0.0317701944871404
640.0, 0.036969841486974866
641.0, 0.043358412061766494
642.0, 0.04922202706992097
643.0, 0.0526344090966232
644.0, 0.058179089144824475
645.0, 0.05774814828420079
646.0, 0.05575899165926666
647.0, 0.05442918551761694
648.0, 0.04928597124665204
649.0, 0.041459869762172676
650.0, 0.03652672811808656
651.0, 0.03348771677498854
652.0, 0.02356664425702563
653.0, 0.020406379249383072
654.0, 0.016862572871773233
655.0, 0.012777850486774671
656.0, 0.009467976993907765
657.0, 0.009836501497999138
658.0, 0.008591694640973901
659.0, 0.007734175607203714
660.0, 0.008895959735021327
661.0, 0.010570882737873332
662.0, 0.012488088334538239
663.0, 0.01584442133285876
664.0, 0.02036680707612754
665.0, 0.022941795236884763
666.0, 0.029860308666096912
667.0, 0.03786794290293484
668.0, 0.04662984793387942
669.0, 0.056617269094031863
670.0, 0.07174337164347656
671.0, 0.08821429760516715
672.0, 0.11036558227306162
673.0, 0.14084514223842637
674.0, 0.15989578932743467
675.0, 0.18346427414626001
676.0, 0.20608290288935469
677.0, 0.2227078559355683
678.0, 0.22256101048512217
679.0, 0.2149370452666157
680.0, 0.199922598268949
681.0, 0.1785910665055136
682.0, 0.15309518217640788
683.0, 0.1330127684596802
684.0, 0.11455055602771914
685.0, 0.09766560019751541
686.0, 0.08274731647303482
687.0, 0.07428308807832029
688.0, 0.0671066160454927
689.0, 0.06221521204790103
690.0, 0.05980145525645599
691.0, 0.05906311684299586
692.0, 0.0583936226400728
693.0, 0.06003766235090697
694.0, 0.06352205717696839
695.0, 0.06747195775382779
696.0, 0.07632939113952605
697.0, 0.08293951673814803
698.0, 0.09293830609786469
699.0, 0.10940754899763819
700.0, 0.12349892099944547
701.0, 0.14595270573928532
702.0, 0.17257009307810459
703.0, 0.20295906212920387
704.0, 0.23962597167598917
705.0, 0.28838288870395545
706.0, 0.3445376692818982
707.0, 0.4130423696489065
708.0, 0.49958236376141474
709.0, 0.6050816153386439
710.0, 0.7084348893203617
711.0, 0.8083692657479922
712.0, 0.9005698571594126
713.0, 0.9683495119140004
714.0, 0.9925616636317441
715.0, 0.969458037716516
716.0, 0.9100319305833718
717.0, 0.8358732897236574
718.0, 0.7282677414689744
719.0, 0.6310234202159891
720.0, 0.5354606611154811
721.0, 0.4383894711809142
722.0, 0.37082254415493693
723.0, 0.31033862585083294
724.0, 0.26017706133229435
725.0, 0.22017582427117646
726.0, 0.18743249388709748
727.0, 0.15849484138998624
728.0, 0.13595814944325707
729.0, 0.11835414051461979
730.0, 0.10354605372100231
731.0, 0.08777983853071379
732.0, 0.07960826981483388
733.0, 0.0706372971213712
734.0, 0.05933888310211488
735.0, 0.051472201571193046
736.0, 0.04798331612008349
737.0, 0.04424945233257897
738.0, 0.03988398612473112
739.0, 0.03529044650933045
740.0, 0.03505185368110917
741.0, 0.03000692763658539
742.0, 0.025448042978925806
743.0, 0.023387776095020914
744.0, 0.021600731627196463
745.0, 0.01849646305254576
746.0, 0.01640537362569396
747.0, 0.015463970012822258
748.0, 0.01529426155659003
749.0, 0.014615665442412107
750.0, 0.014482852715734917
751.0, 0.014315276280986345
752.0, 0.014103752834790395
753.0, 0.01514993070866001
754.0, 0.01607249307403959
755.0, 0.016698860254866055
756.0, 0.017465886140244084
757.0, 0.019000871230117924
758.0, 0.020046727077271512
759.0, 0.022441052078403845
760.0, 0.025576328694569415
761.0, 0.02883938512710849
762.0, 0.03118740185984784
763.0, 0.03399094390082193
764.0, 0.0399045488712474
765.0, 0.045103136849938434
766.0, 0.04391040318348409
767.0, 0.04550100032958032
768.0, 0.04576427850160936
769.0, 0.04427651341006637
770.0, 0.04117372049380452
771.0, 0.03771405812115881
772.0, 0.033521824357567474
773.0, 0.029704248417274155
774.0, 0.026302510924105082
775.0, 0.023080392993856884
776.0, 0.018618652880383963
777.0, 0.014376534072503402
778.0, 0.01053899356291762
779.0, 0.007703262840729492
780.0, 0.0075618029876525295
781.0, 0.005870448707796265
782.0, 0.0040784970757225545
783.0, 0.002198918334962964
784.0, 0.00021961145027989167
785.0, 0.00023487041446853098
786.0, 0.001557116673067609
787.0, 0.002437788820212774
788.0, 0.002757789293189365
789.0, 0.003943478369532665
790.0, 0.00538993997640497
791.0, 0.00609916770968136
792.0, 0.006257398280569345
793.0, 0.0062088162819108105
794.0, 0.006677435216758414
795.0, 0.005861534470872703
796.0, 0.005820093541118516
797.0, 0.006508407772523593
798.0, 0.006725153827885606
799.0, 0.005635698012473028
800.0, 0.00343715595016505
801.0, 0.0026936452516165173
802.0, 0.0040856929238392275
803.0, 0.002860321896957334
804.0, 0.0009744248245005486
805.0, 0.0001429373540469496
806.0, 0.0012378773099839088
807.0, 0.004826030126728674
808.0, 0.009197603885351787
809.0, 0.012576316282956967
810.0, 0.016180521848036564
811.0, 0.020283954575464284
812.0, 0.024069735117789277
813.0, 0.023581959457688272
814.0, 0.023344003684410138
815.0, 0.02219887007687929
816.0, 0.018870209368030025
817.0, 0.013955296645789704
818.0, 0.009824543891914232
819.0, 0.007986123211467874
820.0, 0.006939100964284976
821.0, 0.003380086625664449
822.0, 0.0012578259042069929
823.0, 0.00029726616260052795
824.0, 0.0007331630853674941
825.0, 0.0019767130065094906
826.0, 0.0015290602215165714
827.0, 0.0018792155863169356
828.0, 0.0025117561832446364
829.0, 0.00291418065829146
830.0, 0.002608747233875083
831.0, 0.0014249744946582123
832.0, 0.0008782643513935885
833.0, 0.0007522311390670333
834.0, 0.0007993696174310442
835.0, 0.0006738508051523856
836.0, 0.0005177738985158173
837.0, 0.00025915329593352793
838.0, 0.0017974918642268923
839.0, 0.004452210438778203
840.0, 0.0014041697686580014
841.0, 0.0037192962580314933
842.0, 0.005968607618255773
843.0, 0.007390684235644246
844.0, 0.008150950467814585
845.0, 0.010205078215100792
846.0, 0.011379318294072564
847.0, 0.013255354201889152
848.0, 0.015680059700073246
849.0, 0.017563866434872805
850.0, 0.018612573761147114
851.0, 0.020733847715102182
852.0, 0.02312236081273914
853.0, 0.024931127940585565
854.0, 0.02492578594840321
855.0, 0.026539395228510218
856.0, 0.027089023130927422
857.0, 0.028813181367153478
858.0, 0.03290800448108864
859.0, 0.03343020612858273
860.0, 0.03389161671003178
861.0, 0.03666031605443728
862.0, 0.0399336442268256
863.0, 0.04067889008737394
864.0, 0.04156151712031886
865.0, 0.041678812412019886
866.0, 0.04317282926994292
867.0, 0.04577730952696174
868.0, 0.047092966416696816
869.0, 0.04632097959624535
870.0, 0.04539760730358641
871.0, 0.046603945700246445
872.0, 0.0495197452361198
873.0, 0.04768907816971304
874.0, 0.05008368957935408
875.0, 0.05067473118351546
876.0, 0.05066559488994069
877.0, 0.05181966874404913
878.0, 0.054122853617318015
879.0, 0.051002940102152096
880.0, 0.05101930789518541
881.0, 0.0527964024139835
882.0, 0.05202281330606886
883.0, 0.05081758131965382
884.0, 0.052669264676901896
885.0, 0.05362020079828603
886.0, 0.05395257465301175
887.0, 0.056935280703247056
888.0, 0.0596326580875226
889.0, 0.06372349606212362
890.0, 0.06939690086056415
891.0, 0.0759218836564457
892.0, 0.08105542246491786
893.0, 0.08862190471794702
894.0, 0.09536179894710907
895.0, 0.10240869893861268
896.0, 0.11056584383881313
897.0, 0.11902792307239553
898.0, 0.12720994914502445
899.0, 0.13658015654257225
900.0, 0.14415510427141906
901.0, 0.14853596020283305
902.0, 0.16141115904947825
903.0, 0.1666232251611075
904.0, 0.17018009067677026
905.0, 0.17180236758174827
906.0, 0.1698667247693904
907.0, 0.16815564805626698
908.0, 0.15537130321454723
909.0, 0.1425584595023512
910.0, 0.13221439994132103
911.0, 0.12248855727890973
912.0, 0.11008193519308081
913.0, 0.10020397893265032
914.0, 0.09044933655587703
915.0, 0.08033322765751547
916.0, 0.07103509713564972
917.0, 0.06943248677483459
918.0, 0.06366015675698354
919.0, 0.058768190207860053
920.0, 0.05653371269289973
921.0, 0.05397624559896122
922.0, 0.055534428133001426
923.0, 0.05951035171969264
924.0, 0.06289742273211658
925.0, 0.06499454870543606
926.0, 0.07015680257809867
927.0, 0.0777172818795916
928.0, 0.08410953435132115
929.0, 0.08842379600150918
930.0, 0.09031705594178867
931.0, 0.08996197566851959
932.0, 0.08888823906707062
933.0, 0.08408947032808609
934.0, 0.07832451739075719
935.0, 0.07443191921004205
936.0, 0.07184019893284278
937.0, 0.06644532495577657
938.0, 0.06319122375803893
939.0, 0.06126245252418439
940.0, 0.05895994713639538
941.0, 0.05676301832644006
942.0, 0.05930294228840396
943.0, 0.06154716501184291
944.0, 0.06330816595210005
945.0, 0.06581316428912141
946.0, 0.0711713978148855
947.0, 0.07681393941531713
948.0, 0.08344944074627213
949.0, 0.0910029370012163
950.0, 0.09896955797023077
951.0, 0.10581922587576574
952.0, 0.11718850594766304
953.0, 0.1272522676906595
954.0, 0.13785041351416363
955.0, 0.15294178553588497
956.0, 0.16601553726144075
957.0, 0.18921746745424972
958.0, 0.21664369812123543
959.0, 0.24717087290664772
960.0, 0.2804913241920389
961.0, 0.30334459415905035
962.0, 0.3275789439096107
963.0, 0.34450898470420727
964.0, 0.3528929014398386
965.0, 0.3547184936842371
966.0, 0.34304085067187573
967.0, 0.3205400462058514
968.0, 0.3059248844450615
969.0, 0.2953955257069372
970.0, 0.2765924832490169
971.0, 0.27658987695477016
972.0, 0.27855660363415563
973.0, 0.2874977614852317
974.0, 0.305963922057136
975.0, 0.3336159256774096
976.0, 0.3522691036309085
977.0, 0.3756874664565098
978.0, 0.3889239642731983
979.0, 0.3918867923569396
980.0, 0.39040676602337965
981.0, 0.37417426465415055
982.0, 0.3588048887962061
983.0, 0.3359580705586511
984.0, 0.3124482404218541
985.0, 0.2992894640794803
986.0, 0.2839229922088658
987.0, 0.2734207693580097
988.0, 0.2663354583274486
989.0, 0.2620456143861261
990.0, 0.2603423436398054
991.0, 0.26352411137832393
992.0, 0.25928286640410503
993.0, 0.25821044417986033
994.0, 0.2623461076541435
995.0, 0.269129719147
996.0, 0.26473942297403025
997.0, 0.26835387392657944
998.0, 0.27084882872727223
999.0, 0.2717561087081684
1000.0, 0.271941061234386
1001.0, 0.26828944470503696
1002.0, 0.2516889896631246
1003.0, 0.24225755366484047
1004.0, 0.23498639031722285
1005.0, 0.22177395109254158
1006.0, 0.20000373346807215
1007.0, 0.19044971469904268
1008.0, 0.18392918649236703
1009.0, 0.1691677859597919
1010.0, 0.14427130812024855
1011.0, 0.1309769934805758
1012.0, 0.11707390546453951
1013.0, 0.10728547256789935
1014.0, 0.0982236900931101
1015.0, 0.0891313369128838
1016.0, 0.08520542205848197
1017.0, 0.07775907613454675
1018.0, 0.06867729554361884
1019.0, 0.06394281572127612
1020.0, 0.06342323523474727
1021.0, 0.059490308030136954
1022.0, 0.05620363340292603
1023.0, 0.0562953294180656
1024.0, 0.05553783069586626
1025.0, 0.054161537573287316
1026.0, 0.05574614655375949
1027.0, 0.054002908378413296
1028.0, 0.05364418258323938
1029.0, 0.055158687813909923
1030.0, 0.058262384579867245
1031.0, 0.06185161968994891
1032.0, 0.061533270813999535
1033.0, 0.06569026252960267
1034.0, 0.06900277129920425
1035.0, 0.07330820547387641
1036.0, 0.08143244593627158
1037.0, 0.08969401194313242
1038.0, 0.09700723951479355
1039.0, 0.10396767283023457
1040.0, 0.10882953816062611
1041.0, 0.1106594836198699
1042.0, 0.11172016030275213
1043.0, 0.11321823879774565
1044.0, 0.11038787445441185
1045.0, 0.11199931349095128
1046.0, 0.11910195774106458
1047.0, 0.11870965850919765
1048.0, 0.12743502768400072
1049.0, 0.1377418016766741
1050.0, 0.14670390347345993
1051.0, 0.15350368680696327
1052.0, 0.15939842916674815
1053.0, 0.16952330854510833
1054.0, 0.1741237713618927
1055.0, 0.17573145474032742
1056.0, 0.17533041470027358
1057.0, 0.1732048715378146
1058.0, 0.1692994445452397
1059.0, 0.1632959782153233
1060.0, 0.15147519095885378
1061.0, 0.1378932116297163
1062.0, 0.12675353215280735
1063.0, 0.11613575555189327
1064.0, 0.10101461926112015
1065.0, 0.09200922642962342
1066.0, 0.0844664443970916
1067.0, 0.07658774360886984
1068.0, 0.07366708579961702
1069.0, 0.06698670175933621
1070.0, 0.06462757800470592
1071.0, 0.06622231120455155
1072.0, 0.06994508215191342
1073.0, 0.07309536192674523
1074.0, 0.07465088621140294
1075.0, 0.08407111781999259
1076.0, 0.09370887638233986
1077.0, 0.10544950029900652
1078.0, 0.1215105450585788
1079.0, 0.1300799962187919
1080.0, 0.14258497733924663
1081.0, 0.15498200758003133
1082.0, 0.15923416574127836
1083.0, 0.15326250436538885
1084.0, 0.14697181287867278
1085.0, 0.13747932076943625
1086.0, 0.11900219645907653
1087.0, 0.10216774114548353
1088.0, 0.08965052799796272
1089.0, 0.07708556421300967
1090.0, 0.06798517778047272
1091.0, 0.058776183053200995
1092.0, 0.051639390118556054
1093.0, 0.045661272199242306
1094.0, 0.03969814809323056
1095.0, 0.03664696082772814
1096.0, 0.03349188240666571
1097.0, 0.031225204215271894
1098.0, 0.030218948099634244
1099.0, 0.02985924809412226
1100.0, 0.028213878842377648
1101.0, 0.028566418547551597
1102.0, 0.026725808020814448
1103.0, 0.02545344713768349
1104.0, 0.02468733046846422
1105.0, 0.022841265090722436
1106.0, 0.021970626630465902
1107.0, 0.021457517239933128
1108.0, 0.02034437566551973
1109.0, 0.01974594697209841
1110.0, 0.019738809626774413
1111.0, 0.016497829816570136
1112.0, 0.013830519687500277
1113.0, 0.012982357870884734
1114.0, 0.011017238371768434
1115.0, 0.008289333339280757
1116.0, 0.00821149619948334
1117.0, 0.00915212583785272
1118.0, 0.008092970432756358
1119.0, 0.007397031542196958
1120.0, 0.007045872471605487
1121.0, 0.00635525542044392
1122.0, 0.005351569671224423
1123.0, 0.005035131323710899
1124.0, 0.004921126457113023
1125.0, 0.0044486897237690105
1126.0, 0.003793381684447849
1127.0, 0.0038791008496570577
1128.0, 0.002829071858783645
1129.0, 0.0025729988402621996
1130.0, 0.0028818296028640658
1131.0, 0.002344846473015653
1132.0, 0.00021900568419314618
1133.0, 0.00016490099453523476
1134.0, 0.0009044842979444667
1135.0, 0.001004309446364884
1136.0, 0.001835200246724478
1137.0, 0.002650067343826734
1138.0, 0.00015764707744102564
1139.0, 0.0004469770789149436
1140.0, 0.0011038974845580451
1141.0, 0.0018419615734334685
1142.0, 0.0016699565380894996
1143.0, 0.00038504426289664626
1144.0, 0.0016053032615348049
1145.0, 0.0011585716619286481
1146.0, 0.0004509371585439562
1147.0, 0.00021574778087759215
1148.0, 0.0006205641628744827
1149.0, 0.0011885028115317642
1150.0, 0.0002573843062639648
1151.0, 0.0008136764659549217
1152.0, 0.0012266551045192443
1153.0, 0.0011564568286323083
1154.0, 0.0007789216145999297
1155.0, 0.0003732898696440348
1156.0, 0.0003415496333274173
1157.0, 0.0003045522121880696
1158.0, 0.0004600984915646579
1159.0, 0.0005845650488597341
1160.0, 0.0002109345817656131
1161.0, 6.58133519469998e-05
1162.0, 0.000953765996392164
1163.0, 0.0006387061125194875
1164.0, 0.0006188974616058589
1165.0, 0.001456768262551554
1166.0, 0.00021199989667055285
1167.0, 0.0011777776342522333
1168.0, 0.0005788853327118441
1169.0, 0.0004248308421287688
1170.0, 0.0007765586062832079
1171.0, 0.000741895395183122
1172.0, 0.0007010144824759374
1173.0, 0.0005305772038052103
1174.0, 0.000938047455750692
1175.0, 0.0013142916710986202
1176.0, 0.0014137855783458964
1177.0, 0.001590826182729385
1178.0, 0.001386528819596201
1179.0, 0.0010747236691968159
1180.0, 0.0016463456375086292
1181.0, 0.0018182054210934984
1182.0, 0.0010465924138062183
1183.0, 0.0021653269941359
1184.0, 0.0010565781261001744
1185.0, 0.001206255737691662
1186.0, 0.0009415495217953346
1187.0, 0.0012007783177061773
1188.0, 0.0031836268750210393
1189.0, 0.0007901164095769552
1190.0, 0.00018450925394552836
1191.0, 0.0012210796164016313
1192.0, 0.0017810698595619237
1193.0, 0.0013360654896541653
1194.0, 0.001298396839610381
1195.0, 0.00034587063222721234
1196.0, 0.0011362353712912297
1197.0, 0.001009074917362157
1198.0, 0.0010986368558858022
1199.0, 0.0018264049733083454
1200.0, 0.00035220833249782627
1201.0, 0.0011740314177143489
1202.0, 0.0016005648592624833
1203.0, 0.001430071149811858
1204.0, 0.0008470428312458422
1205.0, 0.0002652612689304821
1206.0, 0.00019815982728302293
1207.0, 0.0007060483206227131
1208.0, 0.0006748820964444567
1209.0, 0.00036147357160752543
1210.0, 0.00015674032730815646
1211.0, 0.0003006433266447518
1212.0, 0.00016555009952152154
1213.0, 0.0008686741710044979
1214.0, 0.0014897641761044214
1215.0, 0.0012459241613805854
1216.0, 0.0005384763808583667
1217.0, 0.0009538962294678797
1218.0, 0.0032063057911934454
1219.0, 0.0012902195364784238
1220.0, 0.001811164477681776
1221.0, 0.001987037860536848
1222.0, 0.00042216206618208104
1223.0, 0.001466226038320347
1224.0, 0.001527777216916585
1225.0, 0.0009725812192556237
1226.0, 0.0004657622786123978
1227.0, 0.0008645397527561913
1228.0, 0.0018134565389994286
1229.0, 0.0003612247474290675
1230.0, 0.0009878117013787959
1231.0, 0.001863795159179306
1232.0, 0.0018173372537639758
1233.0, 0.0016815030874756968
1234.0, 0.0022591253598725535
1235.0, 0.0012795298524474938
1236.0, 0.0018113509189429948
1237.0, 0.002243371747296361
1238.0, 0.0019979915736894143
1239.0, 0.0012898046226969284
1240.0, 0.00102037676634891
1241.0, 0.002867083479965068
1242.0, 0.001505697903803946
1243.0, 0.0019329577515551286
1244.0, 0.0014152225471269642
1245.0, 0.0007972445692103837
1246.0, 0.0025107402823844084
1247.0, 0.0011435764729232794
1248.0, 0.0006211498750597204
1249.0, 0.0012545500603944393
1250.0, 0.001649142453756555
1251.0, 0.001275320070849518
1252.0, 0.00081974346048415
1253.0, 0.0022321605654404067
1254.0, 0.0012089407665993885
1255.0, 0.0009779324551376074
1256.0, 0.001877676547719712
1257.0, 0.0031082699673356685
1258.0, 0.0033277025864027667
1259.0, 0.0019048576295498353
1260.0, 0.003411748584902229
1261.0, 0.0029061187263340884
1262.0, 0.0016944972538980839
1263.0, 0.0015176823980070468
1264.0, 0.002769075324749537
1265.0, 0.0013209808262464018
1266.0, 0.0038066795410737564
1267.0, 0.0027642553606020844
1268.0, 0.0017757706605997425
1269.0, 0.002601819521101837
1270.0, 0.0032071367572579466
1271.0, 0.002734185795054887
1272.0, 0.0037799146053439587
1273.0, 0.0029898593651912194
1274.0, 0.0016475328829366799
1275.0, 0.0018088873628607479
1276.0, 0.004259339167687789
1277.0, 0.0024564399321254865
1278.0, 0.002827411014393731
1279.0, 0.005451975755429016
1280.0, 0.005163680200551412
1281.0, 0.002258012355003393
1282.0, 0.0017361112878320972
1283.0, 0.0009168505218374852
1284.0, 0.0006481476302327209
1285.0, 0.002581118226938282
1286.0, 0.002969180300739423
1287.0, 0.002145162439183859
1288.0, 0.0034553545325192152
1289.0, 0.0045653108993095855
1290.0, 0.002305089414097861
1291.0, 0.0019188161532729198
1292.0, 0.0015741550510741515
1293.0, 0.0006771556479541087
1294.0, 0.00046848061775768904
1295.0, 0.0033309671376728772
1296.0, 0.0007592252646379013
1297.0, 0.000691565358133832
1298.0, 0.002776493643748343
1299.0, 0.0036539672224993325
1300.0, 0.0014037160669552668
1301.0, 0.002636649706886484
1302.0, 0.002520173686732301
1303.0, 0.002291378931448207
1304.0, 0.002264495187161696
1305.0, 0.0019151430837197987
1306.0, 0.0011590056035992624
1307.0, 0.0017661035498303347
1308.0, 0.001051660211501443
1309.0, 0.0018447710649415875
1310.0, 0.0015215265878824823
1311.0, 0.001298056127419804
1312.0, 0.0019763038679152887
1313.0, 0.0011961962046853672
1314.0, 0.000812718312738814
1315.0, 0.0012080930288328987
1316.0, 0.0008985132281023123
1317.0, 0.0010654240415263285
1318.0, 0.0016460024714638909
1319.0, 0.0006749073104208321
1320.0, 0.0017874543727988109
1321.0, 0.0018647525610030042
1322.0, 0.0010556762743067782
1323.0, 0.0010163484994199373
1324.0, 0.002421206075812272
1325.0, 0.004177214926418849
1326.0, 0.0026542495320834992
1327.0, 0.0014876640223611473
1328.0, 0.0020560051230725045
1329.0, 0.001747151289599566
1330.0, 0.0019514124856471137
1331.0, 0.003844323646759556
1332.0, 6.798508725734545e-05
1333.0, 0.003054600278769898
1334.0, 0.0037134599587751575
1335.0, 0.001973537353624638
1336.0, 0.0015716367557871633
1337.0, 0.0036920531986483476
1338.0, 0.0027722405587005646
1339.0, 0.0012353031073612211
1340.0, 0.00352279219933748
1341.0, 0.004083909683812479
1342.0, 0.0035743890008813565
1343.0, 0.0029495379195649276
1344.0, 0.0018580290125002669
1345.0, 0.001748552290662864
1346.0, 0.0023947489761864376
1347.0, 0.0035762804435584437
1348.0, 0.0027952777276920443
1349.0, 0.002053036608046456
1350.0, 0.003998701921277959
1351.0, 0.0030084036401753825
1352.0, 0.004150328940410313
1353.0, 0.004608363625143755
1354.0, 0.004548425193765582
1355.0, 0.004579925906581758
1356.0, 0.005336988197549705
1357.0, 0.006827206893872888
1358.0, 0.003786729226284487
1359.0, 0.005242823914339592
1360.0, 0.005598460769779126
1361.0, 0.0047483603319703185
1362.0, 0.004249567278596729
1363.0, 0.004892471072518065
1364.0, 0.0025093785212750705
1365.0, 0.003086217321336046
1366.0, 0.0036387276101680164
1367.0, 0.0032089665217293955
1368.0, 0.0027237864073971917
1369.0, 0.003088861822140709
1370.0, 0.0031757192694085376
1371.0, 0.0032341478974032473
1372.0, 0.0034712844187940965
1373.0, 0.0038521842450472002
1374.0, 0.0039053666886383212
1375.0, 0.003925960926589084
1376.0, 0.0048009481909388725
1377.0, 0.00549722833137386
1378.0, 0.0039620058813306
1379.0, 0.005621222765199748
1380.0, 0.00504915646342268
1381.0, 0.004359089763143364
1382.0, 0.006417592959081815
1383.0, 0.005133463100030609
1384.0, 0.0029097734886272403
1385.0, 0.003953827028482215
1386.0, 0.004198821675050429
1387.0, 0.0036438113435707602
1388.0, 0.0034699429429487093
1389.0, 0.004073967029786456
1390.0, 0.0022923907119437696
1391.0, 0.0035700606430056916
1392.0, 0.004220872023619688
1393.0, 0.004059517592382987
1394.0, 0.004307850646040044
1395.0, 0.005117379399982218
1396.0, 0.003913430606784028
1397.0, 0.002105803522285468
1398.0, 0.003444555412845061
1399.0, 0.0031911415867004987
1400.0, 0.0028052727581915644
1401.0, 0.003347823700151459
1402.0, 0.003909158806997109
1403.0, 0.002375147228535603
1404.0, 0.0024593950886404865
1405.0, 0.00470745794942775
1406.0, 0.0034699499127755083
1407.0, 0.002449489130287604
1408.0, 0.0041907270803045755
1409.0, 0.004770678866159743
1410.0, 0.003464505797486361
1411.0, 0.005097980173022033
1412.0, 0.003748497635706515
1413.0, 0.0037050255936104033
1414.0, 0.00501022129039499
1415.0, 0.005442593914265187
1416.0, 0.005306049236936668
1417.0, 0.004883829714076444
1418.0, 0.004737499721508138
1419.0, 0.004898899484114592
1420.0, 0.0057392536135609466
1421.0, 0.006453124561929928
1422.0, 0.006048794793279544
1423.0, 0.006304140898292577
1424.0, 0.005856843411399235
1425.0, 0.005539829171006233
1426.0, 0.005303447606463389
1427.0, 0.0048439487242855715
1428.0, 0.004636214825931914
1429.0, 0.005433878902156149
1430.0, 0.004451965399235843
1431.0, 0.006064016802702465
1432.0, 0.005343958433464626
1433.0, 0.005032198410895381
1434.0, 0.005601751901485173
1435.0, 0.0065796500137298534
1436.0, 0.00796443375551589
1437.0, 0.007522209941638902
1438.0, 0.006914778620725258
1439.0, 0.007258382889960235
1440.0, 0.007160448069217712
1441.0, 0.007132829358789585
1442.0, 0.007592376760409494
1443.0, 0.006519242521546513
1444.0, 0.006813825616794138
1445.0, 0.005172818934508694
1446.0, 0.004148405488283178
1447.0, 0.004926583762558862
1448.0, 0.005393612977885635
1449.0, 0.004272781688136119
1450.0, 0.0066967984063044435
1451.0, 0.006284267661657647
1452.0, 0.004796731250721352
1453.0, 0.005005370452126326
1454.0, 0.005442513164851424
1455.0, 0.004933177464355162
1456.0, 0.004532340010348923
1457.0, 0.0077467300511551715
1458.0, 0.005098339760407527
1459.0, 0.0049113021527835855
1460.0, 0.004408281857432035
1461.0, 0.003036268807266538
1462.0, 0.0033365842637369074
1463.0, 0.006196801758156335
1464.0, 0.002173107620977104
1465.0, 0.004227351284778712
1466.0, 0.0032942820549213417
1467.0, 0.0027984932833821402
1468.0, 0.003082957502606622
1469.0, 0.0034855276847585237
1470.0, 0.0034864490820865927
1471.0, 0.003209870834562349
1472.0, 0.0036730258588330957
1473.0, 0.0032957160742975236
1474.0, 0.0025851488335421557
1475.0, 0.0029238257593006104
1476.0, 0.0034556553659786833
1477.0, 0.002430928438434115
1478.0, 0.0020573816052150825
1479.0, 0.0038454969769201363
1480.0, 0.0029951388951702162
1481.0, 0.0018541325870500892
1482.0, 0.0025448432652286058
1483.0, 0.0028144175506086356
1484.0, 0.0005966193267264797
1485.0, 0.0035078174612849047
1486.0, 0.003206488576060837
1487.0, 0.0013287079551746834
1488.0, 0.0008237303221339808
1489.0, 0.0012608891444551495
1490.0, 0.001373283973282958
1491.0, 0.0011818577184143863
1492.0, 0.003076869149465593
1493.0, 0.0008514381195386727
1494.0, 0.0021341740748448083
1495.0, 0.0019304146389659716
1496.0, 0.001254788776201156
1497.0, 0.0011835465224845224
1498.0, 0.0019335122349595146
1499.0, 0.0032435299999752564
1500.0, 0.0010232533443704543
1501.0, 0.0011875471476164598
1502.0, 0.0020807300011417918
1503.0, 0.0014111758470491224
1504.0, 0.0002834872974825349
1505.0, 0.000495652144575504
1506.0, 0.001351644839720984
1507.0, 0.00035400087852460174
1508.0, 0.002497281004266859
1509.0, 0.001764144282516508
1510.0, 0.0015884807822185423
1511.0, 0.0017944234503412565
1512.0, 0.001216503029873792
1513.0, 0.00030066310810038927
1514.0, 0.0004375141762678668
1515.0, 0.0014870854521654019
1516.0, 0.00048582897988813965
1517, 0.0
1518, 0.0
1519, 0.0
1520, 0.0
1521, 0.0
1522, 0.0
1523, 0.0
1524, 0.0
1525, 0.0
1526, 0.0
1527, 0.0
1528, 0.0
1529, 0.0
1530, 0.0
1531, 0.0
1532, 0.0
1533, 0.0
1534, 0.0
1535, 0.0
1536, 0.0
1537, 0.0
1538, 0.0
1539, 0.0
1540, 0.0
1541, 0.0
1542, 0.0
1543, 0.0
1544, 0.0
1545, 0.0
1546, 0.0
1547, 0.0
1548, 0.0
1549, 0.0
1550, 0.0
1551, 0.0
1552, 0.0
1553, 0.0
1554, 0.0
1555, 0.0
1556, 0.0
1557, 0.0
1558, 0.0
1559, 0.0
1560, 0.0
1561, 0.0
1562, 0.0
1563, 0.0
1564, 0.0
1565, 0.0
1566, 0.0
1567, 0.0
1568, 0.0
1569, 0.0
1570, 0.0
1571, 0.0
1572, 0.0
1573, 0.0
1574, 0.0
1575, 0.0
1576, 0.0
1577, 0.0
1578, 0.0
1579, 0.0
1580, 0.0
1581, 0.0
1582, 0.0
1583, 0.0
1584, 0.0
1585, 0.0
1586, 0.0
1587, 0.0
1588, 0.0
1589, 0.0
1590, 0.0
1591, 0.0
1592, 0.0
1593, 0.0
1594, 0.0
1595, 0.0
1596, 0.0
1597, 0.0
1598, 0.0
1599, 0.0
