30, 0.0
31, 0.0
32, 0.0
33, 0.0
34, 0.0
35, 0.0
36, 0.0
37, 0.0
38, 0.0
39, 0.0
40, 0.0
41, 0.0
42, 0.0
43, 0.0
44, 0.0
45, 0.0
46, 0.0
47, 0.0
48, 0.0
49, 0.0
50, 0.0
51, 0.0
52, 0.0
53, 0.0
54, 0.0
55, 0.0
56, 0.0
57, 0.0
58, 0.0
59, 0.0
60, 0.0
61, 0.0
62, 0.0
63, 0.0
64, 0.0
65, 0.0
66, 0.0
67, 0.0
68, 0.0
69, 0.0
70, 0.0
71, 0.0
72, 0.0
73, 0.0
74, 0.0
75, 0.0
76, 0.0
77, 0.0
78, 0.0
79, 0.0
80, 0.0
81, 0.0
82, 0.0
83, 0.0
84, 0.0
85, 0.0
86, 0.0
87, 0.0
88, 0.0
89, 0.0
90, 0.0
91, 0.0
92, 0.0
93, 0.0
94, 0.0
95, 0.0
96, 0.0
97, 0.0
98, 0.0
99, 0.0
100, 0.0
101, 0.0
102, 0.0
103, 0.0
104, 0.0
105, 0.0
106, 0.0
107, 0.0
108, 0.0
109, 0.0
110, 0.0
111, 0.0
112, 0.0
113, 0.0
114, 0.0
115, 0.0
116, 0.0
117, 0.0
118, 0.0
119, 0.0
120, 0.0
121, 0.0
122, 0.0
123, 0.0
124, 0.0
125, 0.0
126.0, 9.630161823797087e-05
127.0, 0.0010244692446187765
128.0, 0.00186207547926272
129.0, 0.0024550751218663375
130.0, 0.002751358637316027
131.0, 0.003187003373248894
132.0, 0.0036742114609467254
133.0, 0.003370836682062279
134.0, 0.002422260954576737
135.0, 0.002373913493019892
136.0, 0.003501272061030991
137.0, 0.0048135852890547936
138.0, 0.006858024066134483
139.0, 0.008058262968107605
140.0, 0.00802551646667384
141.0, 0.0071445180399322215
142.0, 0.005072689762551946
143.0, 0.0031263573134171167
144.0, 0.0018267459301841938
145.0, 0.0011583510344681052
146.0, 0.0007419684439109082
147.0, 0.0008754038503843262
148.0, 0.0016913706821307128
149.0, 0.003042965396680697
150.0, 0.004116244117802578
151.0, 0.0076707106547684555
152.0, 0.01113037096329987
153.0, 0.013027993273659303
154.0, 0.013279105375559661
155.0, 0.014249162969678979
156.0, 0.015299086825176094
157.0, 0.017214293289618172
158.0, 0.019091263216088873
159.0, 0.01922615139752238
160.0, 0.019496047926876335
161.0, 0.019766155225289444
162.0, 0.019539210099854324
163.0, 0.019559297031469303
164.0, 0.019076935018292128
165.0, 0.018234240617559294
166.0, 0.017261525310117508
167.0, 0.015874717815303044
168.0, 0.013525103266774351
169.0, 0.013604617135942297
170.0, 0.014170135786200634
171.0, 0.011671343511045738
172.0, 0.01016566346145699
173.0, 0.008962005572345859
174.0, 0.008097601084896619
175.0, 0.007533099510880255
176.0, 0.005660390391817486
177.0, 0.004540015319914237
178.0, 0.004292945781309535
179.0, 0.0042983728250253735
180.0, 0.0036259974693211993
181.0, 0.0012255211329629144
182.0, 4.312366542294766e-05
183.0, 0.0001329650509008452
184.0, 0.000717911393554809
185.0, 0.0005991954133837841
186.0, 0.0007673647271046656
187.0, 0.00038150937937022565
188.0, 0.003464507070159013
189.0, 0.0007981062829804221
190.0, 0.00010489990158294689
191.0, 0.0005341031804584858
192.0, 0.0006323384132856556
193.0, 0.001075307310457284
194.0, 0.0013097185496758169
195.0, 0.0007099824420723277
196.0, 0.00109839030029763
197.0, 0.0030801853894523146
198.0, 0.0020315461701026416
199.0, 0.002021252254820848
200.0, 0.002087212542634748
201.0, 0.0008304150974646203
202.0, 0.0006863280215452539
203.0, 0.00034487139834660864
204.0, 0.0001272656543333208
205.0, 7.456117593489249e-05
206.0, 0.0006630932937698734
207.0, 0.00042674481909613305
208.0, 8.252019711207787e-05
209.0, 0.0005373074154363412
210.0, 0.0011049601472637625
211.0, 0.0011912315656161078
212.0, 0.000322012990495061
213.0, 9.322551468905669e-05
214.0, 0.0005784639169108748
215.0, 0.0002934472336825545
216.0, 0.0012798441339310095
217.0, 0.0013762411009217352
218.0, 0.0011361456865906126
219.0, 0.0023649431088890015
220.0, 0.0017812375522868334
221.0, 0.0017770606804408363
222.0, 0.0022741173107630706
223.0, 0.002517258224386869
224.0, 0.002431969194271237
225.0, 0.0027399298805052593
226.0, 0.0023907744148441335
227.0, 0.002087197851607594
228.0, 0.0036294969629473875
229.0, 0.00389848860247461
230.0, 0.0024915101977510293
231.0, 0.001278914357108491
232.0, 0.0016679409991462854
233.0, 0.0021471995260290357
234.0, 0.0031045553544909138
235.0, 0.0030807791187852543
236.0, 0.00229625043194424
237.0, 0.0029522648839878964
238.0, 0.004227307134061656
239.0, 0.00495869005456218
240.0, 0.0051289612585562515
241.0, 0.005374725376985038
242.0, 0.006410090314977306
243.0, 0.007196094229867809
244.0, 0.008573348298447156
245.0, 0.009889518761608023
246.0, 0.008974218081096073
247.0, 0.01080717995697382
248.0, 0.012245344383608386
249.0, 0.013153471423692964
250.0, 0.014723467540184944
251.0, 0.01625984279514755
252.0, 0.0161349946245646
253.0, 0.017160451194882798
254.0, 0.01909888333304634
255.0, 0.018394156414767018
256.0, 0.018772175889161195
257.0, 0.019293179424393087
258.0, 0.01971494726335414
259.0, 0.020411486287372955
260.0, 0.022576023913404047
261.0, 0.02218867733134106
262.0, 0.02282155062871099
263.0, 0.024531530443368685
264.0, 0.02291434559626098
265.0, 0.022574564076137543
266.0, 0.022050215273633524
267.0, 0.021693728697036202
268.0, 0.022167386080811646
269.0, 0.022417532185984215
270.0, 0.021455227677909895
271.0, 0.019399793632767844
272.0, 0.01812883551623567
273.0, 0.019371192698462478
274.0, 0.017577550343291816
275.0, 0.01648653709885645
276.0, 0.016602912095272565
277.0, 0.016567633073619317
278.0, 0.01495762934471762
279.0, 0.0160157147537598
280.0, 0.01623712052045299
281.0, 0.014895217641726079
282.0, 0.013916019502918583
283.0, 0.014667687525074267
284.0, 0.013724929450046518
285.0, 0.012475616558088076
286.0, 0.012088012785760079
287.0, 0.011772630292290835
288.0, 0.011706273052458586
289.0, 0.01170620796302612
290.0, 0.012457345976685578
291.0, 0.013774787312462363
292.0, 0.013058419684958661
293.0, 0.013201687166167956
294.0, 0.014000017057758843
295.0, 0.014890774293201488
296.0, 0.01577075813583023
297.0, 0.014656946478086423
298.0, 0.015506189448627517
299.0, 0.01678378558383073
300.0, 0.017227618350023056
301.0, 0.018421967113387228
302.0, 0.018733883929858534
303.0, 0.019794434154466394
304.0, 0.019960213507131445
305.0, 0.01816525850378386
306.0, 0.019288797999639184
307.0, 0.019315579123825817
308.0, 0.018902748910118384
309.0, 0.0179181989968503
310.0, 0.015318735662657231
311.0, 0.01577578367350952
312.0, 0.014736072622215633
313.0, 0.013512242577424484
314.0, 0.013337043370639469
315.0, 0.012435159540933704
316.0, 0.011249950728495429
317.0, 0.009424274277797058
318.0, 0.007698968273813596
319.0, 0.006895037549427703
320.0, 0.0064787446229867115
321.0, 0.0052032891024082085
322.0, 0.004087573038805591
323.0, 0.003476711404509319
324.0, 0.002918260797359695
325.0, 0.0023505668023813277
326.0, 0.002864837776889386
327.0, 0.003365223943153619
328.0, 0.003121535832627899
329.0, 0.0026390968972217436
330.0, 0.0030272608469520614
331.0, 0.0022473521749291187
332.0, 0.0017422235219829519
333.0, 0.002812271447423147
334.0, 0.002826421074150612
335.0, 0.0018052613510047373
336.0, 0.0011685656559610182
337.0, 0.0011319102226518315
338.0, 0.0011133708111667293
339.0, 0.0009193579458579525
340.0, 0.0009160051141060059
341.0, 0.00048310868442251367
342.0, 0.00013608374656897204
343.0, 0.0007262036270721439
344.0, 0.00028750259912842615
345.0, 0.0006914984248062783
346.0, 0.0008257517602542692
347.0, 7.944949825243423e-05
348.0, 5.946735054991644e-05
349.0, 0.00011185138190586717
350.0, 0.0005721175187073627
351.0, 0.0010785653686133387
352.0, 0.00041195497634412915
353.0, 0.0011949477556166066
354.0, 0.0003367438311965616
355.0, 0.0006151040992437383
356.0, 0.0005299779642597663
357.0, 0.0003975693354446811
358.0, 0.0007466280253687546
359.0, 0.00031619317262776607
360.0, 0.000597980971970743
361.0, 0.00037941016630678925
362.0, 0.0001649820511330291
363.0, 0.001373999585965688
364.0, 0.0008742723938820175
365.0, 0.0003693039082424125
366.0, 0.0008682178469918284
367.0, 0.0017770685029213937
368.0, 0.0027331754358257566
369.0, 0.003523690579170464
370.0, 0.004128181724518133
371.0, 0.004513704308763654
372.0, 0.0046859754871396864
373.0, 0.005471892057462522
374.0, 0.007009595870510523
375.0, 0.007326920099988286
376.0, 0.006792335551779174
377.0, 0.010121795559574107
378.0, 0.011839503325962265
379.0, 0.013861944040351532
380.0, 0.015583163318856433
381.0, 0.01633517630527523
382.0, 0.01884691489618347
383.0, 0.020360455121892978
384.0, 0.022381286682378786
385.0, 0.02447659676038468
386.0, 0.025693209126888467
387.0, 0.027616121322751385
388.0, 0.027431138866264176
389.0, 0.0272406481575956
390.0, 0.027200362441723348
391.0, 0.02629679304121173
392.0, 0.026168682309987285
393.0, 0.023668063170150723
394.0, 0.023351858254036153
395.0, 0.023719355158059542
396.0, 0.02042784600329189
397.0, 0.018910473667264244
398.0, 0.017645420222749668
399.0, 0.016959535190590642
400.0, 0.01652829903931319
401.0, 0.015274160376577911
402.0, 0.013235026898839472
403.0, 0.014023126885079607
404.0, 0.012905134036243746
405.0, 0.010183384753714081
406.0, 0.010738445373591279
407.0, 0.010541820069964007
408.0, 0.01004218054581482
409.0, 0.009302642220739381
410.0, 0.008112760335270086
411.0, 0.006813343586362902
412.0, 0.00822351889432382
413.0, 0.008896224411565234
414.0, 0.008341256986829268
415.0, 0.00782735815040328
416.0, 0.008271696932637003
417.0, 0.008364675536063348
418.0, 0.008400916407928692
419.0, 0.00831163920923071
420.0, 0.008039931856353074
421.0, 0.007618115841630811
422.0, 0.00828882416397421
423.0, 0.00822829202988096
424.0, 0.00830450137359909
425.0, 0.009038389693802206
426.0, 0.009492696436247726
427.0, 0.008573093962841425
428.0, 0.009127185694363061
429.0, 0.008898856344570856
430.0, 0.007876529317028286
431.0, 0.008847914402441032
432.0, 0.009138435948289737
433.0, 0.008610675664946658
434.0, 0.00791257496985695
435.0, 0.007967395847003586
436.0, 0.00906307327704219
437.0, 0.008722760373311638
438.0, 0.008956988500813171
439.0, 0.009442944598929994
440.0, 0.009456160435967103
441.0, 0.008966671323899113
442.0, 0.008282545103237178
443.0, 0.00799276929101832
444.0, 0.0070568874743244
445.0, 0.0058412640216308235
446.0, 0.005543974689659059
447.0, 0.006332367974525839
448.0, 0.005618175906592102
449.0, 0.004395402745220162
450.0, 0.0036113336836042093
451.0, 0.003591152386166734
452.0, 0.0038326255428019085
453.0, 0.003957279885536195
454.0, 0.003472832848836208
455.0, 0.0031552291041395016
456.0, 0.0035834322930266707
457.0, 0.0034316227998460545
458.0, 0.0034780535540277035
459.0, 0.0027765728386358376
460.0, 0.0021599720561619497
461.0, 0.0022553807832106504
462.0, 0.0016048029365739163
463.0, 0.001862802841552425
464.0, 0.002396226176207685
465.0, 0.0019816626458028096
466.0, 0.000927415896169446
467.0, 0.0015540059200878835
468.0, 0.0016644581210043523
469.0, 0.0021880786679208193
470.0, 0.0017034543714430108
471.0, 0.0004622879879716518
472.0, 0.0010305569540779076
473.0, 1.981832544655098e-05
474.0, 0.0004896050948406251
475.0, 0.00041155085862799835
476.0, 0.0010424817945170926
477.0, 0.0004781150167968432
478.0, 0.0002455373815896415
479.0, 0.00022508882177335384
480.0, 0.0008415761347759077
481.0, 0.000378704566748205
482.0, 0.001267502437364789
483.0, 0.00025476881774343373
484.0, 0.00011730257549584893
485.0, 0.0011927628415596494
486.0, 0.0014838299231664112
487.0, 0.00042395918711180664
488.0, 0.0008941870099899077
489.0, 0.0009740984386084187
490.0, 0.0007562208317141817
491.0, 0.0009462012736162031
492.0, 0.0013144493343065784
493.0, 0.0005422417476275059
494.0, 0.0017983629177076319
495.0, 0.002800282969882204
496.0, 0.002433341481796776
497.0, 0.0023531759593195044
498.0, 0.004251812665448434
499.0, 0.0043753430920630935
500.0, 0.004381635975059003
501.0, 0.004098614638800195
502.0, 0.003877586601774381
503.0, 0.004596737489148935
504.0, 0.006887085266827675
505.0, 0.009624697917355231
506.0, 0.010463553311267953
507.0, 0.011312566861048376
508.0, 0.014063964895001694
509.0, 0.015865434052149466
510.0, 0.015655304332283685
511.0, 0.01722023853249303
512.0, 0.018780851767532414
513.0, 0.01839263797004339
514.0, 0.01701935034677692
515.0, 0.014952714655993257
516.0, 0.013333574531102725
517.0, 0.013318411811025561
518.0, 0.012668859825740293
519.0, 0.009263227203026641
520.0, 0.008963107408515553
521.0, 0.007369698120561926
522.0, 0.006464687406544317
523.0, 0.006955996484015737
524.0, 0.0073904496717721304
525.0, 0.0062279314819863344
526.0, 0.00719622141642748
527.0, 0.007538043568851081
528.0, 0.007405936586040685
529.0, 0.008021275058521725
530.0, 0.009413785437119957
531.0, 0.010102961139869915
532.0, 0.009273149571184554
533.0, 0.009975541453333674
534.0, 0.011457245920756299
535.0, 0.011505864279788301
536.0, 0.011797608039649451
537.0, 0.013327661638979952
538.0, 0.01405067695010981
539.0, 0.015506542721943973
540.0, 0.01790611196920416
541.0, 0.017902352880952335
542.0, 0.0166883349329462
543.0, 0.014939870684060929
544.0, 0.013919426052263758
545.0, 0.013546565554242529
546.0, 0.012231453417285189
547.0, 0.009428595739268839
548.0, 0.007705376420673253
549.0, 0.008199791699530437
550.0, 0.00861908150708631
551.0, 0.0075672934839372714
552.0, 0.006622695796313939
553.0, 0.006774357082803808
554.0, 0.007535668024392091
555.0, 0.007498019624491626
556.0, 0.006969053719293946
557.0, 0.007819683362109147
558.0, 0.010459874804522797
559.0, 0.009427018377482133
560.0, 0.009827231347129813
561.0, 0.011418794662108916
562.0, 0.012225709137162375
563.0, 0.013447229109929194
564.0, 0.013782633518240498
565.0, 0.012924375636056801
566.0, 0.011789532589217814
567.0, 0.011046514731332875
568.0, 0.010807440551287982
569.0, 0.010801355714615423
570.0, 0.010318664357752309
571.0, 0.00875285953957362
572.0, 0.007060653175022524
573.0, 0.006140434378471011
574.0, 0.005743623728779929
575.0, 0.005629789744704683
576.0, 0.004296655389001619
577.0, 0.0036998108755677233
578.0, 0.003407533786847039
579.0, 0.002471821948238634
580.0, 0.0028036791167440705
581.0, 0.0014630855939484857
582.0, 0.0015826785491968264
583.0, 0.0008775158268041396
584.0, 0.0008250772936856498
585.0, 0.0004059182109760671
586.0, 0.0018790952936125847
587.0, 0.0010980556960297455
588.0, 0.0001801508534327013
589.0, 0.0004400514451219145
590.0, 0.0002720157141946513
591.0, 0.00023781338078067448
592.0, 0.000691457665247791
593.0, 0.00023975583951794412
594.0, 0.00011657173952474205
595.0, 0.00012074037057648283
596.0, 0.00043511382196924315
597.0, 0.0002007719427146328
598.0, 0.0009629201471111298
599.0, 0.0009676028999451006
600.0, 0.00025352198837538684
601.0, 0.0007825115958678197
602.0, 0.0014432255036792904
603.0, 0.0016273907749765506
604.0, 0.002030069506974522
605.0, 0.0025248843984007163
606.0, 0.002040745085548002
607.0, 0.000922205546644508
608.0, 0.0015055467761647986
609.0, 0.0021898423299661638
610.0, 0.0036991028400970623
611.0, 0.003996656858449162
612.0, 0.0031487411416448096
613.0, 0.0027766836189969347
614.0, 0.0034938561318322322
615.0, 0.0023966701547819425
616.0, 0.0013577982790644466
617.0, 0.0002282550495809238
618.0, 0.0006366222512601054
619.0, 0.0006202594064656663
620.0, 0.003753739002553048
621.0, 0.003931435482230307
622.0, 0.0024449502758570538
623.0, 0.0010379780498650573
624.0, 0.000492742916072905
625.0, 0.000893236447873817
626.0, 0.0015858070430332394
627.0, 0.0009203316031278011
628.0, 0.0015028659399401103
629.0, 0.002120375136065378
630.0, 0.0016434192099189732
631.0, 0.0016114555551398398
632.0, 0.0009072017955200762
633.0, 0.003727674490241942
634.0, 0.0034679554530698134
635.0, 0.0025542839219023844
636.0, 0.0039841608109428
637.0, 0.003841016661713685
638.0, 0.005100212482335917
639.0, 0.0068187808857507765
640.0, 0.007501285114508365
641.0, 0.007386000590530227
642.0, 0.007608572715184773
643.0, 0.008385975256968914
644.0, 0.008425035942259481
645.0, 0.008396716110249842
646.0, 0.00966758572900965
647.0, 0.010969637137503796
648.0, 0.010314343228790445
649.0, 0.0075940978201153395
650.0, 0.00857676795730377
651.0, 0.00876630495363266
652.0, 0.00848473298993507
653.0, 0.00823080376055074
654.0, 0.007472764802774776
655.0, 0.00570513105329827
656.0, 0.006447372301015615
657.0, 0.007292242687300557
658.0, 0.006280256572929468
659.0, 0.004486304034033322
660.0, 0.0044051535378652916
661.0, 0.006652847653557012
662.0, 0.004955674104809878
663.0, 0.0046504797121221545
664.0, 0.004920879601149581
665.0, 0.004461566480136375
666.0, 0.00405114816838923
667.0, 0.005501940427274072
668.0, 0.00604667529721164
669.0, 0.005861424019468054
670.0, 0.005434342201925831
671.0, 0.005448349330059203
672.0, 0.005818873596146046
673.0, 0.005216860898089833
674.0, 0.004168784005720149
675.0, 0.004186916805110574
676.0, 0.0053294306623167965
677.0, 0.006011256817286131
678.0, 0.00486349354384144
679.0, 0.0036427732901890076
680.0, 0.004328532868047072
681.0, 0.006514522915672969
682.0, 0.007188503352299138
683.0, 0.005627144534454896
684.0, 0.004657047771814654
685.0, 0.006775826707682185
686.0, 0.005078669947909036
687.0, 0.0055987904881488314
688.0, 0.00712334260015083
689.0, 0.007877779912696711
690.0, 0.006909624993518304
691.0, 0.00438069648306018
692.0, 0.004405730512895041
693.0, 0.004632311434481003
694.0, 0.003497962257540406
695.0, 0.002988363273998142
696.0, 0.0033001028148783333
697.0, 0.001629923024286173
698.0, 0.0011626739348458213
699.0, 0.0006221399885572766
700.0, 0.0013342691259745525
701.0, 0.001805955206473014
702.0, 0.001354435900856582
703.0, 0.00144631325692258
704.0, 0.0016818781407806269
705.0, 0.0010452353247883143
706.0, 0.0012123395897796307
707.0, 0.0010578446498999093
708.0, 0.0006466416216131455
709.0, 0.0013564698937126218
710.0, 0.0013600874586669046
711.0, 0.003085461712393506
712.0, 0.0014157910259935177
713.0, 0.0004009271181157629
714.0, 0.0001411375497096015
715.0, 0.0006239677653874387
716.0, 0.000992145072732981
717.0, 0.0012913270596617925
718.0, 0.0015389551627750548
719.0, 0.0018256688305562467
720.0, 0.002617580906692246
721.0, 0.004174389038115403
722.0, 0.005458499776622915
723.0, 0.004818951352974929
724.0, 0.00466238521882276
725.0, 0.005252599514704722
726.0, 0.006200776527409512
727.0, 0.0072538187092447155
728.0, 0.008486795683200054
729.0, 0.010078063494150849
730.0, 0.010508640513687169
731.0, 0.011963744239079388
732.0, 0.015126014817348904
733.0, 0.018421931512658526
734.0, 0.0213105827583501
735.0, 0.026282548611900065
736.0, 0.02902632446671871
737.0, 0.03267166080432599
738.0, 0.03856877376597327
739.0, 0.04376147989357299
740.0, 0.048742688211245694
741.0, 0.05667638129669289
742.0, 0.060358658381144945
743.0, 0.06295182895178408
744.0, 0.06650866760811056
745.0, 0.06824396961149486
746.0, 0.06641781839820769
747.0, 0.062356644767575714
748.0, 0.057379903563034844
749.0, 0.05046062671905557
750.0, 0.04364833482585326
751.0, 0.0351872800199809
752.0, 0.024128464693784418
753.0, 0.015161636385794758
754.0, 0.013973975675207287
755.0, 0.014133440649308823
756.0, 0.013473325642329741
757.0, 0.010955963062389157
758.0, 0.006917751447835008
759.0, 0.004649332209676335
760.0, 0.005204901750394013
761.0, 0.0020571306455132877
762.0, 0.0023644287506494666
763.0, 0.003892929862890837
764.0, 0.0025913593883042933
765.0, 0.0015154252936534678
766.0, 0.002021965980636755
767.0, 0.0006814513552892438
768.0, 0.0005318753229402771
769.0, 0.00017159619971752018
770.0, 5.915944917251512e-05
771.0, 0.0009878636714405107
772.0, 0.001688370506704629
773.0, 0.0014431904259763644
774.0, 0.0012450189849678333
775.0, 0.0008437830504007244
776.0, 0.0005337283409919347
777.0, 0.0007617097111286933
778.0, 0.0008533711537750745
779.0, 0.0010496854993720943
780.0, 0.0006738274502408762
781.0, 0.0019609711231009354
782.0, 0.001564131466831003
783.0, 0.0011888623013136363
784.0, 0.0011036180360116364
785.0, 0.001326719141460977
786.0, 0.0017539737756150787
787.0, 0.0016807450224088528
788.0, 0.0004226466824559795
789.0, 0.0016128694072673837
790.0, 0.002781683224241777
791.0, 0.0034720548641711817
792.0, 0.003949882707680148
793.0, 0.004006741240545704
794.0, 0.003966814542078954
795.0, 0.005936784991959363
796.0, 0.008109692746536615
797.0, 0.010768797530084771
798.0, 0.012878697141309148
799.0, 0.01442832111316891
800.0, 0.017013588402445816
801.0, 0.02122713930665999
802.0, 0.022522272114760888
803.0, 0.026516102998198558
804.0, 0.029666938335891364
805.0, 0.035291604183280534
806.0, 0.044378284044212006
807.0, 0.052218593162575544
808.0, 0.059434086368424274
809.0, 0.07310685459503372
810.0, 0.08699616900913175
811.0, 0.10392633495937678
812.0, 0.1252453275487546
813.0, 0.14985004838345703
814.0, 0.17838766372386675
815.0, 0.21732335215648532
816.0, 0.26212981932072205
817.0, 0.30822853592960275
818.0, 0.3677084690120035
819.0, 0.4387235121905525
820.0, 0.5221115578636357
821.0, 0.6235125210692579
822.0, 0.7240555016641099
823.0, 0.8290528957038225
824.0, 0.9255947688977909
825.0, 0.986185092402739
826.0, 0.9979271498281698
827.0, 0.9601323337016199
828.0, 0.8781240094783503
829.0, 0.7795874791071001
830.0, 0.6752389647497724
831.0, 0.574533554684938
832.0, 0.4903356321987086
833.0, 0.4214230175048357
834.0, 0.3627111662277887
835.0, 0.316145776726283
836.0, 0.28320003055002746
837.0, 0.2553845213610424
838.0, 0.23393342398465097
839.0, 0.21947366215468345
840.0, 0.20849544342753787
841.0, 0.1988165102889142
842.0, 0.1921962857629705
843.0, 0.18787047206880292
844.0, 0.1788706875216837
845.0, 0.16897983501106556
846.0, 0.16031769061723167
847.0, 0.14847406140180572
848.0, 0.13416569961390537
849.0, 0.12158818688117999
850.0, 0.1055606077400059
851.0, 0.09045888707518615
852.0, 0.07748338757419504
853.0, 0.06709808020829179
854.0, 0.05851967641794765
855.0, 0.05012520294997496
856.0, 0.042124935328821764
857.0, 0.03798991803338079
858.0, 0.0334126610178823
859.0, 0.029413062619668296
860.0, 0.023479796876897385
861.0, 0.019649738738151023
862.0, 0.01773082951960156
863.0, 0.015890712631553113
864.0, 0.016757819396549998
865.0, 0.011189298075636601
866.0, 0.009767666248010815
867.0, 0.009614509015403621
868.0, 0.007961182433647235
869.0, 0.006590004148874065
870.0, 0.006226559210347334
871.0, 0.0041915540232972835
872.0, 0.0024357475187700536
873.0, 0.0021770999476455753
874.0, 0.0010124636143785544
875.0, 0.001884453522737003
876.0, 0.001772003805056321
877.0, 7.619513220439547e-05
878.0, 5.767139010430613e-05
879.0, 6.769143826034415e-05
880.0, 0.0007733949364331127
881.0, 0.0003342590542491194
882.0, 0.00026726401831062675
883.0, 0.0004164549168524387
884.0, 0.0003718835903465918
885.0, 0.0007900861344901822
886.0, 0.0005801735319168882
887.0, 0.00040325109663526514
888.0, 0.0023829782248699478
889.0, 0.0041391558195141296
890.0, 0.004986173929182685
891.0, 0.005911458544157702
892.0, 0.007241620944921009
893.0, 0.008610634301944208
894.0, 0.009901374287018516
895.0, 0.011550248916864032
896.0, 0.015642849684342947
897.0, 0.01975072834173451
898.0, 0.02389776740537304
899.0, 0.02708279801914874
900.0, 0.030222198224037076
901.0, 0.03607519683377254
902.0, 0.039192990610605785
903.0, 0.04377687489101591
904.0, 0.04628547208337787
905.0, 0.0483926811766286
906.0, 0.04972636920556911
907.0, 0.0501475557089305
908.0, 0.049239471888977746
909.0, 0.042986069086093155
910.0, 0.0386258012025089
911.0, 0.03390857733363809
912.0, 0.028950194224446137
913.0, 0.024626188969419222
914.0, 0.020731084760373362
915.0, 0.01713377351931473
916.0, 0.014224982660870087
917.0, 0.011806784488305433
918.0, 0.012102179189839343
919.0, 0.012249057950347699
920.0, 0.009437506140580806
921.0, 0.008765345860789824
922.0, 0.009794073622242582
923.0, 0.009678918886263056
924.0, 0.010950199098996397
925.0, 0.011558475576058706
926.0, 0.01377085520409638
927.0, 0.017475768755267344
928.0, 0.016862941666010718
929.0, 0.018507519770322663
930.0, 0.02480433958843512
931.0, 0.029588724975825306
932.0, 0.03039742983206638
933.0, 0.033793404847029876
934.0, 0.031538082841967165
935.0, 0.030468377679214575
936.0, 0.02566146079654315
937.0, 0.01997111249879406
938.0, 0.016181547411042007
939.0, 0.01218152863408371
940.0, 0.00918377219550349
941.0, 0.005911839613086684
942.0, 0.005718081507888058
943.0, 0.003567971632632854
944.0, 0.0023377007710748527
945.0, 0.0014800208300611488
946.0, 0.0004690266422353833
947.0, 0.000375178611169897
948.0, 0.0011428599360647938
949.0, 0.00031289624564541455
950.0, 0.000770798525933262
951.0, 0.0011414948379269148
952.0, 0.00037149715080071397
953.0, 0.0004501428876896076
954.0, 0.0009566791576884778
955.0, 0.0017503737369005843
956.0, 0.0021132612961923094
957.0, 0.0007303915753638187
958.0, 0.0006195634932685179
959.0, 0.0019327973176144083
960.0, 0.0013593652366427995
961.0, 0.0003901633293033881
962.0, 0.0006352358739469684
963.0, 0.0012160855813341705
964.0, 0.0012934698203301788
965.0, 0.0012035650342869155
966.0, 0.0004351284018149336
967.0, 0.0013565534703271276
968.0, 0.001976763336031677
969.0, 0.0008228169681008693
970.0, 0.0008297608983115658
971.0, 0.002515051942649122
972.0, 0.00211090592387863
973.0, 0.0024890638012163764
974.0, 0.0021308743748179853
975.0, 0.0013698173051711197
976.0, 0.0026073154996268787
977.0, 0.002926628134969669
978.0, 0.0019287706694123214
979.0, 0.0021988558961750725
980.0, 0.0035162990446235077
981.0, 0.0035305166878655896
982.0, 0.0037905265411987037
983.0, 0.0028843691978520086
984.0, 0.0035848470628815484
985.0, 0.0036127469548245914
986.0, 0.002362209159253955
987.0, 0.0021379775358293506
988.0, 0.003410502294274727
989.0, 0.0031824169791604307
990.0, 0.004142900745305101
991.0, 0.0036216129559637888
992.0, 0.005120451615070903
993.0, 0.005025050911363489
994.0, 0.0034758277846448898
995.0, 0.0036126961342547856
996.0, 0.0050751153811574926
997.0, 0.005257120908479756
998.0, 0.005640972060557225
999.0, 0.00573424156651637
1000.0, 0.006311591666479288
1001.0, 0.005948153284188365
1002.0, 0.005008446917857017
1003.0, 0.00563888179360618
1004.0, 0.0059819167143097055
1005.0, 0.004617494827966918
1006.0, 0.005377112727816843
1007.0, 0.005432188590709194
1008.0, 0.0047506643263622896
1009.0, 0.004435171059249772
1010.0, 0.005117729824525712
1011.0, 0.006787122193751475
1012.0, 0.005667458223347093
1013.0, 0.0035352144029034446
1014.0, 0.004996435301048311
1015.0, 0.004146809551110579
1016.0, 0.003648966555397275
1017.0, 0.003576276233977995
1018.0, 0.005655424306507033
1019.0, 0.0036269239831294
1020.0, 0.0015694495777245647
1021.0, 0.00189685381834209
1022.0, 0.0027105266248998545
1023.0, 0.0029154876576150054
1024.0, 0.0015789130870563647
1025.0, 0.0002970852857460156
1026.0, 0.0024077284784434156
1027.0, 0.0022864066687145073
1028.0, 0.003232373184426112
1029.0, 0.0020281995673467877
1030.0, 0.00027637280676234957
1031.0, 0.0014035659578243665
1032.0, 0.0017004949787880889
1033.0, 0.0016583710726218958
1034.0, 0.001528501455377605
1035.0, 0.002102120055022818
1036.0, 0.001555038458530141
1037.0, 0.0014375887403662972
1038.0, 0.001199571414187872
1039.0, 0.0009116535204795047
1040.0, 0.0010157157191117365
1041.0, 0.0010790862571965103
1042.0, 0.0025797047221597534
1043.0, 0.0024056630932336046
1044.0, 0.0018685627708561992
1045.0, 0.00039525582991731896
1046.0, 0.0026609998243244583
1047.0, 0.0017123218833639358
1048.0, 0.0005397642954176556
1049.0, 0.0025815033877102894
1050.0, 0.002483093718444222
1051.0, 0.0006359785794302307
1052.0, 0.0015797322486070411
1053.0, 0.0023946843987555874
1054.0, 0.0013036925176471547
1055.0, 0.0027733096634050833
1056.0, 0.003142844494652672
1057.0, 0.002652579545724036
1058.0, 0.002720035426551269
1059.0, 0.0018422921993420938
1060.0, 0.0012548770085024975
1061.0, 0.00021919736194389458
1062.0, 0.001282258410803375
1063.0, 0.0011584318865223119
1064.0, 0.0006610477624941027
1065.0, 4.685472027901911e-05
1066.0, 8.078087851628066e-05
1067.0, 0.0010195246826637367
1068.0, 0.0019387563817887404
1069.0, 0.0007890059052264194
1070.0, 0.0009279987266416017
1071.0, 0.0014734298869840078
1072.0, 0.00039701149892793435
1073.0, 0.0006972081355894745
1074.0, 0.0010266379738938336
1075.0, 0.0008856300156747955
1076.0, 0.0006664296294694285
1077.0, 0.0009527763686970703
1078.0, 0.001470677839177066
1079.0, 0.0008684424277954709
1080.0, 0.0027203080956775426
1081.0, 0.003902290010233838
1082.0, 0.003960600335471098
1083.0, 0.0038362365053337916
1084.0, 0.003895312534374188
1085.0, 0.004223643332429821
1086.0, 0.00452273791383543
1087.0, 0.004183733366220059
1088.0, 0.003077776008403199
1089.0, 0.0019857843162736236
1090.0, 0.0013335905038720985
1091.0, 0.0008619053911065047
1092.0, 0.0019810454093137394
1093.0, 0.0015865110196571614
1094.0, 0.001709046288167362
1095.0, 0.0015675652226032361
1096.0, 0.0008639301228563417
1097.0, 0.0010600992696296254
1098.0, 0.00125115577306093
1099.0, 0.001765601138464399
1100.0, 0.0012880199634060182
1101.0, 0.0005366880281276049
1102.0, 7.186392812490458e-05
1103.0, 0.0003132611529534818
1104.0, 0.00038594178721153424
1105.0, 0.00020113993858523834
1106.0, 0.001013459741730139
1107.0, 0.0014930349416512482
1108.0, 0.001248656823431459
1109.0, 0.0004857129859818683
1110.0, 0.0008757462842744969
1111.0, 0.0005576776751680236
1112.0, 0.0002671285622680826
1113.0, 0.0007249082285465485
1114.0, 0.001069580966100165
1115.0, 0.0012321553906125633
1116.0, 0.0004061662506269427
1117.0, 0.00025191491185516755
1118.0, 0.0014005460132645615
1119.0, 0.0013625125570092605
1120.0, 0.0025025151562982906
1121.0, 0.0008522611103588139
1122.0, 0.00045170072796103263
1123.0, 0.00115557238157611
1124.0, 0.0015005703900665014
1125.0, 0.0026882030197622466
1126.0, 0.0038948713721523227
1127.0, 0.0037109194292818705
1128.0, 0.003057600865454111
1129.0, 0.0019879706973842085
1130.0, 0.003294721664837868
1131.0, 0.0033221666007955345
1132.0, 0.002935762839066963
1133.0, 0.004515001485149723
1134.0, 0.003619477500803225
1135.0, 0.002405141363156185
1136.0, 0.003190082802539546
1137.0, 0.004742723573889994
1138.0, 0.005632438467790701
1139.0, 0.006675119434627689
1140.0, 0.0072182046692224645
1141.0, 0.005186809691526832
1142.0, 0.003954796020612117
1143.0, 0.005388718294113681
1144.0, 0.004232073272339185
1145.0, 0.004762705998449704
1146.0, 0.004727743611522588
1147.0, 0.0026842024650698083
1148.0, 0.0024865370750450384
1149.0, 0.004196490728402253
1150.0, 0.003099193340952429
1151.0, 0.0037492707468449243
1152.0, 0.005505607005648935
1153.0, 0.005572378092648153
1154.0, 0.005786897361789525
1155.0, 0.004800819402978609
1156.0, 0.0041550504015939555
1157.0, 0.003350642817129455
1158.0, 0.004009348163576749
1159.0, 0.005789531363311611
1160.0, 0.005079696364575045
1161.0, 0.0043884625939020865
1162.0, 0.004166954307181352
1163.0, 0.004065370295446592
1164.0, 0.0025651263106349002
1165.0, 0.002835548994526436
1166.0, 0.0036935882950554174
1167.0, 0.0039677679577765695
1168.0, 0.004635921875835797
1169.0, 0.004127411339092452
1170.0, 0.0024421893289915016
1171.0, 0.002558971630058671
1172.0, 0.0030499376488459856
1173.0, 0.0027736509767231437
1174.0, 0.003260794801747381
1175.0, 0.0032727650839252938
1176.0, 0.003173426816172147
1177.0, 0.0028150727098586437
1178.0, 0.001120860159414502
1179.0, 0.0009709681477849322
1180.0, 0.001856355542221742
1181.0, 0.00065026776124697
1182.0, 0.0012851587870881674
1183.0, 0.004171344825420833
1184.0, 0.000430071769788506
1185.0, 0.001195111742939906
1186.0, 0.0003883335298833786
1187.0, 0.0007304753875474232
1188.0, 0.0007259450100243459
1189.0, 0.0020771744708035387
1190.0, 0.001260754385527147
1191.0, 0.00046008282187834013
1192.0, 0.0007213397191028555
1193.0, 0.0004470374585590676
1194.0, 0.0016280226747863123
1195.0, 0.0020432996030164655
1196.0, 0.0004194423701238142
1197.0, 0.000339215183010416
1198.0, 5.7246044798320456e-05
1199.0, 0.000624871692413421
1200.0, 0.0020367224807153273
1201.0, 0.0023313112568770196
1202.0, 0.0015048747278084019
1203.0, 0.0012439843337105107
1204.0, 0.0022108227260576167
1205.0, 0.0024185663922709076
1206.0, 0.0012049107047208286
1207.0, 0.001684241146460104
1208.0, 0.0014026135540783679
1209.0, 0.00292014438925475
1210.0, 0.0015835118772920009
1211.0, 0.002065306701432904
1212.0, 0.0021876688241347438
1213.0, 0.0012328444283833254
1214.0, 0.0016061628940434436
1215.0, 0.002110108009064169
1216.0, 0.0021380571013837023
1217.0, 0.0021956281061792583
1218.0, 0.0019695588446760554
1219.0, 0.0025288026043440003
1220.0, 0.0010931490470099223
1221.0, 0.002095593526595471
1222.0, 0.0026318842681580276
1223.0, 0.0021353820411481234
1224.0, 0.0009897561792606856
1225.0, 0.0011063782967777012
1226.0, 0.0008788252751393754
1227.0, 0.002558424806919198
1228.0, 0.0034780574711621845
1229.0, 0.0013971266562213336
1230.0, 0.001131761928392211
1231.0, 0.002485795054300651
1232.0, 0.0003986524418891649
1233.0, 0.0012190023736526863
1234.0, 0.002015882988000204
1235.0, 0.0018150536913131995
1236.0, 0.0025284277140120463
1237.0, 0.0016786811157338021
1238.0, 0.0017339122973660977
1239.0, 0.0018798374285334094
1240.0, 0.0018739354561902355
1241.0, 0.003552188546568668
1242.0, 0.004686674871429329
1243.0, 0.002321432080575788
1244.0, 0.0007403491319726188
1245.0, 0.0026372798755691126
1246.0, 0.0036704287762443747
1247.0, 0.0024821356867239758
1248.0, 0.0019563665284115465
1249.0, 0.0031839829679198646
1250.0, 0.003362418174811373
1251.0, 0.0028676094691471817
1252.0, 0.002341647072636795
1253.0, 0.0019574498401416273
1254.0, 0.0009141932284913177
1255.0, 0.00041236154549267537
1256.0, 0.0001969075390735543
1257.0, 0.0012323682086493922
1258.0, 0.001367050246340825
1259.0, 0.004622623506317325
1260.0, 0.0020440782687744597
1261.0, 0.0003233221550689263
1262.0, 0.0008889531576408061
1263.0, 0.0008994528313316674
1264.0, 0.0002032128095302098
1265.0, 0.0013250693312460034
1266.0, 0.001318108440973335
1267.0, 0.0009501730986975537
1268.0, 0.0012336672088647629
1269.0, 0.0008894912062565209
1270.0, 0.001955628032026478
1271.0, 0.0034270472381033434
1272.0, 0.002121961007907381
1273.0, 0.0006874651183238158
1274.0, 0.0017561523340474223
1275.0, 0.0008920100960608555
1276.0, 0.0016934596178135636
1277.0, 0.0028572386443814074
1278.0, 0.00047030062447688876
1279.0, 0.0004670121175247604
1280.0, 0.0013269762189577297
1281.0, 0.002174270869199873
1282.0, 0.002992333311021827
1283.0, 0.0026503395421216395
1284.0, 0.002062210178732563
1285.0, 0.0020902769990573957
1286.0, 0.003427997233731918
1287.0, 0.0012102666319569128
1288.0, 0.0010007369874623635
1289.0, 0.0014026382252741788
1290.0, 0.0014836847591972258
1291.0, 0.0032916921358467155
1292.0, 0.004221565808089991
1293.0, 0.0017595621965789284
1294.0, 2.846613746874233e-05
1295, 0.0
1296, 0.0
1297, 0.0
1298, 0.0
1299, 0.0
1300, 0.0
1301, 0.0
1302, 0.0
1303, 0.0
1304, 0.0
1305, 0.0
1306, 0.0
1307, 0.0
1308, 0.0
1309, 0.0
1310, 0.0
1311, 0.0
1312, 0.0
1313, 0.0
1314, 0.0
1315, 0.0
1316, 0.0
1317, 0.0
1318, 0.0
1319, 0.0
1320, 0.0
1321, 0.0
1322, 0.0
1323, 0.0
1324, 0.0
1325, 0.0
1326, 0.0
1327, 0.0
1328, 0.0
1329, 0.0
1330, 0.0
1331, 0.0
1332, 0.0
1333, 0.0
1334, 0.0
1335, 0.0
1336, 0.0
1337, 0.0
1338, 0.0
1339, 0.0
1340, 0.0
1341, 0.0
1342, 0.0
1343, 0.0
1344, 0.0
1345, 0.0
1346, 0.0
1347, 0.0
1348, 0.0
1349, 0.0
1350, 0.0
1351, 0.0
1352, 0.0
1353, 0.0
1354, 0.0
1355, 0.0
1356, 0.0
1357, 0.0
1358, 0.0
1359, 0.0
1360, 0.0
1361, 0.0
1362, 0.0
1363, 0.0
1364, 0.0
1365, 0.0
1366, 0.0
1367, 0.0
1368, 0.0
1369, 0.0
1370, 0.0
1371, 0.0
1372, 0.0
1373, 0.0
1374, 0.0
1375, 0.0
1376, 0.0
1377, 0.0
1378, 0.0
1379, 0.0
1380, 0.0
1381, 0.0
1382, 0.0
1383, 0.0
1384, 0.0
1385, 0.0
1386, 0.0
1387, 0.0
1388, 0.0
1389, 0.0
1390, 0.0
1391, 0.0
1392, 0.0
1393, 0.0
1394, 0.0
1395, 0.0
1396, 0.0
1397, 0.0
1398, 0.0
1399, 0.0
1400, 0.0
1401, 0.0
1402, 0.0
1403, 0.0
1404, 0.0
1405, 0.0
1406, 0.0
1407, 0.0
1408, 0.0
1409, 0.0
1410, 0.0
1411, 0.0
1412, 0.0
1413, 0.0
1414, 0.0
1415, 0.0
1416, 0.0
1417, 0.0
1418, 0.0
1419, 0.0
1420, 0.0
1421, 0.0
1422, 0.0
1423, 0.0
1424, 0.0
1425, 0.0
1426, 0.0
1427, 0.0
1428, 0.0
1429, 0.0
1430, 0.0
1431, 0.0
1432, 0.0
1433, 0.0
1434, 0.0
1435, 0.0
1436, 0.0
1437, 0.0
1438, 0.0
1439, 0.0
1440, 0.0
1441, 0.0
1442, 0.0
1443, 0.0
1444, 0.0
1445, 0.0
1446, 0.0
1447, 0.0
1448, 0.0
1449, 0.0
1450, 0.0
1451, 0.0
1452, 0.0
1453, 0.0
1454, 0.0
1455, 0.0
1456, 0.0
1457, 0.0
1458, 0.0
1459, 0.0
1460, 0.0
1461, 0.0
1462, 0.0
1463, 0.0
1464, 0.0
1465, 0.0
1466, 0.0
1467, 0.0
1468, 0.0
1469, 0.0
1470, 0.0
1471, 0.0
1472, 0.0
1473, 0.0
1474, 0.0
1475, 0.0
1476, 0.0
1477, 0.0
1478, 0.0
1479, 0.0
1480, 0.0
1481, 0.0
1482, 0.0
1483, 0.0
1484, 0.0
1485, 0.0
1486, 0.0
1487, 0.0
1488, 0.0
1489, 0.0
1490, 0.0
1491, 0.0
1492, 0.0
1493, 0.0
1494, 0.0
1495, 0.0
1496, 0.0
1497, 0.0
1498, 0.0
1499, 0.0
1500, 0.0
1501, 0.0
1502, 0.0
1503, 0.0
1504, 0.0
1505, 0.0
1506, 0.0
1507, 0.0
1508, 0.0
1509, 0.0
1510, 0.0
1511, 0.0
1512, 0.0
1513, 0.0
1514, 0.0
1515, 0.0
1516, 0.0
1517, 0.0
1518, 0.0
1519, 0.0
1520, 0.0
1521, 0.0
1522, 0.0
1523, 0.0
1524, 0.0
1525, 0.0
1526, 0.0
1527, 0.0
1528, 0.0
1529, 0.0
1530, 0.0
1531, 0.0
1532, 0.0
1533, 0.0
1534, 0.0
1535, 0.0
1536, 0.0
1537, 0.0
1538, 0.0
1539, 0.0
1540, 0.0
1541, 0.0
1542, 0.0
1543, 0.0
1544, 0.0
1545, 0.0
1546, 0.0
1547, 0.0
1548, 0.0
1549, 0.0
1550, 0.0
1551, 0.0
1552, 0.0
1553, 0.0
1554, 0.0
1555, 0.0
1556, 0.0
1557, 0.0
1558, 0.0
1559, 0.0
1560, 0.0
1561, 0.0
1562, 0.0
1563, 0.0
1564, 0.0
1565, 0.0
1566, 0.0
1567, 0.0
1568, 0.0
1569, 0.0
1570, 0.0
1571, 0.0
1572, 0.0
1573, 0.0
1574, 0.0
1575, 0.0
1576, 0.0
1577, 0.0
1578, 0.0
1579, 0.0
1580, 0.0
1581, 0.0
1582, 0.0
1583, 0.0
1584, 0.0
1585, 0.0
1586, 0.0
1587, 0.0
1588, 0.0
1589, 0.0
1590, 0.0
1591, 0.0
1592, 0.0
1593, 0.0
1594, 0.0
1595, 0.0
1596, 0.0
1597, 0.0
1598, 0.0
1599, 0.0
