30, 0.0
31, 0.0
32, 0.0
33, 0.0
34, 0.0
35, 0.0
36, 0.0
37, 0.0
38, 0.0
39, 0.0
40, 0.0
41, 0.0
42, 0.0
43, 0.0
44, 0.0
45, 0.0
46, 0.0
47, 0.0
48, 0.0
49, 0.0
50, 0.0
51, 0.0
52, 0.0
53, 0.0
54, 0.0
55, 0.0
56, 0.0
57, 0.0
58, 0.0
59, 0.0
60, 0.0
61, 0.0
62, 0.0
63, 0.0
64, 0.0
65, 0.0
66, 0.0
67, 0.0
68, 0.0
69, 0.0
70, 0.0
71, 0.0
72, 0.0
73, 0.0
74, 0.0
75, 0.0
76, 0.0
77, 0.0
78, 0.0
79, 0.0
80, 0.0
81, 0.0
82, 0.0
83, 0.0
84, 0.0
85, 0.0
86, 0.0
87, 0.0
88, 0.0
89, 0.0
90, 0.0
91, 0.0
92, 0.0
93, 0.0
94, 0.0
95, 0.0
96, 0.0
97, 0.0
98, 0.0
99, 0.0
100, 0.0
101, 0.0
102, 0.0
103, 0.0
104, 0.0
105, 0.0
106, 0.0
107, 0.0
108, 0.0
109, 0.0
110, 0.0
111, 0.0
112, 0.0
113, 0.0
114, 0.0
115, 0.0
116, 0.0
117, 0.0
118, 0.0
119, 0.0
120, 0.0
121, 0.0
122, 0.0
123, 0.0
124, 0.0
125, 0.0
126, 0.0
127, 0.0
128, 0.0
129, 0.0
130, 0.0
131, 0.0
132, 0.0
133, 0.0
134, 0.0
135, 0.0
136, 0.0
137, 0.0
138, 0.0
139, 0.0
140, 0.0
141, 0.0
142, 0.0
143, 0.0
144, 0.0
145, 0.0
146, 0.0
147, 0.0
148, 0.0
149, 0.0
150, 0.0
151, 0.0
152, 0.0
153, 0.0
154, 0.0
155, 0.0
156, 0.0
157, 0.0
158, 0.0
159, 0.0
160, 0.0
161, 0.0
162, 0.0
163, 0.0
164, 0.0
165, 0.0
166, 0.0
167, 0.0
168, 0.0
169, 0.0
170, 0.0
171, 0.0
172, 0.0
173, 0.0
174, 0.0
175, 0.0
176, 0.0
177, 0.0
178, 0.0
179, 0.0
180.0, 0.0003051107200912202
181.0, 0.003807402406873951
182.0, 0.004523468266506138
183.0, 0.014040208494044465
184.0, 0.019256526596342617
185.0, 0.02062195374264611
186.0, 0.027874095410466534
187.0, 0.0314461499443539
188.0, 0.036807976848630915
189.0, 0.04697481007045565
190.0, 0.05646452090051774
191.0, 0.05016639271783351
192.0, 0.05037287377562164
193.0, 0.049974803400794146
194.0, 0.04658279572480242
195.0, 0.05111721651595754
196.0, 0.05302872921613567
197.0, 0.050816851419454856
198.0, 0.05155674337354292
199.0, 0.059239737994526524
200.0, 0.058284236935322795
201.0, 0.05450057810370223
202.0, 0.05443530572587887
203.0, 0.055611757689389266
204.0, 0.04687300787530922
205.0, 0.04642881991100744
206.0, 0.05221784394621271
207.0, 0.05773207125800475
208.0, 0.056324250355420366
209.0, 0.05858324321689421
210.0, 0.05578083207400371
211.0, 0.053258551126483776
212.0, 0.054558463119477235
213.0, 0.04807363298594456
214.0, 0.0417119221590952
215.0, 0.037433770462481725
216.0, 0.03309873137057278
217.0, 0.029203676661406466
218.0, 0.029632499420865193
219.0, 0.028760722601033697
220.0, 0.024352269025282397
221.0, 0.01864315063305734
222.0, 0.024762834293925437
223.0, 0.021092753318578513
224.0, 0.014559679336602079
225.0, 0.012978649930960815
226.0, 0.017528699522369944
227.0, 0.013553830498300003
228.0, 0.013565651682520385
229.0, 0.018357605340232595
230.0, 0.020607894037910753
231.0, 0.01337917069736461
232.0, 0.006544040064969501
233.0, 0.0032443432263139895
234.0, 0.0015692902918755555
235.0, 0.003492395513960572
236.0, 0.00035995718382216734
237.0, 0.0005178913602656817
238.0, 0.0028520992101609298
239.0, 0.0015615704808927878
240.0, 0.0008848428630594531
241.0, 0.0006867106392810768
242.0, 0.00041167109813592637
243.0, 0.0007028633197549775
244.0, 0.0010117387885186803
245.0, 0.0006874840854124056
246.0, 0.0016673564681266714
247.0, 0.0027636335086709788
248.0, 0.00023580098837477372
249.0, 0.003661216940776319
250.0, 0.0037559715184826105
251.0, 0.0012232864587238127
252.0, 0.003669740538547056
253.0, 0.0007372962233530366
254.0, 0.007046899409311171
255.0, 0.008581496581377288
256.0, 0.007012986896187097
257.0, 0.008179449110323334
258.0, 0.008435550952280562
259.0, 0.018410328784089446
260.0, 0.024797174886842084
261.0, 0.026504870169173435
262.0, 0.032962337371833815
263.0, 0.03249478500609239
264.0, 0.034111688340689034
265.0, 0.03773007834771456
266.0, 0.041623265392814975
267.0, 0.0460404664847703
268.0, 0.04541642877559753
269.0, 0.04629260570958494
270.0, 0.04754840244656925
271.0, 0.04518485924295957
272.0, 0.04631621394062932
273.0, 0.052092818859467184
274.0, 0.05360018730748132
275.0, 0.05111606683194365
276.0, 0.05636815380844769
277.0, 0.05806910529056693
278.0, 0.05633245155644688
279.0, 0.056159923376272396
280.0, 0.05990128844269812
281.0, 0.060656066547065346
282.0, 0.06073806019027956
283.0, 0.06439334971536412
284.0, 0.06812415651216311
285.0, 0.06695576506445657
286.0, 0.07668028777633554
287.0, 0.07777606310104442
288.0, 0.07470475988741748
289.0, 0.07354082721663864
290.0, 0.06965660180879059
291.0, 0.06997996510390533
292.0, 0.07026708603474617
293.0, 0.0666224204320033
294.0, 0.060854069409717555
295.0, 0.05955006971003102
296.0, 0.05405294319722144
297.0, 0.04823322929655917
298.0, 0.044083037156474054
299.0, 0.03953369514466305
300.0, 0.03509760031316713
301.0, 0.028327017700589565
302.0, 0.022923764834338035
303.0, 0.020346021485263197
304.0, 0.016849582175525797
305.0, 0.018342551675212294
306.0, 0.017111615467368432
307.0, 0.012826835426772756
308.0, 0.009802314782739942
309.0, 0.009123899361612895
310.0, 0.007209438948890443
311.0, 0.0063831388118927145
312.0, 0.00698230291093082
313.0, 0.006209243931972381
314.0, 0.0004782524658326255
315.0, 0.00021652135549425785
316.0, 0.0006177376683094043
317.0, 0.0013267358203960513
318.0, 0.004014113186167309
319.0, 0.004641078778477038
320.0, 0.0036096528769982445
321.0, 0.003421992646584828
322.0, 0.003657381535751795
323.0, 0.000550855102355671
324.0, 0.0006937385250177523
325.0, 0.000704095652651781
326.0, 0.00022545220680737863
327.0, 0.0004644773506365284
328.0, 0.0001645474095986108
329.0, 0.0008523427782403699
330.0, 0.0018302145409924777
331.0, 0.0020898516172347665
332.0, 0.0009288358876824243
333.0, 0.00022596140662019859
334.0, 0.0013034249734855856
335.0, 0.0008115993791939526
336.0, 0.0025693027814820534
337.0, 0.004878382279361799
338.0, 0.007564725186123109
339.0, 0.009870782778496123
340.0, 0.010490063672019885
341.0, 0.01002846109227978
342.0, 0.01208195356278271
343.0, 0.015441611355723271
344.0, 0.01709134551499549
345.0, 0.017867944278394273
346.0, 0.01938422740110003
347.0, 0.020371392763930296
348.0, 0.02307295490093659
349.0, 0.02337929030550481
350.0, 0.023208760502660367
351.0, 0.025963135831973173
352.0, 0.02573802537094374
353.0, 0.026957558925152544
354.0, 0.029080492697926095
355.0, 0.032109402953460514
356.0, 0.03570347610775472
357.0, 0.030749899291685184
358.0, 0.029950843604256094
359.0, 0.029565473811145757
360.0, 0.026524381465500534
361.0, 0.023798620798005782
362.0, 0.025285467054383844
363.0, 0.026865456461924737
364.0, 0.0262381958136334
365.0, 0.024941218267066065
366.0, 0.025840170847042904
367.0, 0.022498736461208025
368.0, 0.02332811819098478
369.0, 0.02152840944832499
370.0, 0.014688830542425188
371.0, 0.015355455214706814
372.0, 0.01483368954595506
373.0, 0.015471048342383976
374.0, 0.01563535887047956
375.0, 0.013384954773126565
376.0, 0.012228605527257465
377.0, 0.011634061708366868
378.0, 0.010660968446829362
379.0, 0.010641581324462752
380.0, 0.012097591208303752
381.0, 0.011594263223903436
382.0, 0.00641070041933967
383.0, 0.006992175311332755
384.0, 0.008684550831542823
385.0, 0.004800455736356557
386.0, 0.005200809001725862
387.0, 0.007056439247385641
388.0, 0.006383735337017645
389.0, 0.003416419815683205
390.0, 0.0019843667022876343
391.0, 0.0059247336641412305
392.0, 0.0020261130152820876
393.0, 0.0003909374148304729
394.0, 0.001942182402009624
395.0, 0.0020159206584299456
396.0, 0.0007891769358458472
397.0, 0.003574673868155699
398.0, 0.004385405475978335
399.0, 0.002937901447973653
400.0, 0.0024984420070960247
401.0, 0.0027440158801814818
402.0, 0.0017638148368418667
403.0, 0.0018454702520030032
404.0, 0.0032995943502607387
405.0, 0.0046091740827256585
406.0, 0.0058951792820032085
407.0, 0.003044340034586871
408.0, 0.004240310099831617
409.0, 0.008013624167647473
410.0, 0.007385597155795576
411.0, 0.006582908828594649
412.0, 0.006388936767709129
413.0, 0.004812408108596117
414.0, 0.004962631082870393
415.0, 0.008448285771475326
416.0, 0.005320517810038271
417.0, 0.005075879132427446
418.0, 0.004886583356049426
419.0, 0.004080351685076422
420.0, 0.003837809559600254
421.0, 0.0007101742470722848
422.0, 0.0026289566971216616
423.0, 0.000271879715637738
424.0, 0.0024816038237588075
425.0, 0.0008773667785483656
426.0, 0.002142463513996233
427.0, 0.0038442721915401034
428.0, 0.003370978459580136
429.0, 0.0026357233252953475
430.0, 0.0024077877489148236
431.0, 0.0006439498646426293
432.0, 0.00036558989671922853
433.0, 0.0008445219075956414
434.0, 0.0009344365591397548
435.0, 0.0010515380665056765
436.0, 0.0008120259809031378
437.0, 0.001498388224161569
438.0, 0.0033149993455297523
439.0, 0.004078107865544761
440.0, 0.0032778102613590294
441.0, 0.0036804561872541856
442.0, 0.0029305619690590807
443.0, 0.0047461872109978084
444.0, 0.004910872688540262
445.0, 0.003031267614115383
446.0, 0.006820694544617134
447.0, 0.012018254260074114
448.0, 0.011155069792039785
449.0, 0.007833910335599239
450.0, 0.006604660380581203
451.0, 0.008989270141737707
452.0, 0.007308316113245849
453.0, 0.008709356444782969
454.0, 0.010665221568845019
455.0, 0.011132304973144921
456.0, 0.011549066004318848
457.0, 0.01154149449682163
458.0, 0.011111500233349619
459.0, 0.010212463847294257
460.0, 0.00957702136972894
461.0, 0.010070929939684886
462.0, 0.011612335402277423
463.0, 0.013411789574636148
464.0, 0.01699590165312269
465.0, 0.01985628657102333
466.0, 0.02000553853283199
467.0, 0.021464505093929064
468.0, 0.024715487904483902
469.0, 0.02647938813889234
470.0, 0.02927162835545274
471.0, 0.03448296642138496
472.0, 0.037772642953626416
473.0, 0.03955706198173709
474.0, 0.04290473775995248
475.0, 0.046289611307066554
476.0, 0.049168374869769785
477.0, 0.05333312319986416
478.0, 0.05549853104049292
479.0, 0.05933057672369218
480.0, 0.06631650879645115
481.0, 0.07274771761294913
482.0, 0.0733480109910385
483.0, 0.07600078228288068
484.0, 0.075763623039789
485.0, 0.07571904879252617
486.0, 0.07327961655066136
487.0, 0.0665860577637444
488.0, 0.06163859026188554
489.0, 0.05694465041240432
490.0, 0.05769335632340867
491.0, 0.05587499736110257
492.0, 0.048270270826460515
493.0, 0.04544199147506692
494.0, 0.04340061301442264
495.0, 0.04188849861836642
496.0, 0.04066567948972652
497.0, 0.040988257109771276
498.0, 0.04318417008156648
499.0, 0.04142132566779195
500.0, 0.04225573731044353
501.0, 0.04272051362519649
502.0, 0.04288882740202007
503.0, 0.044166461340600455
504.0, 0.04230934125541943
505.0, 0.044822634683776647
506.0, 0.04678018572386965
507.0, 0.04587261184040814
508.0, 0.043186364230616545
509.0, 0.0424613035018552
510.0, 0.04272901038316961
511.0, 0.040051117558671065
512.0, 0.03817218334928048
513.0, 0.03563532359172257
514.0, 0.029111002789412196
515.0, 0.02749863868615473
516.0, 0.025751954182238686
517.0, 0.023812019637627337
518.0, 0.020942814845654693
519.0, 0.016322610762858302
520.0, 0.010927355891448113
521.0, 0.009436623314542182
522.0, 0.009833402685705024
523.0, 0.008753091489035806
524.0, 0.006609955374117892
525.0, 0.006837133449247197
526.0, 0.006728213685119015
527.0, 0.007112042416353188
528.0, 0.005954290817003185
529.0, 0.00378984591620503
530.0, 0.002544268761114575
531.0, 0.0023915840067903786
532.0, 0.004816071675751816
533.0, 0.003312561263115141
534.0, 0.0013570833413657944
535.0, 0.0009134038452153086
536.0, 0.0011608159500730813
537.0, 0.0009460106153409471
538.0, 0.0022398672327927915
539.0, 0.0016692079700536457
540.0, 0.0011515312040734774
541.0, 0.0009730356525563138
542.0, 0.002132364509003084
543.0, 0.0004632934866329396
544.0, 0.002357215936711726
545.0, 0.0026583349555322927
546.0, 0.0005433149348046977
547.0, 0.0027413096523866112
548.0, 0.0007593032987502485
549.0, 0.0013112716843242107
550.0, 0.0018838017786116286
551.0, 0.001284156703429248
552.0, 0.0005858280791873422
553.0, 0.0001970430440942371
554.0, 0.00128858620895036
555.0, 0.0030882369117702646
556.0, 0.002629555414188667
557.0, 0.0005014266979381423
558.0, 0.000748278048561952
559.0, 0.00259696064319472
560.0, 0.0031662119321911927
561.0, 0.0010447302865562002
562.0, 0.0008005364004536614
563.0, 0.0013047087884432288
564.0, 2.8061670746417465e-05
565.0, 0.0020298096403229505
566.0, 0.002984401721424587
567.0, 0.0012477354206517004
568.0, 0.0004598667012259593
569.0, 0.0008314762867043649
570.0, 0.002909158498788549
571.0, 0.00173095594585
572.0, 0.0030044879202872484
573.0, 0.003933593928764856
574.0, 0.002152049682945985
575.0, 0.0011151403557083685
576.0, 0.004167038079891365
577.0, 0.005193491576471307
578.0, 0.004652500597270869
579.0, 0.004573596156438666
580.0, 0.0057898603439726255
581.0, 0.00728975607512151
582.0, 0.009728618497403287
583.0, 0.012019926560884929
584.0, 0.0125388861196898
585.0, 0.011808734593385448
586.0, 0.012371723777349304
587.0, 0.016265323615470777
588.0, 0.02050068596984697
589.0, 0.021085019969887986
590.0, 0.0237941874236605
591.0, 0.029131344108487882
592.0, 0.028675977035179316
593.0, 0.03021400408884035
594.0, 0.035335119500717736
595.0, 0.04069438533287459
596.0, 0.044148975408135824
597.0, 0.04681704569302591
598.0, 0.050865087163775226
599.0, 0.06073170019897787
600.0, 0.06705166315030163
601.0, 0.07175373391938929
602.0, 0.07722374618429609
603.0, 0.08483668944258874
604.0, 0.09438249182228924
605.0, 0.09548253537386527
606.0, 0.10081726591927306
607.0, 0.10682133984819091
608.0, 0.10872235575846394
609.0, 0.10954734469390447
610.0, 0.11252009013226417
611.0, 0.11828911377961601
612.0, 0.12603493863790585
613.0, 0.1337775236326801
614.0, 0.1416787862062152
615.0, 0.15104453215709082
616.0, 0.15889475124494667
617.0, 0.17056087015000668
618.0, 0.17912465705395264
619.0, 0.1846590796518286
620.0, 0.18882636566648003
621.0, 0.18931007630398103
622.0, 0.1883553112253214
623.0, 0.18005716369645863
624.0, 0.1696972024513632
625.0, 0.16128933137901114
626.0, 0.15422532824453597
627.0, 0.14471531253090783
628.0, 0.13408268883714877
629.0, 0.12544809886445654
630.0, 0.11781478197829241
631.0, 0.11199336429777258
632.0, 0.10735041948123983
633.0, 0.10079544793648669
634.0, 0.09803503635783586
635.0, 0.09630227629373686
636.0, 0.09450841131929685
637.0, 0.09271959480955574
638.0, 0.09060301297046648
639.0, 0.08710046245400618
640.0, 0.08429055055498545
641.0, 0.08322347948675639
642.0, 0.08238536446524927
643.0, 0.07902490781628872
644.0, 0.0738379012568563
645.0, 0.07222652049871682
646.0, 0.07337722014439486
647.0, 0.07019268605761113
648.0, 0.0654108962624816
649.0, 0.06181478956811823
650.0, 0.05881857819093717
651.0, 0.054344641199864506
652.0, 0.051233202414319445
653.0, 0.05291182636967928
654.0, 0.05202500953137734
655.0, 0.04712881217186131
656.0, 0.04233672871650011
657.0, 0.04108284980627502
658.0, 0.040304516259792006
659.0, 0.03844270835549745
660.0, 0.033880846686053075
661.0, 0.030512666575455337
662.0, 0.03021106691581665
663.0, 0.02920326997854471
664.0, 0.029660519135703407
665.0, 0.02848567797125329
666.0, 0.02669377552606602
667.0, 0.026924399755997794
668.0, 0.02875031607015481
669.0, 0.02720085590440439
670.0, 0.024151558507592142
671.0, 0.024246224514659697
672.0, 0.023158349058590683
673.0, 0.020281312823075725
674.0, 0.018072839778089465
675.0, 0.016867422371362857
676.0, 0.015462195641236564
677.0, 0.013201341339456269
678.0, 0.014553788396071916
679.0, 0.013838702134135265
680.0, 0.009213197454184125
681.0, 0.007312689064178474
682.0, 0.008050375105877715
683.0, 0.006495190879911137
684.0, 0.009089134512111198
685.0, 0.013647867124147603
686.0, 0.014631555866232757
687.0, 0.011948165642894243
688.0, 0.013219245145926822
689.0, 0.01482417035705483
690.0, 0.016562184835332908
691.0, 0.019846242822761654
692.0, 0.025951929254543767
693.0, 0.03322823728684052
694.0, 0.03671701196826778
695.0, 0.04174181473329089
696.0, 0.05083235277068424
697.0, 0.057681057892262265
698.0, 0.061153751033231146
699.0, 0.06201316942642128
700.0, 0.058480689607277925
701.0, 0.05389510681033961
702.0, 0.04530021322097206
703.0, 0.03500582854025203
704.0, 0.028671381927917527
705.0, 0.025646958925275153
706.0, 0.020171845928065816
707.0, 0.013978481456305546
708.0, 0.00982603661809024
709.0, 0.007475152833757896
710.0, 0.006263742973734117
711.0, 0.003916193164856332
712.0, 0.0006347765766447984
713.0, 0.001821330239506101
714.0, 0.0020279158357945264
715.0, 0.002307260018267017
716.0, 0.0024902951519103064
717.0, 0.0009340172624442218
718.0, 0.00436625740198445
719.0, 0.0018420438851418
720.0, 0.0017735810876751325
721.0, 0.0012787298723835607
722.0, 0.00020736808671074816
723.0, 0.001713930875469598
724.0, 0.0018260195845993471
725.0, 0.0006617455231089061
726.0, 0.0015797232050940907
727.0, 0.00048307872727944485
728.0, 0.0003793443274283991
729.0, 0.0010337577373982939
730.0, 0.0010839233477586765
731.0, 0.0032033130674558896
732.0, 0.0004041529030885148
733.0, 0.00044364777984196973
734.0, 0.002496219135526802
735.0, 0.004219843186677024
736.0, 0.003489324264330543
737.0, 0.0009616217926155185
738.0, 0.000279527592606013
739.0, 0.0013314939592370596
740.0, 0.0014753692720437142
741.0, 0.0027790056713503544
742.0, 0.0023453017584766883
743.0, 0.0007896607894310901
744.0, 0.00036162671331366506
745.0, 0.002706094669891737
746.0, 0.003369861322272162
747.0, 0.002553781416784772
748.0, 0.0013529614527030768
749.0, 0.0018217480460807922
750.0, 0.0035108613882257225
751.0, 0.0036387429248318126
752.0, 0.002455732286228872
753.0, 0.0017155348656960464
754.0, 0.002288699550914419
755.0, 0.001961741323459444
756.0, 0.00035586195060853044
757.0, 0.00046544611934994497
758.0, 0.0008600559084057647
759.0, 0.000834275868158167
760.0, 0.0023376677594050214
761.0, 0.003623157764097075
762.0, 0.006405715698915307
763.0, 0.007397291415004352
764.0, 0.003741899375090474
765.0, 0.0035511274999160468
766.0, 0.004718565165543088
767.0, 0.005824221958655967
768.0, 0.007378870166039236
769.0, 0.007175210766106006
770.0, 0.006848845324979738
771.0, 0.009918521798092914
772.0, 0.011106424258200827
773.0, 0.009747957179094704
774.0, 0.010559262862951689
775.0, 0.01000957456617588
776.0, 0.008674173205679661
777.0, 0.008462157437450601
778.0, 0.006825187259359615
779.0, 0.006620977850155523
780.0, 0.007681564568319681
781.0, 0.008425154770496341
782.0, 0.009329180376710046
783.0, 0.00957642758841619
784.0, 0.009472725377608116
785.0, 0.011860955721138815
786.0, 0.012912203391336297
787.0, 0.014657397198713206
788.0, 0.015379674174235207
789.0, 0.015246078112296843
790.0, 0.01595848243726835
791.0, 0.017287300512543905
792.0, 0.01843377851378471
793.0, 0.020971895180416575
794.0, 0.02332445447734764
795.0, 0.025607142072967406
796.0, 0.028378943495795155
797.0, 0.03165900012798747
798.0, 0.034811118947398884
799.0, 0.03673208751662273
800.0, 0.04617947655605715
801.0, 0.05456235431249038
802.0, 0.06436572155375625
803.0, 0.07431393261963735
804.0, 0.08575231476112476
805.0, 0.10192015108326691
806.0, 0.11831064131549326
807.0, 0.1427516559802311
808.0, 0.16833829313413076
809.0, 0.19770027093487236
810.0, 0.2295025088981311
811.0, 0.26790500423361163
812.0, 0.3157418496181044
813.0, 0.35860380336931413
814.0, 0.4152724096842476
815.0, 0.46879654176387786
816.0, 0.5343073409244815
817.0, 0.6105386741758482
818.0, 0.6885995909793899
819.0, 0.7684000491205487
820.0, 0.8504635571190604
821.0, 0.9199525230531987
822.0, 0.9740874989774861
823.0, 0.9985897923487808
824.0, 0.9842128650106283
825.0, 0.933135893431861
826.0, 0.8499956273153676
827.0, 0.7355625113053772
828.0, 0.6128881347391321
829.0, 0.504111215748329
830.0, 0.40332221942928254
831.0, 0.31769561580279887
832.0, 0.25206156419710235
833.0, 0.20173362469642195
834.0, 0.16343249493208745
835.0, 0.1366290732814873
836.0, 0.11498668049171384
837.0, 0.0959728648165689
838.0, 0.08169400238300807
839.0, 0.07421866103183403
840.0, 0.06784740791160913
841.0, 0.05421845276150533
842.0, 0.05035646073614031
843.0, 0.04250492505568396
844.0, 0.039503028967427405
845.0, 0.03926487447146951
846.0, 0.03540196349376548
847.0, 0.030133170585941005
848.0, 0.029384013135042096
849.0, 0.02574357043000875
850.0, 0.022857979395288767
851.0, 0.020074954171017425
852.0, 0.020300151119215366
853.0, 0.019404381920020686
854.0, 0.017245418035868952
855.0, 0.018487532314993633
856.0, 0.019162582947376192
857.0, 0.017630991789076022
858.0, 0.01682921205854366
859.0, 0.015355826393325573
860.0, 0.01533832471240459
861.0, 0.017395448978034335
862.0, 0.017028044897928852
863.0, 0.011688585259776726
864.0, 0.013897250986494435
865.0, 0.018698796024173493
866.0, 0.01674427438060297
867.0, 0.01243304523943064
868.0, 0.012628109726290896
869.0, 0.014865635428265593
870.0, 0.012393272912363956
871.0, 0.011500971514541684
872.0, 0.011464352789939637
873.0, 0.010593460326787428
874.0, 0.010866523094906738
875.0, 0.012164011879861393
876.0, 0.012029214594549158
877.0, 0.009962336524315406
878.0, 0.008636217424666803
879.0, 0.006481296775115994
880.0, 0.008298403108569117
881.0, 0.007444957117132621
882.0, 0.007978513593473098
883.0, 0.008581813121906551
884.0, 0.005411526255113011
885.0, 0.0014794721405369893
886.0, 0.005070026293757858
887.0, 0.007521540552176529
888.0, 0.006344220791061168
889.0, 0.005985192661936524
890.0, 0.003946328528651406
891.0, 0.00263837115543172
892.0, 0.003951449872202502
893.0, 0.0027741982713866483
894.0, 0.0018949137279842332
895.0, 0.003486239033677108
896.0, 0.003393052844968155
897.0, 0.0028974454932272587
898.0, 0.0025757687796458956
899.0, 0.0029013045717874246
900.0, 0.003170370780078498
901.0, 0.0014849781671983254
902.0, 0.0021628484969405033
903.0, 0.0008227579093271161
904.0, 0.0010955037666313416
905.0, 0.00048784825203375767
906.0, 0.0007480254760212804
907.0, 0.00038909596521506467
908.0, 0.001920731144613086
909.0, 2.7929627146580303e-05
910.0, 0.0003173332032876934
911.0, 0.0007658799337438407
912.0, 0.002695778862600307
913.0, 0.0011936994603671822
914.0, 0.0015098410053824363
915.0, 0.002084609685509877
916.0, 0.0005769917303742096
917.0, 0.0008472293034083224
918.0, 0.0025843072685993273
919.0, 0.0022251865008568236
920.0, 0.0013832578739652632
921.0, 0.0021290008148414086
922.0, 0.0014245197667217874
923.0, 0.0013083372487788117
924.0, 9.540885172077353e-05
925.0, 0.0002001372926625084
926.0, 0.0008839797784870034
927.0, 0.00342586201081954
928.0, 0.002624577709668215
929.0, 0.0008513027605587759
930.0, 0.0015923094951915242
931.0, 0.00047201116040138504
932.0, 0.0011108518315581161
933.0, 0.001094094510395667
934.0, 0.0002962683103848873
935.0, 4.10850804251462e-05
936.0, 0.0015892104949330396
937.0, 0.0010010804448453742
938.0, 0.00018402960228703684
939.0, 0.0019544296168616335
940.0, 0.0034722804543592988
941.0, 0.002266753983418964
942.0, 0.0004365960433046525
943.0, 0.0012595550046075666
944.0, 0.0005695144896623457
945.0, 0.0018400690261674267
946.0, 0.0027046353564937915
947.0, 0.0037869407703331544
948.0, 0.0045992057702372675
949.0, 0.0029224752772263533
950.0, 0.0047344431116949056
951.0, 0.004080392294672429
952.0, 0.005712216360965715
953.0, 0.007105455873921032
954.0, 0.008350908942897637
955.0, 0.008931950983676783
956.0, 0.008806167301111173
957.0, 0.011014248171549881
958.0, 0.00909528404587712
959.0, 0.01116085686608787
960.0, 0.011637440197019688
961.0, 0.012873646753642654
962.0, 0.01461805444939239
963.0, 0.015572068628452602
964.0, 0.016323695394580885
965.0, 0.017496487412834518
966.0, 0.017540196651818503
967.0, 0.019483453292888035
968.0, 0.020910731111691835
969.0, 0.02035729878566667
970.0, 0.021280897530179404
971.0, 0.019912717380517496
972.0, 0.017583543194711043
973.0, 0.019646675756696368
974.0, 0.01859529676988851
975.0, 0.0177275227821973
976.0, 0.01873432896333371
977.0, 0.020703622198093016
978.0, 0.019534707724834236
979.0, 0.01786683843542711
980.0, 0.0176373803844318
981.0, 0.017035532891595345
982.0, 0.01594984765391681
983.0, 0.015463463033156703
984.0, 0.016314635871726543
985.0, 0.0142108596895895
986.0, 0.01484948661726975
987.0, 0.014375362422476267
988.0, 0.01192131094204044
989.0, 0.011320470487990631
990.0, 0.012893147772835553
991.0, 0.012906642794003106
992.0, 0.015084000564507306
993.0, 0.012493475703664297
994.0, 0.010454076799111135
995.0, 0.01269826763115133
996.0, 0.011641377998897475
997.0, 0.00803326128323596
998.0, 0.008373754190692395
999.0, 0.00999371998226796
1000.0, 0.0072064922729838735
1001.0, 0.009457546262312152
1002.0, 0.007292650757213343
1003.0, 0.006404902299725513
1004.0, 0.006689098754028056
1005.0, 0.00823037043582183
1006.0, 0.009134143854514139
1007.0, 0.007905329120383364
1008.0, 0.0067937508707863895
1009.0, 0.006123385534702889
1010.0, 0.004034176737182733
1011.0, 0.006111186047161853
1012.0, 0.0071333074121905475
1013.0, 0.005917825203487804
1014.0, 0.0050030520666462085
1015.0, 0.004337489930013191
1016.0, 0.003167644270724686
1017.0, 0.002546958980406984
1018.0, 0.002197000690599218
1019.0, 0.0024357956138289097
1020.0, 0.003097777315620465
1021.0, 0.0034382131225721246
1022.0, 0.002097869144516405
1023.0, 0.0032578798266102173
1024.0, 0.002297548990170579
1025.0, 0.0021423905203467575
1026.0, 0.0013742236496454901
1027.0, 0.0006537059190924191
1028.0, 0.0005673702895472579
1029.0, 0.002674878354107372
1030.0, 0.0014176995260655005
1031.0, 0.0020134008769168636
1032.0, 0.003899471099969868
1033.0, 0.004628947143163483
1034.0, 0.003409487792599463
1035.0, 0.0015155111527026081
1036.0, 0.002392031703493915
1037.0, 0.004466939378922304
1038.0, 0.002366327138200398
1039.0, 0.003546464811114558
1040.0, 0.002927699529208936
1041.0, 0.002563322922190418
1042.0, 0.004272358561523377
1043.0, 0.004725026898221548
1044.0, 0.004065920389580434
1045.0, 0.007187140709492204
1046.0, 0.0035447084223430426
1047.0, 0.006000326603975954
1048.0, 0.0074499426291692004
1049.0, 0.00959682474921912
1050.0, 0.009407650231504538
1051.0, 0.008979776969768254
1052.0, 0.010037737897312408
1053.0, 0.010922318849839175
1054.0, 0.012145871433245014
1055.0, 0.013646714399184672
1056.0, 0.010519890793541336
1057.0, 0.011651656279128689
1058.0, 0.012422685793795152
1059.0, 0.014869095854231199
1060.0, 0.015815465886046477
1061.0, 0.01497285003100069
1062.0, 0.015427533312483317
1063.0, 0.01742260984258056
1064.0, 0.01891122709337068
1065.0, 0.019219953648430974
1066.0, 0.016675726444012284
1067.0, 0.01621837519006618
1068.0, 0.013989479200504555
1069.0, 0.012119010198329607
1070.0, 0.01203308578456892
1071.0, 0.010934844092295403
1072.0, 0.008211311131741568
1073.0, 0.007255145351788334
1074.0, 0.007206979267548186
1075.0, 0.00858407128002275
1076.0, 0.00762593622630565
1077.0, 0.00803482496651435
1078.0, 0.005492325010808642
1079.0, 0.008127793277645911
1080.0, 0.009830963100695879
1081.0, 0.00851723601321543
1082.0, 0.009043470318154303
1083.0, 0.008054772349459567
1084.0, 0.004058005677654675
1085.0, 0.006775136913447748
1086.0, 0.004563657502174262
1087.0, 0.004355633172943886
1088.0, 0.005425946200419492
1089.0, 0.004134221810560507
1090.0, 0.0032410472709263165
1091.0, 0.004696661371948339
1092.0, 0.004521656387601068
1093.0, 0.0013246621675157733
1094.0, 0.0003594826499796957
1095.0, 0.0006404387166195735
1096.0, 0.0019500366471954197
1097.0, 0.0013163389435907947
1098.0, 0.002111847017599036
1099.0, 0.0014181738049708096
1100.0, 0.00300538856337239
1101.0, 0.0037421199256379247
1102.0, 0.002337207412256048
1103.0, 0.0037526964798743345
1104.0, 0.002175756620322714
1105.0, 0.001923072128071999
1106.0, 0.0012522200588431758
1107.0, 0.0005885381260540819
1108.0, 0.0006115258833105947
1109.0, 0.001421397275959554
1110.0, 0.00037728663893005736
1111.0, 0.0006612098950693295
1112.0, 0.002005292795902272
1113.0, 0.0015336694509474813
1114.0, 0.0005063891809613943
1115.0, 0.0007703019263183709
1116.0, 0.0004634756875114785
1117.0, 0.00268253137904207
1118.0, 0.0017240085751664528
1119.0, 0.000400045641626879
1120.0, 0.0012387362995273945
1121.0, 0.0029799754251210505
1122.0, 0.00544686321252687
1123.0, 0.004923860136567249
1124.0, 0.00022167138912140938
1125.0, 0.000207830821194548
1126.0, 0.00042649012115841936
1127.0, 0.0025041822057332162
1128.0, 0.000804848687725827
1129.0, 0.0004919990173805735
1130.0, 0.0005680381394840201
1131.0, 0.00040218881528867017
1132.0, 0.0005765012687078108
1133.0, 0.0007226193896562416
1134.0, 0.0006732576252759963
1135.0, 0.0012730166343373444
1136.0, 0.0016919672294716615
1137.0, 0.00014553969781806785
1138.0, 0.0019396700146224928
1139.0, 0.005240621540671798
1140.0, 0.00243937526036805
1141.0, 0.0008353049729011935
1142.0, 0.0023397045581390616
1143.0, 0.004081310782900715
1144.0, 0.0034958946767548633
1145.0, 0.0027080412385600385
1146.0, 0.004357905995407176
1147.0, 0.004110223645587407
1148.0, 0.004361632760702045
1149.0, 0.00493073632629236
1150.0, 0.004234239424563853
1151.0, 0.007149334729300299
1152.0, 0.007004303295333895
1153.0, 0.004305285885575728
1154.0, 0.004732070878828797
1155.0, 0.007499445615380351
1156.0, 0.008000190972845942
1157.0, 0.007670023679984597
1158.0, 0.009311537730074591
1159.0, 0.010753982795359732
1160.0, 0.01154596844084656
1161.0, 0.012611717614101837
1162.0, 0.01483783352259414
1163.0, 0.015038303713228052
1164.0, 0.01691864264459018
1165.0, 0.018787590696543916
1166.0, 0.022275341867642427
1167.0, 0.02545477431028258
1168.0, 0.024589373446440375
1169.0, 0.02746923672493208
1170.0, 0.03476832067680645
1171.0, 0.03732061119548179
1172.0, 0.042834835832160446
1173.0, 0.04372162041281291
1174.0, 0.0458708737951896
1175.0, 0.051395029278375644
1176.0, 0.05534515229804363
1177.0, 0.05964572524723185
1178.0, 0.0664716676524412
1179.0, 0.07114411507022611
1180.0, 0.07342921189013767
1181.0, 0.07971163918938085
1182.0, 0.07946257786379018
1183.0, 0.08422878595894016
1184.0, 0.08472293355897546
1185.0, 0.08313187729077774
1186.0, 0.08563099647555547
1187.0, 0.0849547869305068
1188.0, 0.08520480038819804
1189.0, 0.08321349762286039
1190.0, 0.08070337432531814
1191.0, 0.07927343338969682
1192.0, 0.07387576018060915
1193.0, 0.06931460895589411
1194.0, 0.0657318145444597
1195.0, 0.06382198791553312
1196.0, 0.06204144536674468
1197.0, 0.05522093108062986
1198.0, 0.05250224933252317
1199.0, 0.04901635269892749
1200.0, 0.046628158813428994
1201.0, 0.04014884454039835
1202.0, 0.03697848324130336
1203.0, 0.03709594674936166
1204.0, 0.032036249099767676
1205.0, 0.029704714418689587
1206.0, 0.025808002504126147
1207.0, 0.028113384496973676
1208.0, 0.024068419924851824
1209.0, 0.021716073489787855
1210.0, 0.02124942084138862
1211.0, 0.01996457132904992
1212.0, 0.018620052281600123
1213.0, 0.01371256496378527
1214.0, 0.01224990343027328
1215.0, 0.014566549440628502
1216.0, 0.011981989174231508
1217.0, 0.0070244165351278295
1218.0, 0.007749682304618928
1219.0, 0.010471816562258887
1220.0, 0.0072683234897237435
1221.0, 0.003099175543594761
1222.0, 0.0030115022933882903
1223.0, 0.005005242959527843
1224.0, 0.003052761821126867
1225.0, 0.002567907363212009
1226.0, 0.002787580335019843
1227.0, 0.001102261642377731
1228.0, 0.0002618886488186586
1229.0, 0.00033076477705326846
1230.0, 0.0004398999543889524
1231.0, 0.002194368256821055
1232.0, 0.0013129919294714606
1233.0, 0.0021049577292603272
1234.0, 0.0013764911939106285
1235.0, 0.0025756405865305695
1236.0, 0.0027133624162832943
1237.0, 0.0006136013364177854
1238.0, 0.0011870985220987656
1239.0, 0.0012478114512160007
1240.0, 0.0013314861480951488
1241.0, 0.0021080100319727626
1242.0, 0.004061611764147519
1243.0, 0.0041198465156002855
1244.0, 0.006694305461442021
1245.0, 0.006219981639830839
1246.0, 0.00962782345983162
1247.0, 0.0106946456937005
1248.0, 0.013268598808959383
1249.0, 0.017826378871063583
1250.0, 0.020857902309971487
1251.0, 0.02378000679250258
1252.0, 0.02680140340609215
1253.0, 0.03409682713811741
1254.0, 0.03974752245384872
1255.0, 0.039953886116396886
1256.0, 0.042576153203368085
1257.0, 0.05003609322938703
1258.0, 0.056461522289778555
1259.0, 0.06136175206070928
1260.0, 0.06537252196836718
1261.0, 0.06828202130102719
1262.0, 0.06418490828720308
1263.0, 0.06421563118119288
1264.0, 0.06371575458184145
1265.0, 0.061778916162049946
1266.0, 0.05999225638395117
1267.0, 0.05700588974150269
1268.0, 0.053942680515518586
1269.0, 0.04774883087936411
1270.0, 0.04257939077566567
1271.0, 0.04310010651393992
1272.0, 0.04071037548788965
1273.0, 0.03939525298780091
1274.0, 0.03659449925578971
1275.0, 0.03532950981445623
1276.0, 0.03373104086050071
1277.0, 0.03654123065090293
1278.0, 0.0359085574759086
1279.0, 0.035384386280535744
1280.0, 0.0345305557723551
1281.0, 0.032861423349905695
1282.0, 0.03111047660445582
1283.0, 0.029661215676758133
1284.0, 0.028251067078084523
1285.0, 0.024803154326397476
1286.0, 0.019410779302066583
1287.0, 0.016744018082817964
1288.0, 0.016352414835223223
1289.0, 0.01467290283129377
1290.0, 0.012981887371597596
1291.0, 0.012625727174802615
1292.0, 0.00869037698084605
1293.0, 0.008670092512975949
1294.0, 0.005038815947243302
1295.0, 0.005254211833414833
1296.0, 0.0038671024766145663
1297.0, 0.0009565903860204745
1298.0, 0.00022410791524179926
1299.0, 0.0025845613867447733
1300.0, 0.003562566446724713
1301.0, 0.0005433011822618848
1302, 0.0
1303, 0.0
1304, 0.0
1305, 0.0
1306, 0.0
1307, 0.0
1308, 0.0
1309, 0.0
1310, 0.0
1311, 0.0
1312, 0.0
1313, 0.0
1314, 0.0
1315, 0.0
1316, 0.0
1317, 0.0
1318, 0.0
1319, 0.0
1320, 0.0
1321, 0.0
1322, 0.0
1323, 0.0
1324, 0.0
1325, 0.0
1326, 0.0
1327, 0.0
1328, 0.0
1329, 0.0
1330, 0.0
1331, 0.0
1332, 0.0
1333, 0.0
1334, 0.0
1335, 0.0
1336, 0.0
1337, 0.0
1338, 0.0
1339, 0.0
1340, 0.0
1341, 0.0
1342, 0.0
1343, 0.0
1344, 0.0
1345, 0.0
1346, 0.0
1347, 0.0
1348, 0.0
1349, 0.0
1350, 0.0
1351, 0.0
1352, 0.0
1353, 0.0
1354, 0.0
1355, 0.0
1356, 0.0
1357, 0.0
1358, 0.0
1359, 0.0
1360, 0.0
1361, 0.0
1362, 0.0
1363, 0.0
1364, 0.0
1365, 0.0
1366, 0.0
1367, 0.0
1368, 0.0
1369, 0.0
1370, 0.0
1371, 0.0
1372, 0.0
1373, 0.0
1374, 0.0
1375, 0.0
1376, 0.0
1377, 0.0
1378, 0.0
1379, 0.0
1380, 0.0
1381, 0.0
1382, 0.0
1383, 0.0
1384, 0.0
1385, 0.0
1386, 0.0
1387, 0.0
1388, 0.0
1389, 0.0
1390, 0.0
1391, 0.0
1392, 0.0
1393, 0.0
1394, 0.0
1395, 0.0
1396, 0.0
1397, 0.0
1398, 0.0
1399, 0.0
1400, 0.0
1401, 0.0
1402, 0.0
1403, 0.0
1404, 0.0
1405, 0.0
1406, 0.0
1407, 0.0
1408, 0.0
1409, 0.0
1410, 0.0
1411, 0.0
1412, 0.0
1413, 0.0
1414, 0.0
1415, 0.0
1416, 0.0
1417, 0.0
1418, 0.0
1419, 0.0
1420, 0.0
1421, 0.0
1422, 0.0
1423, 0.0
1424, 0.0
1425, 0.0
1426, 0.0
1427, 0.0
1428, 0.0
1429, 0.0
1430, 0.0
1431, 0.0
1432, 0.0
1433, 0.0
1434, 0.0
1435, 0.0
1436, 0.0
1437, 0.0
1438, 0.0
1439, 0.0
1440, 0.0
1441, 0.0
1442, 0.0
1443, 0.0
1444, 0.0
1445, 0.0
1446, 0.0
1447, 0.0
1448, 0.0
1449, 0.0
1450, 0.0
1451, 0.0
1452, 0.0
1453, 0.0
1454, 0.0
1455, 0.0
1456, 0.0
1457, 0.0
1458, 0.0
1459, 0.0
1460, 0.0
1461, 0.0
1462, 0.0
1463, 0.0
1464, 0.0
1465, 0.0
1466, 0.0
1467, 0.0
1468, 0.0
1469, 0.0
1470, 0.0
1471, 0.0
1472, 0.0
1473, 0.0
1474, 0.0
1475, 0.0
1476, 0.0
1477, 0.0
1478, 0.0
1479, 0.0
1480, 0.0
1481, 0.0
1482, 0.0
1483, 0.0
1484, 0.0
1485, 0.0
1486, 0.0
1487, 0.0
1488, 0.0
1489, 0.0
1490, 0.0
1491, 0.0
1492, 0.0
1493, 0.0
1494, 0.0
1495, 0.0
1496, 0.0
1497, 0.0
1498, 0.0
1499, 0.0
1500, 0.0
1501, 0.0
1502, 0.0
1503, 0.0
1504, 0.0
1505, 0.0
1506, 0.0
1507, 0.0
1508, 0.0
1509, 0.0
1510, 0.0
1511, 0.0
1512, 0.0
1513, 0.0
1514, 0.0
1515, 0.0
1516, 0.0
1517, 0.0
1518, 0.0
1519, 0.0
1520, 0.0
1521, 0.0
1522, 0.0
1523, 0.0
1524, 0.0
1525, 0.0
1526, 0.0
1527, 0.0
1528, 0.0
1529, 0.0
1530, 0.0
1531, 0.0
1532, 0.0
1533, 0.0
1534, 0.0
1535, 0.0
1536, 0.0
1537, 0.0
1538, 0.0
1539, 0.0
1540, 0.0
1541, 0.0
1542, 0.0
1543, 0.0
1544, 0.0
1545, 0.0
1546, 0.0
1547, 0.0
1548, 0.0
1549, 0.0
1550, 0.0
1551, 0.0
1552, 0.0
1553, 0.0
1554, 0.0
1555, 0.0
1556, 0.0
1557, 0.0
1558, 0.0
1559, 0.0
1560, 0.0
1561, 0.0
1562, 0.0
1563, 0.0
1564, 0.0
1565, 0.0
1566, 0.0
1567, 0.0
1568, 0.0
1569, 0.0
1570, 0.0
1571, 0.0
1572, 0.0
1573, 0.0
1574, 0.0
1575, 0.0
1576, 0.0
1577, 0.0
1578, 0.0
1579, 0.0
1580, 0.0
1581, 0.0
1582, 0.0
1583, 0.0
1584, 0.0
1585, 0.0
1586, 0.0
1587, 0.0
1588, 0.0
1589, 0.0
1590, 0.0
1591, 0.0
1592, 0.0
1593, 0.0
1594, 0.0
1595, 0.0
1596, 0.0
1597, 0.0
1598, 0.0
1599, 0.0
