30, 0.0
31, 0.0
32, 0.0
33, 0.0
34, 0.0
35, 0.0
36, 0.0
37, 0.0
38, 0.0
39, 0.0
40, 0.0
41, 0.0
42, 0.0
43, 0.0
44, 0.0
45, 0.0
46, 0.0
47, 0.0
48, 0.0
49, 0.0
50, 0.0
51, 0.0
52, 0.0
53, 0.0
54, 0.0
55, 0.0
56, 0.0
57, 0.0
58, 0.0
59, 0.0
60, 0.0
61, 0.0
62, 0.0
63, 0.0
64, 0.0
65, 0.0
66, 0.0
67, 0.0
68, 0.0
69, 0.0
70, 0.0
71, 0.0
72, 0.0
73, 0.0
74, 0.0
75, 0.0
76, 0.0
77, 0.0
78, 0.0
79, 0.0
80, 0.0
81, 0.0
82, 0.0
83, 0.0
84, 0.0
85, 0.0
86, 0.0
87, 0.0
88, 0.0
89, 0.0
90, 0.0
91, 0.0
92, 0.0
93, 0.0
94, 0.0
95, 0.0
96, 0.0
97, 0.0
98, 0.0
99, 0.0
100, 0.0
101, 0.0
102, 0.0
103, 0.0
104, 0.0
105, 0.0
106, 0.0
107, 0.0
108, 0.0
109, 0.0
110, 0.0
111, 0.0
112, 0.0
113, 0.0
114, 0.0
115, 0.0
116, 0.0
117, 0.0
118, 0.0
119, 0.0
120, 0.0
121, 0.0
122, 0.0
123, 0.0
124, 0.0
125, 0.0
126, 0.0
127, 0.0
128, 0.0
129, 0.0
130, 0.0
131, 0.0
132, 0.0
133, 0.0
134, 0.0
135, 0.0
136, 0.0
137, 0.0
138, 0.0
139, 0.0
140, 0.0
141, 0.0
142, 0.0
143, 0.0
144.0, 7.839235358746565e-05
145.0, 0.002496347671609942
146.0, 0.009155010824162625
147.0, 0.009531419637983339
148.0, 0.008246699659514661
149.0, 0.009465365603766481
150.0, 0.004745345988608998
151.0, 0.009050088939817402
152.0, 0.009464204095365285
153.0, 0.003331988379031223
154.0, 0.004597683628980363
155.0, 0.0051414193859406505
156.0, 0.007882350400401436
157.0, 0.01311315316433284
158.0, 0.018433163525787704
159.0, 0.022824732170524498
160.0, 0.02969325402812766
161.0, 0.03764356965631823
162.0, 0.04411903996320275
163.0, 0.0510391774673079
164.0, 0.052312807774101355
165.0, 0.049235792289870316
166.0, 0.0465452167500013
167.0, 0.0505937880932742
168.0, 0.045694921814137854
169.0, 0.04287300053171048
170.0, 0.047151336390587495
171.0, 0.051932980088067314
172.0, 0.05311857566153599
173.0, 0.05301867786601433
174.0, 0.054702050730695874
175.0, 0.06190605121457742
176.0, 0.06274255675654955
177.0, 0.0664488975326033
178.0, 0.06950126517672911
179.0, 0.06842152545377456
180.0, 0.0727320487438112
181.0, 0.07298317386592162
182.0, 0.07270641406878642
183.0, 0.07429835371261492
184.0, 0.07269948526482853
185.0, 0.07081497222762834
186.0, 0.06779562402906378
187.0, 0.06196164699730706
188.0, 0.053186576505452485
189.0, 0.04787238606916894
190.0, 0.045992558883450045
191.0, 0.04510445111807103
192.0, 0.04197950575683415
193.0, 0.03309693892592809
194.0, 0.019820858697518425
195.0, 0.011971377834326903
196.0, 0.011068699235017215
197.0, 0.0030504127153644063
198.0, 0.0028946600453642326
199.0, 0.002294370519357083
200.0, 0.0001627761964539171
201.0, 0.004252165734659802
202.0, 0.0009840122325517776
203.0, 0.0018488064531199087
204.0, 0.0006083042439954877
205.0, 0.004087065303115989
206.0, 0.0026021140111455333
207.0, 0.0043488820057771375
208.0, 0.0024581862552084236
209.0, 0.005113175653994838
210.0, 0.02008767882864751
211.0, 0.01770432979172347
212.0, 0.018582877189498012
213.0, 0.02924961073840566
214.0, 0.038259197339725624
215.0, 0.03764069840181918
216.0, 0.04340955371693857
217.0, 0.053951996880792455
218.0, 0.06285776903575477
219.0, 0.07163584413314877
220.0, 0.07622665519584373
221.0, 0.08290850648840582
222.0, 0.09259882546498749
223.0, 0.09723304190792395
224.0, 0.1020570270829338
225.0, 0.105147314715847
226.0, 0.10523936830723217
227.0, 0.10435875129725418
228.0, 0.11251683431120169
229.0, 0.1115018028712483
230.0, 0.10917555149317981
231.0, 0.11128133125634333
232.0, 0.10915955417117487
233.0, 0.10806153297281243
234.0, 0.10145111136023637
235.0, 0.09179665788419761
236.0, 0.08794407281354648
237.0, 0.08937660972304479
238.0, 0.08087965478323805
239.0, 0.06874052236506697
240.0, 0.06242822083649305
241.0, 0.061700390735659874
242.0, 0.05996484473413188
243.0, 0.051549516591254216
244.0, 0.042085678770603964
245.0, 0.0440225864796631
246.0, 0.040889737178424417
247.0, 0.039722111681239174
248.0, 0.03495204338136235
249.0, 0.025290102202054816
250.0, 0.03261227270008691
251.0, 0.028825783421365252
252.0, 0.025219799363188973
253.0, 0.027674881953569156
254.0, 0.02809449433215195
255.0, 0.015011957053878186
256.0, 0.012074248870818531
257.0, 0.012982749450979172
258.0, 0.005382826951282137
259.0, 0.001241853363425254
260.0, 0.0004285772892490034
261.0, 0.0002659849208785946
262.0, 0.0026735233745653142
263.0, 0.008294299574941929
264.0, 0.012052685933614376
265.0, 0.014717401462650296
266.0, 0.015708956302395025
267.0, 0.0158131372032217
268.0, 0.021462698905557902
269.0, 0.018561029550596162
270.0, 0.018711347073207374
271.0, 0.024244543083750087
272.0, 0.02429211820749028
273.0, 0.010260126857393512
274.0, 0.0008727416070289528
275.0, 0.0052505280206132
276.0, 0.008083065714057532
277.0, 0.014084807428120698
278.0, 0.03237443849408832
279.0, 0.04400472172880588
280.0, 0.04843299597654545
281.0, 0.061454489060225034
282.0, 0.07630951976916149
283.0, 0.09215175410205843
284.0, 0.1099104995275347
285.0, 0.12947014063629855
286.0, 0.14723821941769008
287.0, 0.1660438889605103
288.0, 0.19015472121834787
289.0, 0.220511701363438
290.0, 0.251257398692452
291.0, 0.2694246944653664
292.0, 0.29125036560054607
293.0, 0.3229929753013134
294.0, 0.3552709028831227
295.0, 0.3736456010166734
296.0, 0.39365919885452777
297.0, 0.42770471895743245
298.0, 0.4633065030027996
299.0, 0.48727596167333526
300.0, 0.5147098052378306
301.0, 0.5365553913670302
302.0, 0.5642430269796119
303.0, 0.596283966033561
304.0, 0.6183691878167233
305.0, 0.6409559655131486
306.0, 0.663448599024639
307.0, 0.6834612575041109
308.0, 0.6987990900024277
309.0, 0.7080116290363689
310.0, 0.7225893734668423
311.0, 0.7370818277707331
312.0, 0.7525801168921753
313.0, 0.7718478381664206
314.0, 0.7823197154809903
315.0, 0.7956505144498016
316.0, 0.8066879548010438
317.0, 0.8168840208974955
318.0, 0.8351579909578399
319.0, 0.8402007197137654
320.0, 0.8493683834819112
321.0, 0.8668067356845351
322.0, 0.8869720666958402
323.0, 0.9012501451216216
324.0, 0.9154058732008165
325.0, 0.9291819217382314
326.0, 0.9443036234697536
327.0, 0.9641663828735962
328.0, 0.9579440633594305
329.0, 0.9627317462569267
330.0, 0.97687155859456
331.0, 0.9896283393961434
332.0, 0.9890977798590715
333.0, 0.9833905066647403
334.0, 0.9918588067688205
335.0, 0.9999748535850841
336.0, 0.9939471788688565
337.0, 0.9865152371079993
338.0, 0.986510938118648
339.0, 0.9872566690254626
340.0, 0.9834814006684085
341.0, 0.9745022937620118
342.0, 0.9684476971853825
343.0, 0.9583343176713829
344.0, 0.9520233864198302
345.0, 0.9494856643784096
346.0, 0.9405986488791451
347.0, 0.9255392689700077
348.0, 0.9416455328249691
349.0, 0.9503835461143317
350.0, 0.9248017951528716
351.0, 0.8919677477858226
352.0, 0.8833078193377139
353.0, 0.8716150704615534
354.0, 0.8590758807233982
355.0, 0.8508245375962125
356.0, 0.8314574314692126
357.0, 0.8155243667842437
358.0, 0.8035420359501685
359.0, 0.7900052706025923
360.0, 0.7759955940945077
361.0, 0.7753593723096319
362.0, 0.7552919987939675
363.0, 0.7323232614348475
364.0, 0.7181570414911274
365.0, 0.7102258495915729
366.0, 0.6976599055465462
367.0, 0.6833267394024547
368.0, 0.6641156139708133
369.0, 0.6438954149018573
370.0, 0.638286599497696
371.0, 0.6278795758920758
372.0, 0.617903347736055
373.0, 0.6116564880127541
374.0, 0.606353556306244
375.0, 0.5916092866890282
376.0, 0.5717067834893124
377.0, 0.5575760084651283
378.0, 0.5444205095726316
379.0, 0.5253791533493701
380.0, 0.5106287276023411
381.0, 0.4911094946015783
382.0, 0.4768457610245135
383.0, 0.4617554107452785
384.0, 0.4403050316970201
385.0, 0.4292748231911588
386.0, 0.40603967497912846
387.0, 0.3886045274286937
388.0, 0.37544509622718186
389.0, 0.3522277700651126
390.0, 0.33026993363198925
391.0, 0.3130967042186807
392.0, 0.2893063592453359
393.0, 0.26365847190405206
394.0, 0.24897979642061313
395.0, 0.22600334821216223
396.0, 0.20052739197958686
397.0, 0.18192930612755034
398.0, 0.16518771988465034
399.0, 0.13713729233473523
400.0, 0.11840460957635225
401.0, 0.09825752076341544
402.0, 0.09211204943087983
403.0, 0.09200495283727027
404.0, 0.06385909340517563
405.0, 0.058125656523297896
406.0, 0.0415286221949921
407.0, 0.026451623066600746
408.0, 0.021014865200086753
409.0, 0.006665130270108468
410.0, 0.002854391202633619
411.0, 0.006935051043470195
412.0, 0.011060687297307227
413.0, 0.004216451188527251
414.0, 0.005770546863384183
415.0, 0.009571542095924852
416.0, 0.005648061676250683
417.0, 0.004732966328915261
418.0, 0.010055018204690815
419.0, 0.006168604339948417
420.0, 0.0005276505121885215
421.0, 0.002374201031813411
422.0, 0.001123224841980366
423.0, 0.007106657732507442
424.0, 0.005226125543534498
425.0, 0.015537088393678063
426.0, 0.01728753832335415
427.0, 0.012936093178019541
428.0, 0.011375479174675816
429.0, 0.01226474177430531
430.0, 0.005113875947884542
431.0, 0.0018482245988195897
432.0, 0.000299606915298606
433.0, 0.004522080787867386
434.0, 0.0012816643404212657
435.0, 0.0014226307599368624
436.0, 0.00573786853358451
437.0, 0.009129448942786002
438.0, 0.0020530308654101953
439.0, 0.004090283622139011
440.0, 0.005064751294468239
441.0, 0.009151491098953019
442.0, 0.008684144908676562
443.0, 0.010019453907318305
444.0, 0.012338389344338374
445.0, 0.012432869929759165
446.0, 0.01463824759318728
447.0, 0.016822878781904367
448.0, 0.018131571958475035
449.0, 0.022065923684126888
450.0, 0.021269047313903874
451.0, 0.024445876763286575
452.0, 0.025074869126533866
453.0, 0.021940817017624986
454.0, 0.02618305489756364
455.0, 0.030730705486135653
456.0, 0.028069405777774576
457.0, 0.02367911976532896
458.0, 0.02499659667469502
459.0, 0.03270788719249281
460.0, 0.03119370658711994
461.0, 0.03585052251863776
462.0, 0.040956043553916556
463.0, 0.04141148021106122
464.0, 0.03959666533722119
465.0, 0.04149470391090688
466.0, 0.049902836219507786
467.0, 0.05258337776556923
468.0, 0.04915113688508386
469.0, 0.04942651580657683
470.0, 0.05213205242348406
471.0, 0.05066682350862914
472.0, 0.05105082813346574
473.0, 0.05309088883931197
474.0, 0.05354280447798512
475.0, 0.056810097033607336
476.0, 0.05682388600545012
477.0, 0.05634725614351428
478.0, 0.055950281256009544
479.0, 0.054921465687301045
480.0, 0.055404347435756625
481.0, 0.05930164679773415
482.0, 0.06342424879104315
483.0, 0.06338230453914345
484.0, 0.06159223999219337
485.0, 0.06670111016077591
486.0, 0.06728418525326316
487.0, 0.06059983675229512
488.0, 0.05579840633135162
489.0, 0.05445601569966082
490.0, 0.04760122949780773
491.0, 0.04183663288164858
492.0, 0.04328302006377016
493.0, 0.04560442464523815
494.0, 0.04567857965896557
495.0, 0.044289702583661494
496.0, 0.03384095316751268
497.0, 0.024584085770062575
498.0, 0.023837921625384898
499.0, 0.020957563808342874
500.0, 0.022515839369598143
501.0, 0.019212160866334642
502.0, 0.018818550071636412
503.0, 0.01842484137703945
504.0, 0.01705173296013505
505.0, 0.017458541134957987
506.0, 0.01502055768220196
507.0, 0.01414332003380085
508.0, 0.015295044796079033
509.0, 0.012733204681925932
510.0, 0.011380253622554098
511.0, 0.010001751522956985
512.0, 0.010406461606921958
513.0, 0.009798462069470097
514.0, 0.010376739357447335
515.0, 0.008877907042724596
516.0, 0.006294105922351169
517.0, 0.006991995487166711
518.0, 0.010921272072264678
519.0, 0.012849838523740748
520.0, 0.010507213978171413
521.0, 0.009995568981879184
522.0, 0.009573241095852354
523.0, 0.010113101545815788
524.0, 0.009891865046536824
525.0, 0.010174955469927128
526.0, 0.009380384761738933
527.0, 0.007403841403781301
528.0, 0.008939297538459422
529.0, 0.008610217189661816
530.0, 0.006140076162000549
531.0, 0.006904970789285067
532.0, 0.00648493982721681
533.0, 0.004877934659600376
534.0, 0.00509599521092154
535.0, 0.004525192366521758
536.0, 0.0027550723843996774
537.0, 0.0030303302963704754
538.0, 0.0036703236146213057
539.0, 0.0002134369560731409
540.0, 0.002334719985585031
541.0, 0.00036198207232662153
542.0, 0.004322177304374127
543.0, 0.004517915859524456
544.0, 0.004436726520065673
545.0, 0.003197738151174916
546.0, 0.0029120773796678314
547.0, 0.002105207474855799
548.0, 0.003138398790369692
549.0, 0.002199564407505834
550.0, 0.003380907398384153
551.0, 0.0029238216102912126
552.0, 0.000824008310318404
553.0, 0.0009895643887998043
554.0, 0.0020933854174637334
555.0, 0.00023688975601941428
556.0, 0.001203887611010424
557.0, 0.0024466842130314846
558.0, 0.0037886331495390595
559.0, 0.003911914060900743
560.0, 0.003039916989630871
561.0, 0.003125653337236488
562.0, 0.00439842014084401
563.0, 0.0043675278497388
564.0, 0.004980121579138753
565.0, 0.0011215758886559777
566.0, 0.0029375961990463855
567.0, 0.00014887997732722174
568.0, 0.0028384934196655186
569.0, 0.001540446959171079
570.0, 0.003635734334737911
571.0, 0.007202813320102541
572.0, 0.0017757990623639562
573.0, 0.0014005617456751978
574.0, 0.003451620174748712
575.0, 0.010387168946598215
576.0, 0.007436510175701141
577.0, 0.001776217601951357
578.0, 0.007907173277116462
579.0, 0.009381972364753917
580.0, 0.006031050894269777
581.0, 0.008933774395254486
582.0, 0.01673337148878226
583.0, 0.014874150365763365
584.0, 0.013577568584417724
585.0, 0.013947589524523572
586.0, 0.015869110349785526
587.0, 0.020164037161978683
588.0, 0.01736529781423998
589.0, 0.020903799160487315
590.0, 0.024163979908723102
591.0, 0.01803106207798978
592.0, 0.009759760595202572
593.0, 0.020976112002309526
594.0, 0.019410812641646517
595.0, 0.021568174929846713
596.0, 0.02182262724888689
597.0, 0.020752134778742243
598.0, 0.024067405309965973
599.0, 0.02333616433447087
600.0, 0.027587086289639545
601.0, 0.03184863864172404
602.0, 0.03012741234688138
603.0, 0.02937968242118032
604.0, 0.03967602741481917
605.0, 0.03499989271547419
606.0, 0.02970965945434596
607.0, 0.03493688425035141
608.0, 0.03830539288156615
609.0, 0.03620207293604488
610.0, 0.049454957644215224
611.0, 0.04509785615774926
612.0, 0.04205692643495729
613.0, 0.04156800956160468
614.0, 0.04273297792557078
615.0, 0.04641602215695956
616.0, 0.04919576669456608
617.0, 0.04614207379078988
618.0, 0.04641948969504807
619.0, 0.046324443371975985
620.0, 0.04466426662985241
621.0, 0.04690867401802075
622.0, 0.051141859064049104
623.0, 0.052045619916033015
624.0, 0.05266560583027671
625.0, 0.05376336123909049
626.0, 0.054365547152465936
627.0, 0.05371849387948927
628.0, 0.0509530135503916
629.0, 0.050488054563409455
630.0, 0.05194296156886722
631.0, 0.05053204788298206
632.0, 0.04709336493704693
633.0, 0.048055968212765775
634.0, 0.0441941742284957
635.0, 0.04928933169382707
636.0, 0.0513945372346059
637.0, 0.046246006687034054
638.0, 0.04113240829039841
639.0, 0.048042690284144
640.0, 0.045719847751577856
641.0, 0.046292049309972286
642.0, 0.04494881425564755
643.0, 0.04265107313497058
644.0, 0.04357659057136912
645.0, 0.039182970986942886
646.0, 0.04286216131618389
647.0, 0.042983501619027566
648.0, 0.039224650574514616
649.0, 0.039819783816975915
650.0, 0.04763970580578237
651.0, 0.04373541009042249
652.0, 0.04119208807806377
653.0, 0.03802349937160676
654.0, 0.039652884939135984
655.0, 0.04375623985184334
656.0, 0.04166676939162785
657.0, 0.036458470686441945
658.0, 0.03533360653480447
659.0, 0.03534905237803962
660.0, 0.03522740135781354
661.0, 0.03582765347811325
662.0, 0.036062755669400814
663.0, 0.02851585036451431
664.0, 0.027201275139872912
665.0, 0.023128885137186802
666.0, 0.023461160539013225
667.0, 0.028550317608157745
668.0, 0.02924354697654179
669.0, 0.034696559318954
670.0, 0.03185348116857005
671.0, 0.028097194935119363
672.0, 0.02560383556051139
673.0, 0.021553518101007203
674.0, 0.017363303787198567
675.0, 0.026150439355688015
676.0, 0.024369124687496285
677.0, 0.015604819072255215
678.0, 0.0131721372815575
679.0, 0.019883908045187658
680.0, 0.02431161857990531
681.0, 0.0184335036850794
682.0, 0.02050857117575241
683.0, 0.02251291637653147
684.0, 0.02183038690856238
685.0, 0.021174644886349
686.0, 0.02123661231967108
687.0, 0.01848035229928448
688.0, 0.025761283585544158
689.0, 0.020141927734669916
690.0, 0.020395703669738915
691.0, 0.029150654155879096
692.0, 0.028353088788295986
693.0, 0.020044391048839653
694.0, 0.016353248319262482
695.0, 0.015363867724265238
696.0, 0.015334429964076718
697.0, 0.016960524563295595
698.0, 0.017482857726029234
699.0, 0.011466817878425312
700.0, 0.012539087492210789
701.0, 0.015406438531613324
702.0, 0.012937643774088486
703.0, 0.011172974070866348
704.0, 0.014888203829654804
705.0, 0.015362171786894873
706.0, 0.008468257838201123
707.0, 0.0036166638894650502
708.0, 0.009802941353265196
709.0, 0.015379125264828535
710.0, 0.010297824621692027
711.0, 0.004900130498164785
712.0, 0.007655034489699769
713.0, 0.009737260355945042
714.0, 0.012578793906276758
715.0, 0.014556302241658152
716.0, 0.015171167428776711
717.0, 0.01560106875757134
718.0, 0.01343736088303793
719.0, 0.011770879250203608
720.0, 0.009323005638204998
721.0, 0.008924143284779919
722.0, 0.011619373584209025
723.0, 0.011607802711830493
724.0, 0.0022908192097891287
725.0, 0.007904229544083907
726.0, 0.007209184047724932
727.0, 0.007578576540151854
728.0, 0.012600890469469585
729.0, 0.01333811623306956
730.0, 0.0026637189872344784
731.0, 0.0004548625798456971
732.0, 0.005890422870816489
733.0, 0.007379987974097282
734.0, 0.008673149165753598
735.0, 0.010576524363471973
736.0, 0.007209330331741785
737.0, 0.008679732561852605
738.0, 0.007582547138585226
739.0, 0.0023578692026009138
740.0, 0.0007454576672639836
741.0, 0.0050317723142757394
742.0, 0.003994518019752766
743.0, 0.005105569844783951
744.0, 0.0052111541392721355
745.0, 0.006312282704593101
746.0, 0.002325901283267565
747.0, 0.002196830839189842
748.0, 0.007064216927864503
749.0, 0.002064147521455457
750.0, 0.0016596223153163632
751.0, 0.0019066978034031536
752.0, 0.0015990899990106437
753.0, 0.002054830249799911
754.0, 0.005765361064461932
755.0, 0.0002681689909442126
756.0, 0.005349583823216298
757.0, 0.001874606010420033
758.0, 0.0015283507109976405
759.0, 0.002983822555841266
760.0, 0.001725041165154741
761.0, 0.0019083404901677175
762.0, 0.0035511007525268644
763.0, 0.0018551887937589228
764.0, 0.0056726936779892155
765.0, 0.0048372861046637565
766.0, 0.0009998576208016727
767.0, 0.003792011737078934
768.0, 0.0044677193149149814
769.0, 0.005550836585251946
770.0, 0.0013959529716818099
771.0, 0.005444348131567487
772.0, 0.0058409429645872035
773.0, 0.0014943950364941314
774.0, 0.0023207865828829386
775.0, 0.004405829659425505
776.0, 0.004504292061748829
777.0, 0.0013674464445306927
778.0, 0.0013872098184739864
779.0, 0.0044942073600885936
780.0, 0.006196324596142194
781.0, 0.006779679491857331
782.0, 0.007029512998141387
783.0, 0.009855831915274265
784.0, 0.012966143616465772
785.0, 0.008178463555044726
786.0, 0.01090890859148401
787.0, 0.021464487007919076
788.0, 0.022236840607449734
789.0, 0.016270316309455402
790.0, 0.009602513959258843
791.0, 0.01771103523113126
792.0, 0.017650498402361183
793.0, 0.01688519087028044
794.0, 0.021275958737322135
795.0, 0.01838616991212577
796.0, 0.021764216482328284
797.0, 0.022290890464629884
798.0, 0.021248443187129804
799.0, 0.020046658962108516
800.0, 0.020432848126124264
801.0, 0.02190879102487711
802.0, 0.021688375839673105
803.0, 0.024156000455953328
804.0, 0.02698795136564281
805.0, 0.029606743436545548
806.0, 0.02016831319083892
807.0, 0.015385237672876908
808.0, 0.026123208954009096
809.0, 0.025330667384837552
810.0, 0.02622829945579305
811.0, 0.027562260907511505
812.0, 0.026176804764500752
813.0, 0.025894999506269382
814.0, 0.026585791991034995
815.0, 0.026200912991065632
816.0, 0.026064496509779
817.0, 0.026379437615110635
818.0, 0.030430071028752732
819.0, 0.029017930905376004
820.0, 0.03131132170080765
821.0, 0.033913340282717364
822.0, 0.028668023387075445
823.0, 0.031223184134337504
824.0, 0.028885435768795927
825.0, 0.02670177412699475
826.0, 0.030268170446353833
827.0, 0.03188886136308492
828.0, 0.03065654511962886
829.0, 0.03224884064383723
830.0, 0.02972339372309947
831.0, 0.024688243773989267
832.0, 0.02467340033019156
833.0, 0.027170504943503534
834.0, 0.027429947135196912
835.0, 0.02319115923163326
836.0, 0.018301324029950588
837.0, 0.02212440374629117
838.0, 0.020470767489427142
839.0, 0.019584996377750026
840.0, 0.025300188993006595
841.0, 0.025204063631078577
842.0, 0.017749949468080384
843.0, 0.014453909812255071
844.0, 0.015990145123043656
845.0, 0.016752076003348944
846.0, 0.015297173551311919
847.0, 0.01103315522563809
848.0, 0.006602604538996441
849.0, 0.012040162644738372
850.0, 0.021695519784218825
851.0, 0.007819618794197977
852.0, 0.009937776546627369
853.0, 0.0037210545323116064
854.0, 0.004739946622116007
855.0, 0.005470338277511384
856.0, 0.004621750997761443
857.0, 0.009416160952392423
858.0, 0.013952550541670935
859.0, 0.009764533364987076
860.0, 0.00945123396271688
861.0, 0.005843818643809613
862.0, 0.008067934994230197
863.0, 0.006858901522619056
864.0, 0.0012643422350823023
865.0, 0.007573383637944965
866.0, 0.005594007306315924
867.0, 0.0036595180757270883
868.0, 0.0015856299400311864
869.0, 0.0013523033753817261
870.0, 0.002233074622063656
871.0, 0.0031618381830665616
872.0, 0.004619924262326795
873.0, 0.005508609240390295
874.0, 0.005118153177669411
875.0, 0.007209391625163464
876.0, 0.005412357205989284
877.0, 0.007407466324181365
878.0, 0.014002280661370206
879.0, 0.014412740907251325
880.0, 0.0041457589627168345
881.0, 0.0075983322034644555
882.0, 0.004259674163604404
883.0, 0.005716458421053117
884.0, 0.00550147026612934
885.0, 0.0019955831819758016
886.0, 0.0036253906821023516
887.0, 0.00960447663370995
888.0, 0.005053358202125892
889.0, 0.005777498209106549
890.0, 0.017625017146218558
891.0, 0.015329085278397148
892.0, 0.007393733898290225
893.0, 0.009546194195370557
894.0, 0.015926332895740188
895.0, 0.01021046158682127
896.0, 0.006995522712577483
897.0, 0.005537985633742033
898.0, 0.005778762453617784
899.0, 0.004728999039697525
900.0, 0.007088339429557174
901.0, 0.008404652662755582
902.0, 0.002378553715748192
903.0, 0.01173397077426245
904.0, 0.0063635650493012496
905.0, 0.0013209029663973915
906.0, 0.00856444239267573
907.0, 0.006495268783739247
908.0, 0.0015793371462949188
909.0, 0.0014448471309547518
910.0, 0.0036066333179817296
911.0, 0.0026408554141972066
912.0, 0.003284138224651313
913.0, 0.0012713914783289257
914.0, 0.0005905916983208226
915.0, 0.0032212442400796626
916.0, 0.006106802135582298
917.0, 0.00020123164683928186
918.0, 0.0046741337796246145
919.0, 0.001709680090502452
920.0, 0.007672768298283628
921.0, 0.008433160043345255
922.0, 0.003702170902768083
923.0, 0.004376709431201828
924.0, 0.011377547426740256
925.0, 0.010089891532849964
926.0, 0.002389723516294825
927.0, 0.008047720219831803
928.0, 0.011194576502113526
929.0, 0.006659019118530837
930.0, 0.008904471487348712
931.0, 0.010014541236933738
932.0, 0.007359914768258204
933.0, 0.013943455867808444
934.0, 0.0008171270079950139
935.0, 0.005069878518759515
936.0, 0.007979983768495253
937.0, 0.006535884472074082
938.0, 0.0064108893838100926
939.0, 0.005350738621398438
940.0, 0.0037829551627366065
941.0, 0.006678129671085178
942.0, 0.0024457777015048565
943.0, 0.002810662521643847
944.0, 0.009495734081763785
945.0, 0.0023973711076640163
946.0, 0.003706148728873332
947.0, 0.009110221920104963
948.0, 0.0073105797146698105
949.0, 0.009078756320669937
950.0, 0.0028689898083632745
951.0, 0.005540051774217192
952.0, 0.004391955708122475
953.0, 0.006143747519987525
954.0, 0.007795381140132661
955.0, 0.006795294912613261
956.0, 0.0067600438723304426
957.0, 0.006697633560691857
958.0, 0.008576133609148957
959.0, 0.012204144176185398
960.0, 0.00694969880996031
961.0, 0.008110899892687314
962.0, 0.007796461414731246
963.0, 0.00514770803291883
964.0, 0.008885135632980214
965.0, 0.013002923328104788
966.0, 0.0058101884917403914
967.0, 0.010762074455462874
968.0, 0.003162540217579545
969.0, 0.0021490655579524958
970.0, 0.005901456582093324
971.0, 0.0031919976550053198
972.0, 0.00161145261703318
973.0, 0.009489063264946794
974.0, 0.005481214448368123
975.0, 0.009149701157930564
976.0, 0.007149866139588535
977.0, 0.007207706230391393
978.0, 0.009622813519050047
979.0, 0.01026869543485169
980.0, 0.007377815531092287
981.0, 0.006189843689144782
982.0, 0.011467034237872004
983.0, 0.008921498688469783
984.0, 0.0003479132794430965
985.0, 0.007406238836775552
986.0, 0.013407795274849477
987.0, 0.008382092474288368
988.0, 0.004098860797451489
989.0, 0.007324004642851159
990.0, 0.006893902954067205
991.0, 0.002461903686050634
992.0, 0.0018551053380622467
993.0, 0.005103756706975718
994.0, 0.011048709267731915
995.0, 0.007765089273555632
996.0, 0.0020561112251513266
997.0, 0.004304104967399104
998.0, 0.007965658559180277
999.0, 0.0026411283990651984
1000.0, 0.013997942227406218
1001.0, 0.012267819832386052
1002.0, 0.005113099343016113
1003.0, 0.011653730638793144
1004.0, 0.012704729942081952
1005.0, 0.005248796418898364
1006.0, 0.0020022637155250878
1007.0, 0.0017197805054537762
1008.0, 0.00030543357212765854
1009.0, 0.001715026670753641
1010.0, 0.001528534900107667
1011.0, 0.004278661515301149
1012.0, 0.001816037481092095
1013.0, 0.0014292469243305061
1014.0, 0.0040870151287448865
1015.0, 0.0054841325249366316
1016.0, 0.005550243426635818
1017.0, 0.001908719532012067
1018.0, 0.0019591405351880023
1019.0, 0.0007631228346851907
1020.0, 0.003186147408779469
1021.0, 0.004656551883749373
1022.0, 0.01026541540000433
1023.0, 0.01126214443690383
1024.0, 0.0013856849660481287
1025.0, 0.002303423085541585
1026.0, 0.004171688965801796
1027.0, 0.0002726435485358241
1028.0, 0.004170938709539627
1029.0, 0.002158419137988363
1030.0, 0.0013726346720549696
1031.0, 0.002993911032972213
1032.0, 0.007276025420292577
1033.0, 0.010121721534959207
1034.0, 0.0022903846898045983
1035.0, 0.0011897890590193234
1036.0, 0.0018771800011746587
1037.0, 0.009107054137124091
1038.0, 0.011123679674717581
1039.0, 0.009460993337449031
1040.0, 0.004474407059428188
1041.0, 0.002348755369627715
1042.0, 0.005919469376412126
1043.0, 0.005472159905302027
1044.0, 0.008282642848861542
1045.0, 0.006532919583951519
1046.0, 0.0062499146059578296
1047.0, 0.0015748583720199961
1048.0, 0.0008794489423162126
1049.0, 0.0006066772320743737
1050.0, 0.005677376400013742
1051.0, 0.015875046397187172
1052.0, 0.010265300541869015
1053.0, 0.0007478160127794592
1054.0, 0.007511558250141969
1055.0, 0.010933706109039253
1056.0, 0.003954168000767432
1057.0, 0.000876344743056615
1058.0, 0.002214229539135923
1059.0, 0.0044115793232032885
1060.0, 0.008670012526795178
1061.0, 0.009590367524513846
1062.0, 0.001038635298242528
1063.0, 0.002786801891904844
1064.0, 0.005819866030103167
1065.0, 0.008366510781851565
1066.0, 0.006183301298265111
1067.0, 0.008170649058847354
1068.0, 0.006031679658573189
1069.0, 0.0023194295410920683
1070.0, 0.009957756092347588
1071.0, 0.01461966588412428
1072.0, 0.00359987637399679
1073.0, 0.004462256310627734
1074.0, 0.0037260246972159847
1075.0, 0.01793897569522799
1076.0, 0.015429149646304326
1077.0, 0.0064669933398182455
1078.0, 0.0016307539430122052
1079.0, 0.0013480752638345074
1080.0, 0.001689086157408554
1081.0, 0.0075350411865732604
1082.0, 0.005896006217006423
1083.0, 0.004680914410596794
1084.0, 0.005716884899296852
1085.0, 0.0070543925971394165
1086.0, 0.002072732094091322
1087.0, 0.001852193190700809
1088.0, 0.001031985202554251
1089.0, 0.0015341191378063562
1090.0, 0.001600677364096089
1091.0, 0.011617785322376298
1092.0, 0.011428254991356484
1093.0, 0.0081229481008667
1094.0, 0.00631657547745728
1095.0, 0.004884214898054226
1096.0, 0.004189955261545371
1097.0, 0.007799583530354438
1098.0, 0.012229118688247347
1099.0, 0.01218251537619993
1100.0, 0.009255639658399808
1101.0, 0.0017792099814361562
1102.0, 0.004321292849038255
1103.0, 0.005534863292012633
1104.0, 0.003402700307935802
1105.0, 0.010707365640289295
1106.0, 0.015606442397931177
1107.0, 0.012163989995073694
1108.0, 0.006453873565305514
1109.0, 0.0047969671769504865
1110.0, 0.007110627364573411
1111.0, 0.0078073585247962944
1112.0, 0.0014055434661883128
1113.0, 0.0022160574969817457
1114.0, 0.005794233358684124
1115.0, 0.009005442110892808
1116.0, 0.0049272225850827455
1117.0, 0.004236623271773885
1118.0, 0.007697893794728647
1119.0, 0.006866766468353547
1120.0, 0.0030311417751664998
1121.0, 0.0009658024064058354
1122.0, 0.006925873876689873
1123.0, 0.011086212781410257
1124.0, 0.009313995997639258
1125.0, 0.0023251909767766244
1126.0, 0.004723675272543864
1127.0, 0.008688170556522972
1128.0, 0.006778729355342973
1129.0, 0.009403930392131495
1130.0, 0.01564597165833798
1131.0, 0.008977288248943702
1132.0, 0.0018048408678269664
1133.0, 0.00520484166200961
1134.0, 0.011264867286646474
1135.0, 0.005505473607382601
1136.0, 0.008937468254604317
1137.0, 0.012763844963101153
1138.0, 0.008000621136439921
1139.0, 0.006461130338273069
1140.0, 0.01031035622337271
1141.0, 0.008083602779727918
1142.0, 0.009379974497937123
1143.0, 0.008902716207515505
1144.0, 0.010156499252505398
1145.0, 0.00406916229738183
1146.0, 0.003376277435871405
1147.0, 0.0011261160670134596
1148.0, 0.0031672567932048575
1149.0, 0.0025785558788930497
1150.0, 0.001510099240169206
1151.0, 0.0008277722844893336
1152.0, 0.006874951709316222
1153.0, 0.013450043782423381
1154.0, 0.014498860413294862
1155.0, 0.007756141470108289
1156.0, 0.0013828122521574342
1157.0, 0.010566106665770321
1158.0, 0.011629919228837658
1159.0, 0.008869316729671133
1160.0, 0.007502555261886603
1161.0, 0.0022418060344701605
1162.0, 0.001304470670665752
1163.0, 0.011769170755048316
1164.0, 0.004202635807109858
1165.0, 0.002687942155200001
1166.0, 0.005775952274955502
1167.0, 0.0010838570681563236
1168.0, 0.004251301775018731
1169.0, 0.00377764137746647
1170.0, 0.005505876928702318
1171.0, 0.010510849429236085
1172.0, 0.010158700571701821
1173.0, 0.0068081300722161965
1174.0, 0.007869576420394205
1175.0, 0.013769589881816622
1176.0, 0.0162348701682662
1177.0, 0.00897759429594148
1178.0, 0.003348482106551464
1179.0, 0.009712157726425936
1180.0, 0.018420252856061307
1181.0, 0.01801537902821274
1182.0, 0.013945376215237254
1183.0, 0.012565093411139108
1184.0, 0.009265972439950065
1185.0, 0.0061551753311789165
1186.0, 0.009400236193116342
1187.0, 0.006494139047631014
1188.0, 0.011517630667356385
1189.0, 0.012572659111558132
1190.0, 0.013259472930972018
1191.0, 0.0090305938872575
1192.0, 0.0019070594423899094
1193.0, 0.002091626794694152
1194.0, 0.0018189265901296177
1195.0, 0.009556685521028658
1196.0, 0.01452287689727969
1197.0, 0.013236093635065619
1198.0, 0.009713741671557667
1199.0, 0.003714935673665338
1200.0, 0.0044884643183118016
1201.0, 0.009091388597874481
1202.0, 0.005370134232220343
1203.0, 0.005351848504783477
1204.0, 0.005566406303118818
1205.0, 0.010098602071698014
1206.0, 0.012451744300336593
1207.0, 0.011033886402656496
1208.0, 0.008382421819648862
1209.0, 0.004569966201510604
1210.0, 0.00748125079235373
1211.0, 0.0123896605497497
1212.0, 0.010050201975055678
1213.0, 0.011638938897235522
1214.0, 0.010441575949202688
1215.0, 0.0016076635389518567
1216.0, 0.0050991255659785005
1217.0, 0.010355474243278985
1218.0, 0.006770227527519629
1219.0, 0.0070180483705624165
1220.0, 0.0045101753836062864
1221.0, 0.0039570754964904425
1222.0, 0.012331667615210751
1223.0, 0.008012333271747905
1224.0, 0.010625119070532282
1225.0, 0.007282818881061321
1226.0, 0.005286396531256488
1227.0, 0.011807350044247128
1228.0, 0.009019523862547714
1229.0, 0.0073330610463316695
1230.0, 0.010875792259667599
1231.0, 0.006307099380038196
1232.0, 0.004859540528587848
1233.0, 0.013110026986361758
1234.0, 0.011762164333463714
1235.0, 0.009122695839312285
1236.0, 0.01595319736031249
1237.0, 0.01625315677229312
1238.0, 0.0148078462576933
1239.0, 0.011790384394665081
1240.0, 0.012051125709220347
1241.0, 0.016141028296655407
1242.0, 0.01469194670020613
1243.0, 0.00787024977244921
1244.0, 0.008703073518385968
1245.0, 0.012619032406112628
1246.0, 0.008378330754513696
1247.0, 0.009322659242619756
1248.0, 0.01868143619023031
1249.0, 0.0151385724968361
1250.0, 0.008946468751987504
1251.0, 0.012057923036632107
1252.0, 0.011066151946046794
1253.0, 0.012807475088889178
1254.0, 0.00570773971993597
1255.0, 0.012661639850654346
1256.0, 0.009606129996314102
1257.0, 0.004716715062151821
1258.0, 0.004527887757233108
1259.0, 0.0048533402138151525
1260.0, 0.006011483441452775
1261.0, 0.0025907565696654186
1262.0, 0.0038933511566188457
1263.0, 0.0035053583698233435
1264.0, 0.0007885809944941956
1265.0, 0.00047377578514251585
1266.0, 0.004702452461107195
1267.0, 0.0053054376270346
1268.0, 0.009009212511090449
1269.0, 0.01447434643856947
1270.0, 0.01115976674866044
1271.0, 0.003907102649450686
1272.0, 0.00807026879169967
1273.0, 0.014219911743965573
1274.0, 0.010094923911944834
1275.0, 0.006873865029010192
1276.0, 0.0013151641410258546
1277.0, 0.0027207101884522173
1278.0, 0.0017911393854178087
1279.0, 0.0026768202173905868
1280.0, 0.008303923785451868
1281.0, 0.006805661010410156
1282.0, 0.00832865770034515
1283.0, 0.009183206807347742
1284.0, 0.004099838334624956
1285.0, 0.0009251075409838353
1286.0, 0.0018969057959547795
1287.0, 0.004361439564608278
1288.0, 0.006321873514609338
1289.0, 0.0027600065176255103
1290.0, 0.00418830489124578
1291.0, 0.0007480765570602104
1292.0, 0.001445465908909968
1293.0, 9.726643169010986e-05
1294, 0.0
1295, 0.0
1296, 0.0
1297, 0.0
1298, 0.0
1299, 0.0
1300, 0.0
1301, 0.0
1302, 0.0
1303, 0.0
1304, 0.0
1305, 0.0
1306, 0.0
1307, 0.0
1308, 0.0
1309, 0.0
1310, 0.0
1311, 0.0
1312, 0.0
1313, 0.0
1314, 0.0
1315, 0.0
1316, 0.0
1317, 0.0
1318, 0.0
1319, 0.0
1320, 0.0
1321, 0.0
1322, 0.0
1323, 0.0
1324, 0.0
1325, 0.0
1326, 0.0
1327, 0.0
1328, 0.0
1329, 0.0
1330, 0.0
1331, 0.0
1332, 0.0
1333, 0.0
1334, 0.0
1335, 0.0
1336, 0.0
1337, 0.0
1338, 0.0
1339, 0.0
1340, 0.0
1341, 0.0
1342, 0.0
1343, 0.0
1344, 0.0
1345, 0.0
1346, 0.0
1347, 0.0
1348, 0.0
1349, 0.0
1350, 0.0
1351, 0.0
1352, 0.0
1353, 0.0
1354, 0.0
1355, 0.0
1356, 0.0
1357, 0.0
1358, 0.0
1359, 0.0
1360, 0.0
1361, 0.0
1362, 0.0
1363, 0.0
1364, 0.0
1365, 0.0
1366, 0.0
1367, 0.0
1368, 0.0
1369, 0.0
1370, 0.0
1371, 0.0
1372, 0.0
1373, 0.0
1374, 0.0
1375, 0.0
1376, 0.0
1377, 0.0
1378, 0.0
1379, 0.0
1380, 0.0
1381, 0.0
1382, 0.0
1383, 0.0
1384, 0.0
1385, 0.0
1386, 0.0
1387, 0.0
1388, 0.0
1389, 0.0
1390, 0.0
1391, 0.0
1392, 0.0
1393, 0.0
1394, 0.0
1395, 0.0
1396, 0.0
1397, 0.0
1398, 0.0
1399, 0.0
1400, 0.0
1401, 0.0
1402, 0.0
1403, 0.0
1404, 0.0
1405, 0.0
1406, 0.0
1407, 0.0
1408, 0.0
1409, 0.0
1410, 0.0
1411, 0.0
1412, 0.0
1413, 0.0
1414, 0.0
1415, 0.0
1416, 0.0
1417, 0.0
1418, 0.0
1419, 0.0
1420, 0.0
1421, 0.0
1422, 0.0
1423, 0.0
1424, 0.0
1425, 0.0
1426, 0.0
1427, 0.0
1428, 0.0
1429, 0.0
1430, 0.0
1431, 0.0
1432, 0.0
1433, 0.0
1434, 0.0
1435, 0.0
1436, 0.0
1437, 0.0
1438, 0.0
1439, 0.0
1440, 0.0
1441, 0.0
1442, 0.0
1443, 0.0
1444, 0.0
1445, 0.0
1446, 0.0
1447, 0.0
1448, 0.0
1449, 0.0
1450, 0.0
1451, 0.0
1452, 0.0
1453, 0.0
1454, 0.0
1455, 0.0
1456, 0.0
1457, 0.0
1458, 0.0
1459, 0.0
1460, 0.0
1461, 0.0
1462, 0.0
1463, 0.0
1464, 0.0
1465, 0.0
1466, 0.0
1467, 0.0
1468, 0.0
1469, 0.0
1470, 0.0
1471, 0.0
1472, 0.0
1473, 0.0
1474, 0.0
1475, 0.0
1476, 0.0
1477, 0.0
1478, 0.0
1479, 0.0
1480, 0.0
1481, 0.0
1482, 0.0
1483, 0.0
1484, 0.0
1485, 0.0
1486, 0.0
1487, 0.0
1488, 0.0
1489, 0.0
1490, 0.0
1491, 0.0
1492, 0.0
1493, 0.0
1494, 0.0
1495, 0.0
1496, 0.0
1497, 0.0
1498, 0.0
1499, 0.0
1500, 0.0
1501, 0.0
1502, 0.0
1503, 0.0
1504, 0.0
1505, 0.0
1506, 0.0
1507, 0.0
1508, 0.0
1509, 0.0
1510, 0.0
1511, 0.0
1512, 0.0
1513, 0.0
1514, 0.0
1515, 0.0
1516, 0.0
1517, 0.0
1518, 0.0
1519, 0.0
1520, 0.0
1521, 0.0
1522, 0.0
1523, 0.0
1524, 0.0
1525, 0.0
1526, 0.0
1527, 0.0
1528, 0.0
1529, 0.0
1530, 0.0
1531, 0.0
1532, 0.0
1533, 0.0
1534, 0.0
1535, 0.0
1536, 0.0
1537, 0.0
1538, 0.0
1539, 0.0
1540, 0.0
1541, 0.0
1542, 0.0
1543, 0.0
1544, 0.0
1545, 0.0
1546, 0.0
1547, 0.0
1548, 0.0
1549, 0.0
1550, 0.0
1551, 0.0
1552, 0.0
1553, 0.0
1554, 0.0
1555, 0.0
1556, 0.0
1557, 0.0
1558, 0.0
1559, 0.0
1560, 0.0
1561, 0.0
1562, 0.0
1563, 0.0
1564, 0.0
1565, 0.0
1566, 0.0
1567, 0.0
1568, 0.0
1569, 0.0
1570, 0.0
1571, 0.0
1572, 0.0
1573, 0.0
1574, 0.0
1575, 0.0
1576, 0.0
1577, 0.0
1578, 0.0
1579, 0.0
1580, 0.0
1581, 0.0
1582, 0.0
1583, 0.0
1584, 0.0
1585, 0.0
1586, 0.0
1587, 0.0
1588, 0.0
1589, 0.0
1590, 0.0
1591, 0.0
1592, 0.0
1593, 0.0
1594, 0.0
1595, 0.0
1596, 0.0
1597, 0.0
1598, 0.0
1599, 0.0
