30, 0.0
31, 0.0
32, 0.0
33, 0.0
34, 0.0
35, 0.0
36, 0.0
37, 0.0
38, 0.0
39, 0.0
40, 0.0
41, 0.0
42, 0.0
43, 0.0
44, 0.0
45, 0.0
46, 0.0
47, 0.0
48, 0.0
49, 0.0
50, 0.0
51, 0.0
52, 0.0
53, 0.0
54, 0.0
55, 0.0
56, 0.0
57, 0.0
58, 0.0
59, 0.0
60, 0.0
61, 0.0
62, 0.0
63, 0.0
64, 0.0
65, 0.0
66, 0.0
67, 0.0
68, 0.0
69, 0.0
70, 0.0
71, 0.0
72, 0.0
73, 0.0
74, 0.0
75, 0.0
76, 0.0
77, 0.0
78, 0.0
79, 0.0
80, 0.0
81, 0.0
82, 0.0
83, 0.0
84, 0.0
85, 0.0
86, 0.0
87, 0.0
88, 0.0
89, 0.0
90, 0.0
91, 0.0
92, 0.0
93, 0.0
94, 0.0
95, 0.0
96.0, 0.005068594416300567
97.0, 0.016241059685803437
98.0, 0.01586108847254799
99.0, 0.01388857370320259
100.0, 0.016149919470125687
101.0, 0.012715759130719248
102.0, 0.012341721932102714
103.0, 0.027087528174769053
104.0, 0.04414178414081182
105.0, 0.06457745412265858
106.0, 0.07504798956042887
107.0, 0.0593004908799599
108.0, 0.03946409456103366
109.0, 0.02661249337465299
110.0, 0.01928981942829371
111.0, 0.01246310523028578
112.0, 0.001066210713371233
113.0, 0.0019999060893935066
114.0, 0.0047121432456560955
115.0, 0.006873097497701214
116.0, 0.004624051301876846
117.0, 0.0032244298920492518
118.0, 0.009800933775481881
119.0, 0.014433344033726335
120.0, 0.022766883062951753
121.0, 0.04168798341640649
122.0, 0.0631341938656214
123.0, 0.08188683618447523
124.0, 0.09682537401765225
125.0, 0.1133105390199865
126.0, 0.13045931984236034
127.0, 0.1474532922359577
128.0, 0.1650218141846143
129.0, 0.1795924226486138
130.0, 0.18122517196599555
131.0, 0.17749533786134103
132.0, 0.18143789221999473
133.0, 0.19481431969752902
134.0, 0.1986378169482585
135.0, 0.196872435150169
136.0, 0.19533313021683832
137.0, 0.19323916866872393
138.0, 0.20116234984780823
139.0, 0.20177873706258778
140.0, 0.1897193023194156
141.0, 0.17177068165097847
142.0, 0.16679992605648764
143.0, 0.15843942555976362
144.0, 0.14308357760230678
145.0, 0.12751763138291566
146.0, 0.11834914332730123
147.0, 0.09927518629455241
148.0, 0.08514579589965626
149.0, 0.08266528825817568
150.0, 0.07139131970160313
151.0, 0.06568044268582908
152.0, 0.06617865750246844
153.0, 0.06694311440957411
154.0, 0.06823546536597508
155.0, 0.06943839257110833
156.0, 0.06832161533298826
157.0, 0.07132753294435236
158.0, 0.08387518612396815
159.0, 0.0939475998381653
160.0, 0.09532722307304055
161.0, 0.09427068966248683
162.0, 0.09793901953867303
163.0, 0.10689225780245921
164.0, 0.12085263771460408
165.0, 0.13432361103894194
166.0, 0.14285558001639032
167.0, 0.14574213485273582
168.0, 0.15893655055327888
169.0, 0.17633100666682622
170.0, 0.1864153022145453
171.0, 0.18697371554022674
172.0, 0.21527118359550088
173.0, 0.2216846573348996
174.0, 0.2178840561728393
175.0, 0.22530833257879213
176.0, 0.23451746981626106
177.0, 0.24422013639584425
178.0, 0.2636442359647645
179.0, 0.2936864678996081
180.0, 0.3168592556592661
181.0, 0.3265723118946078
182.0, 0.3475795308391302
183.0, 0.37851506918587646
184.0, 0.3956051653960818
185.0, 0.402018656963918
186.0, 0.4166420699105401
187.0, 0.4300807650588538
188.0, 0.42989758968943814
189.0, 0.4229857987662169
190.0, 0.41584593017538596
191.0, 0.4076253714509556
192.0, 0.394883685034151
193.0, 0.3734994675406543
194.0, 0.3431711944361676
195.0, 0.30841938213371906
196.0, 0.2732895136351695
197.0, 0.2388895405086502
198.0, 0.19906761468091072
199.0, 0.16718846046866276
200.0, 0.13376761338350923
201.0, 0.10276723010701376
202.0, 0.09374723308780769
203.0, 0.07648719606439895
204.0, 0.060671323125634495
205.0, 0.04716747550195318
206.0, 0.030155462428392944
207.0, 0.014489377562541476
208.0, 0.0019191917840661263
209.0, 0.00855925583333868
210.0, 0.0069053165534054385
211.0, 0.007605055367182131
212.0, 0.00479888157382773
213.0, 0.007542819387548554
214.0, 0.00870199801783507
215.0, 0.004426899447007556
216.0, 0.002175006736626967
217.0, 0.0128674141501962
218.0, 0.023835034354023867
219.0, 0.02060226138521361
220.0, 0.04227080304502129
221.0, 0.05882730162816614
222.0, 0.07164576716715183
223.0, 0.08580070497581971
224.0, 0.10014250010698514
225.0, 0.11856594679248221
226.0, 0.1383164498548413
227.0, 0.150049844927704
228.0, 0.15567328144798545
229.0, 0.17018150373376542
230.0, 0.1839850345857122
231.0, 0.1931939675333087
232.0, 0.1992034217885642
233.0, 0.20479505579192742
234.0, 0.19970749598701773
235.0, 0.20059594312817305
236.0, 0.20808349875078452
237.0, 0.2145244372431814
238.0, 0.21258611979105382
239.0, 0.21436877463883497
240.0, 0.2104649128540927
241.0, 0.20078865436788515
242.0, 0.19608707530312092
243.0, 0.19962384675002628
244.0, 0.19993465805895685
245.0, 0.19199632866866365
246.0, 0.17968580781904855
247.0, 0.17102089206902688
248.0, 0.17577788840209327
249.0, 0.1668904117298609
250.0, 0.1499987476703229
251.0, 0.14205825807755534
252.0, 0.14315926420590327
253.0, 0.12923093152187934
254.0, 0.11774878825934147
255.0, 0.11711299812158824
256.0, 0.11800419067305974
257.0, 0.10888415365005358
258.0, 0.10737197154104551
259.0, 0.10989270324383808
260.0, 0.10598353887428104
261.0, 0.10239544458099119
262.0, 0.10161951935371152
263.0, 0.10310389573356116
264.0, 0.10124943704891078
265.0, 0.09183114967000824
266.0, 0.09102193555742338
267.0, 0.08075402100817283
268.0, 0.06972488527927707
269.0, 0.06553215614982892
270.0, 0.05694781110979005
271.0, 0.042300873956595056
272.0, 0.02238787593311983
273.0, 0.010114175901869608
274.0, 0.006121555854891561
275.0, 0.013815299289727117
276.0, 0.006827335866551796
277.0, 0.0027703814917943675
278.0, 0.008746667066928834
279.0, 0.008618723251704584
280.0, 0.025674844985165896
281.0, 0.02475620517676431
282.0, 0.024713597037349586
283.0, 0.034837957199638045
284.0, 0.017200486309763723
285.0, 0.014634230465109064
286.0, 0.010333791140398146
287.0, 0.0007073948911188281
288.0, 0.013935627070736608
289.0, 0.03483462649829634
290.0, 0.058273589300911886
291.0, 0.06680374516531247
292.0, 0.06501577981363055
293.0, 0.07606741647662865
294.0, 0.09149257487602526
295.0, 0.10023630455579344
296.0, 0.10722364195751247
297.0, 0.1184743228816392
298.0, 0.1320816147714027
299.0, 0.1389844909872022
300.0, 0.14538304939688473
301.0, 0.15703838343549073
302.0, 0.1764383212002069
303.0, 0.20075495038244362
304.0, 0.2248437464525185
305.0, 0.23905428062605125
306.0, 0.25030318843691807
307.0, 0.27095423796081286
308.0, 0.2964962126826517
309.0, 0.31585508462236095
310.0, 0.3311849930865335
311.0, 0.3463224381435103
312.0, 0.36330685012114167
313.0, 0.3840879501165516
314.0, 0.4086202270111993
315.0, 0.4282609597961474
316.0, 0.44137336084002643
317.0, 0.4578512283168813
318.0, 0.47106358552420813
319.0, 0.4982261219892559
320.0, 0.532311346462551
321.0, 0.5586335550367305
322.0, 0.5752818824693099
323.0, 0.5863892794455571
324.0, 0.6104912762555768
325.0, 0.6389854529074737
326.0, 0.6645013347075893
327.0, 0.7082560109672673
328.0, 0.7370049233926367
329.0, 0.7652475828079011
330.0, 0.7895432748129346
331.0, 0.7989363636068075
332.0, 0.8048794145508624
333.0, 0.8165379690785247
334.0, 0.8321651453294214
335.0, 0.8511635612754822
336.0, 0.8729519795276549
337.0, 0.8894957011269174
338.0, 0.8984013791553842
339.0, 0.9054204101482074
340.0, 0.9102277184851079
341.0, 0.9058364280514489
342.0, 0.9086573273007122
343.0, 0.9154543277426651
344.0, 0.9237971598375654
345.0, 0.9331318912593252
346.0, 0.9423749375653161
347.0, 0.9484245554533487
348.0, 0.9503062005493026
349.0, 0.9519518548669037
350.0, 0.953038930504948
351.0, 0.954679594132598
352.0, 0.9890754116562791
353.0, 0.9896266248624582
354.0, 0.9731774328215917
355.0, 0.9677974089681776
356.0, 0.9703925859085004
357.0, 0.9572553637863016
358.0, 0.94352568031846
359.0, 0.9285161637095917
360.0, 0.9114778092089055
361.0, 0.8989034118531982
362.0, 0.8717460796297224
363.0, 0.8422839088122359
364.0, 0.8240531600899044
365.0, 0.8195628827062188
366.0, 0.8157861562296904
367.0, 0.8095718636328655
368.0, 0.8068710181847482
369.0, 0.8065668989119704
370.0, 0.802728472223001
371.0, 0.7873376747583496
372.0, 0.781290805542308
373.0, 0.7766328919554312
374.0, 0.7605819041510823
375.0, 0.7344522655467156
376.0, 0.7093861061184649
377.0, 0.6496714890734916
378.0, 0.5848853838388742
379.0, 0.5165917159865323
380.0, 0.4454725274646568
381.0, 0.3887579819724968
382.0, 0.32138444588050785
383.0, 0.2746759218858035
384.0, 0.24416825157547561
385.0, 0.21565017559812352
386.0, 0.1870957802729964
387.0, 0.1476452729591456
388.0, 0.1247460720738367
389.0, 0.10677129011959204
390.0, 0.0820897028807482
391.0, 0.059856942327599964
392.0, 0.05995748871917552
393.0, 0.05664181762113164
394.0, 0.043527502507503146
395.0, 0.03185756051790726
396.0, 0.03390555734311381
397.0, 0.01797169927850133
398.0, 0.019194939272752197
399.0, 0.023019434964654632
400.0, 0.022409135763360424
401.0, 0.029279562048361928
402.0, 0.037365265727055244
403.0, 0.03848190645010233
404.0, 0.04788265234933886
405.0, 0.06316427826826809
406.0, 0.06872248885584635
407.0, 0.07279779829256754
408.0, 0.07031508261802037
409.0, 0.07702477458490382
410.0, 0.08486179861768035
411.0, 0.07459056151758815
412.0, 0.07769296567934514
413.0, 0.07900793378706017
414.0, 0.07585919004357414
415.0, 0.07290390159279583
416.0, 0.07403124267877263
417.0, 0.07607982016408363
418.0, 0.07688837051459443
419.0, 0.0713680205445655
420.0, 0.06415487261896374
421.0, 0.06166156829111716
422.0, 0.06172324748143513
423.0, 0.03473653446376821
424.0, 0.024595343615810016
425.0, 0.020314624498360162
426.0, 0.005388361196708299
427.0, 0.013050894057921706
428.0, 0.020176476378743695
429.0, 0.015488187107481401
430.0, 0.011803981562045315
431.0, 0.01079736414358641
432.0, 0.004186205760161859
433.0, 0.009841841508889497
434.0, 0.02332598157431081
435.0, 0.027061518905494457
436.0, 0.02583925153836603
437.0, 0.02854421893935038
438.0, 0.03556682400772549
439.0, 0.0283846310753228
440.0, 0.022490432904168724
441.0, 0.013548890637560845
442.0, 0.0019069893851310824
443.0, 0.00339613450128347
444.0, 0.002281704001440612
445.0, 0.0027596692779560832
446.0, 0.0006019398747548626
447.0, 0.00501414407524044
448.0, 0.006936493340010091
449.0, 0.0070182646943232965
450.0, 0.0016326499643038795
451.0, 0.006552491165391832
452.0, 0.01116689818358805
453.0, 0.014112344749605524
454.0, 0.013566883701842076
455.0, 0.0117507133320977
456.0, 0.013334849077588714
457.0, 0.014898971682635426
458.0, 0.01752005999053396
459.0, 0.028187173128630012
460.0, 0.03221841115689398
461.0, 0.03360205041246166
462.0, 0.03962928391611776
463.0, 0.0504525319545768
464.0, 0.06052653740589473
465.0, 0.06487423909857258
466.0, 0.05740953845425958
467.0, 0.05960775362959994
468.0, 0.06741892558776191
469.0, 0.07018674242400237
470.0, 0.08240486124622808
471.0, 0.08091088805757034
472.0, 0.08383703097258971
473.0, 0.0979581005300203
474.0, 0.10950547931327068
475.0, 0.1063180847190351
476.0, 0.10018869586666783
477.0, 0.10694409065494428
478.0, 0.11377592670817806
479.0, 0.11360311123950287
480.0, 0.113966632696833
481.0, 0.12405912075580638
482.0, 0.13002913881920342
483.0, 0.12162646018881638
484.0, 0.11857665802125121
485.0, 0.12282000660563898
486.0, 0.11667927814170359
487.0, 0.1151962151731701
488.0, 0.09921925321107482
489.0, 0.0914209616482877
490.0, 0.08686635978716398
491.0, 0.07621507775624335
492.0, 0.0700022086832124
493.0, 0.06250192516491498
494.0, 0.05733248144400036
495.0, 0.05281713732393983
496.0, 0.042916436264405965
497.0, 0.025706097815845468
498.0, 0.017958986558356677
499.0, 0.01905048207475295
500.0, 0.009517486097656385
501.0, 0.0007030600763330906
502.0, 0.002094581887909381
503.0, 0.005853690185239153
504.0, 0.015551097744005118
505.0, 0.017739126057248224
506.0, 0.01698507821319895
507.0, 0.020049621254561802
508.0, 0.017285899882671835
509.0, 0.014355498605946648
510.0, 0.017377077017850875
511.0, 0.014578489182306333
512.0, 0.009773667285295766
513.0, 0.006285344054852997
514.0, 0.00013054309815604265
515.0, 0.0016644187076427302
516.0, 0.0007665124452077974
517.0, 0.001312396434401166
518.0, 0.001177444324575603
519.0, 0.0020281837477905684
520.0, 0.013140621211436517
521.0, 0.02086261670818805
522.0, 0.01807070805035693
523.0, 0.011853343441266201
524.0, 0.009903986605294226
525.0, 0.012713569489993028
526.0, 0.009708032037707216
527.0, 0.011588803320185873
528.0, 0.002974231113731259
529.0, 0.005911325603654357
530.0, 0.003968004818285319
531.0, 0.00266246359245873
532.0, 0.00949063450374599
533.0, 0.003196183641755145
534.0, 0.00267066738726113
535.0, 0.003017179513479591
536.0, 0.001242928968245116
537.0, 0.0019761322044255865
538.0, 0.008955555023003851
539.0, 0.009861695178826261
540.0, 0.011833205691542649
541.0, 0.01604898173517489
542.0, 0.015831635940166833
543.0, 0.016540856862016177
544.0, 0.028297062230759642
545.0, 0.027327193316720705
546.0, 0.028317660555155322
547.0, 0.0387388015613773
548.0, 0.044747834019765155
549.0, 0.042092503012764716
550.0, 0.0476723563029812
551.0, 0.058149074722427245
552.0, 0.06580529589833879
553.0, 0.07001946762452119
554.0, 0.07463380051459201
555.0, 0.07924735621885627
556.0, 0.08485064572757263
557.0, 0.08348080999999655
558.0, 0.08403533210902606
559.0, 0.09132902699254863
560.0, 0.10054112167362665
561.0, 0.11461635236171058
562.0, 0.10078516942218751
563.0, 0.10257427438402128
564.0, 0.10600345415374181
565.0, 0.09883823044563182
566.0, 0.10192915038531919
567.0, 0.09190497762276513
568.0, 0.10178823749877225
569.0, 0.10212301310549204
570.0, 0.09826690865653957
571.0, 0.10339099960939616
572.0, 0.11456323443146332
573.0, 0.12196734767071289
574.0, 0.11987565450655784
575.0, 0.1270615003262316
576.0, 0.14105982765299255
577.0, 0.14921404974354274
578.0, 0.151622962751371
579.0, 0.15647173329426103
580.0, 0.16630563071233903
581.0, 0.1706609446226633
582.0, 0.17335523506872694
583.0, 0.18148617191619823
584.0, 0.19566023162942947
585.0, 0.20481558154078738
586.0, 0.21137421479012436
587.0, 0.21116690675916455
588.0, 0.2324096793848565
589.0, 0.25513332423584567
590.0, 0.2309512016288559
591.0, 0.22956441029567548
592.0, 0.22960930650832967
593.0, 0.22857912013874132
594.0, 0.22726913279527206
595.0, 0.22562205886131878
596.0, 0.22676219938909561
597.0, 0.22653021309849583
598.0, 0.21698663652702802
599.0, 0.20702211771777088
600.0, 0.2078597533768884
601.0, 0.21289371779264687
602.0, 0.20760821937873164
603.0, 0.20185846647508887
604.0, 0.19290973279488063
605.0, 0.18920436993756576
606.0, 0.18355640313373364
607.0, 0.17863510569358207
608.0, 0.17984782877276018
609.0, 0.17907440560270865
610.0, 0.17213295606112136
611.0, 0.16713192955751038
612.0, 0.1568568793741566
613.0, 0.14979425176076835
614.0, 0.15429949059014023
615.0, 0.15859398704258623
616.0, 0.1634707364351099
617.0, 0.16333651173200014
618.0, 0.17079443214361315
619.0, 0.17364316678356892
620.0, 0.17222341276250902
621.0, 0.18208713593217282
622.0, 0.17537868467037973
623.0, 0.17997997138029273
624.0, 0.18620661835453753
625.0, 0.1807233432805173
626.0, 0.17677677721228516
627.0, 0.18921565334936985
628.0, 0.18510319786998924
629.0, 0.17845115186314936
630.0, 0.1725986658888978
631.0, 0.17535582366877628
632.0, 0.17396991266272233
633.0, 0.1640150371903847
634.0, 0.16349865246202505
635.0, 0.15419036270816666
636.0, 0.14691628039227728
637.0, 0.14261111553969114
638.0, 0.1331665530605823
639.0, 0.12254525461592772
640.0, 0.12053603023734354
641.0, 0.11362835723703173
642.0, 0.10508562018136498
643.0, 0.11009263573182229
644.0, 0.11579314132399063
645.0, 0.1165870139438045
646.0, 0.11561803640483954
647.0, 0.1158950831356152
648.0, 0.12946129361366432
649.0, 0.14075978523222685
650.0, 0.15379735980227607
651.0, 0.16245399384261627
652.0, 0.1726342433997272
653.0, 0.19294891461992908
654.0, 0.20384968437462958
655.0, 0.22077694495077826
656.0, 0.23731040479749424
657.0, 0.24931162395273973
658.0, 0.26717192212751256
659.0, 0.2910196659794094
660.0, 0.30034882404636376
661.0, 0.30114293750100385
662.0, 0.31134183913793695
663.0, 0.3187216237678968
664.0, 0.3145607103881324
665.0, 0.3059276394911227
666.0, 0.3030590758966213
667.0, 0.30498164404819045
668.0, 0.29814343214419187
669.0, 0.2838992714773442
670.0, 0.27620360331759153
671.0, 0.27149889022168655
672.0, 0.2598559798127181
673.0, 0.2449504786500828
674.0, 0.2355746352363963
675.0, 0.2349076429705805
676.0, 0.21864770818774446
677.0, 0.20801714171654523
678.0, 0.20726531508875176
679.0, 0.20177198487153006
680.0, 0.19077627516697865
681.0, 0.18248011982622372
682.0, 0.17529612910122042
683.0, 0.16457172790895622
684.0, 0.15165058548747049
685.0, 0.13907071417770797
686.0, 0.1258802518026445
687.0, 0.11086197711357043
688.0, 0.09348848553163099
689.0, 0.07240255209866045
690.0, 0.05822193009427257
691.0, 0.04604049474656363
692.0, 0.03177927039229678
693.0, 0.02097223290219885
694.0, 0.009694803323980835
695.0, 0.0015802351209424745
696.0, 0.005120377306694023
697.0, 0.013007723193231843
698.0, 0.017013241070218076
699.0, 0.014347826383857456
700.0, 0.017994205392282032
701.0, 0.011544937426644912
702.0, 0.009742418161819736
703.0, 0.00459203235317081
704.0, 0.000583083286818533
705.0, 0.005288499732127718
706.0, 0.01691366189017779
707.0, 0.03139130326164471
708.0, 0.047325304024749666
709.0, 0.06034349463331673
710.0, 0.07191498088872084
711.0, 0.08355570617295921
712.0, 0.1010909098784075
713.0, 0.12572323762723878
714.0, 0.14843604934164878
715.0, 0.15600617370051376
716.0, 0.1684132874896222
717.0, 0.19433844587987353
718.0, 0.21511694404430465
719.0, 0.22611500674678153
720.0, 0.23706688588891572
721.0, 0.25317530181657494
722.0, 0.2660759589087561
723.0, 0.2895307839796724
724.0, 0.29930357565544163
725.0, 0.3028141551375046
726.0, 0.30421135159287926
727.0, 0.30392039526621667
728.0, 0.302171830573309
729.0, 0.2874925950034487
730.0, 0.280152605010213
731.0, 0.2637863774189245
732.0, 0.23619746791351084
733.0, 0.20445731732629305
734.0, 0.17342375087054973
735.0, 0.14467567058803132
736.0, 0.12165700657918896
737.0, 0.09768180287885524
738.0, 0.07571488964563841
739.0, 0.05868280859443639
740.0, 0.044593046242421296
741.0, 0.03168471044122643
742.0, 0.02191957929886226
743.0, 0.0178173990349897
744.0, 0.010960406033077737
745.0, 0.00594586692323781
746.0, 0.004981222364058655
747.0, 0.006469562955422534
748.0, 0.003059510703585027
749.0, 0.006487125729348942
750.0, 0.0017776784905895546
751.0, 0.00607282354469709
752.0, 0.0014910859940187023
753.0, 0.0029934004931674056
754.0, 0.007857186708965663
755.0, 0.007965370923404868
756.0, 0.005708907238160483
757.0, 0.005085170258736469
758.0, 0.00766335214695058
759.0, 0.0004016991565891214
760.0, 0.0003974880078767447
761.0, 0.000548420404960182
762.0, 0.0003708406009728854
763.0, 0.000582631859063317
764.0, 0.003406969084820869
765.0, 0.008902506632426182
766.0, 0.0169175759358546
767.0, 0.017143204888461494
768.0, 0.01772758798858587
769.0, 0.020707960382883268
770.0, 0.02505171946880766
771.0, 0.027471197324211334
772.0, 0.0270425671237521
773.0, 0.03129130929913897
774.0, 0.02988741633809393
775.0, 0.03167529072929
776.0, 0.03667230334433675
777.0, 0.04007620362760191
778.0, 0.04337762366701151
779.0, 0.04851992984557236
780.0, 0.04860472407540916
781.0, 0.04403737342347432
782.0, 0.04578198427032236
783.0, 0.04866358191606671
784.0, 0.04597675870834704
785.0, 0.04530161168995627
786.0, 0.04985479967877736
787.0, 0.05097109299520905
788.0, 0.04942996221275523
789.0, 0.048537388823239984
790.0, 0.052136837648297595
791.0, 0.05600632756835435
792.0, 0.05495524436331659
793.0, 0.053792292145568577
794.0, 0.0545133737295147
795.0, 0.052509352268612274
796.0, 0.05075313199795761
797.0, 0.04903122329151235
798.0, 0.05175188398310356
799.0, 0.05196508718488975
800.0, 0.05019314159902205
801.0, 0.04643984701579738
802.0, 0.04388255809483355
803.0, 0.047775507720728354
804.0, 0.046583440594694894
805.0, 0.04464112731360853
806.0, 0.04598482308299316
807.0, 0.043127160270881995
808.0, 0.04369203434401846
809.0, 0.04316009678984596
810.0, 0.038059239774956094
811.0, 0.03816159957779677
812.0, 0.03352072840193427
813.0, 0.026375400550989574
814.0, 0.023455769350801157
815.0, 0.02777635556996361
816.0, 0.022429944281268606
817.0, 0.017447766141084193
818.0, 0.022941313995161805
819.0, 0.020051471595218064
820.0, 0.014608281229488245
821.0, 0.009852966458051468
822.0, 0.008351820410061363
823.0, 0.0031595699057744234
824.0, 0.0006312825499164473
825.0, 0.0029372012034405825
826.0, 0.005623122595080351
827.0, 0.0008196072657269751
828.0, 0.004019377889952228
829.0, 0.0008434792817830943
830.0, 0.002572684275140383
831.0, 0.0030208257414581666
832.0, 0.002856834127948557
833.0, 0.0022962687035050773
834.0, 0.004617682938733903
835.0, 0.007138134986890286
836.0, 0.000774492483010278
837.0, 0.000488354418268876
838.0, 0.0051680377018038185
839.0, 0.004480600475798209
840.0, 0.002528411061968261
841.0, 0.0008604853134170331
842.0, 0.003939046579324445
843.0, 0.008059567459387518
844.0, 0.004946743049097015
845.0, 0.007464893970796065
846.0, 0.0174526933586362
847.0, 0.019186153386210963
848.0, 0.01977390714044038
849.0, 0.024002534870119295
850.0, 0.030516152860070072
851.0, 0.033663295094893214
852.0, 0.03232306328737919
853.0, 0.03817270047813103
854.0, 0.045569223891163045
855.0, 0.04770529480740734
856.0, 0.046064580506693105
857.0, 0.049604460015026476
858.0, 0.05456105114334024
859.0, 0.05420514415614659
860.0, 0.052290808655346195
861.0, 0.05235129325747198
862.0, 0.05566000149751557
863.0, 0.06292015846735305
864.0, 0.0642235983281318
865.0, 0.0648763694836148
866.0, 0.07051363624963501
867.0, 0.0758078149528406
868.0, 0.07805707194337765
869.0, 0.0857517479787301
870.0, 0.09511951584817778
871.0, 0.09957721650096896
872.0, 0.11433044640926043
873.0, 0.1248295002495348
874.0, 0.1323135311275813
875.0, 0.1435477224393772
876.0, 0.1566318209672233
877.0, 0.16731285419007655
878.0, 0.17921124354171036
879.0, 0.19637880477792174
880.0, 0.21359427114316873
881.0, 0.2308009913945987
882.0, 0.25178596113472496
883.0, 0.2704391373223269
884.0, 0.294700843467471
885.0, 0.3159345820763947
886.0, 0.31824073200670194
887.0, 0.32214227105251836
888.0, 0.3302590064061483
889.0, 0.33374220317896
890.0, 0.34555130475634077
891.0, 0.34597139420316414
892.0, 0.34449412982738925
893.0, 0.34069332091931687
894.0, 0.337689640811219
895.0, 0.3367608038544071
896.0, 0.3284771609280511
897.0, 0.3187141986430944
898.0, 0.31034182255462217
899.0, 0.29855394137145413
900.0, 0.2906086002936867
901.0, 0.2758931578524918
902.0, 0.2562825227849065
903.0, 0.23897214491536134
904.0, 0.22345799195961089
905.0, 0.20843812559343403
906.0, 0.19341583357661624
907.0, 0.17784698047214387
908.0, 0.16494187093195
909.0, 0.1549919593775664
910.0, 0.15086274180981313
911.0, 0.1469700839746099
912.0, 0.14529253443411447
913.0, 0.14644393790614232
914.0, 0.14422191911972346
915.0, 0.14133230829156532
916.0, 0.14104376235311508
917.0, 0.14810336687606745
918.0, 0.14253375124250395
919.0, 0.16257030686152463
920.0, 0.17643995978654228
921.0, 0.15967975656616334
922.0, 0.137850204991401
923.0, 0.1346367290082768
924.0, 0.13302521228177755
925.0, 0.1250886190276664
926.0, 0.12076060649115515
927.0, 0.11238786114394429
928.0, 0.1020070514337584
929.0, 0.09872684472986087
930.0, 0.08969700418574206
931.0, 0.08169612345630727
932.0, 0.07679308325217898
933.0, 0.0635965267222521
934.0, 0.05551099623298831
935.0, 0.044384792271204225
936.0, 0.042444745001086005
937.0, 0.035254917176191905
938.0, 0.03224291448028212
939.0, 0.025928813292161523
940.0, 0.02473180977101318
941.0, 0.024045658169091013
942.0, 0.020842010829404702
943.0, 0.022564904797888776
944.0, 0.017250338921008638
945.0, 0.022857407582817846
946.0, 0.02451714112635152
947.0, 0.02400496742129874
948.0, 0.024949148127873574
949.0, 0.026202829103388857
950.0, 0.030206584171315887
951.0, 0.03542332179785188
952.0, 0.03618034607416231
953.0, 0.03586656205671793
954.0, 0.03999140887809747
955.0, 0.03403909230391109
956.0, 0.03494390664901452
957.0, 0.03573982966123847
958.0, 0.030294440833457517
959.0, 0.029434492503158174
960.0, 0.027976350392044717
961.0, 0.02061434030256412
962.0, 0.013995202111991257
963.0, 0.014073230399587466
964.0, 0.01145208024816335
965.0, 0.004451687900923451
966.0, 0.00728420259933458
967.0, 0.016534317786498724
968.0, 0.012401222113089277
969.0, 0.010291764254318277
970.0, 0.008489498876134167
971.0, 0.008623322129206397
972.0, 0.011080820286441466
973.0, 0.0096408360745561
974.0, 0.00720356168987191
975.0, 0.010360278865302391
976.0, 0.013222579988338198
977.0, 0.02437677666296612
978.0, 0.0262431736802807
979.0, 0.024817377288378715
980.0, 0.026956329190041324
981.0, 0.03164600218829368
982.0, 0.03321016908251352
983.0, 0.030385897835609823
984.0, 0.02840550409069946
985.0, 0.030677888174301376
986.0, 0.03167228510741834
987.0, 0.03437554981298887
988.0, 0.02408207565078926
989.0, 0.024394377420074106
990.0, 0.02534215754691701
991.0, 0.018654345899508273
992.0, 0.012966161182199088
993.0, 0.013106467328029486
994.0, 0.011529088312287057
995.0, 0.006980156981290488
996.0, 0.008066048422069164
997.0, 0.006020582549275114
998.0, 0.0013350321792094952
999.0, 0.0009670991736911212
1000.0, 0.001419071960100149
1001.0, 0.003914617648265967
1002.0, 0.006719627186504192
1003.0, 0.00710963827473146
1004.0, 0.0055307417372182435
1005.0, 0.004416786719721629
1006.0, 0.006654830755276275
1007.0, 0.009328328150589012
1008.0, 0.0019507589485057329
1009.0, 0.00027118296539570383
1010.0, 0.004791481803762344
1011.0, 0.0025048679253406214
1012.0, 0.004709884911090023
1013.0, 0.007789359865614732
1014.0, 0.012754017350907516
1015.0, 0.016737174583996962
1016.0, 0.01952839207383771
1017.0, 0.022246989150042435
1018.0, 0.0247334871005593
1019.0, 0.027283267899337597
1020.0, 0.03533562505969655
1021.0, 0.03978484132126452
1022.0, 0.04519993280520427
1023.0, 0.049025324815861956
1024.0, 0.057030155319783525
1025.0, 0.051283992240789084
1026.0, 0.053924390885362126
1027.0, 0.06533565875605929
1028.0, 0.0709920801329379
1029.0, 0.07710261255018837
1030.0, 0.08020650913543295
1031.0, 0.07528190346695664
1032.0, 0.08217663619073308
1033.0, 0.07957631927151189
1034.0, 0.07970135292189538
1035.0, 0.08331460736594876
1036.0, 0.08214421772774258
1037.0, 0.08142311599583463
1038.0, 0.07773939674200375
1039.0, 0.07429823415643426
1040.0, 0.07265684564171315
1041.0, 0.06838084156340546
1042.0, 0.07047175168855359
1043.0, 0.07848201685313824
1044.0, 0.06992316750530536
1045.0, 0.055591476180257775
1046.0, 0.05787508483645109
1047.0, 0.053659988453292055
1048.0, 0.05028800568602847
1049.0, 0.04480025380564822
1050.0, 0.037305942962526845
1051.0, 0.03382691451043078
1052.0, 0.031505679245024995
1053.0, 0.02784798823122428
1054.0, 0.026360552008871933
1055.0, 0.023276271107826794
1056.0, 0.020352252496118932
1057.0, 0.023076491348481533
1058.0, 0.016392402417741158
1059.0, 0.018343499380836435
1060.0, 0.014127402101839966
1061.0, 0.01246179419212543
1062.0, 0.012742588240812692
1063.0, 0.011183947355657357
1064.0, 0.008855671707023467
1065.0, 0.008655334074720357
1066.0, 0.006235468656899768
1067.0, 0.0006306947948344543
1068.0, 0.0035167288035764807
1069.0, 0.01191058814345893
1070.0, 0.005736470667190845
1071.0, 0.0015803354751229251
1072.0, 0.003544539020703592
1073.0, 0.004229175202775366
1074.0, 0.0009491684823580438
1075.0, 0.0011376918938907675
1076.0, 0.0006729663677804242
1077.0, 0.0004801292196625679
1078.0, 0.0036826378173363933
1079.0, 0.006819276517058402
1080.0, 0.0024801351948005946
1081.0, 0.004587081442694716
1082.0, 0.002647199168931578
1083.0, 0.001444137457707444
1084.0, 0.005403451043567663
1085.0, 0.0013407200023417285
1086.0, 0.0011965882649146084
1087.0, 0.004021383852135387
1088.0, 0.007764949992495611
1089.0, 0.00831145567220023
1090.0, 0.003962321389995872
1091.0, 0.005548073523967251
1092.0, 0.01134910358741059
1093.0, 0.011682123462826183
1094.0, 0.009165459725241545
1095.0, 0.0003146057812785898
1096.0, 0.003492747010018283
1097.0, 0.0009260124686439904
1098.0, 0.0019023349539003455
1099.0, 0.01371409410574826
1100.0, 0.009348482177431037
1101.0, 0.010123372752487854
1102.0, 0.01886637041524255
1103.0, 0.026775009414400183
1104.0, 0.03349706356010765
1105.0, 0.040227326853636114
1106.0, 0.0563948503085361
1107.0, 0.07670458099406706
1108.0, 0.07983949969041408
1109.0, 0.08305887211358348
1110.0, 0.08171294337718718
1111.0, 0.07897246643242307
1112.0, 0.07594017845033338
1113.0, 0.07107500340116556
1114.0, 0.062319932240839676
1115.0, 0.062237214128507204
1116.0, 0.0578442085458672
1117.0, 0.05280798091593904
1118.0, 0.044493993528038484
1119.0, 0.03131788197475465
1120.0, 0.01946520138706982
1121.0, 0.02104475792664137
1122.0, 0.024311170910562736
1123.0, 0.015270124716041993
1124.0, 0.011969746323619733
1125.0, 0.002832934955763474
1126.0, 0.002634596958480078
1127.0, 0.009429104897080258
1128.0, 0.007411250939316166
1129.0, 0.003471445084491845
1130.0, 0.010470044187207228
1131.0, 0.0026826700389580333
1132.0, 0.0029720720229526962
1133.0, 0.0021419433217631624
1134, 0.0
1135, 0.0
1136, 0.0
1137, 0.0
1138, 0.0
1139, 0.0
1140, 0.0
1141, 0.0
1142, 0.0
1143, 0.0
1144, 0.0
1145, 0.0
1146, 0.0
1147, 0.0
1148, 0.0
1149, 0.0
1150, 0.0
1151, 0.0
1152, 0.0
1153, 0.0
1154, 0.0
1155, 0.0
1156, 0.0
1157, 0.0
1158, 0.0
1159, 0.0
1160, 0.0
1161, 0.0
1162, 0.0
1163, 0.0
1164, 0.0
1165, 0.0
1166, 0.0
1167, 0.0
1168, 0.0
1169, 0.0
1170, 0.0
1171, 0.0
1172, 0.0
1173, 0.0
1174, 0.0
1175, 0.0
1176, 0.0
1177, 0.0
1178, 0.0
1179, 0.0
1180, 0.0
1181, 0.0
1182, 0.0
1183, 0.0
1184, 0.0
1185, 0.0
1186, 0.0
1187, 0.0
1188, 0.0
1189, 0.0
1190, 0.0
1191, 0.0
1192, 0.0
1193, 0.0
1194, 0.0
1195, 0.0
1196, 0.0
1197, 0.0
1198, 0.0
1199, 0.0
1200, 0.0
1201, 0.0
1202, 0.0
1203, 0.0
1204, 0.0
1205, 0.0
1206, 0.0
1207, 0.0
1208, 0.0
1209, 0.0
1210, 0.0
1211, 0.0
1212, 0.0
1213, 0.0
1214, 0.0
1215, 0.0
1216, 0.0
1217, 0.0
1218, 0.0
1219, 0.0
1220, 0.0
1221, 0.0
1222, 0.0
1223, 0.0
1224, 0.0
1225, 0.0
1226, 0.0
1227, 0.0
1228, 0.0
1229, 0.0
1230, 0.0
1231, 0.0
1232, 0.0
1233, 0.0
1234, 0.0
1235, 0.0
1236, 0.0
1237, 0.0
1238, 0.0
1239, 0.0
1240, 0.0
1241, 0.0
1242, 0.0
1243, 0.0
1244, 0.0
1245, 0.0
1246, 0.0
1247, 0.0
1248, 0.0
1249, 0.0
1250, 0.0
1251, 0.0
1252, 0.0
1253, 0.0
1254, 0.0
1255, 0.0
1256, 0.0
1257, 0.0
1258, 0.0
1259, 0.0
1260, 0.0
1261, 0.0
1262, 0.0
1263, 0.0
1264, 0.0
1265, 0.0
1266, 0.0
1267, 0.0
1268, 0.0
1269, 0.0
1270, 0.0
1271, 0.0
1272, 0.0
1273, 0.0
1274, 0.0
1275, 0.0
1276, 0.0
1277, 0.0
1278, 0.0
1279, 0.0
1280, 0.0
1281, 0.0
1282, 0.0
1283, 0.0
1284, 0.0
1285, 0.0
1286, 0.0
1287, 0.0
1288, 0.0
1289, 0.0
1290, 0.0
1291, 0.0
1292, 0.0
1293, 0.0
1294, 0.0
1295, 0.0
1296, 0.0
1297, 0.0
1298, 0.0
1299, 0.0
1300, 0.0
1301, 0.0
1302, 0.0
1303, 0.0
1304, 0.0
1305, 0.0
1306, 0.0
1307, 0.0
1308, 0.0
1309, 0.0
1310, 0.0
1311, 0.0
1312, 0.0
1313, 0.0
1314, 0.0
1315, 0.0
1316, 0.0
1317, 0.0
1318, 0.0
1319, 0.0
1320, 0.0
1321, 0.0
1322, 0.0
1323, 0.0
1324, 0.0
1325, 0.0
1326, 0.0
1327, 0.0
1328, 0.0
1329, 0.0
1330, 0.0
1331, 0.0
1332, 0.0
1333, 0.0
1334, 0.0
1335, 0.0
1336, 0.0
1337, 0.0
1338, 0.0
1339, 0.0
1340, 0.0
1341, 0.0
1342, 0.0
1343, 0.0
1344, 0.0
1345, 0.0
1346, 0.0
1347, 0.0
1348, 0.0
1349, 0.0
1350, 0.0
1351, 0.0
1352, 0.0
1353, 0.0
1354, 0.0
1355, 0.0
1356, 0.0
1357, 0.0
1358, 0.0
1359, 0.0
1360, 0.0
1361, 0.0
1362, 0.0
1363, 0.0
1364, 0.0
1365, 0.0
1366, 0.0
1367, 0.0
1368, 0.0
1369, 0.0
1370, 0.0
1371, 0.0
1372, 0.0
1373, 0.0
1374, 0.0
1375, 0.0
1376, 0.0
1377, 0.0
1378, 0.0
1379, 0.0
1380, 0.0
1381, 0.0
1382, 0.0
1383, 0.0
1384, 0.0
1385, 0.0
1386, 0.0
1387, 0.0
1388, 0.0
1389, 0.0
1390, 0.0
1391, 0.0
1392, 0.0
1393, 0.0
1394, 0.0
1395, 0.0
1396, 0.0
1397, 0.0
1398, 0.0
1399, 0.0
1400, 0.0
1401, 0.0
1402, 0.0
1403, 0.0
1404, 0.0
1405, 0.0
1406, 0.0
1407, 0.0
1408, 0.0
1409, 0.0
1410, 0.0
1411, 0.0
1412, 0.0
1413, 0.0
1414, 0.0
1415, 0.0
1416, 0.0
1417, 0.0
1418, 0.0
1419, 0.0
1420, 0.0
1421, 0.0
1422, 0.0
1423, 0.0
1424, 0.0
1425, 0.0
1426, 0.0
1427, 0.0
1428, 0.0
1429, 0.0
1430, 0.0
1431, 0.0
1432, 0.0
1433, 0.0
1434, 0.0
1435, 0.0
1436, 0.0
1437, 0.0
1438, 0.0
1439, 0.0
1440, 0.0
1441, 0.0
1442, 0.0
1443, 0.0
1444, 0.0
1445, 0.0
1446, 0.0
1447, 0.0
1448, 0.0
1449, 0.0
1450, 0.0
1451, 0.0
1452, 0.0
1453, 0.0
1454, 0.0
1455, 0.0
1456, 0.0
1457, 0.0
1458, 0.0
1459, 0.0
1460, 0.0
1461, 0.0
1462, 0.0
1463, 0.0
1464, 0.0
1465, 0.0
1466, 0.0
1467, 0.0
1468, 0.0
1469, 0.0
1470, 0.0
1471, 0.0
1472, 0.0
1473, 0.0
1474, 0.0
1475, 0.0
1476, 0.0
1477, 0.0
1478, 0.0
1479, 0.0
1480, 0.0
1481, 0.0
1482, 0.0
1483, 0.0
1484, 0.0
1485, 0.0
1486, 0.0
1487, 0.0
1488, 0.0
1489, 0.0
1490, 0.0
1491, 0.0
1492, 0.0
1493, 0.0
1494, 0.0
1495, 0.0
1496, 0.0
1497, 0.0
1498, 0.0
1499, 0.0
1500, 0.0
1501, 0.0
1502, 0.0
1503, 0.0
1504, 0.0
1505, 0.0
1506, 0.0
1507, 0.0
1508, 0.0
1509, 0.0
1510, 0.0
1511, 0.0
1512, 0.0
1513, 0.0
1514, 0.0
1515, 0.0
1516, 0.0
1517, 0.0
1518, 0.0
1519, 0.0
1520, 0.0
1521, 0.0
1522, 0.0
1523, 0.0
1524, 0.0
1525, 0.0
1526, 0.0
1527, 0.0
1528, 0.0
1529, 0.0
1530, 0.0
1531, 0.0
1532, 0.0
1533, 0.0
1534, 0.0
1535, 0.0
1536, 0.0
1537, 0.0
1538, 0.0
1539, 0.0
1540, 0.0
1541, 0.0
1542, 0.0
1543, 0.0
1544, 0.0
1545, 0.0
1546, 0.0
1547, 0.0
1548, 0.0
1549, 0.0
1550, 0.0
1551, 0.0
1552, 0.0
1553, 0.0
1554, 0.0
1555, 0.0
1556, 0.0
1557, 0.0
1558, 0.0
1559, 0.0
1560, 0.0
1561, 0.0
1562, 0.0
1563, 0.0
1564, 0.0
1565, 0.0
1566, 0.0
1567, 0.0
1568, 0.0
1569, 0.0
1570, 0.0
1571, 0.0
1572, 0.0
1573, 0.0
1574, 0.0
1575, 0.0
1576, 0.0
1577, 0.0
1578, 0.0
1579, 0.0
1580, 0.0
1581, 0.0
1582, 0.0
1583, 0.0
1584, 0.0
1585, 0.0
1586, 0.0
1587, 0.0
1588, 0.0
1589, 0.0
1590, 0.0
1591, 0.0
1592, 0.0
1593, 0.0
1594, 0.0
1595, 0.0
1596, 0.0
1597, 0.0
1598, 0.0
1599, 0.0
