30, 0.0
31, 0.0
32, 0.0
33, 0.0
34, 0.0
35, 0.0
36, 0.0
37, 0.0
38, 0.0
39, 0.0
40, 0.0
41, 0.0
42, 0.0
43, 0.0
44, 0.0
45, 0.0
46, 0.0
47, 0.0
48, 0.0
49, 0.0
50, 0.0
51, 0.0
52, 0.0
53, 0.0
54, 0.0
55, 0.0
56, 0.0
57, 0.0
58, 0.0
59, 0.0
60, 0.0
61, 0.0
62, 0.0
63, 0.0
64, 0.0
65, 0.0
66, 0.0
67, 0.0
68, 0.0
69, 0.0
70, 0.0
71, 0.0
72, 0.0
73, 0.0
74, 0.0
75, 0.0
76, 0.0
77, 0.0
78, 0.0
79, 0.0
80, 0.0
81, 0.0
82, 0.0
83, 0.0
84, 0.0
85, 0.0
86, 0.0
87, 0.0
88, 0.0
89, 0.0
90, 0.0
91, 0.0
92, 0.0
93, 0.0
94, 0.0
95, 0.0
96, 0.0
97, 0.0
98, 0.0
99, 0.0
100, 0.0
101, 0.0
102, 0.0
103, 0.0
104, 0.0
105, 0.0
106, 0.0
107, 0.0
108, 0.0
109, 0.0
110, 0.0
111, 0.0
112, 0.0
113, 0.0
114, 0.0
115, 0.0
116, 0.0
117, 0.0
118, 0.0
119, 0.0
120, 0.0
121, 0.0
122, 0.0
123, 0.0
124, 0.0
125, 0.0
126, 0.0
127, 0.0
128, 0.0
129, 0.0
130, 0.0
131, 0.0
132, 0.0
133, 0.0
134, 0.0
135, 0.0
136, 0.0
137, 0.0
138, 0.0
139, 0.0
140, 0.0
141, 0.0
142, 0.0
143, 0.0
144, 0.0
145, 0.0
146, 0.0
147, 0.0
148, 0.0
149, 0.0
150, 0.0
151.0, 0.0020068848809223242
152.0, 0.012187031855708467
153.0, 0.01800726510016316
154.0, 0.0013617305962950717
155.0, 0.00938876616355893
156.0, 0.00780671590918908
157.0, 0.006440302853184143
158.0, 0.003024418410265498
159.0, 0.008103222048169687
160.0, 0.0037627088905002465
161.0, 0.02270138731086375
162.0, 0.03729501170822374
163.0, 0.04483289425471232
164.0, 0.05595735106571275
165.0, 0.06071914376749736
166.0, 0.06348206650129115
167.0, 0.0756688167919528
168.0, 0.08857167354097274
169.0, 0.098983484791406
170.0, 0.10879306076628893
171.0, 0.12184643929897858
172.0, 0.14306885378338646
173.0, 0.14999271612355083
174.0, 0.1602974222505841
175.0, 0.1804503473062844
176.0, 0.18588401565240006
177.0, 0.19157436809414233
178.0, 0.21222119765262032
179.0, 0.24329027607231282
180.0, 0.2698664129232851
181.0, 0.2963805434402061
182.0, 0.32580477865340957
183.0, 0.35613167901584497
184.0, 0.3830781058398839
185.0, 0.4035485196077843
186.0, 0.4214512535694733
187.0, 0.44401016299527946
188.0, 0.4735556653579745
189.0, 0.5030431242709511
190.0, 0.5214716920789989
191.0, 0.5374697191557621
192.0, 0.550627245047212
193.0, 0.5521457354896372
194.0, 0.560626431889174
195.0, 0.5644232174189967
196.0, 0.5650869014840787
197.0, 0.5688352301044162
198.0, 0.5645507124961391
199.0, 0.5588129966077255
200.0, 0.5592536802472399
201.0, 0.5633851495275171
202.0, 0.554595649270127
203.0, 0.5566683086647661
204.0, 0.5618854439294845
205.0, 0.5616403990551386
206.0, 0.5564324924968721
207.0, 0.5766359051276022
208.0, 0.5834768773319641
209.0, 0.5872088380496366
210.0, 0.6088418271567505
211.0, 0.6258946429319968
212.0, 0.6435297671308879
213.0, 0.6492770756879079
214.0, 0.6578644750595773
215.0, 0.691529021278268
216.0, 0.6999847921069505
217.0, 0.7023363885309035
218.0, 0.7051998976993694
219.0, 0.6944875749450247
220.0, 0.6891507564867321
221.0, 0.660974608410892
222.0, 0.6391687207066183
223.0, 0.634196282636769
224.0, 0.6127377068435128
225.0, 0.5845929529517285
226.0, 0.5665175899540615
227.0, 0.5560755630861365
228.0, 0.5324670282411028
229.0, 0.48108454294950675
230.0, 0.43990688701621855
231.0, 0.40647685162728847
232.0, 0.37235278836242447
233.0, 0.35819277717226583
234.0, 0.3248851941394475
235.0, 0.2928245536525738
236.0, 0.26831006086736736
237.0, 0.23269498591454085
238.0, 0.21988507756796288
239.0, 0.20118263089374602
240.0, 0.18213531046377707
241.0, 0.17481063435155994
242.0, 0.15771600367660102
243.0, 0.14145629859963837
244.0, 0.1297356131728615
245.0, 0.1348923508450004
246.0, 0.11830969109390868
247.0, 0.10974723233643484
248.0, 0.1022818698750977
249.0, 0.10548220933374565
250.0, 0.09967522078795374
251.0, 0.09276008395289605
252.0, 0.09470631685853205
253.0, 0.09329208065177254
254.0, 0.08486140443347039
255.0, 0.08722344226024328
256.0, 0.08490860192880646
257.0, 0.0799873313552679
258.0, 0.07718151174278612
259.0, 0.07846880370338351
260.0, 0.07858305410302208
261.0, 0.07607614942915072
262.0, 0.07631973574002605
263.0, 0.07827801336511277
264.0, 0.07109934651273363
265.0, 0.055706647300401826
266.0, 0.04993340477399087
267.0, 0.051871097061635396
268.0, 0.0499392804099301
269.0, 0.04080515666712721
270.0, 0.03671330996604191
271.0, 0.03627129062924501
272.0, 0.035803737842373624
273.0, 0.03458569730817539
274.0, 0.036254040036322106
275.0, 0.023396906021132504
276.0, 0.010531596756175857
277.0, 0.014549126222659687
278.0, 0.012049568817798164
279.0, 0.014363860739899476
280.0, 0.014846165635303762
281.0, 0.01031270840149942
282.0, 0.004524074398927612
283.0, 0.0007216866951680233
284.0, 0.0007099078632052924
285.0, 0.006345182510106288
286.0, 0.005280403465157763
287.0, 0.007419024920756878
288.0, 0.002203105658569873
289.0, 0.004833137322149383
290.0, 0.0013268568571850516
291.0, 0.006464354620668772
292.0, 0.0030272386380611853
293.0, 0.0009580821735683073
294.0, 0.0035932769250691604
295.0, 0.003173480802102375
296.0, 0.0039821151769563945
297.0, 0.006881654308478726
298.0, 0.0033284160047488778
299.0, 0.0006403814684659345
300.0, 0.003745063023471928
301.0, 0.0014220545782704333
302.0, 0.005564216452621617
303.0, 0.005347008158150644
304.0, 0.0004572009550882694
305.0, 0.00797263335363676
306.0, 0.00313794924295616
307.0, 0.001712198241024246
308.0, 0.0034436936603661605
309.0, 0.0022308389147767827
310.0, 0.007666376425299121
311.0, 0.003674400138352919
312.0, 0.0013631717905532043
313.0, 0.004326273695777331
314.0, 0.007797865459396605
315.0, 0.00518274851311241
316.0, 0.001262917226709641
317.0, 0.0044401980788939255
318.0, 0.00819816484876722
319.0, 0.0033146185545180236
320.0, 0.010315871522580736
321.0, 0.009202436529565894
322.0, 0.004776766613353672
323.0, 0.008130612287365899
324.0, 0.007229524238093638
325.0, 0.00984462932142968
326.0, 0.010676143804803976
327.0, 0.01138737323968492
328.0, 0.016066097999163396
329.0, 0.021545275866726384
330.0, 0.016595503167467066
331.0, 0.017222126952889025
332.0, 0.02302688024520726
333.0, 0.019011750190404637
334.0, 0.015006593118536795
335.0, 0.015282747875630456
336.0, 0.01843551281842484
337.0, 0.017740480288890293
338.0, 0.006072104383912848
339.0, 0.011652768241851548
340.0, 0.015513214976732314
341.0, 0.018696712300404567
342.0, 0.026655668141830933
343.0, 0.021901470164535735
344.0, 0.022802881190759853
345.0, 0.025818562276352704
346.0, 0.025267553896740607
347.0, 0.01829522420691303
348.0, 0.010728846256525568
349.0, 0.010984208895392037
350.0, 0.01541386082998273
351.0, 0.018480644274585446
352.0, 0.0183202909432811
353.0, 0.022280090013555076
354.0, 0.02094928288389719
355.0, 0.023198171604692487
356.0, 0.02799429133916223
357.0, 0.015098407474877685
358.0, 0.015477696855418704
359.0, 0.023377186880249555
360.0, 0.02411570428336633
361.0, 0.015833635177170853
362.0, 0.020247272427471465
363.0, 0.029702426993726227
364.0, 0.03003716680835825
365.0, 0.02516130747935195
366.0, 0.023590914266400666
367.0, 0.017931963641203436
368.0, 0.017287217606385415
369.0, 0.022980548772641177
370.0, 0.024180910930418246
371.0, 0.007688049923194456
372.0, 0.012674893975565303
373.0, 0.007896905575477526
374.0, 0.007898235413605044
375.0, 0.013447372944530135
376.0, 0.0038272891166328195
377.0, 0.0009218495950618067
378.0, 0.0046568691125596934
379.0, 0.0028026083247314456
380.0, 0.0076708496454700945
381.0, 0.0008777989888855044
382.0, 0.0022698413407241384
383.0, 0.003441594018565795
384.0, 0.006271052079179221
385.0, 0.01072705313037569
386.0, 0.0043152421910677054
387.0, 0.00892115278131918
388.0, 0.01423826109273589
389.0, 0.010012225173333533
390.0, 0.0011100196878224503
391.0, 0.0012196918652792798
392.0, 0.009367118777519615
393.0, 0.01591150245367638
394.0, 0.01794368169098865
395.0, 0.019454742372456882
396.0, 0.016178165756696197
397.0, 0.008310390465300152
398.0, 0.004887002853719536
399.0, 0.006219863618427407
400.0, 0.007003346644046865
401.0, 0.0069036635103875985
402.0, 0.008810517018380171
403.0, 0.004076929902491856
404.0, 0.005135511156195229
405.0, 0.0165133556955791
406.0, 0.011833923252579278
407.0, 0.00325461674280623
408.0, 0.0063929377275810636
409.0, 0.0015230224406067715
410.0, 0.006242183882402783
411.0, 0.005266243645285759
412.0, 0.0025587286923690446
413.0, 0.003587757970943784
414.0, 0.01270762670923437
415.0, 0.0252696207801196
416.0, 0.015276198212353174
417.0, 0.01270380638669707
418.0, 0.01714612048031097
419.0, 0.018551488861034356
420.0, 0.013296854368298222
421.0, 0.008633123189325883
422.0, 0.016389920217442313
423.0, 0.025302074808807747
424.0, 0.029463528931125266
425.0, 0.0307697534921345
426.0, 0.03090105493356691
427.0, 0.045299915753115885
428.0, 0.055042995419242895
429.0, 0.05649537637827412
430.0, 0.06422082223494541
431.0, 0.08129600317478469
432.0, 0.10400502486949757
433.0, 0.12195288665150114
434.0, 0.1381013148131178
435.0, 0.16163874852483243
436.0, 0.18061499661671196
437.0, 0.20113561172696393
438.0, 0.22373023325380292
439.0, 0.24571797550329355
440.0, 0.2626730207175672
441.0, 0.26564236152908804
442.0, 0.25834003829115404
443.0, 0.2607482453834453
444.0, 0.2723772320205949
445.0, 0.28084102991967586
446.0, 0.2889570586756213
447.0, 0.29610191792042345
448.0, 0.30035889566617746
449.0, 0.30433461593399086
450.0, 0.30922431540954187
451.0, 0.30316884772657615
452.0, 0.274774908038446
453.0, 0.2530871014653224
454.0, 0.2376790042047863
455.0, 0.2156817086422252
456.0, 0.19537306324135936
457.0, 0.18054664718194752
458.0, 0.16811080649555013
459.0, 0.15222909806367949
460.0, 0.1530025543373773
461.0, 0.140245051080461
462.0, 0.13300683016444162
463.0, 0.12605206879096803
464.0, 0.12540702751508828
465.0, 0.11987202901329051
466.0, 0.12170384581757203
467.0, 0.12266262017966767
468.0, 0.12137591203282698
469.0, 0.11112007568395985
470.0, 0.09909685258967432
471.0, 0.10950187940290788
472.0, 0.10602335865251407
473.0, 0.11023699030564467
474.0, 0.11009618151672115
475.0, 0.1072863382286682
476.0, 0.12180058756844335
477.0, 0.12082139438431519
478.0, 0.12226314772789823
479.0, 0.1231974898040817
480.0, 0.12061607025485473
481.0, 0.1185471547046525
482.0, 0.12201658121100395
483.0, 0.13247099152829572
484.0, 0.13593088920690824
485.0, 0.1323653006528661
486.0, 0.1322307080966857
487.0, 0.13940261109770763
488.0, 0.14558221385106077
489.0, 0.1457475683923784
490.0, 0.151273272008706
491.0, 0.14363800769065924
492.0, 0.13889809724021082
493.0, 0.13612807434964652
494.0, 0.14083824560178201
495.0, 0.13565393108782944
496.0, 0.14181003014204027
497.0, 0.14880728112846026
498.0, 0.14641046703573513
499.0, 0.15399692571752405
500.0, 0.1581894891498705
501.0, 0.15452359476679403
502.0, 0.15563832690399
503.0, 0.1644257478632148
504.0, 0.15708959458764166
505.0, 0.15461576080128653
506.0, 0.1614033184768429
507.0, 0.16616434992469123
508.0, 0.15940989851458984
509.0, 0.14810468237810087
510.0, 0.14782636412325648
511.0, 0.15195882029249755
512.0, 0.14940182437110977
513.0, 0.14365294484420799
514.0, 0.12619140327658382
515.0, 0.12322847147026118
516.0, 0.11438845231458447
517.0, 0.09532749409137589
518.0, 0.08934681469956564
519.0, 0.08667272296227482
520.0, 0.08443770243190675
521.0, 0.07832151604025006
522.0, 0.06906510179249727
523.0, 0.05950266428325196
524.0, 0.04806001864335125
525.0, 0.045848600544964646
526.0, 0.041976079859664034
527.0, 0.03287768780852547
528.0, 0.02372949527592069
529.0, 0.019545773466574642
530.0, 0.02137493904339786
531.0, 0.016804086710586263
532.0, 0.005862175478626134
533.0, 0.0033338743318982586
534.0, 0.0023077622802231707
535.0, 0.004802077743680176
536.0, 0.00685125528576344
537.0, 0.008759235918134536
538.0, 0.009885125534709853
539.0, 0.010398535909002384
540.0, 0.013332910673686157
541.0, 0.012635588021056585
542.0, 0.007841508410758433
543.0, 0.008315556050295242
544.0, 0.012676462878471064
545.0, 0.009130582875943337
546.0, 0.010510124690039837
547.0, 0.013383617944369463
548.0, 0.004852745934304104
549.0, 0.004786679396746827
550.0, 0.009943859886752372
551.0, 0.005413490004233644
552.0, 0.010703684141661585
553.0, 0.008157042611550527
554.0, 0.005994471495057534
555.0, 0.018894675804178206
556.0, 0.022675448118410102
557.0, 0.018062614789917348
558.0, 0.028590348298142453
559.0, 0.03327274188043823
560.0, 0.024790697482470248
561.0, 0.01883403367344893
562.0, 0.043749920193198996
563.0, 0.05561729894320568
564.0, 0.05779308306486297
565.0, 0.05443281914974963
566.0, 0.06342072995932228
567.0, 0.06638796791446709
568.0, 0.07088707042192205
569.0, 0.07865702901708242
570.0, 0.08249692876469249
571.0, 0.09230982662231275
572.0, 0.09471599868331085
573.0, 0.10482969971015772
574.0, 0.10283713642962242
575.0, 0.11465009432265295
576.0, 0.11970811359901627
577.0, 0.11135477164099349
578.0, 0.11711443803710563
579.0, 0.12619203772543422
580.0, 0.12606275542105527
581.0, 0.1307465253073047
582.0, 0.1380134063404479
583.0, 0.1381408124627986
584.0, 0.13736576580611767
585.0, 0.14189368507079195
586.0, 0.14228433351669825
587.0, 0.14655032173820545
588.0, 0.14722039726217565
589.0, 0.1287999100532417
590.0, 0.1368652913181481
591.0, 0.13669135507542038
592.0, 0.13896187796191695
593.0, 0.14711120154291318
594.0, 0.15343938928549136
595.0, 0.15594007635857687
596.0, 0.1736769670020011
597.0, 0.17526603942506883
598.0, 0.1739368233029007
599.0, 0.18353179725538143
600.0, 0.20162774686127904
601.0, 0.21244081463987224
602.0, 0.2258573441804624
603.0, 0.24008775874100238
604.0, 0.24609196494513522
605.0, 0.2487749574612178
606.0, 0.25885712590467885
607.0, 0.256289797930288
608.0, 0.25708407530123145
609.0, 0.2590783518948406
610.0, 0.25636851316163695
611.0, 0.24971719089603883
612.0, 0.244682425490788
613.0, 0.23696105887363844
614.0, 0.23608223210139612
615.0, 0.23552295807163345
616.0, 0.23094243536308104
617.0, 0.2288875860944541
618.0, 0.24153271584926325
619.0, 0.24229054987587192
620.0, 0.24364557502745898
621.0, 0.24396483350995946
622.0, 0.24451389079204572
623.0, 0.24776131499598697
624.0, 0.2439330316596078
625.0, 0.2516735246040572
626.0, 0.2456936545928973
627.0, 0.2524246163730288
628.0, 0.2614404153351283
629.0, 0.24303744467200517
630.0, 0.26653110868419216
631.0, 0.2643735092771574
632.0, 0.25790076885746727
633.0, 0.253885941214618
634.0, 0.24799912795032236
635.0, 0.2427166129340032
636.0, 0.24197470770007204
637.0, 0.22982752137997034
638.0, 0.2067626027617504
639.0, 0.19333824983039477
640.0, 0.19262782678789797
641.0, 0.18159499945141322
642.0, 0.1752959146852574
643.0, 0.16573528848697155
644.0, 0.16442761718017643
645.0, 0.16105170446323464
646.0, 0.14870146453251862
647.0, 0.15091876545393734
648.0, 0.16673984244939985
649.0, 0.1657104114770268
650.0, 0.16698610997120547
651.0, 0.1706975003418991
652.0, 0.1725957811376183
653.0, 0.18696677198119752
654.0, 0.18536940150509595
655.0, 0.19724398068744362
656.0, 0.20943051797194867
657.0, 0.21758323824361692
658.0, 0.22354339894431954
659.0, 0.2237027567037682
660.0, 0.23309173308625794
661.0, 0.2516651527674982
662.0, 0.27399667041615594
663.0, 0.28817338596961256
664.0, 0.2959074490260986
665.0, 0.3194221168346425
666.0, 0.3234847722805786
667.0, 0.342264159804441
668.0, 0.3694435340845626
669.0, 0.38829272630003986
670.0, 0.396133335749024
671.0, 0.4125143555507047
672.0, 0.4200900503747921
673.0, 0.4272692249577982
674.0, 0.420406205224942
675.0, 0.4126735408850881
676.0, 0.4093951263624265
677.0, 0.3830174198961353
678.0, 0.40135760242791096
679.0, 0.36932185286385455
680.0, 0.31538751433200374
681.0, 0.2853183388520609
682.0, 0.2760152928820739
683.0, 0.24325976856489798
684.0, 0.2031529517340848
685.0, 0.17675980240209924
686.0, 0.1565043291757994
687.0, 0.13432535601676068
688.0, 0.11488376693527134
689.0, 0.10788666658589106
690.0, 0.1013512913583861
691.0, 0.08448012454473793
692.0, 0.0752567055304538
693.0, 0.0710211711895175
694.0, 0.06011587856018085
695.0, 0.041768721691593465
696.0, 0.04512245801987716
697.0, 0.03199135379609983
698.0, 0.02990218077473383
699.0, 0.03143911938458155
700.0, 0.025168368640427645
701.0, 0.019181482748881214
702.0, 0.012584537209313988
703.0, 0.0062012183059408045
704.0, 0.0049768526972790925
705.0, 0.007306490720381864
706.0, 0.007192257405389495
707.0, 0.002503549214443559
708.0, 0.0020869649126928113
709.0, 0.011763212253210779
710.0, 0.01073039713822666
711.0, 0.008819391335717682
712.0, 0.007081474235547814
713.0, 0.0010644634944703677
714.0, 0.0015094469747993025
715.0, 0.003927123039048665
716.0, 0.0023224304567772266
717.0, 0.0036593200565331286
718.0, 0.007750114569474444
719.0, 0.005588668192897442
720.0, 0.011676280042719579
721.0, 0.009677765831710719
722.0, 0.00920007525158292
723.0, 0.0029478895580938164
724.0, 0.0007569434181317593
725.0, 0.005190824502376638
726.0, 0.007028833698180923
727.0, 0.0023831436427910217
728.0, 0.00682209766922325
729.0, 0.005127550447203846
730.0, 0.0024355294065561126
731.0, 0.0019655784043169314
732.0, 0.008341069962474518
733.0, 0.008254757228775967
734.0, 0.006175323961890536
735.0, 0.003973873879855542
736.0, 0.0007571552029103721
737.0, 0.0017562852948924846
738.0, 0.008682551014328268
739.0, 0.01196903174913025
740.0, 0.0018216561931701353
741.0, 0.003777623267081634
742.0, 0.006527081153140413
743.0, 0.008695665278440231
744.0, 0.005503482947632392
745.0, 0.006017037778783808
746.0, 0.0006841153570978985
747.0, 0.003693263383250884
748.0, 0.004722023083105285
749.0, 0.013663353332315036
750.0, 0.021913305157508684
751.0, 0.018674838973643658
752.0, 0.013647113017142783
753.0, 0.01601231364794821
754.0, 0.018532766638625093
755.0, 0.008728565808073232
756.0, 0.006369071826499098
757.0, 0.014499310893393702
758.0, 0.014730765059770714
759.0, 0.019292085092254666
760.0, 0.01676290643995386
761.0, 0.011041793335083188
762.0, 0.01184827399974773
763.0, 0.01929217495189923
764.0, 0.024845916504715352
765.0, 0.021842434515655644
766.0, 0.02084400718667293
767.0, 0.018675550346016853
768.0, 0.020075232095520316
769.0, 0.022637325829231975
770.0, 0.024944515937351048
771.0, 0.026699856823087845
772.0, 0.020567659668366184
773.0, 0.022568742425764485
774.0, 0.02865678936213028
775.0, 0.027791082433031324
776.0, 0.02058653502400652
777.0, 0.02191034940119688
778.0, 0.03729072926514503
779.0, 0.027086338147908433
780.0, 0.013841222948462439
781.0, 0.01989550937179303
782.0, 0.025899640063817536
783.0, 0.023333058445616794
784.0, 0.021237640628829692
785.0, 0.018492800466806965
786.0, 0.009789215719009444
787.0, 0.013478343769134635
788.0, 0.009823625336280162
789.0, 0.008282368459352499
790.0, 0.01588578975843807
791.0, 0.01929492265656778
792.0, 0.004815828292178392
793.0, 0.01464715203280691
794.0, 0.018095733873319586
795.0, 0.014850760103265885
796.0, 0.01705678547959634
797.0, 0.022103139527698587
798.0, 0.019735807653393913
799.0, 0.020177336840425837
800.0, 0.020597073002518496
801.0, 0.007851855961648137
802.0, 0.009053808340716122
803.0, 0.018115604492900245
804.0, 0.017262978602834482
805.0, 0.008073844319750664
806.0, 0.0056589525706213775
807.0, 0.019941729626423512
808.0, 0.024977956432993463
809.0, 0.026612976031873542
810.0, 0.028492000577546313
811.0, 0.01976097854934062
812.0, 0.0032675286381374452
813.0, 0.021305708032412485
814.0, 0.027275271874210624
815.0, 0.02439384308799133
816.0, 0.024957145268043286
817.0, 0.025896398908554767
818.0, 0.02265708191247801
819.0, 0.024018476864440863
820.0, 0.009304845635079351
821.0, 0.006771445548235802
822.0, 0.010420160347986335
823.0, 0.015338010336466534
824.0, 0.013162213952026146
825.0, 0.0077991754622047365
826.0, 0.018083867382955594
827.0, 0.0059235070152445935
828.0, 0.016676916984423078
829.0, 0.02472712723831675
830.0, 0.024708630098442614
831.0, 0.019960774341805404
832.0, 0.016944142934145603
833.0, 0.02632619599597722
834.0, 0.017402113264987938
835.0, 0.02178456835811516
836.0, 0.028685331162649944
837.0, 0.01884599210216004
838.0, 0.012251935823768505
839.0, 0.02331313376095273
840.0, 0.02002066390976354
841.0, 0.007936262511613607
842.0, 0.009403969208935367
843.0, 0.00802758259303847
844.0, 0.01330487600315928
845.0, 0.01714073166672733
846.0, 0.015521907176670686
847.0, 0.03080992047767875
848.0, 0.028247577032442347
849.0, 0.017609033622435776
850.0, 0.010765768626178488
851.0, 0.0181367361921528
852.0, 0.017702967781833272
853.0, 0.010662313258944168
854.0, 0.027223763589436453
855.0, 0.025585648664733743
856.0, 0.016969793104321507
857.0, 0.02779437215056068
858.0, 0.03187208112560572
859.0, 0.026313649954349358
860.0, 0.026279997431570837
861.0, 0.029709908601571185
862.0, 0.017370024392091316
863.0, 0.02403872059972697
864.0, 0.03919749798368709
865.0, 0.030353779740938707
866.0, 0.02988118299605415
867.0, 0.04011184244904185
868.0, 0.03231048796841946
869.0, 0.03351607200885867
870.0, 0.01927258505339875
871.0, 0.024951867068325223
872.0, 0.03555966134112369
873.0, 0.032094081196475444
874.0, 0.028790468958556994
875.0, 0.03582360258450207
876.0, 0.03262753616769285
877.0, 0.02889714559613471
878.0, 0.027901744693850986
879.0, 0.0316145306850933
880.0, 0.03443066420337272
881.0, 0.03590632884048377
882.0, 0.03437112991475486
883.0, 0.025610818678909523
884.0, 0.03894568470022617
885.0, 0.03850478768373611
886.0, 0.03870496901132437
887.0, 0.038139482122406886
888.0, 0.03301424355755892
889.0, 0.028215458480803906
890.0, 0.0329602058921764
891.0, 0.0414324353448437
892.0, 0.03612707288742762
893.0, 0.02841736288471456
894.0, 0.0298036270394898
895.0, 0.026688636740614644
896.0, 0.030082727080495277
897.0, 0.03956772440932363
898.0, 0.031607727652888794
899.0, 0.022251066359821048
900.0, 0.01873212628163622
901.0, 0.02578697085547803
902.0, 0.027398214893680967
903.0, 0.015276306919215365
904.0, 0.016998587731217
905.0, 0.018252650918578903
906.0, 0.019701682436272783
907.0, 0.021305664639071534
908.0, 0.016922586101098952
909.0, 0.014781491320556927
910.0, 0.004497459575944711
911.0, 0.014984581890039449
912.0, 0.014997535379697675
913.0, 0.01237558685677608
914.0, 0.022584251427561056
915.0, 0.025316673968330917
916.0, 0.024114425996775594
917.0, 0.015095196791302723
918.0, 0.013512342587882345
919.0, 0.011615623107549794
920.0, 0.003131068284458193
921.0, 0.0038021265449979243
922.0, 0.010634388141066127
923.0, 0.02043531277663757
924.0, 0.014789856539939496
925.0, 0.014782256470940074
926.0, 0.016334055469222012
927.0, 0.00907244479690989
928.0, 0.005469039040148432
929.0, 0.008470647268648195
930.0, 0.013453567045781918
931.0, 0.00523650384788692
932.0, 0.002271106135276221
933.0, 0.006011040665277692
934.0, 0.006675302729611682
935.0, 0.009125267493817951
936.0, 0.0076984203534611675
937.0, 0.012006977279388206
938.0, 0.006225749727603665
939.0, 0.002356940079316983
940.0, 0.01257065535861621
941.0, 0.0138403639283198
942.0, 0.008612858413350265
943.0, 0.0024094500522636674
944.0, 0.00348626511448627
945.0, 0.0006223634250549161
946.0, 0.008985085365792107
947.0, 0.00276231990813663
948.0, 0.0006859533782275297
949.0, 0.004123698528849335
950.0, 0.0013180823395866242
951.0, 0.0017483216252963266
952.0, 0.0015904774376382623
953.0, 0.002005117374456944
954.0, 0.011269532119452584
955.0, 0.02125464729691472
956.0, 0.020047914418330915
957.0, 0.023691055385677104
958.0, 0.033909481552480164
959.0, 0.05124844490913592
960.0, 0.06958020124477297
961.0, 0.0726156321987933
962.0, 0.0687999105262442
963.0, 0.08951400439420881
964.0, 0.11010882990599412
965.0, 0.14138154164181702
966.0, 0.17239973493866612
967.0, 0.20993199314085997
968.0, 0.26022783190300103
969.0, 0.3083490720333548
970.0, 0.3619869707980066
971.0, 0.41080738110811765
972.0, 0.442700543206599
973.0, 0.49611192966388756
974.0, 0.551580168372592
975.0, 0.5793199329283754
976.0, 0.5881835903606913
977.0, 0.5909790921966572
978.0, 0.5567936018137379
979.0, 0.5054861351424077
980.0, 0.4680101366825951
981.0, 0.4258324867250981
982.0, 0.38752474682546384
983.0, 0.3510905137971382
984.0, 0.31611991818660884
985.0, 0.2971136204884257
986.0, 0.3016394988366785
987.0, 0.31208690128412414
988.0, 0.32829504350049415
989.0, 0.3464402957772707
990.0, 0.3552153791606627
991.0, 0.38515517973691527
992.0, 0.43851929766763836
993.0, 0.49038674514200475
994.0, 0.5357341818547043
995.0, 0.6031405780620106
996.0, 0.6697415851853826
997.0, 0.709994835664211
998.0, 0.7822149717599391
999.0, 0.8382281279243166
1000.0, 0.8752306256221702
1001.0, 0.9172567109181945
1002.0, 0.9595181759597399
1003.0, 0.989079247211759
1004.0, 0.9859633849002643
1005.0, 0.9916986508297257
1006.0, 0.999173530252032
1007.0, 0.9633579992289458
1008.0, 0.9034931207659954
1009.0, 0.8279024170806187
1010.0, 0.7349649626491267
1011.0, 0.6385766177632632
1012.0, 0.5442861381840329
1013.0, 0.4434506274503778
1014.0, 0.3654503059728128
1015.0, 0.2784034020083873
1016.0, 0.2052976473430397
1017.0, 0.1600961308644586
1018.0, 0.11388795613203308
1019.0, 0.07183912228924558
1020.0, 0.06527197154910473
1021.0, 0.03505376547114063
1022.0, 0.017974444935248957
1023.0, 0.005240537987156342
1024.0, 0.0018178488200238522
1025.0, 0.0018652017196654895
1026.0, 0.008005738399389641
1027.0, 0.00695771368232693
1028.0, 0.000705471265904688
1029.0, 0.0024746817542749266
1030.0, 0.015327935991981873
1031.0, 0.008060820268545389
1032.0, 0.007665009648996757
1033.0, 0.03246797235745429
1034.0, 0.03585395563659381
1035.0, 0.036077432864229736
1036.0, 0.05513670720029008
1037.0, 0.07496316526680694
1038.0, 0.08183974352236598
1039.0, 0.1100017718593758
1040.0, 0.12686504168417614
1041.0, 0.15219790606332478
1042.0, 0.16828720395747693
1043.0, 0.1767942323533172
1044.0, 0.18441292254798763
1045.0, 0.1914149331786832
1046.0, 0.2000466535723768
1047.0, 0.20990887592586527
1048.0, 0.20823147321954766
1049.0, 0.21527888749835242
1050.0, 0.23416574950757948
1051.0, 0.22028630459225304
1052.0, 0.22088898910946073
1053.0, 0.21845250867210142
1054.0, 0.20864853741140119
1055.0, 0.20277011192229746
1056.0, 0.1938302219244236
1057.0, 0.1931099809908733
1058.0, 0.18470681604889586
1059.0, 0.16745838535740284
1060.0, 0.16468888931165077
1061.0, 0.16912392901941695
1062.0, 0.1619147484141011
1063.0, 0.1465074055532659
1064.0, 0.1358739689330413
1065.0, 0.13249916916003818
1066.0, 0.13058172910773946
1067.0, 0.12018479452573728
1068.0, 0.11177294587137658
1069.0, 0.10647638783930563
1070.0, 0.1079456004088285
1071.0, 0.11081342166051422
1072.0, 0.10015811432191934
1073.0, 0.1022287301753252
1074.0, 0.1201135133845166
1075.0, 0.1170555265473262
1076.0, 0.10835673687981823
1077.0, 0.09677572510426383
1078.0, 0.11088406740828376
1079.0, 0.11249047982096652
1080.0, 0.08853308177001847
1081.0, 0.0921309170476871
1082.0, 0.10924453196567921
1083.0, 0.10439776334363737
1084.0, 0.09709411252606259
1085.0, 0.10640645141633784
1086.0, 0.07811062482407481
1087.0, 0.10762146452493025
1088.0, 0.10438848101033815
1089.0, 0.0925836841013011
1090.0, 0.09012715580266235
1091.0, 0.08648619061987686
1092.0, 0.08007012369561069
1093.0, 0.06945116208725219
1094.0, 0.06450066282894448
1095.0, 0.07807957372502294
1096.0, 0.06487635656779717
1097.0, 0.04671579458374984
1098.0, 0.04861069094342013
1099.0, 0.03934083242478257
1100.0, 0.04125896977463374
1101.0, 0.0472916130511884
1102.0, 0.046202357173086406
1103.0, 0.03568714907034228
1104.0, 0.026258986479888072
1105.0, 0.030534034275591235
1106.0, 0.023617367792234032
1107.0, 0.008230642483345632
1108.0, 0.014246484567344463
1109.0, 0.013183963525598065
1110.0, 0.018076860490085576
1111.0, 0.019695118944729282
1112.0, 0.02007530047377038
1113.0, 0.011361884171964492
1114.0, 0.00479100847792667
1115.0, 0.017000015169615704
1116.0, 0.01257643775176329
1117.0, 0.01396760652406158
1118.0, 0.013573229829438043
1119.0, 0.007144358759172252
1120.0, 0.0075584560972684536
1121.0, 0.004684245555810967
1122.0, 0.0036114822251326326
1123.0, 0.0021805333902547934
1124.0, 0.0034031878733970047
1125.0, 0.00036775295631355097
1126.0, 0.009275013140083251
1127.0, 0.008906900856413491
1128.0, 0.0019790259794338237
1129.0, 0.004700114710621651
1130.0, 0.003910126351745043
1131.0, 0.013429467963389162
1132.0, 0.012767162537057794
1133.0, 0.010406973223365831
1134.0, 0.018311897497386848
1135.0, 0.004732734935741448
1136.0, 0.01637988400865135
1137.0, 0.019054234193592347
1138.0, 0.014946381568817231
1139.0, 0.013788267346766993
1140.0, 0.028527489880767223
1141.0, 0.03078130300156896
1142.0, 0.037964901060175915
1143.0, 0.0459039223809462
1144.0, 0.04216386232488403
1145.0, 0.04298251922076187
1146.0, 0.06167644122037544
1147.0, 0.07235197495116652
1148.0, 0.08226729705585752
1149.0, 0.07853752976440506
1150.0, 0.07958107621529369
1151.0, 0.08634179934641795
1152.0, 0.09137002252298848
1153.0, 0.10125113768246459
1154.0, 0.10518542986364475
1155.0, 0.10494623124747023
1156.0, 0.10760911476378808
1157.0, 0.10462912820091301
1158.0, 0.1011490712905951
1159.0, 0.10671197520885312
1160.0, 0.11303945328232495
1161.0, 0.09407269038656435
1162.0, 0.10755339035638689
1163.0, 0.09886866066216775
1164.0, 0.08412430880454796
1165.0, 0.07161065174054741
1166.0, 0.06461755638252767
1167.0, 0.06578621179767716
1168.0, 0.055293004728552926
1169.0, 0.042299049301656386
1170.0, 0.03023786510110939
1171.0, 0.026101377790212918
1172.0, 0.015466986039305445
1173.0, 0.012284609224263662
1174.0, 0.02702098671900879
1175.0, 0.026935250961787796
1176.0, 0.01820794524399553
1177.0, 0.007048374227811662
1178.0, 0.004758700866734432
1179.0, 0.004123073860859458
1180.0, 0.0019464609654659328
1181.0, 0.007400974943789247
1182.0, 0.003971600233745785
1183.0, 0.002007943553885521
1184.0, 0.006777827894333028
1185.0, 0.012095089919609461
1186.0, 0.010726543366267268
1187.0, 0.003060566330524894
1188.0, 0.0058886641416864925
1189.0, 0.007268617101662362
1190.0, 0.00657947537206648
1191.0, 0.005918685902147959
1192.0, 0.016346945294229753
1193.0, 0.022879153503324166
1194.0, 0.025393873607726426
1195.0, 0.038851985718790706
1196.0, 0.0550514498349932
1197.0, 0.05695326519184106
1198.0, 0.06279584324044912
1199.0, 0.07079574952025702
1200.0, 0.08733000730860027
1201.0, 0.10740283110763027
1202.0, 0.11955794941875195
1203.0, 0.13850793768661762
1204.0, 0.1548372890614084
1205.0, 0.1679689704886031
1206.0, 0.181461632352967
1207.0, 0.19434664837159263
1208.0, 0.19124698330088866
1209.0, 0.20214617781607722
1210.0, 0.20616853192587817
1211.0, 0.20289218673373724
1212.0, 0.19864052901742055
1213.0, 0.19676438501879417
1214.0, 0.18385715152030688
1215.0, 0.15601196815762702
1216.0, 0.1531602819700074
1217.0, 0.13856413266102993
1218.0, 0.12371837118890845
1219.0, 0.10620812156224373
1220.0, 0.08555852918445307
1221.0, 0.07490096897114217
1222.0, 0.06463787531777247
1223.0, 0.05224964183312816
1224.0, 0.044970779917822175
1225.0, 0.038984494537246485
1226.0, 0.028580279618508772
1227.0, 0.019254255778908175
1228.0, 0.014855507066002301
1229.0, 0.016950666513178777
1230.0, 0.00939517851374622
1231.0, 0.02510224691996594
1232.0, 0.031276549170714166
1233.0, 0.02579813890810889
1234.0, 0.02299280399650693
1235.0, 0.03608504166648363
1236.0, 0.0391264771169287
1237.0, 0.028771135103545713
1238.0, 0.025436130929203028
1239.0, 0.018532186605751285
1240.0, 0.025996524435574157
1241.0, 0.02187308356495197
1242.0, 0.031747343623361936
1243.0, 0.030450764842017666
1244.0, 0.017946439105317354
1245.0, 0.025419159078469134
1246.0, 0.032382243730196734
1247.0, 0.029974534202004913
1248.0, 0.017104537791350932
1249.0, 0.01803189062379583
1250.0, 0.011880662523424745
1251.0, 0.014955845383830524
1252.0, 0.022727437533659568
1253.0, 0.03326930480007875
1254.0, 0.033878029650873505
1255.0, 0.012249628778904864
1256.0, 0.026423063916045434
1257.0, 0.014088525923346876
1258.0, 0.023972704953337608
1259.0, 0.03240369266684179
1260.0, 0.016753780016382683
1261.0, 0.014314340947779582
1262.0, 0.014176408108174185
1263.0, 0.014717720803304178
1264.0, 0.017958514530001836
1265.0, 0.012973103833481735
1266.0, 0.003930832862737607
1267.0, 0.005240083621753464
1268.0, 0.015983967094140537
1269.0, 0.01478333101617107
1270.0, 0.017896212622149965
1271.0, 0.02194758731203363
1272.0, 0.019078581258361062
1273.0, 0.01727457710960589
1274.0, 0.03000952522433258
1275.0, 0.029645345886643703
1276.0, 0.030051361380154486
1277.0, 0.030240907454718306
1278.0, 0.021544190509769027
1279.0, 0.01624917761642456
1280.0, 0.014311426145283369
1281.0, 0.011130418045663323
1282.0, 0.00323280141808274
1283.0, 0.021095094721073498
1284.0, 0.02298242404162515
1285.0, 0.0361748813685711
1286.0, 0.021158972344234507
1287.0, 0.015381189086521738
1288.0, 0.024391410473783327
1289.0, 0.015491735845960558
1290.0, 0.013062047119569592
1291.0, 0.005930606709847423
1292.0, 6.732739431116494e-05
1293, 0.0
1294, 0.0
1295, 0.0
1296, 0.0
1297, 0.0
1298, 0.0
1299, 0.0
1300, 0.0
1301, 0.0
1302, 0.0
1303, 0.0
1304, 0.0
1305, 0.0
1306, 0.0
1307, 0.0
1308, 0.0
1309, 0.0
1310, 0.0
1311, 0.0
1312, 0.0
1313, 0.0
1314, 0.0
1315, 0.0
1316, 0.0
1317, 0.0
1318, 0.0
1319, 0.0
1320, 0.0
1321, 0.0
1322, 0.0
1323, 0.0
1324, 0.0
1325, 0.0
1326, 0.0
1327, 0.0
1328, 0.0
1329, 0.0
1330, 0.0
1331, 0.0
1332, 0.0
1333, 0.0
1334, 0.0
1335, 0.0
1336, 0.0
1337, 0.0
1338, 0.0
1339, 0.0
1340, 0.0
1341, 0.0
1342, 0.0
1343, 0.0
1344, 0.0
1345, 0.0
1346, 0.0
1347, 0.0
1348, 0.0
1349, 0.0
1350, 0.0
1351, 0.0
1352, 0.0
1353, 0.0
1354, 0.0
1355, 0.0
1356, 0.0
1357, 0.0
1358, 0.0
1359, 0.0
1360, 0.0
1361, 0.0
1362, 0.0
1363, 0.0
1364, 0.0
1365, 0.0
1366, 0.0
1367, 0.0
1368, 0.0
1369, 0.0
1370, 0.0
1371, 0.0
1372, 0.0
1373, 0.0
1374, 0.0
1375, 0.0
1376, 0.0
1377, 0.0
1378, 0.0
1379, 0.0
1380, 0.0
1381, 0.0
1382, 0.0
1383, 0.0
1384, 0.0
1385, 0.0
1386, 0.0
1387, 0.0
1388, 0.0
1389, 0.0
1390, 0.0
1391, 0.0
1392, 0.0
1393, 0.0
1394, 0.0
1395, 0.0
1396, 0.0
1397, 0.0
1398, 0.0
1399, 0.0
1400, 0.0
1401, 0.0
1402, 0.0
1403, 0.0
1404, 0.0
1405, 0.0
1406, 0.0
1407, 0.0
1408, 0.0
1409, 0.0
1410, 0.0
1411, 0.0
1412, 0.0
1413, 0.0
1414, 0.0
1415, 0.0
1416, 0.0
1417, 0.0
1418, 0.0
1419, 0.0
1420, 0.0
1421, 0.0
1422, 0.0
1423, 0.0
1424, 0.0
1425, 0.0
1426, 0.0
1427, 0.0
1428, 0.0
1429, 0.0
1430, 0.0
1431, 0.0
1432, 0.0
1433, 0.0
1434, 0.0
1435, 0.0
1436, 0.0
1437, 0.0
1438, 0.0
1439, 0.0
1440, 0.0
1441, 0.0
1442, 0.0
1443, 0.0
1444, 0.0
1445, 0.0
1446, 0.0
1447, 0.0
1448, 0.0
1449, 0.0
1450, 0.0
1451, 0.0
1452, 0.0
1453, 0.0
1454, 0.0
1455, 0.0
1456, 0.0
1457, 0.0
1458, 0.0
1459, 0.0
1460, 0.0
1461, 0.0
1462, 0.0
1463, 0.0
1464, 0.0
1465, 0.0
1466, 0.0
1467, 0.0
1468, 0.0
1469, 0.0
1470, 0.0
1471, 0.0
1472, 0.0
1473, 0.0
1474, 0.0
1475, 0.0
1476, 0.0
1477, 0.0
1478, 0.0
1479, 0.0
1480, 0.0
1481, 0.0
1482, 0.0
1483, 0.0
1484, 0.0
1485, 0.0
1486, 0.0
1487, 0.0
1488, 0.0
1489, 0.0
1490, 0.0
1491, 0.0
1492, 0.0
1493, 0.0
1494, 0.0
1495, 0.0
1496, 0.0
1497, 0.0
1498, 0.0
1499, 0.0
1500, 0.0
1501, 0.0
1502, 0.0
1503, 0.0
1504, 0.0
1505, 0.0
1506, 0.0
1507, 0.0
1508, 0.0
1509, 0.0
1510, 0.0
1511, 0.0
1512, 0.0
1513, 0.0
1514, 0.0
1515, 0.0
1516, 0.0
1517, 0.0
1518, 0.0
1519, 0.0
1520, 0.0
1521, 0.0
1522, 0.0
1523, 0.0
1524, 0.0
1525, 0.0
1526, 0.0
1527, 0.0
1528, 0.0
1529, 0.0
1530, 0.0
1531, 0.0
1532, 0.0
1533, 0.0
1534, 0.0
1535, 0.0
1536, 0.0
1537, 0.0
1538, 0.0
1539, 0.0
1540, 0.0
1541, 0.0
1542, 0.0
1543, 0.0
1544, 0.0
1545, 0.0
1546, 0.0
1547, 0.0
1548, 0.0
1549, 0.0
1550, 0.0
1551, 0.0
1552, 0.0
1553, 0.0
1554, 0.0
1555, 0.0
1556, 0.0
1557, 0.0
1558, 0.0
1559, 0.0
1560, 0.0
1561, 0.0
1562, 0.0
1563, 0.0
1564, 0.0
1565, 0.0
1566, 0.0
1567, 0.0
1568, 0.0
1569, 0.0
1570, 0.0
1571, 0.0
1572, 0.0
1573, 0.0
1574, 0.0
1575, 0.0
1576, 0.0
1577, 0.0
1578, 0.0
1579, 0.0
1580, 0.0
1581, 0.0
1582, 0.0
1583, 0.0
1584, 0.0
1585, 0.0
1586, 0.0
1587, 0.0
1588, 0.0
1589, 0.0
1590, 0.0
1591, 0.0
1592, 0.0
1593, 0.0
1594, 0.0
1595, 0.0
1596, 0.0
1597, 0.0
1598, 0.0
1599, 0.0
