30, 0.0
31, 0.0
32, 0.0
33, 0.0
34, 0.0
35, 0.0
36, 0.0
37, 0.0
38, 0.0
39, 0.0
40, 0.0
41, 0.0
42, 0.0
43, 0.0
44, 0.0
45, 0.0
46, 0.0
47, 0.0
48, 0.0
49, 0.0
50, 0.0
51, 0.0
52, 0.0
53, 0.0
54, 0.0
55, 0.0
56, 0.0
57, 0.0
58, 0.0
59, 0.0
60, 0.0
61, 0.0
62, 0.0
63, 0.0
64, 0.0
65, 0.0
66, 0.0
67, 0.0
68, 0.0
69, 0.0
70, 0.0
71, 0.0
72, 0.0
73, 0.0
74, 0.0
75, 0.0
76, 0.0
77, 0.0
78, 0.0
79, 0.0
80, 0.0
81, 0.0
82, 0.0
83, 0.0
84, 0.0
85, 0.0
86, 0.0
87, 0.0
88, 0.0
89, 0.0
90, 0.0
91, 0.0
92, 0.0
93, 0.0
94.0, 0.0006591062778779915
95.0, 0.0008292409160170388
96.0, 0.0014257484731467626
97.0, 0.0016260412483856562
98.0, 0.0009266318719403836
99.0, 0.0007260589843870144
100.0, 0.0009201557183907458
101.0, 0.0012588905878932535
102.0, 0.001783443950457155
103.0, 0.002731277484625821
104.0, 0.0028739618721251967
105.0, 0.0029533051871806883
106.0, 0.0026725250835831346
107.0, 0.001973927689739981
108.0, 0.0013710579666491893
109.0, 0.001261958180694081
110.0, 0.000963820448113985
111.0, 2.3779766173552923e-05
112.0, 0.00032436749278712734
113.0, 0.00011608336261633145
114.0, 0.0001547396342601007
115.0, 0.0006143736159062567
116.0, 0.00022618629643932157
117.0, 8.6629289069439e-05
118.0, 0.0002814793131530235
119.0, 0.0005552086856625806
120.0, 0.0011079053396931327
121.0, 0.0014054147605857639
122.0, 0.0014758184013781992
123.0, 0.0015074915143620305
124.0, 0.0016819382684588862
125.0, 0.0014962228083916728
126.0, 0.0017097797668730855
127.0, 0.0021508080896339445
128.0, 0.0023547644450924387
129.0, 0.0025820357023870677
130.0, 0.002426196900856857
131.0, 0.0022072279981607437
132.0, 0.0022386437943336347
133.0, 0.002134127507492951
134.0, 0.0021212750274872865
135.0, 0.0019319193775586782
136.0, 0.0017023892361908927
137.0, 0.0019277611564106952
138.0, 0.0014051551679804218
139.0, 0.001176428603519093
140.0, 0.0013159668421721343
141.0, 0.0011627910204998284
142.0, 0.0007554946878177844
143.0, 0.0006996871721278308
144.0, 0.0009775594925731737
145.0, 0.0012519647116282665
146.0, 0.0014362384635088219
147.0, 0.0017067396801493356
148.0, 0.0020030173119590794
149.0, 0.002411485851289577
150.0, 0.0033329931115164647
151.0, 0.006181622717819169
152.0, 0.007684035976816541
153.0, 0.00784630827047809
154.0, 0.009385662217912488
155.0, 0.011158133129950492
156.0, 0.012710214167908815
157.0, 0.014312053093959103
158.0, 0.016249541491776674
159.0, 0.017894059044736708
160.0, 0.019970781821663546
161.0, 0.022310934488189903
162.0, 0.02453984822688212
163.0, 0.026611865171638226
164.0, 0.028830574010642842
165.0, 0.031874137299602416
166.0, 0.03556190246652793
167.0, 0.038685763951183026
168.0, 0.04217278203162581
169.0, 0.04596419832396224
170.0, 0.04986743310047758
171.0, 0.053770712240465736
172.0, 0.057142608321693815
173.0, 0.05955984638909941
174.0, 0.06071384172273764
175.0, 0.060232379227867935
176.0, 0.057691869996319686
177.0, 0.0540657094861259
178.0, 0.04984769271816535
179.0, 0.045392681613021915
180.0, 0.04122158900028235
181.0, 0.03813279221117366
182.0, 0.03637152391145842
183.0, 0.03580542552294211
184.0, 0.03585631265988234
185.0, 0.03614125599769117
186.0, 0.037379793185096204
187.0, 0.039573848563060364
188.0, 0.04194599864990454
189.0, 0.0434408069558478
190.0, 0.043618117697235136
191.0, 0.04299350374462988
192.0, 0.041344181589691345
193.0, 0.03794506658892202
194.0, 0.033978438586343626
195.0, 0.029717283815875694
196.0, 0.025418458972737167
197.0, 0.02159903516167006
198.0, 0.01854295229901829
199.0, 0.01571041365829903
200.0, 0.01365084635661767
201.0, 0.012383172742024651
202.0, 0.01089275688166859
203.0, 0.00999164627612492
204.0, 0.009610894790419202
205.0, 0.009130363174937005
206.0, 0.008323402826878677
207.0, 0.008062517791921653
208.0, 0.0074500152453904536
209.0, 0.006902809869604463
210.0, 0.0067668396452845786
211.0, 0.00687027606898155
212.0, 0.006705434039008727
213.0, 0.006485380960751744
214.0, 0.006393108995427679
215.0, 0.006529310100519
216.0, 0.007255440787502931
217.0, 0.006895131432425506
218.0, 0.006492358802332355
219.0, 0.007075496511325119
220.0, 0.006957134073957019
221.0, 0.007173931751215278
222.0, 0.007284919891598865
223.0, 0.007137529009462792
224.0, 0.007124935295729046
225.0, 0.007209116602133037
226.0, 0.007046688577916982
227.0, 0.0069699380270509545
228.0, 0.00710917631242942
229.0, 0.006755568365897984
230.0, 0.006938284393770217
231.0, 0.006758507760066846
232.0, 0.006147420007125607
233.0, 0.005901857575401069
234.0, 0.005697951953799967
235.0, 0.0054690825484789846
236.0, 0.0053437995841954114
237.0, 0.005317378782870054
238.0, 0.004959846817750295
239.0, 0.004067986079064543
240.0, 0.0031345537073659883
241.0, 0.002435885557398162
242.0, 0.0018859017592203042
243.0, 0.0014573375900270025
244.0, 0.0007034029596329526
245.0, 1.785526073822921e-05
246.0, 0.00024136676585122157
247.0, 0.00020438035595897583
248.0, 0.0012116595254282267
249.0, 0.0021203422550774525
250.0, 0.0025456537028512682
251.0, 0.0028367530836258268
252.0, 0.0035747225432571734
253.0, 0.003811761504752821
254.0, 0.003920682247912621
255.0, 0.0042001715390725305
256.0, 0.0045524221885279255
257.0, 0.004387217015421413
258.0, 0.0043759771722253595
259.0, 0.004287264247412327
260.0, 0.003642427674367046
261.0, 0.002977315991842419
262.0, 0.0021840130647098094
263.0, 0.0017340065132532283
264.0, 0.0012025783693270166
265.0, 0.0004514990656253546
266.0, 0.0016493318542768313
267.0, 0.0030013247976203054
268.0, 0.004575345417697502
269.0, 0.0060253412698780375
270.0, 0.007248746147865466
271.0, 0.008939951478934708
272.0, 0.010396268601493551
273.0, 0.011976865349201126
274.0, 0.014189155449975005
275.0, 0.016403581662678024
276.0, 0.01829670212304713
277.0, 0.02044139425792172
278.0, 0.022791741283711153
279.0, 0.024851722514463045
280.0, 0.026924478583705235
281.0, 0.02933605985382213
282.0, 0.031702655481873024
283.0, 0.033712939772773634
284.0, 0.035455199212947465
285.0, 0.03825738415674639
286.0, 0.04092404260580582
287.0, 0.04310777051090747
288.0, 0.04520200054623434
289.0, 0.04774223451342257
290.0, 0.05024454124531672
291.0, 0.0530821128037414
292.0, 0.056326068041894856
293.0, 0.05942001766217047
294.0, 0.062037777225641993
295.0, 0.06562242398403288
296.0, 0.0695922379956531
297.0, 0.07371479085468997
298.0, 0.0790609474431597
299.0, 0.08443254275676429
300.0, 0.09146594419255721
301.0, 0.09951995108559634
302.0, 0.10828020277543648
303.0, 0.11981642468767512
304.0, 0.13316467390692546
305.0, 0.14815324875537575
306.0, 0.16513166241446353
307.0, 0.1842220946530841
308.0, 0.20416796361688114
309.0, 0.22779630942934656
310.0, 0.2540765619623596
311.0, 0.2835729304765507
312.0, 0.31883490004834225
313.0, 0.3601741537279437
314.0, 0.4059115414223578
315.0, 0.4597921454840902
316.0, 0.5227570228795122
317.0, 0.5890595358381916
318.0, 0.6644755980473114
319.0, 0.7437473260965283
320.0, 0.8228256790700502
321.0, 0.8976293925105548
322.0, 0.9577881177633241
323.0, 0.9949966073776698
324.0, 0.9935861557558311
325.0, 0.949640546010168
326.0, 0.8665682203586168
327.0, 0.7566509973027136
328.0, 0.6384596989455033
329.0, 0.5291555599494722
330.0, 0.43679707009612817
331.0, 0.3632631565630779
332.0, 0.3081554278531028
333.0, 0.2693475528361874
334.0, 0.24036156930891298
335.0, 0.219103543895137
336.0, 0.20652453714183047
337.0, 0.19909451670873504
338.0, 0.19492266094940278
339.0, 0.1932384346295603
340.0, 0.19388738611737646
341.0, 0.19691565574666006
342.0, 0.20111386376547918
343.0, 0.20565712981183776
344.0, 0.21026794104607835
345.0, 0.215369378204844
346.0, 0.2212484154399366
347.0, 0.22556070340025672
348.0, 0.2299429213177249
349.0, 0.2334614750145762
350.0, 0.23554267154493502
351.0, 0.2376301780473278
352.0, 0.2410193493583174
353.0, 0.23976309107007807
354.0, 0.2360846319746753
355.0, 0.2318547996625077
356.0, 0.22519512622349838
357.0, 0.21510844290325407
358.0, 0.20338740940397468
359.0, 0.1921469618886363
360.0, 0.1820200800333154
361.0, 0.1721182484303305
362.0, 0.16221893312632013
363.0, 0.15347253836054056
364.0, 0.1451809469477981
365.0, 0.13690711676158546
366.0, 0.1297650996805702
367.0, 0.12325293617673824
368.0, 0.11792662423766853
369.0, 0.1132090983995735
370.0, 0.10857610705491903
371.0, 0.10456250870265056
372.0, 0.09975819082993273
373.0, 0.09557137119598282
374.0, 0.09234789581302674
375.0, 0.08925914362587212
376.0, 0.08582623814422034
377.0, 0.08316188866851244
378.0, 0.08027131634295764
379.0, 0.07740195160470867
380.0, 0.07451249864828186
381.0, 0.07077332975872619
382.0, 0.06862606844904198
383.0, 0.06612361095025694
384.0, 0.06333857613797986
385.0, 0.060587677148688394
386.0, 0.05730741073929819
387.0, 0.054246031479693854
388.0, 0.05109594284915106
389.0, 0.04751498551570534
390.0, 0.043857204633476754
391.0, 0.040694419221776135
392.0, 0.035938774705923306
393.0, 0.03392108848704077
394.0, 0.031548698475160376
395.0, 0.02762196571107055
396.0, 0.02485378151347933
397.0, 0.0221313328982697
398.0, 0.019725062079337063
399.0, 0.017164299385095363
400.0, 0.014708144996992877
401.0, 0.01307754175427358
402.0, 0.01154219991201413
403.0, 0.009717833929483515
404.0, 0.008084792786069186
405.0, 0.00630439071970338
406.0, 0.0037344098516676463
407.0, 0.0025256753091961875
408.0, 0.0017946996248041048
409.0, 0.0008827699785133586
410.0, 0.00023713270479245143
411.0, 0.0011613691104167157
412.0, 0.001827502114342101
413.0, 0.0025377918172170065
414.0, 0.0031789374386312352
415.0, 0.003543185264794914
416.0, 0.003667084417123583
417.0, 0.0039094255029993134
418.0, 0.004346917234609716
419.0, 0.004114887981632012
420.0, 0.0037253458611458063
421.0, 0.0036792426256635796
422.0, 0.0035391052863467916
423.0, 0.003324216464540618
424.0, 0.0031540309679176106
425.0, 0.0025144745970745786
426.0, 0.001697633060718362
427.0, 0.001519402751883629
428.0, 0.0008705329214895737
429.0, 0.000310357104867516
430.0, 0.001160746185344769
431.0, 0.0021279646069408695
432.0, 0.003111030969006214
433.0, 0.0036694704601852725
434.0, 0.00493476640323793
435.0, 0.005958945225287067
436.0, 0.0066660570602258325
437.0, 0.007327801700452542
438.0, 0.007726334220825303
439.0, 0.009318489853755507
440.0, 0.009805694637458819
441.0, 0.010285719243652996
442.0, 0.01148366556375159
443.0, 0.01197570241094546
444.0, 0.012312332076297576
445.0, 0.01250509815284223
446.0, 0.013019284927678777
447.0, 0.013689201949207155
448.0, 0.013697493571496501
449.0, 0.013917793839351635
450.0, 0.01416614371348837
451.0, 0.014145238148045275
452.0, 0.01397692370303982
453.0, 0.013909224788381053
454.0, 0.013629390515152147
455.0, 0.013679835994656242
456.0, 0.013284287089902043
457.0, 0.012708389787865568
458.0, 0.012534420510351843
459.0, 0.012628542325374815
460.0, 0.011355737666801029
461.0, 0.0109901418493973
462.0, 0.010888859385628996
463.0, 0.010550040315359471
464.0, 0.010362892646874662
465.0, 0.009489189282237756
466.0, 0.00901162492531802
467.0, 0.008990172900695042
468.0, 0.008876793493325218
469.0, 0.007999566458186613
470.0, 0.006569122996328031
471.0, 0.00636367641832087
472.0, 0.00622640222658766
473.0, 0.005657588871537099
474.0, 0.004772030344260693
475.0, 0.0038286157494780795
476.0, 0.0036672320026963734
477.0, 0.003159751402154294
478.0, 0.002751589839163355
479.0, 0.0024273418820104373
480.0, 0.0018727324797706793
481.0, 0.0012530298055008877
482.0, 0.0009023745336154073
483.0, 0.0008288100469929221
484.0, 0.0005540155369397002
485.0, 0.00013034237253190285
486.0, 0.00036651037877508867
487.0, 0.0002857401906318887
488.0, 0.00019779235009931436
489.0, 7.997428585691188e-05
490.0, 0.00041412305679780996
491.0, 0.00025713295679490814
492.0, 0.0004337284743283278
493.0, 0.0009192223302424908
494.0, 0.001333670882639191
495.0, 0.0011205281760587591
496.0, 0.0010242367771317233
497.0, 0.0020593339400593936
498.0, 0.0023732451671531823
499.0, 0.002655249514041895
500.0, 0.0031370030091110133
501.0, 0.003749588854494596
502.0, 0.004562706216317491
503.0, 0.005708228808624069
504.0, 0.006238049651153747
505.0, 0.006461723272846997
506.0, 0.0071411486303712655
507.0, 0.007904642851896211
508.0, 0.008259110765180436
509.0, 0.009203149316893812
510.0, 0.010191619779635855
511.0, 0.01130584203764936
512.0, 0.012233113437616723
513.0, 0.012809161942240938
514.0, 0.013363901264604716
515.0, 0.014892923770150718
516.0, 0.015576805624587922
517.0, 0.016161640007352675
518.0, 0.017029324248837286
519.0, 0.017925474932435903
520.0, 0.01861453630925149
521.0, 0.019327433658455247
522.0, 0.019828554697596167
523.0, 0.02051256083526329
524.0, 0.021234958473555037
525.0, 0.021560904215362435
526.0, 0.02174270151232737
527.0, 0.02226243450049855
528.0, 0.0223913240917451
529.0, 0.022510841958587678
530.0, 0.022908247098381358
531.0, 0.023013732228164083
532.0, 0.02249735928948074
533.0, 0.02198645307946823
534.0, 0.021973467711676107
535.0, 0.021999615681843176
536.0, 0.02170210637224188
537.0, 0.021569006036286035
538.0, 0.021562835819110837
539.0, 0.02281948031295821
540.0, 0.022140697688005622
541.0, 0.020752856188575093
542.0, 0.02110553812347922
543.0, 0.019866385501025055
544.0, 0.02033928702223096
545.0, 0.01992456282737726
546.0, 0.01883653187401686
547.0, 0.018198536454511933
548.0, 0.018069227627254672
549.0, 0.017222260567232896
550.0, 0.016824641828379457
551.0, 0.01701348073170779
552.0, 0.016753885767885786
553.0, 0.015819918449768208
554.0, 0.015045734503447369
555.0, 0.014559837435068564
556.0, 0.014380934023819214
557.0, 0.013967940601883534
558.0, 0.013673760588944156
559.0, 0.013599611086423035
560.0, 0.013103741692982222
561.0, 0.012434294420764392
562.0, 0.012321636376436292
563.0, 0.012093307443084657
564.0, 0.011665719215208441
565.0, 0.011251576369755458
566.0, 0.010845787359970929
567.0, 0.010704696330043189
568.0, 0.010292124831486926
569.0, 0.010056424276979517
570.0, 0.009468439867496533
571.0, 0.008563065453223164
572.0, 0.008550763917298128
573.0, 0.008486564289255219
574.0, 0.00813138757276502
575.0, 0.007793307839720377
576.0, 0.007486434295258573
577.0, 0.006836617243234397
578.0, 0.005896454990600659
579.0, 0.005820701608586665
580.0, 0.0055271723084301975
581.0, 0.005095009039876697
582.0, 0.004733449894785053
583.0, 0.00450684769536464
584.0, 0.004366918185719667
585.0, 0.003946489486032584
586.0, 0.003895680366449792
587.0, 0.003465538525234314
588.0, 0.003195317693903182
589.0, 0.0031768127109470102
590.0, 0.002740855395178429
591.0, 0.0029456814430164836
592.0, 0.002260541100950683
593.0, 0.0018395553838733308
594.0, 0.0019094651221420386
595.0, 0.001890579502401623
596.0, 0.0012945414880490575
597.0, 0.0006435736943500439
598.0, 0.0008611344477577451
599.0, 0.0006729735404371732
600.0, 0.0003948027891688481
601.0, 0.00020511039308546917
602.0, 0.000229401670141281
603.0, 0.0003119520937068013
604.0, 0.00014988846708325132
605.0, 0.0006814397942348834
606.0, 0.0004922044649959652
607.0, 0.00027503383188589816
608.0, 0.0005857445880571374
609.0, 0.0005486422488578997
610.0, 0.0002333180781595433
611.0, 0.0004285080473275146
612.0, 0.000488285109316405
613.0, 0.0005267653819662863
614.0, 0.0008744438065540355
615.0, 0.0008267086566109778
616.0, 0.0006863806725735682
617.0, 0.0009653768538609241
618.0, 0.0006227454395630229
619.0, 0.000216334634901657
620.0, 0.00034673846213228933
621.0, 0.0007037244096095975
622.0, 0.0010112615401282584
623.0, 0.0005253644740391301
624.0, 0.00010577807064763996
625.0, 7.223574741560552e-05
626.0, 0.00013981980398387515
627.0, 0.00018962419502031196
628.0, 0.0002002869828685913
629.0, 0.00033096044604500084
630.0, 0.0004406967994069223
631.0, 0.000708271801139861
632.0, 0.0010366915302460076
633.0, 0.0013158171604831688
634.0, 0.001691077077893977
635.0, 0.0022076438813075265
636.0, 0.002664379554763928
637.0, 0.003150123223309669
638.0, 0.0037730519764716712
639.0, 0.004446008736577563
640.0, 0.005019756143862784
641.0, 0.005636821987456754
642.0, 0.006191897718473232
643.0, 0.006860058569069137
644.0, 0.007290590312432429
645.0, 0.00781542152106278
646.0, 0.008629615286570441
647.0, 0.009053820303317027
648.0, 0.009230489109059232
649.0, 0.010201120287983152
650.0, 0.010445819126630928
651.0, 0.010443995918497827
652.0, 0.010842176890921746
653.0, 0.011391367232523689
654.0, 0.012006819932512196
655.0, 0.012311109519711845
656.0, 0.012608782903539485
657.0, 0.012537905335852563
658.0, 0.012713731124316221
659.0, 0.013284808156202647
660.0, 0.0130413060169615
661.0, 0.012854404585757824
662.0, 0.012961354774335989
663.0, 0.013104022172486537
664.0, 0.013057294943115519
665.0, 0.012803227965978962
666.0, 0.012548962715701849
667.0, 0.012468842251339691
668.0, 0.012095257651991563
669.0, 0.011386215316620039
670.0, 0.0110689815099354
671.0, 0.010998809189057119
672.0, 0.010590065242829096
673.0, 0.009984004671060543
674.0, 0.009477833831699638
675.0, 0.008651035357037914
676.0, 0.008402791771589813
677.0, 0.008124576338570381
678.0, 0.007371037023068025
679.0, 0.006646372210610617
680.0, 0.006504735530836336
681.0, 0.006003843329908913
682.0, 0.0057051597832224405
683.0, 0.0052215657092709
684.0, 0.004661442921133348
685.0, 0.0043402832120707354
686.0, 0.00423172624366908
687.0, 0.004134062710099919
688.0, 0.003375234192382083
689.0, 0.0034368319606255405
690.0, 0.0034511634002183608
691.0, 0.003201857938455501
692.0, 0.0031833720081212743
693.0, 0.003553470250570236
694.0, 0.0030824118962497833
695.0, 0.002985118913920986
696.0, 0.0030364352203993113
697.0, 0.0035169250305292906
698.0, 0.004049579612766293
699.0, 0.004153183659458626
700.0, 0.004190361671744119
701.0, 0.005085903611514038
702.0, 0.005625625992511066
703.0, 0.0061349200043767805
704.0, 0.006676368851722102
705.0, 0.00717339026084425
706.0, 0.00791334209624488
707.0, 0.009177999096755762
708.0, 0.009746147061034955
709.0, 0.01012518460846386
710.0, 0.011042670101682396
711.0, 0.012040375747948476
712.0, 0.012695611572493744
713.0, 0.013195216590923329
714.0, 0.013878539578691316
715.0, 0.01429188313967106
716.0, 0.014369723583725782
717.0, 0.01444715344097156
718.0, 0.014875202823771435
719.0, 0.015334040047609835
720.0, 0.015344188366245643
721.0, 0.014918574682171766
722.0, 0.014587312456369267
723.0, 0.014903436559661183
724.0, 0.015003936603168618
725.0, 0.015230194122133786
726.0, 0.015645789974147433
727.0, 0.01593941297763029
728.0, 0.016158656571432367
729.0, 0.01654300417634171
730.0, 0.017401266341553877
731.0, 0.01860356601721553
732.0, 0.019918764783937212
733.0, 0.021464912484589
734.0, 0.023273998161455135
735.0, 0.025162668133677492
736.0, 0.02756534116381573
737.0, 0.030691442166958478
738.0, 0.03450545873324424
739.0, 0.03852168946630684
740.0, 0.043661375577591824
741.0, 0.050226530328535315
742.0, 0.057476681790918895
743.0, 0.06552672700769711
744.0, 0.07398403036017064
745.0, 0.08271297829263591
746.0, 0.09170035685986774
747.0, 0.09954003646205864
748.0, 0.10437317160113596
749.0, 0.10521044134162269
750.0, 0.10192971909081745
751.0, 0.09321952213782606
752.0, 0.08138693471642558
753.0, 0.06966258123491262
754.0, 0.05892722487656578
755.0, 0.04992563171205535
756.0, 0.04314302555003959
757.0, 0.03846357064790969
758.0, 0.03556830295874727
759.0, 0.03397011885342741
760.0, 0.033391702414189914
761.0, 0.03380597248195699
762.0, 0.03506611577711176
763.0, 0.03647065391838351
764.0, 0.03758760733566208
765.0, 0.03852907821565157
766.0, 0.03774568579229844
767.0, 0.03464488870172354
768.0, 0.02957763865522873
769.0, 0.024499653786742927
770.0, 0.019660074424054173
771.0, 0.014975561090159897
772.0, 0.011380904058359797
773.0, 0.00897238877446474
774.0, 0.006817867420735414
775.0, 0.005487187151001603
776.0, 0.003980345845241894
777.0, 0.0025768121686844015
778.0, 0.0017457057516729493
779.0, 0.001209752595563113
780.0, 0.0009336297627692945
781.0, 0.000528424231276084
782.0, 0.0002246942758202831
783.0, 0.0001867519689645038
784.0, 0.0003337149183418584
785.0, 0.0002498749182948243
786.0, 0.0003064397669446587
787.0, 0.0005861772824767015
788.0, 0.000668183056007674
789.0, 0.0009489507991488293
790.0, 0.0008992888289159176
791.0, 0.0007930998563506859
792.0, 0.0009052146399333121
793.0, 0.0010007288953193516
794.0, 0.000874229979924445
795.0, 0.000743827080795294
796.0, 0.0008335038862223279
797.0, 0.0007155912923068598
798.0, 0.0007453895862056675
799.0, 0.0006870661262819416
800.0, 0.0007449645286446299
801.0, 0.0008420085851879677
802.0, 0.0007320994377682015
803.0, 0.0004593802461486698
804.0, 0.00017408203801921963
805.0, 0.00016292157404040457
806.0, 0.00036893640690884103
807.0, 0.0003645998417745236
808.0, 0.0004138915699869605
809.0, 0.0006574777555483548
810.0, 0.0008809015773039802
811.0, 0.0008766481627908463
812.0, 0.0012570048006815093
813.0, 0.001439584535737027
814.0, 0.001703252205388417
815.0, 0.0021838633730794327
816.0, 0.002430140471976028
817.0, 0.0025286512378408167
818.0, 0.002823018010716773
819.0, 0.0031479469766685767
820.0, 0.0036233435770844915
821.0, 0.0037691054831947473
822.0, 0.0039407140377186725
823.0, 0.0043015906035380105
824.0, 0.004906400433084241
825.0, 0.005159847983993297
826.0, 0.00527941111548863
827.0, 0.006004892205013707
828.0, 0.006305220175407991
829.0, 0.006409222733781278
830.0, 0.00672029589770748
831.0, 0.007094708616288322
832.0, 0.0072670599297852394
833.0, 0.007424521985106729
834.0, 0.00780366317005182
835.0, 0.008300610141368566
836.0, 0.008832209884071287
837.0, 0.008869579766982012
838.0, 0.009290050463476803
839.0, 0.009753457448941391
840.0, 0.010201316659914922
841.0, 0.01070474149817678
842.0, 0.011258486721959997
843.0, 0.011880445248536814
844.0, 0.012722371293856114
845.0, 0.013600190262071304
846.0, 0.014270611538751986
847.0, 0.01544101002153469
848.0, 0.01683662926393919
849.0, 0.01863362161310923
850.0, 0.02092964453407832
851.0, 0.02377354101312853
852.0, 0.027326729044370536
853.0, 0.031454811332024046
854.0, 0.03688632715324343
855.0, 0.043545654501993665
856.0, 0.0516989022000206
857.0, 0.060888824997984
858.0, 0.07108266503246258
859.0, 0.08299865562086475
860.0, 0.0978916924054725
861.0, 0.1167743536746234
862.0, 0.13955156622300519
863.0, 0.16893381752161776
864.0, 0.20418076776759678
865.0, 0.2483685054687046
866.0, 0.2990190426796369
867.0, 0.3503368957004301
868.0, 0.3913623153446874
869.0, 0.40470582543428346
870.0, 0.3827303637736379
871.0, 0.32967036702471614
872.0, 0.2637246564234082
873.0, 0.20259967757302874
874.0, 0.15344284454462917
875.0, 0.11604657567605758
876.0, 0.08854088141055161
877.0, 0.06890912503159285
878.0, 0.05473842601883772
879.0, 0.04421387959483849
880.0, 0.036282377547826296
881.0, 0.03129350764345671
882.0, 0.028060453502553966
883.0, 0.02544443101017333
884.0, 0.0241898470060154
885.0, 0.024136194499591927
886.0, 0.024542086988218186
887.0, 0.026608101941617217
888.0, 0.02967517043291502
889.0, 0.03609180813411421
890.0, 0.0436846250241853
891.0, 0.054195420861886626
892.0, 0.06742850605394249
893.0, 0.08233634070998619
894.0, 0.09874900555015156
895.0, 0.11802110094954298
896.0, 0.1419556100650948
897.0, 0.17265844799886443
898.0, 0.21476132551174626
899.0, 0.2708495617505077
900.0, 0.3443855063205961
901.0, 0.44122454770236086
902.0, 0.5594115091325271
903.0, 0.6808420689064499
904.0, 0.7652968563325026
905.0, 0.7730971318386216
906.0, 0.6925481107109047
907.0, 0.5561631643808274
908.0, 0.41239044642929545
909.0, 0.2928835794481285
910.0, 0.2071375726680227
911.0, 0.14942376183250203
912.0, 0.11042508956928035
913.0, 0.08395696968164124
914.0, 0.06537065357623074
915.0, 0.05169227141703542
916.0, 0.04196711833860465
917.0, 0.034938102578923685
918.0, 0.028747368643287096
919.0, 0.02399163372445631
920.0, 0.020528362320965107
921.0, 0.01748061834179694
922.0, 0.01483401284930497
923.0, 0.012664274017337104
924.0, 0.010399904954678081
925.0, 0.008969248004355399
926.0, 0.0075814100131335925
927.0, 0.006682825687807225
928.0, 0.00562153852727728
929.0, 0.004871869239528289
930.0, 0.004193930330788734
931.0, 0.003593643791290875
932.0, 0.003185190760629796
933.0, 0.0026542000878317846
934.0, 0.0021245489163710615
935.0, 0.001892154126142741
936.0, 0.0015192612826206242
937.0, 0.0011006724028693187
938.0, 0.0011342176830661521
939.0, 0.0010634995593329438
940.0, 0.0008758601165098466
941.0, 0.0008413157135918471
942.0, 0.0007491731678156659
943.0, 0.00044731004929469547
944.0, 0.00032688830825535056
945.0, 0.0005220437246846684
946.0, 0.0003258743641836258
947.0, 0.00024150426075122432
948.0, 0.0001716378249257604
949.0, 3.8494997473489834e-05
950.0, 0.0001335677960985049
951.0, 0.0001509644638847053
952.0, 0.00012763140820081412
953.0, 2.3605512056949917e-05
954.0, 0.00026222863197116944
955.0, 0.000466332866348349
956.0, 0.0001341899158253054
957.0, 2.102929265631515e-05
958.0, 0.0003902923784394503
959.0, 0.0005243076558324468
960.0, 0.00042014706654717055
961.0, 0.000286076715124679
962.0, 0.00022763561862096393
963.0, 0.00040059204424827005
964.0, 0.0004345855396793213
965.0, 0.0001739447803375655
966.0, 6.178924633528323e-05
967.0, 2.8502526616795316e-05
968.0, 0.0002996310610374868
969.0, 0.0002832915692397926
970.0, 0.0002652728392994008
971.0, 0.00020915887164448029
972.0, 6.196026756643787e-05
973.0, 2.7830995546534746e-05
974.0, 4.490929006920867e-05
975.0, 6.996245151813883e-05
976.0, 0.00018358945620740002
977.0, 0.00011947319782856191
978.0, 9.428824027362037e-05
979.0, 3.452556697022835e-05
980.0, 0.00011043280537558158
981.0, 0.00019484031624481787
982.0, 0.0001222393572943411
983.0, 4.658009276041489e-05
984.0, 2.373110153849639e-05
985.0, 0.00021631409441793116
986.0, 0.00012180809671509029
987.0, 0.00019474778174590545
988.0, 1.5029163039240005e-05
989.0, 2.0135432261785034e-05
990.0, 0.00020757163856810145
991.0, 8.716195438830722e-05
992.0, 0.00012328971066827792
993.0, 0.00014217219453779926
994.0, 3.529841457879923e-05
995.0, 5.173336358329339e-06
996.0, 6.642852062958402e-06
997.0, 5.929806556778907e-05
998.0, 0.00014421366055914452
999.0, 0.0001997743680973233
1000.0, 7.891015723000866e-05
1001.0, 0.0001524788817042557
1002.0, 0.00029711947249768745
1003.0, 0.00021113671592120904
1004.0, 0.00016008031119682048
1005.0, 0.00024659100145107477
1006.0, 0.00023317490934499733
1007.0, 0.0003056224985377989
1008.0, 0.0005705664116091151
1009.0, 0.0005145054496089011
1010.0, 0.00018586662084852417
1011.0, 0.00022748415052270174
1012.0, 0.0007164389058434039
1013.0, 0.0004782037004618634
1014.0, 0.00022858745748306075
1015.0, 0.00030022461021682507
1016.0, 0.0003204279527473412
1017.0, 0.00044111971788239927
1018.0, 0.0007044077507898943
1019.0, 0.0006838498645637629
1020.0, 0.0005813021997389769
1021.0, 0.00047245343698342537
1022.0, 0.0005382727911897044
1023.0, 0.000531357224388536
1024.0, 0.0003914359987205991
1025.0, 0.0005974063897974708
1026.0, 0.0007756500279669178
1027.0, 0.0006003558853323736
1028.0, 0.0004064882249041894
1029.0, 0.0005393479357233671
1030.0, 0.0007626891599069106
1031.0, 0.0006875169736664021
1032.0, 0.0004474600533146293
1033.0, 0.00043668037753853304
1034.0, 0.0005504231080884832
1035.0, 0.000798868981371503
1036.0, 0.0006430259348770657
1037.0, 0.0007092022552130953
1038.0, 0.00041753524546196
1039.0, 0.0003289724713947404
1040.0, 0.000751167042551036
1041.0, 0.0007087162267818751
1042.0, 0.00038779491981388154
1043.0, 0.00015544353523877982
1044.0, 0.0004427073338482691
1045.0, 0.0004185999903324127
1046.0, 0.0001837172392989974
1047.0, 0.00010161552144879859
1048.0, 0.00024057561086924636
1049.0, 0.00019271458478931831
1050.0, 0.0002328293932328215
1051.0, 5.651377802217297e-05
1052.0, 1.2007581233255926e-05
1053.0, 1.4646650920131626e-05
1054.0, 0.0001375424260773033
1055.0, 0.00019529647069900963
1056.0, 0.00011326444415428706
1057.0, 0.00018438828232611142
1058.0, 0.00015425610449730412
1059.0, 0.0004960586625608106
1060.0, 0.0004337497551992319
1061.0, 0.00032845279843718157
1062.0, 0.0004310375301148511
1063.0, 0.0005638792766989862
1064.0, 0.0004707923706945372
1065.0, 0.00027541181969995465
1066.0, 0.000222827429171047
1067.0, 0.000199185140365679
1068.0, 0.00024074570614489738
1069.0, 0.00043816139749462034
1070.0, 0.00011169000902179657
1071.0, 0.00013457522096063575
1072.0, 0.00013497461534993062
1073.0, 2.698488333895477e-05
1074.0, 0.0001409786007438444
1075.0, 0.000403470797551756
1076.0, 0.0002113290671273834
1077.0, 0.00023112317685253285
1078.0, 0.0004332078999967876
1079.0, 0.00044050189882511735
1080.0, 0.0007705998120145517
1081.0, 0.0009827947320150934
1082.0, 0.0009117822046039493
1083.0, 0.0011239198296718687
1084.0, 0.0012072356598632676
1085.0, 0.0012310505487387058
1086.0, 0.0013710913640404892
1087.0, 0.0017793294534673718
1088.0, 0.0019142167220347938
1089.0, 0.0018671861700477591
1090.0, 0.002138326639837887
1091.0, 0.00220832916107203
1092.0, 0.0021209145116941543
1093.0, 0.0023784532687160602
1094.0, 0.002378096517205736
1095.0, 0.00237678310777177
1096.0, 0.002906112285304605
1097.0, 0.0029657297986496077
1098.0, 0.0029646656929371413
1099.0, 0.0032389358870158194
1100.0, 0.003051335617934072
1101.0, 0.0035034902311288038
1102.0, 0.003982266862625312
1103.0, 0.004010056330003514
1104.0, 0.004093019729489847
1105.0, 0.004360722006772696
1106.0, 0.004470679226745397
1107.0, 0.00455844298407248
1108.0, 0.004801979209991231
1109.0, 0.0047914396246075954
1110.0, 0.004827114985487892
1111.0, 0.004922806069030471
1112.0, 0.005088732622728098
1113.0, 0.005620754632022278
1114.0, 0.005768758575312572
1115.0, 0.005753306245606159
1116.0, 0.005943382186390698
1117.0, 0.006159192546720685
1118.0, 0.006116655284051609
1119.0, 0.006234155606118411
1120.0, 0.006610991932353065
1121.0, 0.006858874569661094
1122.0, 0.006945621683445451
1123.0, 0.0071241805527478596
1124.0, 0.00753706968809238
1125.0, 0.00785802864334155
1126.0, 0.008273110472928133
1127.0, 0.008333206855557796
1128.0, 0.008587532594947347
1129.0, 0.009052068682370835
1130.0, 0.009402180932003734
1131.0, 0.009662639101332167
1132.0, 0.009774420499365884
1133.0, 0.0100372304983667
1134.0, 0.010364505690771993
1135.0, 0.010473406774151154
1136.0, 0.0105244896838898
1137.0, 0.010913872002345192
1138.0, 0.01122416382917191
1139.0, 0.011045843645584934
1140.0, 0.011384393018010674
1141.0, 0.011439821000789795
1142.0, 0.011483260608816796
1143.0, 0.011368065546837733
1144.0, 0.011839138517988894
1145.0, 0.012175765342023371
1146.0, 0.012167199110039299
1147.0, 0.012578706351184908
1148.0, 0.012885794827824181
1149.0, 0.013433386141393586
1150.0, 0.013493702348201936
1151.0, 0.013538908694233943
1152.0, 0.01365485492555727
1153.0, 0.013849017502571137
1154.0, 0.014403962415369164
1155.0, 0.014279463846173363
1156.0, 0.014399158299048592
1157.0, 0.014621373217203507
1158.0, 0.014559985569515106
1159.0, 0.014916120599105263
1160.0, 0.015130830471919517
1161.0, 0.016098972076545065
1162.0, 0.015893668470808642
1163.0, 0.015959959022960945
1164.0, 0.016121319785952225
1165.0, 0.01645996612078874
1166.0, 0.016962913597854075
1167.0, 0.017472806586921612
1168.0, 0.017844807992186136
1169.0, 0.018422787387005143
1170.0, 0.01914049480503716
1171.0, 0.0197637840591836
1172.0, 0.020748321859319588
1173.0, 0.021843301304914926
1174.0, 0.022349798619280607
1175.0, 0.023564517143386636
1176.0, 0.02368500873304067
1177.0, 0.024468865691699
1178.0, 0.025577530772279325
1179.0, 0.02630073998436796
1180.0, 0.02702684236024218
1181.0, 0.027240685756855634
1182.0, 0.027639153347319916
1183.0, 0.027859364303188784
1184.0, 0.028425770025695254
1185.0, 0.02904963107048168
1186.0, 0.029728047148956348
1187.0, 0.03042432377275958
1188.0, 0.03093486255667087
1189.0, 0.03129327183446541
1190.0, 0.03146190343318028
1191.0, 0.03170884650103089
1192.0, 0.032612758430854163
1193.0, 0.03313630452320541
1194.0, 0.03370816505906192
1195.0, 0.03350584453206783
1196.0, 0.03395662374652478
1197.0, 0.03400819619269284
1198.0, 0.03446554633361517
1199.0, 0.03480917322171396
1200.0, 0.03512183168609454
1201.0, 0.03481527730314443
1202.0, 0.03436000541400007
1203.0, 0.03349674631287468
1204.0, 0.03361152588609117
1205.0, 0.03336213606230489
1206.0, 0.032822720192599915
1207.0, 0.03267930702681304
1208.0, 0.03241139283907962
1209.0, 0.03154408202456729
1210.0, 0.03025373810843358
1211.0, 0.029719841168345223
1212.0, 0.028533983505807974
1213.0, 0.026719630899794983
1214.0, 0.02563535606987484
1215.0, 0.023333576203750293
1216.0, 0.022791277904651408
1217.0, 0.020897598102134263
1218.0, 0.018207671234490186
1219.0, 0.017192386703233555
1220.0, 0.015015657675441878
1221.0, 0.012703967740291002
1222.0, 0.010906983824907566
1223.0, 0.007509868956438872
1224.0, 0.004116414765870598
1225.0, 0.001649757786318816
1226.0, 0.0009610363013875747
1227.0, 0.0022480517198449727
1228.0, 0.002325577238187988
1229.0, 0.0025987372970794104
1230.0, 0.002014695566334101
1231.0, 0.0016303983271108767
1232.0, 0.0017070742248588154
1233.0, 0.0010445626800316412
1234.0, 0.0007632408210626144
1235.0, 0.00016769813949232723
1236.0, 0.0007294828579493664
1237.0, 0.001451015609131155
1238.0, 0.0013555981989197344
1239.0, 0.001150688755664888
1240.0, 0.0010793062211565583
1241.0, 0.0015303836800047905
1242.0, 0.0035740017862460954
1243.0, 0.0032993944458736906
1244.0, 0.0038177135497645142
1245.0, 0.004954084888355795
1246.0, 0.0058962775772018845
1247.0, 0.0060945380364011495
1248.0, 0.006617900047120361
1249.0, 0.007013148162271246
1250.0, 0.007915254110077638
1251.0, 0.00926777253248496
1252.0, 0.009950441291051186
1253.0, 0.011052478274432164
1254.0, 0.012451360729917533
1255.0, 0.013093691698069641
1256.0, 0.01212952369711487
1257.0, 0.010299390540061647
1258.0, 0.00918643124118495
1259.0, 0.007983420461075539
1260.0, 0.007593785379441688
1261.0, 0.00873684157477039
1262.0, 0.00819718594146582
1263.0, 0.00783038090507804
1264.0, 0.007703864104358033
1265.0, 0.00691460540223172
1266.0, 0.007321144517385533
1267.0, 0.007662179663123652
1268.0, 0.006590489926814823
1269.0, 0.006368389966407861
1270.0, 0.00565851321483889
1271.0, 0.006517790145274813
1272.0, 0.006324381086746683
1273.0, 0.005804677652780604
1274.0, 0.006099566139990056
1275.0, 0.005495051127380178
1276.0, 0.0053606103579141445
1277.0, 0.004823790728847644
1278.0, 0.0036822346647318897
1279.0, 0.0031596726265100015
1280.0, 0.0038974785958105908
1281.0, 0.0034084396045427805
1282.0, 0.0012074813006864775
1283.0, 0.00038508336851454395
1284, 0.0
1285, 0.0
1286, 0.0
1287, 0.0
1288, 0.0
1289, 0.0
1290, 0.0
1291, 0.0
1292, 0.0
1293, 0.0
1294, 0.0
1295, 0.0
1296, 0.0
1297, 0.0
1298, 0.0
1299, 0.0
1300, 0.0
1301, 0.0
1302, 0.0
1303, 0.0
1304, 0.0
1305, 0.0
1306, 0.0
1307, 0.0
1308, 0.0
1309, 0.0
1310, 0.0
1311, 0.0
1312, 0.0
1313, 0.0
1314, 0.0
1315, 0.0
1316, 0.0
1317, 0.0
1318, 0.0
1319, 0.0
1320, 0.0
1321, 0.0
1322, 0.0
1323, 0.0
1324, 0.0
1325, 0.0
1326, 0.0
1327, 0.0
1328, 0.0
1329, 0.0
1330, 0.0
1331, 0.0
1332, 0.0
1333, 0.0
1334, 0.0
1335, 0.0
1336, 0.0
1337, 0.0
1338, 0.0
1339, 0.0
1340, 0.0
1341, 0.0
1342, 0.0
1343, 0.0
1344, 0.0
1345, 0.0
1346, 0.0
1347, 0.0
1348, 0.0
1349, 0.0
1350, 0.0
1351, 0.0
1352, 0.0
1353, 0.0
1354, 0.0
1355, 0.0
1356, 0.0
1357, 0.0
1358, 0.0
1359, 0.0
1360, 0.0
1361, 0.0
1362, 0.0
1363, 0.0
1364, 0.0
1365, 0.0
1366, 0.0
1367, 0.0
1368, 0.0
1369, 0.0
1370, 0.0
1371, 0.0
1372, 0.0
1373, 0.0
1374, 0.0
1375, 0.0
1376, 0.0
1377, 0.0
1378, 0.0
1379, 0.0
1380, 0.0
1381, 0.0
1382, 0.0
1383, 0.0
1384, 0.0
1385, 0.0
1386, 0.0
1387, 0.0
1388, 0.0
1389, 0.0
1390, 0.0
1391, 0.0
1392, 0.0
1393, 0.0
1394, 0.0
1395, 0.0
1396, 0.0
1397, 0.0
1398, 0.0
1399, 0.0
1400, 0.0
1401, 0.0
1402, 0.0
1403, 0.0
1404, 0.0
1405, 0.0
1406, 0.0
1407, 0.0
1408, 0.0
1409, 0.0
1410, 0.0
1411, 0.0
1412, 0.0
1413, 0.0
1414, 0.0
1415, 0.0
1416, 0.0
1417, 0.0
1418, 0.0
1419, 0.0
1420, 0.0
1421, 0.0
1422, 0.0
1423, 0.0
1424, 0.0
1425, 0.0
1426, 0.0
1427, 0.0
1428, 0.0
1429, 0.0
1430, 0.0
1431, 0.0
1432, 0.0
1433, 0.0
1434, 0.0
1435, 0.0
1436, 0.0
1437, 0.0
1438, 0.0
1439, 0.0
1440, 0.0
1441, 0.0
1442, 0.0
1443, 0.0
1444, 0.0
1445, 0.0
1446, 0.0
1447, 0.0
1448, 0.0
1449, 0.0
1450, 0.0
1451, 0.0
1452, 0.0
1453, 0.0
1454, 0.0
1455, 0.0
1456, 0.0
1457, 0.0
1458, 0.0
1459, 0.0
1460, 0.0
1461, 0.0
1462, 0.0
1463, 0.0
1464, 0.0
1465, 0.0
1466, 0.0
1467, 0.0
1468, 0.0
1469, 0.0
1470, 0.0
1471, 0.0
1472, 0.0
1473, 0.0
1474, 0.0
1475, 0.0
1476, 0.0
1477, 0.0
1478, 0.0
1479, 0.0
1480, 0.0
1481, 0.0
1482, 0.0
1483, 0.0
1484, 0.0
1485, 0.0
1486, 0.0
1487, 0.0
1488, 0.0
1489, 0.0
1490, 0.0
1491, 0.0
1492, 0.0
1493, 0.0
1494, 0.0
1495, 0.0
1496, 0.0
1497, 0.0
1498, 0.0
1499, 0.0
1500, 0.0
1501, 0.0
1502, 0.0
1503, 0.0
1504, 0.0
1505, 0.0
1506, 0.0
1507, 0.0
1508, 0.0
1509, 0.0
1510, 0.0
1511, 0.0
1512, 0.0
1513, 0.0
1514, 0.0
1515, 0.0
1516, 0.0
1517, 0.0
1518, 0.0
1519, 0.0
1520, 0.0
1521, 0.0
1522, 0.0
1523, 0.0
1524, 0.0
1525, 0.0
1526, 0.0
1527, 0.0
1528, 0.0
1529, 0.0
1530, 0.0
1531, 0.0
1532, 0.0
1533, 0.0
1534, 0.0
1535, 0.0
1536, 0.0
1537, 0.0
1538, 0.0
1539, 0.0
1540, 0.0
1541, 0.0
1542, 0.0
1543, 0.0
1544, 0.0
1545, 0.0
1546, 0.0
1547, 0.0
1548, 0.0
1549, 0.0
1550, 0.0
1551, 0.0
1552, 0.0
1553, 0.0
1554, 0.0
1555, 0.0
1556, 0.0
1557, 0.0
1558, 0.0
1559, 0.0
1560, 0.0
1561, 0.0
1562, 0.0
1563, 0.0
1564, 0.0
1565, 0.0
1566, 0.0
1567, 0.0
1568, 0.0
1569, 0.0
1570, 0.0
1571, 0.0
1572, 0.0
1573, 0.0
1574, 0.0
1575, 0.0
1576, 0.0
1577, 0.0
1578, 0.0
1579, 0.0
1580, 0.0
1581, 0.0
1582, 0.0
1583, 0.0
1584, 0.0
1585, 0.0
1586, 0.0
1587, 0.0
1588, 0.0
1589, 0.0
1590, 0.0
1591, 0.0
1592, 0.0
1593, 0.0
1594, 0.0
1595, 0.0
1596, 0.0
1597, 0.0
1598, 0.0
1599, 0.0
