30, 0.0
31, 0.0
32, 0.0
33, 0.0
34, 0.0
35, 0.0
36, 0.0
37, 0.0
38, 0.0
39, 0.0
40, 0.0
41, 0.0
42, 0.0
43, 0.0
44, 0.0
45, 0.0
46, 0.0
47, 0.0
48, 0.0
49, 0.0
50, 0.0
51, 0.0
52, 0.0
53, 0.0
54, 0.0
55, 0.0
56, 0.0
57, 0.0
58, 0.0
59, 0.0
60, 0.0
61, 0.0
62, 0.0
63, 0.0
64, 0.0
65, 0.0
66, 0.0
67, 0.0
68, 0.0
69, 0.0
70, 0.0
71, 0.0
72, 0.0
73, 0.0
74, 0.0
75, 0.0
76, 0.0
77, 0.0
78, 0.0
79, 0.0
80, 0.0
81, 0.0
82, 0.0
83, 0.0
84, 0.0
85, 0.0
86, 0.0
87, 0.0
88, 0.0
89, 0.0
90, 0.0
91, 0.0
92, 0.0
93, 0.0
94, 0.0
95, 0.0
96, 0.0
97, 0.0
98, 0.0
99, 0.0
100, 0.0
101, 0.0
102, 0.0
103, 0.0
104, 0.0
105, 0.0
106, 0.0
107, 0.0
108, 0.0
109, 0.0
110.0, 0.002284323451956094
111.0, 0.0032460296712806297
112.0, 0.023272292430589595
113.0, 0.05848507260097334
114.0, 0.11326767896364753
115.0, 0.17395088477300763
116.0, 0.23722635054340688
117.0, 0.30266397356394353
118.0, 0.35748430846393464
119.0, 0.4144315257571835
120.0, 0.46237543899374484
121.0, 0.4930731337446058
122.0, 0.515670734926433
123.0, 0.5252350375350593
124.0, 0.5255641759230993
125.0, 0.5207229838549567
126.0, 0.5136822009679584
127.0, 0.5114652905304151
128.0, 0.5144795703444283
129.0, 0.5213776285874677
130.0, 0.5309565762413844
131.0, 0.5436957692111225
132.0, 0.5542763857175512
133.0, 0.5582510445240458
134.0, 0.5426897597423274
135.0, 0.5126628733817112
136.0, 0.47616801444419443
137.0, 0.43594387484284797
138.0, 0.3951197486880911
139.0, 0.35454788146950356
140.0, 0.3168087003954083
141.0, 0.2801484964910639
142.0, 0.2460237239839433
143.0, 0.22462444969476206
144.0, 0.20465275092921073
145.0, 0.1859275378643827
146.0, 0.17057516272641263
147.0, 0.16035017680194683
148.0, 0.14509312488279422
149.0, 0.1265005005100779
150.0, 0.11136848128972572
151.0, 0.10207653285615292
152.0, 0.0905586363480483
153.0, 0.08081485064028791
154.0, 0.07427443020271157
155.0, 0.06987334889883653
156.0, 0.06538112022332784
157.0, 0.0588228916823095
158.0, 0.051437821765236987
159.0, 0.045212878691926195
160.0, 0.041597527095748286
161.0, 0.0370385542303411
162.0, 0.03521445440338697
163.0, 0.033574617976744936
164.0, 0.03049438546531967
165.0, 0.029792215995851735
166.0, 0.027272371836139127
167.0, 0.024126474527124804
168.0, 0.019240758449726374
169.0, 0.00958133212144669
170.0, 0.0031729565813973805
171.0, 0.004232720040607425
172.0, 0.012274064493357353
173.0, 0.01787160110928005
174.0, 0.020039792057813904
175.0, 0.019344750050050773
176.0, 0.018940382593294294
177.0, 0.019617865436399814
178.0, 0.018264404243305287
179.0, 0.01762712694516877
180.0, 0.01724697866985416
181.0, 0.015919611337219402
182.0, 0.013236673028529522
183.0, 0.012378103623789499
184.0, 0.009777744606219196
185.0, 0.005098149563248416
186.0, 0.0007273813502618896
187.0, 0.003489043096841958
188.0, 0.004327790051112123
189.0, 0.006479757454606363
190.0, 0.010653742714687574
191.0, 0.01299731683471392
192.0, 0.01602817886183788
193.0, 0.021438020284601
194.0, 0.02652859607435598
195.0, 0.028700250848723
196.0, 0.035044417181421005
197.0, 0.04141121320852816
198.0, 0.04530968244963936
199.0, 0.04837997410805417
200.0, 0.057897238633205325
201.0, 0.06442402557593904
202.0, 0.0705489562231225
203.0, 0.07914492089967202
204.0, 0.0902250807113861
205.0, 0.10085733895973067
206.0, 0.11166754680639165
207.0, 0.12306071126533669
208.0, 0.13558760583699644
209.0, 0.1507242895426719
210.0, 0.16623789245024323
211.0, 0.18134727991161553
212.0, 0.1957181278168669
213.0, 0.20935632033646412
214.0, 0.22456993224529898
215.0, 0.2397559401019476
216.0, 0.25281298656990986
217.0, 0.2624873542730708
218.0, 0.269059609699105
219.0, 0.27837858213729894
220.0, 0.2844105690054076
221.0, 0.28561922358216835
222.0, 0.2865376124626863
223.0, 0.2846929140470449
224.0, 0.28254015194203036
225.0, 0.27858433227083645
226.0, 0.2715373354589224
227.0, 0.2669219998761097
228.0, 0.25738532332110164
229.0, 0.24586406895308865
230.0, 0.2345987900250125
231.0, 0.22243144841300497
232.0, 0.20822240457489988
233.0, 0.18908233164824154
234.0, 0.17030773092859702
235.0, 0.15648152941244853
236.0, 0.1421387223795808
237.0, 0.1280635207843082
238.0, 0.11595742392663753
239.0, 0.10522013968846927
240.0, 0.09352153259916315
241.0, 0.08377825409898852
242.0, 0.07426684070272413
243.0, 0.06891012412789506
244.0, 0.06992248728279193
245.0, 0.07159298572738104
246.0, 0.07274339687763565
247.0, 0.0766771113958404
248.0, 0.08492908670702416
249.0, 0.0968218382725236
250.0, 0.10876699956856693
251.0, 0.12756001682334253
252.0, 0.14947674827184862
253.0, 0.17127239763443253
254.0, 0.19684483276929965
255.0, 0.22440448905096527
256.0, 0.2557067262521483
257.0, 0.2917243589838388
258.0, 0.33139181215285524
259.0, 0.3701660074260133
260.0, 0.4101768694287845
261.0, 0.4531531895281933
262.0, 0.498155765258206
263.0, 0.5415240298715464
264.0, 0.5876209932163214
265.0, 0.6362782197157447
266.0, 0.6862459736177922
267.0, 0.7358549478623628
268.0, 0.7841581609649843
269.0, 0.8344033238148183
270.0, 0.8808216993094576
271.0, 0.9205773326990362
272.0, 0.9553650061906391
273.0, 0.980757955501981
274.0, 0.9970032194562372
275.0, 0.9966466693472001
276.0, 0.9750216593420504
277.0, 0.9361551436151061
278.0, 0.874947725650574
279.0, 0.7941840367084071
280.0, 0.703926639623273
281.0, 0.616988514500449
282.0, 0.5370874763904439
283.0, 0.46333571807415896
284.0, 0.4007119922186087
285.0, 0.3506097332085291
286.0, 0.30951094011871133
287.0, 0.2817162765381391
288.0, 0.26372960825152614
289.0, 0.2542129913857539
290.0, 0.25314015338785995
291.0, 0.2592372025688558
292.0, 0.2678089194680029
293.0, 0.27871856866816164
294.0, 0.28952741599854737
295.0, 0.2974465110416968
296.0, 0.30569394592754756
297.0, 0.3047714521907195
298.0, 0.3013769510604674
299.0, 0.29865999917240493
300.0, 0.2915580258612296
301.0, 0.2797502789961317
302.0, 0.2598116688694467
303.0, 0.2369835844963453
304.0, 0.2149782899398105
305.0, 0.19103464877130566
306.0, 0.16528532571145446
307.0, 0.13799587872553884
308.0, 0.11114030414866809
309.0, 0.08708428733336855
310.0, 0.06647323299198059
311.0, 0.04952558186736718
312.0, 0.034262432438667244
313.0, 0.021020194968451384
314.0, 0.011244158214623618
315.0, 0.0037973305270257163
316.0, 0.0018737262706505263
317.0, 0.005152271376204998
318.0, 0.006270215978458475
319.0, 0.0056659710323020826
320.0, 0.0014625472877415073
321.0, 0.0030169218353990114
322.0, 0.007200106689395501
323.0, 0.013328952229163716
324.0, 0.022204841457730308
325.0, 0.0330204328207727
326.0, 0.044122520289854875
327.0, 0.05569194243047775
328.0, 0.06907612989461921
329.0, 0.08537963037644587
330.0, 0.10517785374135917
331.0, 0.12414858918191056
332.0, 0.1419615887577228
333.0, 0.16102627395964975
334.0, 0.17904490995750094
335.0, 0.1967077841810576
336.0, 0.21360867963910665
337.0, 0.22968930902069937
338.0, 0.24556887577558792
339.0, 0.26191485285450816
340.0, 0.2777045430857322
341.0, 0.2950333891288996
342.0, 0.3154614678589522
343.0, 0.3375947183283376
344.0, 0.35651104447826915
345.0, 0.3792008873543493
346.0, 0.4011417984243899
347.0, 0.4151012891274956
348.0, 0.4195465507458312
349.0, 0.42117459285656395
350.0, 0.40833330868800255
351.0, 0.382687691511233
352.0, 0.35371797434965674
353.0, 0.3231138123524876
354.0, 0.2859018630841421
355.0, 0.24814132143474313
356.0, 0.2131437044064728
357.0, 0.18055467721979784
358.0, 0.15017405878735296
359.0, 0.12048322124368216
360.0, 0.09559322299603802
361.0, 0.07585836026470191
362.0, 0.058589466175192714
363.0, 0.04193475267480305
364.0, 0.027608775593438172
365.0, 0.01820927837259478
366.0, 0.010975794923328385
367.0, 0.0015743072763468586
368.0, 0.0054848422303248635
369.0, 0.010399252918506194
370.0, 0.012462011554482894
371.0, 0.012740528706435402
372.0, 0.01488250536293391
373.0, 0.014497846562930128
374.0, 0.013909020333822195
375.0, 0.014198033580244912
376.0, 0.015655589867631783
377.0, 0.017403050980625636
378.0, 0.01592993602296468
379.0, 0.012356953267615366
380.0, 0.009990735301549905
381.0, 0.009290485904571207
382.0, 0.00691221658851089
383.0, 0.0020023233179588527
384.0, 0.0027628884801488116
385.0, 0.005894783093583846
386.0, 0.008799894935732314
387.0, 0.014994276837971514
388.0, 0.018895988807857086
389.0, 0.022831166315709826
390.0, 0.027279913345355643
391.0, 0.03185691035301709
392.0, 0.03720045297948226
393.0, 0.045134159014645125
394.0, 0.05076188380552982
395.0, 0.05704989770894233
396.0, 0.0656408064449231
397.0, 0.07223079719111355
398.0, 0.08093491306832776
399.0, 0.09319337138631084
400.0, 0.10442575751819728
401.0, 0.11316711126112364
402.0, 0.12565819641033854
403.0, 0.13606197410145984
404.0, 0.1479329355318197
405.0, 0.161795191484049
406.0, 0.1775930575125283
407.0, 0.1966899438771145
408.0, 0.2140553498052673
409.0, 0.2348495217596713
410.0, 0.2587746455204649
411.0, 0.2825947850293403
412.0, 0.3050398157284684
413.0, 0.3301929864262351
414.0, 0.3578345068976501
415.0, 0.3829910653768272
416.0, 0.4033684764411841
417.0, 0.42176032451371626
418.0, 0.4347428746113423
419.0, 0.43992909325877816
420.0, 0.43676919883391163
421.0, 0.4250117023841695
422.0, 0.4046294265266139
423.0, 0.3775165640051975
424.0, 0.3480980596179156
425.0, 0.31544749605458783
426.0, 0.28035039359409747
427.0, 0.24716499623050864
428.0, 0.22103217780842327
429.0, 0.19666049999613075
430.0, 0.17544394519916803
431.0, 0.15814680973042372
432.0, 0.1425489318181486
433.0, 0.1312317714649841
434.0, 0.11646562815925364
435.0, 0.1044920219626238
436.0, 0.09682246968103297
437.0, 0.0878765698899161
438.0, 0.07772795873008044
439.0, 0.06829546808763169
440.0, 0.06219625932135853
441.0, 0.057966164667376405
442.0, 0.05451161924643817
443.0, 0.05931989634485962
444.0, 0.06306898582553294
445.0, 0.06592660588356873
446.0, 0.07083939735371507
447.0, 0.07980469452128881
448.0, 0.09260647595709094
449.0, 0.10647359150503835
450.0, 0.12417716820096587
451.0, 0.14311961053270827
452.0, 0.16259787385800087
453.0, 0.19008170990021386
454.0, 0.21823493535942054
455.0, 0.2571520580346383
456.0, 0.299616402933071
457.0, 0.338427141199686
458.0, 0.3799318151309545
459.0, 0.43144201841984214
460.0, 0.47580199423237707
461.0, 0.5114110659112426
462.0, 0.5379932320674725
463.0, 0.5481742415703071
464.0, 0.5350750315933976
465.0, 0.511758280146878
466.0, 0.4723006409865143
467.0, 0.4191108564963686
468.0, 0.36134090655572215
469.0, 0.30979825637989605
470.0, 0.26398685617140405
471.0, 0.22763455594478668
472.0, 0.20196267704431262
473.0, 0.1842897552363804
474.0, 0.17004421189435154
475.0, 0.16208214159125492
476.0, 0.15965735460390384
477.0, 0.1600856680624367
478.0, 0.16275990881041943
479.0, 0.17037818088934345
480.0, 0.18460246244779877
481.0, 0.19285272380265675
482.0, 0.20283067995351642
483.0, 0.22015419208814302
484.0, 0.24082751010924824
485.0, 0.2592456668371005
486.0, 0.28054370253391564
487.0, 0.3038612972526601
488.0, 0.32796078547608964
489.0, 0.3536384571518935
490.0, 0.3844142886910471
491.0, 0.41113396821219733
492.0, 0.4336864844607544
493.0, 0.45512218570874025
494.0, 0.47609112679348015
495.0, 0.49261687751918887
496.0, 0.5012538718242581
497.0, 0.505456760869078
498.0, 0.5058129911622379
499.0, 0.4999815939758962
500.0, 0.48585834652675997
501.0, 0.4666968178870525
502.0, 0.44753659070385
503.0, 0.4252067760137557
504.0, 0.401099694730725
505.0, 0.3773401723420199
506.0, 0.34741309706005385
507.0, 0.3225540298309434
508.0, 0.2953268813637149
509.0, 0.27105013761782265
510.0, 0.2518354104543016
511.0, 0.22805677763864007
512.0, 0.21087453323737873
513.0, 0.19371249203229907
514.0, 0.17650425198093406
515.0, 0.1613086776961884
516.0, 0.14805218145515148
517.0, 0.13475005230788578
518.0, 0.11942366797871994
519.0, 0.10466440035031875
520.0, 0.09244403363686558
521.0, 0.08263991241234656
522.0, 0.07222548327945286
523.0, 0.06366196018433978
524.0, 0.05457879087666705
525.0, 0.0465079430719491
526.0, 0.040619722775111326
527.0, 0.03531478731032667
528.0, 0.029755506719896036
529.0, 0.026830827447283965
530.0, 0.02382497580865521
531.0, 0.019677216363067223
532.0, 0.015489541052101787
533.0, 0.012075054286954578
534.0, 0.01011671784550337
535.0, 0.008015491265051657
536.0, 0.00510490433943913
537.0, 0.002384210219713227
538.0, 0.0018873756022618764
539.0, 0.0021605731381368373
540.0, 0.0012119234370527262
541.0, 0.0024645490513256567
542.0, 0.0029466957257572586
543.0, 0.005155000371802886
544.0, 0.00280731690659784
545.0, 0.003912164832217043
546.0, 0.005018273833866731
547.0, 0.005191736368421994
548.0, 0.004684140097157158
549.0, 0.0033890538686818608
550.0, 0.005258961354085365
551.0, 0.00531939735193382
552.0, 0.0055542167992358345
553.0, 0.005284548794103215
554.0, 0.0033206889898368423
555.0, 0.0023005675118273113
556.0, 0.0031235221023211295
557.0, 0.0028761115859445123
558.0, 0.002681404771613338
559.0, 0.0030076808550180884
560.0, 0.0028480965688315847
561.0, 0.003429970707754899
562.0, 0.0006873281235201383
563.0, 0.0019044607448259244
564.0, 0.0021853072103150853
565.0, 0.0024532857838998785
566.0, 0.0008784363466213419
567.0, 0.00017097397023713973
568.0, 0.00010608279487468706
569.0, 0.0005988784445308984
570.0, 0.0011922136584147146
571.0, 0.0010399447955802053
572.0, 0.003021071137538572
573.0, 0.0035503183387167216
574.0, 0.004240019994952519
575.0, 0.004286592251747955
576.0, 0.0041190024300199
577.0, 0.005773518150039618
578.0, 0.007694725678990218
579.0, 0.007299965849623165
580.0, 0.007185836887592747
581.0, 0.008013297630105434
582.0, 0.009200088991119414
583.0, 0.010595156295396375
584.0, 0.00891899452801897
585.0, 0.008115313559403061
586.0, 0.0086416672734054
587.0, 0.00977209646482347
588.0, 0.010983359353923023
589.0, 0.011635402960903783
590.0, 0.011038347761027528
591.0, 0.011983020362270395
592.0, 0.013312895057646225
593.0, 0.012999998784814388
594.0, 0.012097649397595115
595.0, 0.014943570077704011
596.0, 0.014871620838965822
597.0, 0.014201916549805094
598.0, 0.013988067436976257
599.0, 0.01374647868359651
600.0, 0.013846558707475462
601.0, 0.016428840256150847
602.0, 0.01696711062351746
603.0, 0.016897116926374425
604.0, 0.01678431492345137
605.0, 0.016837224649364428
606.0, 0.017219996262395704
607.0, 0.015789610700052227
608.0, 0.015867994942172833
609.0, 0.015615165664788768
610.0, 0.015699953618706457
611.0, 0.01710247998746631
612.0, 0.017256506730786013
613.0, 0.015896440734910477
614.0, 0.015108188794199243
615.0, 0.01485574597823695
616.0, 0.013460650769832454
617.0, 0.0113385280616355
618.0, 0.013584810713582196
619.0, 0.010005996743507363
620.0, 0.010306794534112573
621.0, 0.010794900948534442
622.0, 0.008491964963142768
623.0, 0.00681871102276792
624.0, 0.00656586958809204
625.0, 0.004589726382797462
626.0, 0.005729641051534215
627.0, 0.005731026638416358
628.0, 0.004830563081694817
629.0, 0.00694808395231437
630.0, 0.005405767567913234
631.0, 0.004885163286886447
632.0, 0.003948959708194599
633.0, 0.0030735510448466276
634.0, 0.0027053043131579665
635.0, 0.0020965133211178944
636.0, 0.0010109605223615535
637.0, 0.0024477169467881825
638.0, 0.0025308246106871936
639.0, 0.003026820170576639
640.0, 0.003874881192299943
641.0, 0.0021283622427198546
642.0, 0.0007862477583302039
643.0, 0.0010959546067255944
644.0, 0.0021793376875143123
645.0, 0.0011538269878344884
646.0, 0.0009679376656907521
647.0, 0.00043455207815461234
648.0, 0.0022500769208853005
649.0, 0.0016560368923383255
650.0, 0.0024775988274981105
651.0, 0.003082025823348919
652.0, 0.0024539152952064423
653.0, 0.0023781703238166707
654.0, 0.0007751830441701751
655.0, 1.5736193045956444e-05
656.0, 0.002109710673668035
657.0, 0.004956886212183039
658.0, 0.005784249504704787
659.0, 0.004150456064540866
660.0, 0.004998446581949538
661.0, 0.008192361274559192
662.0, 0.00929647675150015
663.0, 0.009450116192488766
664.0, 0.010712834734831622
665.0, 0.012614420907941482
666.0, 0.014113970658478761
667.0, 0.013213993343607953
668.0, 0.014871204883115578
669.0, 0.016127540776884195
670.0, 0.016427792469648768
671.0, 0.01822399601178998
672.0, 0.021194861417422876
673.0, 0.023112004212370307
674.0, 0.02527390252472781
675.0, 0.027909101042847474
676.0, 0.029958037293491065
677.0, 0.03095707845345406
678.0, 0.03228003452718204
679.0, 0.034779477179113644
680.0, 0.0362093234027874
681.0, 0.037168258202382266
682.0, 0.03842519513111904
683.0, 0.03942274559259365
684.0, 0.038616517773703396
685.0, 0.03507192013284589
686.0, 0.03342935256060578
687.0, 0.029146369597030347
688.0, 0.025399025808117606
689.0, 0.02428627810466351
690.0, 0.021203917054850904
691.0, 0.018884282602441328
692.0, 0.019147414148634884
693.0, 0.017237977659575996
694.0, 0.015425803030178174
695.0, 0.01565751800123066
696.0, 0.01591541490588585
697.0, 0.015433817584568923
698.0, 0.01310993266612419
699.0, 0.015657040626042493
700.0, 0.015639753866002193
701.0, 0.01403610300568453
702.0, 0.015695160549522167
703.0, 0.012053668641070032
704.0, 0.0095550051610496
705.0, 0.008536098121760736
706.0, 0.007162398295366807
707.0, 0.00690732973774056
708.0, 0.007822918715309836
709.0, 0.00615044613808462
710.0, 0.006213899899841637
711.0, 0.005570925075762322
712.0, 0.006245420173935304
713.0, 0.008860911923527658
714.0, 0.012884139308140408
715.0, 0.015825404755767172
716.0, 0.01144141371170984
717.0, 0.010355184445342641
718.0, 0.01057149865497738
719.0, 0.01114815582149408
720.0, 0.009574181056502144
721.0, 0.005748312496950092
722.0, 0.005456839158145024
723.0, 0.001914667374797693
724.0, 0.0012371435076611228
725.0, 0.0019714922274261326
726.0, 0.0007143449876322118
727.0, 0.0005996803391937419
728.0, 0.00046648241426519804
729.0, 0.0022541264096769768
730.0, 0.0006132821434427962
731.0, 0.002343920721595958
732.0, 0.0007422782926611016
733.0, 0.00147437796257318
734.0, 0.007467765630541357
735.0, 0.00436613110958553
736.0, 0.0024593646130798077
737.0, 0.006158484028676053
738.0, 0.006764396614965167
739.0, 0.00354400603415085
740.0, 0.0014296098085744434
741.0, 0.00195283412806719
742.0, 0.002797679443575636
743.0, 0.005916935718041015
744.0, 0.007172905094250019
745.0, 0.005732640911101445
746.0, 0.00484264010711047
747.0, 0.006455321105413094
748.0, 0.008115588027440892
749.0, 0.00840615479230933
750.0, 0.009232615571243436
751.0, 0.012933280134555556
752.0, 0.01597175721524895
753.0, 0.017029071856137928
754.0, 0.02006826337570581
755.0, 0.023039042359190104
756.0, 0.024064872319639018
757.0, 0.029515930056510598
758.0, 0.03584285042451189
759.0, 0.041776391800799756
760.0, 0.04970558243791842
761.0, 0.05912313199673933
762.0, 0.06484515939802385
763.0, 0.07438230166439001
764.0, 0.08465767621327734
765.0, 0.0956440140103975
766.0, 0.10791343857358317
767.0, 0.12111039590440888
768.0, 0.13595165419049227
769.0, 0.14928683746096014
770.0, 0.16261827755701957
771.0, 0.17611849677602212
772.0, 0.18764958873066684
773.0, 0.19388167504585965
774.0, 0.192277538550508
775.0, 0.18341675302171184
776.0, 0.16810643954056506
777.0, 0.1516940022799519
778.0, 0.13266489368884954
779.0, 0.11457669711615684
780.0, 0.09952836181804103
781.0, 0.08223507660888979
782.0, 0.06561608547933505
783.0, 0.05741732168711139
784.0, 0.04974951898047533
785.0, 0.04092590998261028
786.0, 0.034469129804534863
787.0, 0.031128117899780827
788.0, 0.026610886952738017
789.0, 0.020216082222642866
790.0, 0.015869192208709942
791.0, 0.01489169215054932
792.0, 0.014528868793248393
793.0, 0.012064002477309727
794.0, 0.008894838912819182
795.0, 0.00925414236655295
796.0, 0.0071463759494107435
797.0, 0.00757362556171411
798.0, 0.007410917225638609
799.0, 0.005392718641288842
800.0, 0.003560417020089295
801.0, 0.003640263407007773
802.0, 0.004238287532961992
803.0, 0.0033276654077148402
804.0, 0.0029637798922675022
805.0, 0.0025545705470391405
806.0, 0.0037596688829944222
807.0, 0.005103194223687778
808.0, 0.004349391270675468
809.0, 0.005596105855612143
810.0, 0.00622587832337352
811.0, 0.004482198167693648
812.0, 0.0014703554378480725
813.0, 0.00019551916493695375
814.0, 0.0004889310582541794
815.0, 0.002064332454017248
816.0, 0.0024348329978420595
817.0, 0.0025779562871663963
818.0, 0.0003743130822742445
819.0, 0.0010782416827877007
820.0, 0.004837232304667885
821.0, 0.00511071898884188
822.0, 0.0018027103478665556
823.0, 0.0008925466632385759
824.0, 0.0003992226384224926
825.0, 0.0010384286039367002
826.0, 0.0021029022619158343
827.0, 0.0016575174015682043
828.0, 0.0029145085384434362
829.0, 0.006265591402084313
830.0, 0.0025744701599036512
831.0, 0.0006862410195301191
832.0, 0.00015412764572896647
833.0, 0.004162163223804312
834.0, 0.004468307767632687
835.0, 0.0012185071298675737
836.0, 0.0014575203425372042
837.0, 0.0048859800386111575
838.0, 0.005672353410825771
839.0, 0.0055356927710894805
840.0, 0.007755744645365431
841.0, 0.007164761615494694
842.0, 0.006986256541950724
843.0, 0.010325044652714645
844.0, 0.011727892256887256
845.0, 0.00851057079744037
846.0, 0.007781685577712661
847.0, 0.008237368528320842
848.0, 0.009478831836963996
849.0, 0.00926683458165345
850.0, 0.00739388952829288
851.0, 0.007495619022717167
852.0, 0.009366220234302117
853.0, 0.010265019160183436
854.0, 0.011013861618992423
855.0, 0.00860134463073368
856.0, 0.0072608809101328605
857.0, 0.008182130636778532
858.0, 0.008930848161318982
859.0, 0.010315620292024916
860.0, 0.008598236469667104
861.0, 0.0062858543977346295
862.0, 0.007567184598309634
863.0, 0.008557789532127883
864.0, 0.009035551727444243
865.0, 0.009247211843162208
866.0, 0.006386538882223762
867.0, 0.005705061196602676
868.0, 0.00839454176820725
869.0, 0.006697138327747554
870.0, 0.006476057502496877
871.0, 0.008274940457977503
872.0, 0.008315429099156555
873.0, 0.0058591115585955
874.0, 0.006011210501665563
875.0, 0.007121761312474287
876.0, 0.005888557359688178
877.0, 0.0031915041353426767
878.0, 0.0027382894265042604
879.0, 0.005178333849860403
880.0, 0.006551809126418038
881.0, 0.0037823056695003754
882.0, 0.00035429450413554777
883.0, 0.0013772619158139065
884.0, 0.000936732091798174
885.0, 0.000550512684627509
886.0, 0.0010559745835102465
887.0, 0.0006645437162377476
888.0, 0.0037465044591969373
889.0, 0.003243320641294125
890.0, 0.0007939355058666724
891.0, 0.0012536741126996022
892.0, 0.0010018886497122723
893.0, 0.0010616286741315262
894.0, 0.0009318973333277515
895.0, 0.0019412751990288254
896.0, 0.0016262198081086932
897.0, 0.006099625025919566
898.0, 0.005260350844446418
899.0, 0.005518979784376573
900.0, 0.005872996238297675
901.0, 0.004922755710966235
902.0, 0.0034792273931901394
903.0, 0.002636769117138294
904.0, 0.0022273359345284915
905.0, 0.0025601349165718847
906.0, 0.0028144293836173655
907.0, 0.0020274360259293117
908.0, 0.0017930894908145902
909.0, 0.002598830232284708
910.0, 0.006659791098460509
911.0, 0.008310427996534177
912.0, 0.009259973426815313
913.0, 0.010920435657669635
914.0, 0.01325034100964146
915.0, 0.018101554272895653
916.0, 0.025682818065094277
917.0, 0.032959066944933446
918.0, 0.03868641315708535
919.0, 0.043787317608138185
920.0, 0.04809235819014128
921.0, 0.055979773781161854
922.0, 0.0625040508262282
923.0, 0.0717782896426028
924.0, 0.0811742901296455
925.0, 0.08744953852544268
926.0, 0.09310916687833551
927.0, 0.10044242860844109
928.0, 0.10457351138184587
929.0, 0.11053335009167052
930.0, 0.11322764328169756
931.0, 0.1155139532764438
932.0, 0.11511966939600779
933.0, 0.11143199617623528
934.0, 0.10579139203044056
935.0, 0.10045830578973536
936.0, 0.0981040920873927
937.0, 0.0898334748756192
938.0, 0.08336325527435122
939.0, 0.07788608796568801
940.0, 0.07976484862059098
941.0, 0.08006347772089317
942.0, 0.07651141646416376
943.0, 0.07881247726315666
944.0, 0.08266171723033446
945.0, 0.08934461876973886
946.0, 0.09283255992867354
947.0, 0.10240585940341027
948.0, 0.11626574434661859
949.0, 0.1262749008070556
950.0, 0.1359389496164878
951.0, 0.15054611529965478
952.0, 0.16137832635536184
953.0, 0.17179296620583892
954.0, 0.18140166520353945
955.0, 0.18692542245379926
956.0, 0.18836540280234398
957.0, 0.1809372197371347
958.0, 0.1715639103489128
959.0, 0.16723312403981128
960.0, 0.15876613907454204
961.0, 0.14717853227613342
962.0, 0.14478185288657078
963.0, 0.13633815655156625
964.0, 0.1324528354241432
965.0, 0.13172571697819757
966.0, 0.13177555640215116
967.0, 0.13098277696903096
968.0, 0.1274825344393006
969.0, 0.1273844918461849
970.0, 0.13084890762779544
971.0, 0.12871182760880603
972.0, 0.13090165465728953
973.0, 0.13412691610770044
974.0, 0.13293989800873673
975.0, 0.13173684990880472
976.0, 0.13384986448317948
977.0, 0.13340484756977244
978.0, 0.1321301710962355
979.0, 0.13428827729734105
980.0, 0.13602436317647246
981.0, 0.14149209881901376
982.0, 0.14713943855826905
983.0, 0.1521530281891885
984.0, 0.15949432570039107
985.0, 0.17013510180227506
986.0, 0.18323687803376398
987.0, 0.19313453916156076
988.0, 0.19539517511418095
989.0, 0.18084989286088848
990.0, 0.16150903021045737
991.0, 0.14475120661224192
992.0, 0.13149942148378832
993.0, 0.12199022763006384
994.0, 0.11457243460047775
995.0, 0.1070146783518527
996.0, 0.10112336014820368
997.0, 0.09328864582068895
998.0, 0.09234865700976688
999.0, 0.09144371569135981
1000.0, 0.08609352884222254
1001.0, 0.08270089978027424
1002.0, 0.08195542189211326
1003.0, 0.0752184998315472
1004.0, 0.07283441134689728
1005.0, 0.07203673858315884
1006.0, 0.07007174902372044
1007.0, 0.06703194761062989
1008.0, 0.06519635262748846
1009.0, 0.06151782622520273
1010.0, 0.056363392923301565
1011.0, 0.05487903568046891
1012.0, 0.05259832237372939
1013.0, 0.04824146665068229
1014.0, 0.043726950646620834
1015.0, 0.03658130301126907
1016.0, 0.030923111834527263
1017.0, 0.02638294792566754
1018.0, 0.023447075274043546
1019.0, 0.021666936031754763
1020.0, 0.01823480295215684
1021.0, 0.014142926694068747
1022.0, 0.009000368771922992
1023.0, 0.01266544486291066
1024.0, 0.012233828991129125
1025.0, 0.012451278908991776
1026.0, 0.011559065383717294
1027.0, 0.010457326004715484
1028.0, 0.01295745740866888
1029.0, 0.017210316591760227
1030.0, 0.020381221271859616
1031.0, 0.02258043054417514
1032.0, 0.029554908132918598
1033.0, 0.03356696786255674
1034.0, 0.040918203338125736
1035.0, 0.049390988168469596
1036.0, 0.06214813076899749
1037.0, 0.07976674895196681
1038.0, 0.0996369218946005
1039.0, 0.12854977603240672
1040.0, 0.16000976670136124
1041.0, 0.1964583133404384
1042.0, 0.22836197674306066
1043.0, 0.25062858843869745
1044.0, 0.2565106121871993
1045.0, 0.2528519265859978
1046.0, 0.2549710130297854
1047.0, 0.27190294487877686
1048.0, 0.30828240205743285
1049.0, 0.36978529889957207
1050.0, 0.44472559418066143
1051.0, 0.532564327653514
1052.0, 0.6148195445905993
1053.0, 0.6794417465088868
1054.0, 0.7302650127796718
1055.0, 0.7635360558399745
1056.0, 0.7690243100242962
1057.0, 0.7504584421329099
1058.0, 0.7186922502321744
1059.0, 0.6659200088616386
1060.0, 0.5718412075964748
1061.0, 0.45976475177782544
1062.0, 0.342758932662123
1063.0, 0.23365052955219737
1064.0, 0.15061758540256004
1065.0, 0.09651238640904294
1066.0, 0.06142566156911887
1067.0, 0.039921083298196186
1068.0, 0.023594349991207797
1069.0, 0.017022646924703753
1070.0, 0.004787090186360511
1071.0, 0.0024639204769827485
1072.0, 0.0014343986058421398
1073.0, 0.0018421183022666356
1074.0, 0.004709444376052376
1075.0, 0.006354275846576921
1076.0, 0.0071972684037046085
1077.0, 0.006851642154036869
1078.0, 0.006738023740184031
1079.0, 0.004486771580585512
1080.0, 0.0035067104001348087
1081.0, 0.003773626668822903
1082.0, 0.003638215947753896
1083.0, 0.001707337386631343
1084.0, 0.001942541992773265
1085.0, 0.007664240083419563
1086.0, 0.01476176448565017
1087.0, 0.018502550369156264
1088.0, 0.016415432110576677
1089.0, 0.006050371446808765
1090.0, 0.0005313009477093867
1091.0, 0.0008745507310052676
1092.0, 0.0006442625248420584
1093.0, 0.0016954593734802707
1094.0, 0.0020498532102640127
1095.0, 0.0005697881272329407
1096.0, 0.0027644514231509702
1097.0, 0.004527969712267276
1098.0, 0.00469456705423674
1099.0, 0.0054435385425076425
1100.0, 0.0071347536683522604
1101.0, 0.005227233745179625
1102.0, 0.004574849949571554
1103.0, 0.003941641080644148
1104.0, 0.0022822143430832895
1105.0, 0.003171066884622406
1106.0, 0.005537767960094017
1107.0, 0.002669539172387618
1108.0, 0.0021511006948203475
1109.0, 0.005245278484544051
1110.0, 0.002542998978446332
1111.0, 0.0015723707957936185
1112.0, 0.002879688702471985
1113.0, 0.006319322272882415
1114.0, 0.005123041164631708
1115.0, 0.004033899992951451
1116.0, 0.004766509393576122
1117.0, 0.0006393691309363315
1118.0, 0.005066192161881033
1119.0, 0.00570249706073956
1120.0, 0.005344172273707223
1121.0, 0.004337657285700072
1122.0, 0.005143667857275031
1123.0, 0.00491725882078317
1124.0, 0.005517806890467751
1125.0, 0.004988730152365202
1126.0, 0.0027192704556953627
1127.0, 0.004184613880806361
1128.0, 0.007886105916077416
1129.0, 0.008265340630580872
1130.0, 0.01297891092237277
1131.0, 0.009677687298714634
1132.0, 0.011099614801415497
1133.0, 0.008316115506320379
1134.0, 0.009403797047768931
1135.0, 0.01114307530452093
1136.0, 0.009885757832276031
1137.0, 0.009699839445065214
1138.0, 0.008563933850193755
1139.0, 0.007967350266610421
1140.0, 0.007742982689628413
1141.0, 0.01321449502515006
1142.0, 0.008349413265727109
1143.0, 0.0063630360532032255
1144.0, 0.00900636899147864
1145.0, 0.008581235686268122
1146.0, 0.007633726733275248
1147.0, 0.00883782605582252
1148.0, 0.007457173916354584
1149.0, 0.004132465723923096
1150.0, 0.0038842608974246156
1151.0, 0.006574762213514075
1152.0, 0.005980065917729288
1153.0, 0.0032196310916983617
1154.0, 0.005401492348682896
1155.0, 0.004923669633815593
1156.0, 0.0037959627929119496
1157.0, 0.0061257316715649015
1158.0, 0.0085311548303693
1159.0, 0.007717506687104292
1160.0, 0.0077211492417963165
1161.0, 0.010027028480196236
1162.0, 0.00933973701441453
1163.0, 0.0058512101009165225
1164.0, 0.011502227521552992
1165.0, 0.013700676059185674
1166.0, 0.00927383635746317
1167.0, 0.006981944550069889
1168.0, 0.01004268017009916
1169.0, 0.011466875025565912
1170.0, 0.008358067255784649
1171.0, 0.00689297071097644
1172.0, 0.008342193126128043
1173.0, 0.010944212859077682
1174.0, 0.008309408620704553
1175.0, 0.007461164365988702
1176.0, 0.010433187728120201
1177.0, 0.00607363971769427
1178.0, 0.006496425124201897
1179.0, 0.007286409633960078
1180.0, 0.006589807878340636
1181.0, 0.005587593905990212
1182.0, 0.0038115457178370645
1183.0, 0.004380025304753698
1184.0, 0.005723174117169976
1185.0, 0.006337650342084737
1186.0, 0.0067399907968418785
1187.0, 0.008168300665718184
1188.0, 0.006258684991042253
1189.0, 0.0069647516460394744
1190.0, 0.008507648386157321
1191.0, 0.005952723095552963
1192.0, 0.0040052795798265345
1193.0, 0.007921914023056597
1194.0, 0.011831709048021336
1195.0, 0.008651675991042877
1196.0, 0.005731197417063101
1197.0, 0.004413475222837623
1198.0, 0.0030089552538785577
1199.0, 0.002536232651090454
1200.0, 0.0045522059829214605
1201.0, 0.005899318032029571
1202.0, 0.0055764939951028466
1203.0, 0.005205371895642612
1204.0, 0.0050566980145939355
1205.0, 0.005157481040147248
1206.0, 0.005992790137928366
1207.0, 0.006662751545582853
1208.0, 0.006503728856260493
1209.0, 0.006866404060518659
1210.0, 0.004781236779673796
1211.0, 0.004985900941529808
1212.0, 0.005831223062125611
1213.0, 0.005606713895128515
1214.0, 0.007026057228276565
1215.0, 0.010660141698076922
1216.0, 0.010095894573416673
1217.0, 0.006004421032813857
1218.0, 0.0047605286832083935
1219.0, 0.005885456535506494
1220.0, 0.005812221819733834
1221.0, 0.004657617116702498
1222.0, 0.0033550829777893834
1223.0, 0.005541864043914609
1224.0, 0.0031575666784762636
1225.0, 0.002177890865013874
1226.0, 0.0028289214708105666
1227.0, 0.0036932598314026914
1228.0, 0.004569250523004295
1229.0, 0.0056139760063800715
1230.0, 0.005926755637605414
1231.0, 0.005204399026800502
1232.0, 0.0043725036848753585
1233.0, 0.004686257363930452
1234.0, 0.007338756683321113
1235.0, 0.0037910399124377312
1236.0, 0.003806542157190176
1237.0, 0.0035547115161618384
1238.0, 0.002446995526945037
1239.0, 0.0019111258109386039
1240.0, 0.0013884203572937515
1241.0, 0.0016817117086704578
1242.0, 0.0005920443396087623
1243.0, 0.0010796053083097202
1244.0, 0.0009263826141439528
1245.0, 0.001969891415036156
1246.0, 5.893738404283328e-05
1247.0, 0.0026460587819871688
1248.0, 0.006013942659942373
1249.0, 0.0025945971558462956
1250.0, 0.006785660797387781
1251.0, 0.005517492287339826
1252.0, 0.004926884643632185
1253.0, 0.004452486995548168
1254.0, 0.005580273428099723
1255.0, 0.002895290104247886
1256.0, 0.0009148610439799969
1257.0, 0.004012421581078739
1258.0, 0.003594098041700783
1259.0, 0.0008904194461059481
1260.0, 0.00460851711419352
1261.0, 0.002459247294528049
1262.0, 0.0008292175165473334
1263.0, 0.0008116196508657303
1264.0, 0.002409240642569365
1265.0, 0.002765605637503022
1266.0, 0.002267145729184691
1267.0, 0.0008720887336924354
1268.0, 0.0005870067385040772
1269.0, 0.0009589183526512899
1270.0, 0.003185082558293729
1271.0, 0.002822083921974207
1272.0, 0.0017840992710495998
1273.0, 0.003629488748316816
1274.0, 0.001514376631017315
1275.0, 5.1192425570059e-05
1276.0, 0.0001641526719665946
1277.0, 0.00032062841939495506
1278, 0.0
1279, 0.0
1280, 0.0
1281, 0.0
1282, 0.0
1283, 0.0
1284, 0.0
1285, 0.0
1286, 0.0
1287, 0.0
1288, 0.0
1289, 0.0
1290, 0.0
1291, 0.0
1292, 0.0
1293, 0.0
1294, 0.0
1295, 0.0
1296, 0.0
1297, 0.0
1298, 0.0
1299, 0.0
1300, 0.0
1301, 0.0
1302, 0.0
1303, 0.0
1304, 0.0
1305, 0.0
1306, 0.0
1307, 0.0
1308, 0.0
1309, 0.0
1310, 0.0
1311, 0.0
1312, 0.0
1313, 0.0
1314, 0.0
1315, 0.0
1316, 0.0
1317, 0.0
1318, 0.0
1319, 0.0
1320, 0.0
1321, 0.0
1322, 0.0
1323, 0.0
1324, 0.0
1325, 0.0
1326, 0.0
1327, 0.0
1328, 0.0
1329, 0.0
1330, 0.0
1331, 0.0
1332, 0.0
1333, 0.0
1334, 0.0
1335, 0.0
1336, 0.0
1337, 0.0
1338, 0.0
1339, 0.0
1340, 0.0
1341, 0.0
1342, 0.0
1343, 0.0
1344, 0.0
1345, 0.0
1346, 0.0
1347, 0.0
1348, 0.0
1349, 0.0
1350, 0.0
1351, 0.0
1352, 0.0
1353, 0.0
1354, 0.0
1355, 0.0
1356, 0.0
1357, 0.0
1358, 0.0
1359, 0.0
1360, 0.0
1361, 0.0
1362, 0.0
1363, 0.0
1364, 0.0
1365, 0.0
1366, 0.0
1367, 0.0
1368, 0.0
1369, 0.0
1370, 0.0
1371, 0.0
1372, 0.0
1373, 0.0
1374, 0.0
1375, 0.0
1376, 0.0
1377, 0.0
1378, 0.0
1379, 0.0
1380, 0.0
1381, 0.0
1382, 0.0
1383, 0.0
1384, 0.0
1385, 0.0
1386, 0.0
1387, 0.0
1388, 0.0
1389, 0.0
1390, 0.0
1391, 0.0
1392, 0.0
1393, 0.0
1394, 0.0
1395, 0.0
1396, 0.0
1397, 0.0
1398, 0.0
1399, 0.0
1400, 0.0
1401, 0.0
1402, 0.0
1403, 0.0
1404, 0.0
1405, 0.0
1406, 0.0
1407, 0.0
1408, 0.0
1409, 0.0
1410, 0.0
1411, 0.0
1412, 0.0
1413, 0.0
1414, 0.0
1415, 0.0
1416, 0.0
1417, 0.0
1418, 0.0
1419, 0.0
1420, 0.0
1421, 0.0
1422, 0.0
1423, 0.0
1424, 0.0
1425, 0.0
1426, 0.0
1427, 0.0
1428, 0.0
1429, 0.0
1430, 0.0
1431, 0.0
1432, 0.0
1433, 0.0
1434, 0.0
1435, 0.0
1436, 0.0
1437, 0.0
1438, 0.0
1439, 0.0
1440, 0.0
1441, 0.0
1442, 0.0
1443, 0.0
1444, 0.0
1445, 0.0
1446, 0.0
1447, 0.0
1448, 0.0
1449, 0.0
1450, 0.0
1451, 0.0
1452, 0.0
1453, 0.0
1454, 0.0
1455, 0.0
1456, 0.0
1457, 0.0
1458, 0.0
1459, 0.0
1460, 0.0
1461, 0.0
1462, 0.0
1463, 0.0
1464, 0.0
1465, 0.0
1466, 0.0
1467, 0.0
1468, 0.0
1469, 0.0
1470, 0.0
1471, 0.0
1472, 0.0
1473, 0.0
1474, 0.0
1475, 0.0
1476, 0.0
1477, 0.0
1478, 0.0
1479, 0.0
1480, 0.0
1481, 0.0
1482, 0.0
1483, 0.0
1484, 0.0
1485, 0.0
1486, 0.0
1487, 0.0
1488, 0.0
1489, 0.0
1490, 0.0
1491, 0.0
1492, 0.0
1493, 0.0
1494, 0.0
1495, 0.0
1496, 0.0
1497, 0.0
1498, 0.0
1499, 0.0
1500, 0.0
1501, 0.0
1502, 0.0
1503, 0.0
1504, 0.0
1505, 0.0
1506, 0.0
1507, 0.0
1508, 0.0
1509, 0.0
1510, 0.0
1511, 0.0
1512, 0.0
1513, 0.0
1514, 0.0
1515, 0.0
1516, 0.0
1517, 0.0
1518, 0.0
1519, 0.0
1520, 0.0
1521, 0.0
1522, 0.0
1523, 0.0
1524, 0.0
1525, 0.0
1526, 0.0
1527, 0.0
1528, 0.0
1529, 0.0
1530, 0.0
1531, 0.0
1532, 0.0
1533, 0.0
1534, 0.0
1535, 0.0
1536, 0.0
1537, 0.0
1538, 0.0
1539, 0.0
1540, 0.0
1541, 0.0
1542, 0.0
1543, 0.0
1544, 0.0
1545, 0.0
1546, 0.0
1547, 0.0
1548, 0.0
1549, 0.0
1550, 0.0
1551, 0.0
1552, 0.0
1553, 0.0
1554, 0.0
1555, 0.0
1556, 0.0
1557, 0.0
1558, 0.0
1559, 0.0
1560, 0.0
1561, 0.0
1562, 0.0
1563, 0.0
1564, 0.0
1565, 0.0
1566, 0.0
1567, 0.0
1568, 0.0
1569, 0.0
1570, 0.0
1571, 0.0
1572, 0.0
1573, 0.0
1574, 0.0
1575, 0.0
1576, 0.0
1577, 0.0
1578, 0.0
1579, 0.0
1580, 0.0
1581, 0.0
1582, 0.0
1583, 0.0
1584, 0.0
1585, 0.0
1586, 0.0
1587, 0.0
1588, 0.0
1589, 0.0
1590, 0.0
1591, 0.0
1592, 0.0
1593, 0.0
1594, 0.0
1595, 0.0
1596, 0.0
1597, 0.0
1598, 0.0
1599, 0.0
