30, 0.0
31, 0.0
32, 0.0
33, 0.0
34, 0.0
35, 0.0
36, 0.0
37, 0.0
38, 0.0
39, 0.0
40, 0.0
41, 0.0
42, 0.0
43, 0.0
44, 0.0
45, 0.0
46, 0.0
47, 0.0
48, 0.0
49, 0.0
50, 0.0
51, 0.0
52, 0.0
53, 0.0
54, 0.0
55, 0.0
56, 0.0
57, 0.0
58, 0.0
59, 0.0
60, 0.0
61, 0.0
62, 0.0
63, 0.0
64, 0.0
65, 0.0
66, 0.0
67, 0.0
68, 0.0
69, 0.0
70, 0.0
71, 0.0
72, 0.0
73, 0.0
74, 0.0
75, 0.0
76, 0.0
77, 0.0
78, 0.0
79, 0.0
80, 0.0
81, 0.0
82, 0.0
83, 0.0
84, 0.0
85, 0.0
86, 0.0
87, 0.0
88, 0.0
89, 0.0
90, 0.0
91, 0.0
92, 0.0
93, 0.0
94, 0.0
95, 0.0
96, 0.0
97, 0.0
98, 0.0
99, 0.0
100, 0.0
101, 0.0
102, 0.0
103, 0.0
104, 0.0
105, 0.0
106, 0.0
107, 0.0
108, 0.0
109, 0.0
110, 0.0
111, 0.0
112, 0.0
113, 0.0
114, 0.0
115, 0.0
116, 0.0
117, 0.0
118, 0.0
119, 0.0
120, 0.0
121, 0.0
122, 0.0
123, 0.0
124, 0.0
125, 0.0
126, 0.0
127, 0.0
128, 0.0
129, 0.0
130, 0.0
131, 0.0
132, 0.0
133, 0.0
134, 0.0
135, 0.0
136, 0.0
137, 0.0
138, 0.0
139, 0.0
140, 0.0
141, 0.0
142, 0.0
143, 0.0
144, 0.0
145, 0.0
146, 0.0
147, 0.0
148, 0.0
149, 0.0
150, 0.0
151, 0.0
152, 0.0
153, 0.0
154, 0.0
155, 0.0
156, 0.0
157, 0.0
158, 0.0
159, 0.0
160, 0.0
161, 0.0
162, 0.0
163.0, 0.0015346369805645905
164.0, 0.005906196762403335
165.0, 0.0015493907953661994
166.0, 0.00872588343087485
167.0, 0.01513543519531196
168.0, 0.00942440120172746
169.0, 0.030982749990336515
170.0, 0.04077528125553759
171.0, 0.047517472421803125
172.0, 0.05809866600438144
173.0, 0.06907259755931351
174.0, 0.09821591802620595
175.0, 0.11007023302147602
176.0, 0.10848113283286699
177.0, 0.1216093912751074
178.0, 0.14783615194998936
179.0, 0.15813758013215715
180.0, 0.1715833069683055
181.0, 0.2065346862905845
182.0, 0.2360309537460705
183.0, 0.25180269568262975
184.0, 0.26350346693906085
185.0, 0.27392370758339285
186.0, 0.2741544416129587
187.0, 0.2839080835739802
188.0, 0.28025981772182784
189.0, 0.2769125026268339
190.0, 0.3001654285106981
191.0, 0.29766454194591646
192.0, 0.3097167088850773
193.0, 0.3167957264122421
194.0, 0.3074235934315357
195.0, 0.30820042788933005
196.0, 0.32291630215680506
197.0, 0.3168987624692802
198.0, 0.2846976554936821
199.0, 0.28204216773864704
200.0, 0.257614062344336
201.0, 0.20876594246782432
202.0, 0.15979559668524904
203.0, 0.13528870030268894
204.0, 0.10850210569164356
205.0, 0.09383170050539749
206.0, 0.08576421686921086
207.0, 0.07401950877305769
208.0, 0.05923274153662764
209.0, 0.0448672815791421
210.0, 0.03621311945288117
211.0, 0.032946138171175636
212.0, 0.027065920225287914
213.0, 0.009590810596376972
214.0, 0.001166187308202766
215.0, 0.0017660690052696685
216.0, 0.00646843962830968
217.0, 0.0018630949686263133
218.0, 0.004324431492709566
219.0, 0.0022581794979881194
220.0, 0.004767846445132649
221.0, 0.016284812237421415
222.0, 0.004832002042754223
223.0, 0.0018471986507252124
224.0, 0.00199769679248605
225.0, 0.0033466606934443918
226.0, 0.00645521801571884
227.0, 0.011307736295509239
228.0, 0.009640259441603337
229.0, 0.005183236730718347
230.0, 0.0016179897814144232
231.0, 0.0039601392904389
232.0, 0.0010226812200469825
233.0, 0.007057199318214794
234.0, 0.014016787934520263
235.0, 0.028302701416235906
236.0, 0.031601930033767704
237.0, 0.03084055282916996
238.0, 0.03647069367216733
239.0, 0.0351924713674047
240.0, 0.04536199500706851
241.0, 0.04831659415665778
242.0, 0.04960929239288714
243.0, 0.05485950999110216
244.0, 0.05662956441276521
245.0, 0.06589070403009836
246.0, 0.0664771419112727
247.0, 0.07722350621475248
248.0, 0.08083488045626559
249.0, 0.07730969172994168
250.0, 0.08489606050540345
251.0, 0.09101957163614185
252.0, 0.0954964897432685
253.0, 0.09400226441999585
254.0, 0.09733176413713415
255.0, 0.10277083348202293
256.0, 0.11114182684141462
257.0, 0.10920184959595712
258.0, 0.1216544981450264
259.0, 0.12530314001082632
260.0, 0.11206715437132561
261.0, 0.1172765255112901
262.0, 0.12059346814992196
263.0, 0.12708525892342895
264.0, 0.1348971276144152
265.0, 0.13921874348620372
266.0, 0.14084009298036823
267.0, 0.15295983467501884
268.0, 0.16037664645126593
269.0, 0.15925644559257296
270.0, 0.16601572206742765
271.0, 0.17351723822187007
272.0, 0.18330526992666668
273.0, 0.18809026232940237
274.0, 0.18510855874069138
275.0, 0.1994108629495377
276.0, 0.20933467864876582
277.0, 0.20962715146670305
278.0, 0.20912395644918252
279.0, 0.22302348615527348
280.0, 0.23672143176521523
281.0, 0.2350303770489303
282.0, 0.2375154160345451
283.0, 0.25460582483286015
284.0, 0.25077977442980476
285.0, 0.26085899763394527
286.0, 0.24831018143513678
287.0, 0.22458709016669637
288.0, 0.22854792034419547
289.0, 0.20659202158340428
290.0, 0.19475466933670685
291.0, 0.18641779585127416
292.0, 0.17241478775106442
293.0, 0.16196748374022316
294.0, 0.14150237925871686
295.0, 0.1267120008966121
296.0, 0.11865545309261973
297.0, 0.10815317745992442
298.0, 0.09456081100813976
299.0, 0.07213152625719298
300.0, 0.05686103308287333
301.0, 0.054581804647937236
302.0, 0.05415815472089142
303.0, 0.03868149750552556
304.0, 0.026936012316361304
305.0, 0.014250692672049668
306.0, 0.000907413043072809
307.0, 0.008527025493397681
308.0, 0.011257225324215515
309.0, 0.012975688586663472
310.0, 0.007439122161815332
311.0, 0.009428698228072858
312.0, 0.003884972372031571
313.0, 0.0009739810988905089
314.0, 0.0025764573886914235
315.0, 0.013558559280875031
316.0, 0.020196497886226787
317.0, 0.0248334944131534
318.0, 0.02571941287685078
319.0, 0.03305800477386617
320.0, 0.04835876631742818
321.0, 0.049262621079674655
322.0, 0.0638128567726431
323.0, 0.08097547110069991
324.0, 0.08884806988729484
325.0, 0.08571162177866776
326.0, 0.08166844483211749
327.0, 0.09020067576577845
328.0, 0.11429107553945764
329.0, 0.14407798684671205
330.0, 0.16117002370239122
331.0, 0.1670024664739009
332.0, 0.19830428688976484
333.0, 0.23668013592177722
334.0, 0.2549359587447704
335.0, 0.25013814262770523
336.0, 0.27136857749108795
337.0, 0.28623930529711594
338.0, 0.29487661596396086
339.0, 0.3162872488187626
340.0, 0.3325473106608667
341.0, 0.33924915055927957
342.0, 0.3502351383743207
343.0, 0.35925504381353146
344.0, 0.3475035897904908
345.0, 0.3424453673805993
346.0, 0.356438282955328
347.0, 0.3590449632655927
348.0, 0.3371014446517872
349.0, 0.3130114484579349
350.0, 0.27023975466439565
351.0, 0.21313840400857514
352.0, 0.1534160692121821
353.0, 0.10510896203933084
354.0, 0.08169023237640359
355.0, 0.07004118172096054
356.0, 0.04776305722722838
357.0, 0.029068643291321448
358.0, 0.028893327471284667
359.0, 0.014115745879381494
360.0, 0.006924579666744832
361.0, 0.009379221886798223
362.0, 0.00994773945423284
363.0, 0.002730943214581255
364.0, 0.004384663256346048
365.0, 0.00119680047417703
366.0, 0.004518681651556751
367.0, 0.004380777017277932
368.0, 0.007302403454547252
369.0, 0.002081921657624563
370.0, 0.0016133953858453733
371.0, 0.0010256391820855878
372.0, 0.005425996345621504
373.0, 0.0029835422773956616
374.0, 0.010104082221077644
375.0, 0.004112437482311499
376.0, 0.004202914510444558
377.0, 0.01208584289304734
378.0, 0.0037148198849664567
379.0, 0.010665871122743127
380.0, 0.01850397137312725
381.0, 0.015343198514507906
382.0, 0.0014841196330764054
383.0, 0.0082282676543258
384.0, 0.013669883814837407
385.0, 0.01764846227507946
386.0, 0.019438814459242962
387.0, 0.01727429331531672
388.0, 0.02102975481146363
389.0, 0.028122950261845688
390.0, 0.03250869605725857
391.0, 0.036557127555957844
392.0, 0.04569933436214991
393.0, 0.04966105883590555
394.0, 0.057990692692069294
395.0, 0.06644483549748317
396.0, 0.07535706339996316
397.0, 0.08975739114973569
398.0, 0.0998835086180793
399.0, 0.1059312359797361
400.0, 0.11444491673760084
401.0, 0.12075409541337931
402.0, 0.11151362640969004
403.0, 0.092530830674501
404.0, 0.08492004834076029
405.0, 0.07811643188253647
406.0, 0.07096825486082958
407.0, 0.07673749857158439
408.0, 0.07539147869661171
409.0, 0.06371360757059837
410.0, 0.05450015161375932
411.0, 0.049046079072854104
412.0, 0.035486905311778366
413.0, 0.03485871799168754
414.0, 0.028671206972219993
415.0, 0.022621016945222946
416.0, 0.021931322605499022
417.0, 0.019141409288330326
418.0, 0.009796543906383364
419.0, 0.0025559021112581087
420.0, 0.0028795868181147027
421.0, 0.017164896877355524
422.0, 0.030676717682431905
423.0, 0.02628210131285134
424.0, 0.02663536766520994
425.0, 0.02987911109670817
426.0, 0.032270796818619184
427.0, 0.03449272573720214
428.0, 0.015014348365305035
429.0, 0.014433665323906095
430.0, 0.014906261667202806
431.0, 0.0075033843676785145
432.0, 0.016812089492166494
433.0, 0.01520703771895905
434.0, 0.013372355161522152
435.0, 0.008747457566362712
436.0, 0.0071764174876932565
437.0, 0.017213939562665963
438.0, 0.015740941724684404
439.0, 0.015838235262982624
440.0, 0.01806935125627207
441.0, 0.017195014430922938
442.0, 0.009025345332684327
443.0, 0.005522013090562976
444.0, 0.002690082241824466
445.0, 0.0013396382063121921
446.0, 0.008414579796185043
447.0, 0.016339758349834303
448.0, 0.00521981864726036
449.0, 0.0023664976359730507
450.0, 0.007173818279500987
451.0, 0.006805659414468638
452.0, 0.012134522573358498
453.0, 0.00811347134785069
454.0, 0.004357230637331534
455.0, 0.0078998099680198
456.0, 0.021782510852517867
457.0, 0.018832195229521488
458.0, 0.011843717348283071
459.0, 0.018708648457907734
460.0, 0.03218120669629965
461.0, 0.035247436459648424
462.0, 0.028111816906017228
463.0, 0.044618843661752464
464.0, 0.047400913812662884
465.0, 0.0508575357879243
466.0, 0.0613896768987432
467.0, 0.07452886014065097
468.0, 0.08404714172874647
469.0, 0.10565225067229743
470.0, 0.12497967630766815
471.0, 0.1468506984970785
472.0, 0.17547569247114975
473.0, 0.1943385173227211
474.0, 0.21176723079764842
475.0, 0.2405024001203716
476.0, 0.269512139731093
477.0, 0.2989637845549109
478.0, 0.35129375117959943
479.0, 0.38560746288280934
480.0, 0.42333795414083086
481.0, 0.4612047158057858
482.0, 0.49081309725571676
483.0, 0.5174503689557362
484.0, 0.5766831136308428
485.0, 0.5581464126466791
486.0, 0.5232907503818786
487.0, 0.5042071103655245
488.0, 0.4733871110319826
489.0, 0.44601433230002613
490.0, 0.41520030572888195
491.0, 0.4112094028267974
492.0, 0.42509285098186933
493.0, 0.43722786036747
494.0, 0.4778343013403531
495.0, 0.5200258049826791
496.0, 0.5748261488206597
497.0, 0.6430762836992756
498.0, 0.7155704453493137
499.0, 0.7850966625074283
500.0, 0.8461626980738713
501.0, 0.9105610444399985
502.0, 0.9681317002997152
503.0, 0.9988994463910039
504.0, 0.9866764875218491
505.0, 0.9338971511208719
506.0, 0.8775428973258259
507.0, 0.8179397118736708
508.0, 0.7554224077664111
509.0, 0.6975260926898673
510.0, 0.6502417103777973
511.0, 0.6056850467730179
512.0, 0.5601519985764635
513.0, 0.5078486363090191
514.0, 0.45488069788453817
515.0, 0.42335630671553287
516.0, 0.38700978542229836
517.0, 0.3473967767862187
518.0, 0.3235674979501537
519.0, 0.30732411484535993
520.0, 0.2575474118136192
521.0, 0.23998451259981196
522.0, 0.2318285948185933
523.0, 0.22409435509661238
524.0, 0.2148187528162709
525.0, 0.20574396675443507
526.0, 0.201893593322426
527.0, 0.20228345619212673
528.0, 0.2031704802508974
529.0, 0.20423039837232032
530.0, 0.20396664780264076
531.0, 0.19877368645813095
532.0, 0.19377617309766967
533.0, 0.20971254134711795
534.0, 0.2092816251839109
535.0, 0.1938549549013318
536.0, 0.2115578506030886
537.0, 0.2133220355354974
538.0, 0.20468227919017076
539.0, 0.21156380214951212
540.0, 0.21884537239397361
541.0, 0.20818467503643923
542.0, 0.21746609157259136
543.0, 0.20409366514987595
544.0, 0.19874862916239477
545.0, 0.20355687878342124
546.0, 0.19971472039560711
547.0, 0.1756537357562582
548.0, 0.17108473183880038
549.0, 0.1593309007137319
550.0, 0.141675913461251
551.0, 0.12425678256573502
552.0, 0.10610125642859909
553.0, 0.07794100656955093
554.0, 0.0690630725294901
555.0, 0.08108371911515995
556.0, 0.09303661174963045
557.0, 0.09044304686477131
558.0, 0.08311768029944669
559.0, 0.0947328381469129
560.0, 0.0887155579967986
561.0, 0.08068685462756667
562.0, 0.08027282446564994
563.0, 0.08214459204338315
564.0, 0.0821046820612335
565.0, 0.08546693390552158
566.0, 0.06803824558789902
567.0, 0.05271387576587061
568.0, 0.054235546179437495
569.0, 0.04749220666727191
570.0, 0.04723707662673794
571.0, 0.0331107347207268
572.0, 0.030391246191074972
573.0, 0.029699828217668728
574.0, 0.011185763203196634
575.0, 0.012459961373858205
576.0, 0.01606153374276886
577.0, 0.00525715691670946
578.0, 0.006470344154385007
579.0, 0.000726984205771415
580.0, 0.002566720522469718
581.0, 0.01310005374683417
582.0, 0.019857888775476135
583.0, 0.013680563530589336
584.0, 0.0014419607690745778
585.0, 0.00330081492542452
586.0, 0.008092012482885581
587.0, 0.010303632808351563
588.0, 0.005452172630207952
589.0, 0.010047299069241834
590.0, 0.0033666487578460653
591.0, 0.008670234554757855
592.0, 0.005773049340808909
593.0, 0.008268049101638942
594.0, 0.0152991206123952
595.0, 0.016449652075193867
596.0, 0.014115209439248792
597.0, 0.021881291007295744
598.0, 0.02593322491276292
599.0, 0.008927706481880588
600.0, 0.0030494518220546916
601.0, 0.014456759971784396
602.0, 0.0263323295865357
603.0, 0.0177582283456728
604.0, 0.020405722320963875
605.0, 0.01333494615835443
606.0, 0.01317498425089439
607.0, 0.019535500293927744
608.0, 0.013553435482851109
609.0, 0.009653334824136295
610.0, 0.009658215121225111
611.0, 0.01347648717339497
612.0, 0.0066252962554832675
613.0, 0.0032329954545190984
614.0, 0.019016320294759678
615.0, 0.00900188348820482
616.0, 0.0094649785069401
617.0, 0.02460369917150013
618.0, 0.030611859080581498
619.0, 0.021149110893404367
620.0, 0.02362882603633349
621.0, 0.023403099336423448
622.0, 0.01961348337155921
623.0, 0.021606156613616458
624.0, 0.028766574716985176
625.0, 0.025370890088714647
626.0, 0.02501007660580572
627.0, 0.025455863387516747
628.0, 0.02803780756279682
629.0, 0.02678473746666571
630.0, 0.019398857145256142
631.0, 0.013581660939490937
632.0, 0.019602634916137753
633.0, 0.024197237791644503
634.0, 0.02039718598276651
635.0, 0.017016194393034357
636.0, 0.01710591383349442
637.0, 0.016687643337788886
638.0, 0.0149636556798197
639.0, 0.02334920813977965
640.0, 0.01939978810471774
641.0, 0.00825624320885137
642.0, 0.0010446258818368522
643.0, 0.004444626421655067
644.0, 0.016455901740890132
645.0, 0.006032474520533812
646.0, 0.008606096679706984
647.0, 0.011521189811225945
648.0, 0.0027220769188586584
649.0, 0.0067543281158564845
650.0, 0.007780695545000263
651.0, 0.001977851936599284
652.0, 0.0030364307868834934
653.0, 0.004506304371893866
654.0, 0.0040815506885275386
655.0, 0.0035498441213521596
656.0, 0.0027290624829561898
657.0, 0.006943104642356745
658.0, 0.005058661595278179
659.0, 0.0019116296456162464
660.0, 0.0012842450085405067
661.0, 0.00521775882691257
662.0, 0.01448657833093304
663.0, 0.008853276468073582
664.0, 0.0019244718972413282
665.0, 0.0060380612472571565
666.0, 0.017516277743381346
667.0, 0.02416370378032083
668.0, 0.019948870636432896
669.0, 0.014276502347607623
670.0, 0.02261805091778675
671.0, 0.03301004132314054
672.0, 0.03736600435005335
673.0, 0.044062871286534765
674.0, 0.03663027965849365
675.0, 0.03714708230399058
676.0, 0.037160919673060455
677.0, 0.04439816339112579
678.0, 0.05592927144493609
679.0, 0.04978599138094717
680.0, 0.05405231437767077
681.0, 0.06171334791193538
682.0, 0.0682373269416873
683.0, 0.06318485700311507
684.0, 0.05487042054943857
685.0, 0.061759022806371064
686.0, 0.050441168321752924
687.0, 0.0449013268699512
688.0, 0.04406371696859398
689.0, 0.04011021946984715
690.0, 0.03188472978317925
691.0, 0.025306516878385508
692.0, 0.02680626023101599
693.0, 0.03188289556453985
694.0, 0.02623945594467982
695.0, 0.02396065995593696
696.0, 0.025050142378008643
697.0, 0.018117923167464488
698.0, 0.027227960390426076
699.0, 0.01747535095929365
700.0, 0.014340348682101208
701.0, 0.015442716161286306
702.0, 0.018113700581344778
703.0, 0.024310699417152224
704.0, 0.025194189402392216
705.0, 0.0200690689687876
706.0, 0.022418710881172497
707.0, 0.013413095420993984
708.0, 0.005397722683715
709.0, 0.01467274548607251
710.0, 0.01925550880866981
711.0, 0.017855182222901878
712.0, 0.018632482630661043
713.0, 0.017734651056815424
714.0, 0.01847172653119914
715.0, 0.0223463647841344
716.0, 0.02094206811867537
717.0, 0.014128754093447365
718.0, 0.0032738321234553084
719.0, 0.00012903426760270696
720.0, 0.0004342434569418753
721.0, 0.004751000304954284
722.0, 0.014139842218327325
723.0, 0.008222001857615437
724.0, 0.0029417760175336864
725.0, 0.007438717147911033
726.0, 0.019322057495452342
727.0, 0.017431398479834024
728.0, 0.014338954962521073
729.0, 0.02576645794361819
730.0, 0.023002979604190364
731.0, 0.024916109436907297
732.0, 0.030942090285354943
733.0, 0.03789190480442595
734.0, 0.04230880019283532
735.0, 0.03938710966288653
736.0, 0.04264726234011658
737.0, 0.03710894069945857
738.0, 0.049437320784862494
739.0, 0.06338302712616364
740.0, 0.0665413043291197
741.0, 0.0685189800194343
742.0, 0.06719226088019525
743.0, 0.0836660257390001
744.0, 0.08647586571867913
745.0, 0.08073287589430127
746.0, 0.06882034495769274
747.0, 0.056443974453168996
748.0, 0.0636433030857805
749.0, 0.07093426012647233
750.0, 0.06105848588538905
751.0, 0.05334727248917325
752.0, 0.052548291013020595
753.0, 0.05447737914206471
754.0, 0.05528955368108827
755.0, 0.05677112187376766
756.0, 0.06879206098075341
757.0, 0.06476404008031172
758.0, 0.06351159307403847
759.0, 0.07279993598152687
760.0, 0.07961831355305857
761.0, 0.07576893942720152
762.0, 0.09042004725749025
763.0, 0.08961928263712858
764.0, 0.07876999917018848
765.0, 0.06883763700113556
766.0, 0.0683704486274453
767.0, 0.075788276616014
768.0, 0.0718475512466381
769.0, 0.06840726982605302
770.0, 0.060060784843416766
771.0, 0.06132234596106966
772.0, 0.06039237728114759
773.0, 0.05065321071640131
774.0, 0.050682081039329314
775.0, 0.05706056503118547
776.0, 0.044867113799657556
777.0, 0.039455813303320646
778.0, 0.04488942284820197
779.0, 0.04154272023443218
780.0, 0.029555355289529354
781.0, 0.03990289598518752
782.0, 0.03581068287937195
783.0, 0.02631799170474328
784.0, 0.02390844189396875
785.0, 0.02936838739454102
786.0, 0.02234052618834361
787.0, 0.019122384830032965
788.0, 0.015866979532263542
789.0, 0.021147752135866178
790.0, 0.019846196854095756
791.0, 0.022950370670713302
792.0, 0.020631192864885926
793.0, 0.013920520398833739
794.0, 0.018393262299384462
795.0, 0.019276540331178985
796.0, 0.013840800029826341
797.0, 0.011652619008205028
798.0, 0.011225923127116219
799.0, 0.009342140816456576
800.0, 0.011637555370900825
801.0, 0.008033232226975644
802.0, 0.0016044896352589914
803.0, 0.004703203155174938
804.0, 0.007464738674130653
805.0, 0.004956442340981889
806.0, 0.018068640929876728
807.0, 0.01701486105428128
808.0, 0.01622578975135783
809.0, 0.007402378504201729
810.0, 0.014067694390194115
811.0, 0.009054574831226937
812.0, 0.0006362862607177552
813.0, 0.00375533107501117
814.0, 0.013135127837807122
815.0, 0.013694297879482798
816.0, 0.00393796621283717
817.0, 0.0014074392924411153
818.0, 0.00562371746053949
819.0, 0.0029837853552504767
820.0, 0.005638019373488101
821.0, 0.010443322863719306
822.0, 0.009445682379434136
823.0, 0.005588625447255168
824.0, 0.013777944257605193
825.0, 0.02032558449558427
826.0, 0.017512919058086555
827.0, 0.009075249505873274
828.0, 0.0008048907010789082
829.0, 0.0035017607246565726
830.0, 0.015409262245202922
831.0, 0.01311942147013947
832.0, 0.002724116501675255
833.0, 0.002215948886803054
834.0, 0.0044517971747343125
835.0, 0.00464168743365389
836.0, 0.009204845595047901
837.0, 0.008168233835853475
838.0, 0.004259761601967541
839.0, 0.004528995169580279
840.0, 0.005637672920533117
841.0, 0.0010594555047133607
842.0, 9.485960285243126e-05
843.0, 0.008640128349734872
844.0, 0.00035906457279277255
845.0, 0.00956794629735078
846.0, 0.014431221892874838
847.0, 0.008687868337964954
848.0, 0.0028525899101489133
849.0, 0.005266195907158454
850.0, 0.011979750357150567
851.0, 0.00661637126150114
852.0, 0.0016980240648927032
853.0, 0.007758295960942728
854.0, 0.015011785751797268
855.0, 0.012112816441010204
856.0, 0.003889354315407987
857.0, 0.006375816805927269
858.0, 0.011384209607058465
859.0, 0.00474656423022814
860.0, 0.003417996023109742
861.0, 0.007464690427291817
862.0, 0.004895852283363155
863.0, 0.0038853535268957417
864.0, 0.013207172359947984
865.0, 0.008391947100053369
866.0, 0.0075806476850792635
867.0, 0.009386725746050524
868.0, 0.018501848775495273
869.0, 0.01767613471514796
870.0, 0.007277615575561741
871.0, 0.0043292915495873755
872.0, 0.005769421106848134
873.0, 0.005716049162293893
874.0, 0.013872886515453466
875.0, 0.004731341704515402
876.0, 0.0023883124629350714
877.0, 0.004210170492331861
878.0, 0.008230932351457174
879.0, 0.006776375599894661
880.0, 0.005281794391949953
881.0, 0.017949407521659584
882.0, 0.016149657605958583
883.0, 0.020926017680219188
884.0, 0.01801525555801604
885.0, 0.0018751088365521204
886.0, 0.000727552207235057
887.0, 0.0033752633403509517
888.0, 0.016441666442855055
889.0, 0.004598950042077193
890.0, 0.000582538830129409
891.0, 0.005511043376011371
892.0, 0.004394149648003888
893.0, 0.005064517182280153
894.0, 0.008146872430571035
895.0, 0.008757108486897465
896.0, 0.011907955650829572
897.0, 0.01100891399875735
898.0, 0.013852717672798309
899.0, 0.013904374779656777
900.0, 0.01362079753813102
901.0, 0.014732813821773272
902.0, 0.011707114028778725
903.0, 0.011967187932010773
904.0, 0.014935314730433661
905.0, 0.017071127497521692
906.0, 0.019578402967718015
907.0, 0.01933411154641362
908.0, 0.020427323892478314
909.0, 0.030219290722263467
910.0, 0.023893930334989006
911.0, 0.026974890945790662
912.0, 0.03230434002966476
913.0, 0.029000755259802447
914.0, 0.024037166495552854
915.0, 0.023538506771582226
916.0, 0.025652234708375472
917.0, 0.028927181639137805
918.0, 0.025936274256110687
919.0, 0.009806004351994812
920.0, 0.017077093845915665
921.0, 0.01425925894672438
922.0, 0.009156499171787394
923.0, 0.014542783988844668
924.0, 0.01578489829570989
925.0, 0.0006756067555713989
926.0, 0.012655729295392975
927.0, 0.02547844857663289
928.0, 0.018644542173137123
929.0, 0.006509065662652746
930.0, 0.0035081577677416736
931.0, 0.005623144534686358
932.0, 0.005843972984626918
933.0, 0.012545936422944073
934.0, 0.016496747274086346
935.0, 0.022493948994575436
936.0, 0.022199882079279844
937.0, 0.021302493863752277
938.0, 0.018859503195936916
939.0, 0.01832719241265288
940.0, 0.02669978688213471
941.0, 0.03379951280528053
942.0, 0.026197955784029076
943.0, 0.02482756818672892
944.0, 0.026994813392317497
945.0, 0.02478159796068463
946.0, 0.02527934524567909
947.0, 0.026226781203066214
948.0, 0.018057503579848203
949.0, 0.013622500462307096
950.0, 0.015121967451179531
951.0, 0.009759241981978707
952.0, 0.01608829926140884
953.0, 0.023826669498634833
954.0, 0.02511351493951489
955.0, 0.02311652607234744
956.0, 0.023747991557756552
957.0, 0.026369367713221667
958.0, 0.018642667983079564
959.0, 0.02269795777894244
960.0, 0.02026056912602753
961.0, 0.020007204256485122
962.0, 0.019855967195511977
963.0, 0.023312846952614607
964.0, 0.029786230891450872
965.0, 0.04233722456841026
966.0, 0.04233707392986299
967.0, 0.048681002809158484
968.0, 0.058201393625843395
969.0, 0.07087219456885505
970.0, 0.07667674719502204
971.0, 0.07293019003560693
972.0, 0.07363823082802189
973.0, 0.0834210327636213
974.0, 0.08156631832566039
975.0, 0.09543975373454164
976.0, 0.10192434245678463
977.0, 0.10076524541626236
978.0, 0.09592997065089097
979.0, 0.0961949102082028
980.0, 0.09439204534864185
981.0, 0.0762586600894459
982.0, 0.07263719362751693
983.0, 0.08203999488302093
984.0, 0.08751413199795167
985.0, 0.0708034746993228
986.0, 0.062342809817454506
987.0, 0.059291293168874375
988.0, 0.05701826147122499
989.0, 0.05874596372379084
990.0, 0.04708949636868223
991.0, 0.045459344934663914
992.0, 0.042322912096209434
993.0, 0.05201456330079873
994.0, 0.04681290593874245
995.0, 0.02758562613357904
996.0, 0.022817484063907236
997.0, 0.035028277334715884
998.0, 0.04031156418410959
999.0, 0.045901429953501466
1000.0, 0.0400475153310748
1001.0, 0.04063149089550812
1002.0, 0.030157549490288267
1003.0, 0.020551390114947114
1004.0, 0.025658413484032496
1005.0, 0.031409272813887314
1006.0, 0.02775358348608043
1007.0, 0.029143324981226355
1008.0, 0.022959018363053075
1009.0, 0.019518045065147267
1010.0, 0.0341529922555167
1011.0, 0.02629543800419588
1012.0, 0.017128442142052256
1013.0, 0.024930115945583
1014.0, 0.030413242617817436
1015.0, 0.02537077316051077
1016.0, 0.02737611886462395
1017.0, 0.00955445336434812
1018.0, 0.03095782427185827
1019.0, 0.022322154158454517
1020.0, 0.007523048351736138
1021.0, 0.0006730397226365073
1022.0, 0.0036741314726851403
1023.0, 0.0040795983370133905
1024.0, 0.01646704451580877
1025.0, 0.014215592616503894
1026.0, 0.01497270595213821
1027.0, 0.005512245304810752
1028.0, 0.01736647630205531
1029.0, 0.023832082430838293
1030.0, 0.025340508380238467
1031.0, 0.017573896582921474
1032.0, 0.008620775708375236
1033.0, 0.012696943459982561
1034.0, 0.0015127679012832754
1035.0, 0.005643369098931246
1036.0, 0.008959623080553808
1037.0, 0.0030646192452784297
1038.0, 0.004918350451499019
1039.0, 0.005009918919862915
1040.0, 0.012260175042958081
1041.0, 0.003237346180772361
1042.0, 0.004965762788788844
1043.0, 0.004462432827291483
1044.0, 0.001102506037007192
1045.0, 0.0013618879211693248
1046.0, 0.0011486352594628532
1047.0, 0.0025594209648538238
1048.0, 0.0007089224725091345
1049.0, 0.001675726893205824
1050.0, 0.003999567695537156
1051.0, 0.0008153250205189594
1052.0, 0.004876273971211077
1053.0, 0.005075717968619461
1054.0, 0.005481240438440197
1055.0, 0.005029786293805786
1056.0, 0.004389566384436152
1057.0, 0.014080549059823469
1058.0, 0.011830707464892141
1059.0, 0.003835465039224382
1060.0, 0.0060300918961414835
1061.0, 0.005312208906729227
1062.0, 0.007208505794429103
1063.0, 0.009305970903293678
1064.0, 0.009859694023475921
1065.0, 0.004111215611479731
1066.0, 0.005345240830125315
1067.0, 0.010508313394395024
1068.0, 0.016089488716627055
1069.0, 0.017362462481025628
1070.0, 0.011371629305330238
1071.0, 0.01173903803802407
1072.0, 0.015724024793537576
1073.0, 0.020350275819682514
1074.0, 0.016642339758765768
1075.0, 0.020960687626431593
1076.0, 0.02164292250455079
1077.0, 0.014388002162805792
1078.0, 0.008433623661278655
1079.0, 0.008254746565648688
1080.0, 0.01355700891022769
1081.0, 0.023048462710735282
1082.0, 0.00648295349224518
1083.0, 0.016158364540967533
1084.0, 0.011588842046378507
1085.0, 0.010376923569482784
1086.0, 0.011228772100742456
1087.0, 0.010287893441745759
1088.0, 0.011785879683026176
1089.0, 0.015587042001821462
1090.0, 0.012698298607816814
1091.0, 0.0008906599921150078
1092.0, 0.009810037100598381
1093.0, 0.010934460629912792
1094.0, 0.002139542381631865
1095.0, 0.013246895270367948
1096.0, 0.015436712423949636
1097.0, 0.0017276797619082875
1098.0, 0.0028973480643380116
1099.0, 0.015195106373134766
1100.0, 0.01349771352049456
1101.0, 0.01742364102476194
1102.0, 0.005829370481487595
1103.0, 0.008354714923087399
1104.0, 0.013673344708713302
1105.0, 0.017825597659926792
1106.0, 0.008456563894429829
1107.0, 0.0050596133913611415
1108.0, 0.008075860822644127
1109.0, 0.0019141458314533768
1110.0, 0.006066072517609369
1111.0, 0.020154720963193058
1112.0, 0.00475714547681244
1113.0, 0.023949691926877664
1114.0, 0.02362317615921136
1115.0, 0.017382484526694816
1116.0, 0.025848473421636896
1117.0, 0.02169174923458701
1118.0, 0.015945756711658966
1119.0, 0.017835974779058246
1120.0, 0.002049192451396588
1121.0, 0.00354175267944152
1122.0, 0.012284492133974456
1123.0, 0.007333738726852949
1124.0, 0.012815817096558203
1125.0, 0.012063765380864889
1126.0, 0.006890611789142816
1127.0, 0.008352608440010522
1128.0, 0.011606910915092063
1129.0, 0.01554204845261299
1130.0, 0.02329358283958445
1131.0, 0.018329461557506754
1132.0, 0.018677586858322548
1133.0, 0.015460994446277592
1134.0, 0.008074030951455822
1135.0, 0.008726397254985356
1136.0, 0.010838873366489662
1137.0, 0.019254842617832127
1138.0, 0.01388236302914488
1139.0, 0.010331630115102967
1140.0, 0.018129069856021505
1141.0, 0.006244494191705336
1142.0, 0.011973612595728114
1143.0, 0.016693641052809627
1144.0, 0.017152566256252347
1145.0, 0.0031987655736089634
1146.0, 0.008155276786122372
1147.0, 0.0022891894102551372
1148.0, 0.0005711487980041702
1149.0, 0.003176274019480193
1150.0, 0.003529176493222038
1151.0, 0.0038014890577597023
1152.0, 0.00706922207495993
1153.0, 0.005487783809961632
1154.0, 0.0003098645919028543
1155.0, 0.0062934039410259225
1156.0, 0.006935272843396
1157.0, 0.007372696580046521
1158.0, 0.01124636318388424
1159.0, 0.006920720009862239
1160.0, 0.006953436435788315
1161.0, 0.011115900322441741
1162.0, 0.00531568243029285
1163.0, 0.001596399700109732
1164.0, 0.000520645654028708
1165.0, 0.008069932901671946
1166.0, 0.00548848880864373
1167.0, 0.0038791512367452033
1168.0, 0.017651929937987317
1169.0, 0.019248682593473874
1170.0, 0.012634162403819949
1171.0, 0.008259075877753224
1172.0, 0.009587484956789193
1173.0, 0.018391260263704898
1174.0, 0.02040291789392769
1175.0, 0.01749058952143645
1176.0, 0.0021057355811643953
1177.0, 0.017986233195970026
1178.0, 0.012928595674016347
1179.0, 0.012491683181343416
1180.0, 0.01697406446560592
1181.0, 0.014248609486366939
1182.0, 0.010831651155552213
1183.0, 0.016857135363754945
1184.0, 0.023002697815017018
1185.0, 0.017660703692562237
1186.0, 0.014858694466018897
1187.0, 0.02016024866431204
1188.0, 0.01172955460353696
1189.0, 0.02251105118832735
1190.0, 0.01087196823632455
1191.0, 0.013317408401547139
1192.0, 0.008734085815960132
1193.0, 0.006272283018227124
1194.0, 0.00915145890291924
1195.0, 0.007473123668165514
1196.0, 0.01006858308760964
1197.0, 0.01698329057934533
1198.0, 0.003133102382639167
1199.0, 0.006532823095344255
1200.0, 0.017050002184362836
1201.0, 0.02039152011994663
1202.0, 0.007820776845938359
1203.0, 0.0063776710763305215
1204.0, 0.004439156220079231
1205.0, 0.008840166791651071
1206.0, 0.007937370308207367
1207.0, 0.009619847464872013
1208.0, 0.01661596453607978
1209.0, 0.009922944811224289
1210.0, 0.002616597736654522
1211.0, 0.003217006485547369
1212.0, 0.013650816385558309
1213.0, 0.013123533529164278
1214.0, 0.0024236006613683045
1215.0, 0.006403044080582688
1216.0, 0.013461439794388332
1217.0, 0.015816325068362412
1218.0, 0.010833127515036059
1219.0, 0.0139841056658756
1220.0, 0.026788413857529416
1221.0, 0.034295736330455046
1222.0, 0.035504478963766115
1223.0, 0.03174526325286322
1224.0, 0.02286885486309094
1225.0, 0.027524364521576486
1226.0, 0.01001917463434037
1227.0, 0.00729624986033503
1228.0, 0.020533136521316032
1229.0, 0.019472761844606227
1230.0, 0.01592865548132605
1231.0, 0.012846239048915669
1232.0, 0.012595633215787421
1233.0, 0.005762858406429091
1234.0, 0.0028251698420579665
1235.0, 0.026938913014423502
1236.0, 0.019652625712001864
1237.0, 0.015116619322988075
1238.0, 0.017801748249890854
1239.0, 0.011316341540827134
1240.0, 0.004542165385763045
1241.0, 0.025258374643258436
1242.0, 0.01789959822723831
1243.0, 0.018961918670134838
1244.0, 0.019807046570174305
1245.0, 0.007148109828803857
1246.0, 0.0012792092971369148
1247.0, 0.005106129129184985
1248.0, 0.02248669675210098
1249.0, 0.01190646467904655
1250.0, 0.011361200541728709
1251.0, 0.016769043068758687
1252.0, 0.01721761759653525
1253.0, 0.014185688444771413
1254.0, 0.015471270733381776
1255.0, 0.018439106826326424
1256.0, 0.0186225776298119
1257.0, 0.016010095111951804
1258.0, 0.008450303571905533
1259.0, 0.001492950417029186
1260.0, 0.0012015664103346476
1261.0, 0.017656470214856383
1262.0, 0.021485646976252177
1263.0, 0.027294926466646885
1264.0, 0.021221858899527685
1265.0, 0.0256941619427699
1266.0, 0.02699991429348821
1267.0, 0.0229288671455908
1268.0, 0.01266825445614934
1269.0, 0.008268009188700156
1270.0, 0.01929971024439073
1271.0, 0.015061559131709142
1272.0, 0.008636955139328894
1273.0, 0.016063655255104038
1274.0, 0.017881939831460712
1275.0, 0.004136141864258547
1276.0, 0.0027507646721474676
1277.0, 0.0007333651213669787
1278.0, 0.007782870040739902
1279.0, 0.015935716287650333
1280.0, 0.008285239178888
1281.0, 0.0007194963003725785
1282, 0.0
1283, 0.0
1284, 0.0
1285, 0.0
1286, 0.0
1287, 0.0
1288, 0.0
1289, 0.0
1290, 0.0
1291, 0.0
1292, 0.0
1293, 0.0
1294, 0.0
1295, 0.0
1296, 0.0
1297, 0.0
1298, 0.0
1299, 0.0
1300, 0.0
1301, 0.0
1302, 0.0
1303, 0.0
1304, 0.0
1305, 0.0
1306, 0.0
1307, 0.0
1308, 0.0
1309, 0.0
1310, 0.0
1311, 0.0
1312, 0.0
1313, 0.0
1314, 0.0
1315, 0.0
1316, 0.0
1317, 0.0
1318, 0.0
1319, 0.0
1320, 0.0
1321, 0.0
1322, 0.0
1323, 0.0
1324, 0.0
1325, 0.0
1326, 0.0
1327, 0.0
1328, 0.0
1329, 0.0
1330, 0.0
1331, 0.0
1332, 0.0
1333, 0.0
1334, 0.0
1335, 0.0
1336, 0.0
1337, 0.0
1338, 0.0
1339, 0.0
1340, 0.0
1341, 0.0
1342, 0.0
1343, 0.0
1344, 0.0
1345, 0.0
1346, 0.0
1347, 0.0
1348, 0.0
1349, 0.0
1350, 0.0
1351, 0.0
1352, 0.0
1353, 0.0
1354, 0.0
1355, 0.0
1356, 0.0
1357, 0.0
1358, 0.0
1359, 0.0
1360, 0.0
1361, 0.0
1362, 0.0
1363, 0.0
1364, 0.0
1365, 0.0
1366, 0.0
1367, 0.0
1368, 0.0
1369, 0.0
1370, 0.0
1371, 0.0
1372, 0.0
1373, 0.0
1374, 0.0
1375, 0.0
1376, 0.0
1377, 0.0
1378, 0.0
1379, 0.0
1380, 0.0
1381, 0.0
1382, 0.0
1383, 0.0
1384, 0.0
1385, 0.0
1386, 0.0
1387, 0.0
1388, 0.0
1389, 0.0
1390, 0.0
1391, 0.0
1392, 0.0
1393, 0.0
1394, 0.0
1395, 0.0
1396, 0.0
1397, 0.0
1398, 0.0
1399, 0.0
1400, 0.0
1401, 0.0
1402, 0.0
1403, 0.0
1404, 0.0
1405, 0.0
1406, 0.0
1407, 0.0
1408, 0.0
1409, 0.0
1410, 0.0
1411, 0.0
1412, 0.0
1413, 0.0
1414, 0.0
1415, 0.0
1416, 0.0
1417, 0.0
1418, 0.0
1419, 0.0
1420, 0.0
1421, 0.0
1422, 0.0
1423, 0.0
1424, 0.0
1425, 0.0
1426, 0.0
1427, 0.0
1428, 0.0
1429, 0.0
1430, 0.0
1431, 0.0
1432, 0.0
1433, 0.0
1434, 0.0
1435, 0.0
1436, 0.0
1437, 0.0
1438, 0.0
1439, 0.0
1440, 0.0
1441, 0.0
1442, 0.0
1443, 0.0
1444, 0.0
1445, 0.0
1446, 0.0
1447, 0.0
1448, 0.0
1449, 0.0
1450, 0.0
1451, 0.0
1452, 0.0
1453, 0.0
1454, 0.0
1455, 0.0
1456, 0.0
1457, 0.0
1458, 0.0
1459, 0.0
1460, 0.0
1461, 0.0
1462, 0.0
1463, 0.0
1464, 0.0
1465, 0.0
1466, 0.0
1467, 0.0
1468, 0.0
1469, 0.0
1470, 0.0
1471, 0.0
1472, 0.0
1473, 0.0
1474, 0.0
1475, 0.0
1476, 0.0
1477, 0.0
1478, 0.0
1479, 0.0
1480, 0.0
1481, 0.0
1482, 0.0
1483, 0.0
1484, 0.0
1485, 0.0
1486, 0.0
1487, 0.0
1488, 0.0
1489, 0.0
1490, 0.0
1491, 0.0
1492, 0.0
1493, 0.0
1494, 0.0
1495, 0.0
1496, 0.0
1497, 0.0
1498, 0.0
1499, 0.0
1500, 0.0
1501, 0.0
1502, 0.0
1503, 0.0
1504, 0.0
1505, 0.0
1506, 0.0
1507, 0.0
1508, 0.0
1509, 0.0
1510, 0.0
1511, 0.0
1512, 0.0
1513, 0.0
1514, 0.0
1515, 0.0
1516, 0.0
1517, 0.0
1518, 0.0
1519, 0.0
1520, 0.0
1521, 0.0
1522, 0.0
1523, 0.0
1524, 0.0
1525, 0.0
1526, 0.0
1527, 0.0
1528, 0.0
1529, 0.0
1530, 0.0
1531, 0.0
1532, 0.0
1533, 0.0
1534, 0.0
1535, 0.0
1536, 0.0
1537, 0.0
1538, 0.0
1539, 0.0
1540, 0.0
1541, 0.0
1542, 0.0
1543, 0.0
1544, 0.0
1545, 0.0
1546, 0.0
1547, 0.0
1548, 0.0
1549, 0.0
1550, 0.0
1551, 0.0
1552, 0.0
1553, 0.0
1554, 0.0
1555, 0.0
1556, 0.0
1557, 0.0
1558, 0.0
1559, 0.0
1560, 0.0
1561, 0.0
1562, 0.0
1563, 0.0
1564, 0.0
1565, 0.0
1566, 0.0
1567, 0.0
1568, 0.0
1569, 0.0
1570, 0.0
1571, 0.0
1572, 0.0
1573, 0.0
1574, 0.0
1575, 0.0
1576, 0.0
1577, 0.0
1578, 0.0
1579, 0.0
1580, 0.0
1581, 0.0
1582, 0.0
1583, 0.0
1584, 0.0
1585, 0.0
1586, 0.0
1587, 0.0
1588, 0.0
1589, 0.0
1590, 0.0
1591, 0.0
1592, 0.0
1593, 0.0
1594, 0.0
1595, 0.0
1596, 0.0
1597, 0.0
1598, 0.0
1599, 0.0
