30, 0.0
31, 0.0
32, 0.0
33, 0.0
34, 0.0
35, 0.0
36, 0.0
37, 0.0
38, 0.0
39, 0.0
40, 0.0
41, 0.0
42, 0.0
43, 0.0
44, 0.0
45, 0.0
46, 0.0
47, 0.0
48, 0.0
49, 0.0
50, 0.0
51, 0.0
52, 0.0
53, 0.0
54, 0.0
55, 0.0
56, 0.0
57, 0.0
58, 0.0
59, 0.0
60, 0.0
61, 0.0
62, 0.0
63, 0.0
64, 0.0
65, 0.0
66, 0.0
67, 0.0
68, 0.0
69, 0.0
70, 0.0
71, 0.0
72, 0.0
73, 0.0
74, 0.0
75, 0.0
76, 0.0
77, 0.0
78, 0.0
79, 0.0
80, 0.0
81, 0.0
82, 0.0
83, 0.0
84, 0.0
85, 0.0
86, 0.0
87, 0.0
88, 0.0
89, 0.0
90, 0.0
91, 0.0
92, 0.0
93, 0.0
94, 0.0
95, 0.0
96, 0.0
97, 0.0
98, 0.0
99, 0.0
100, 0.0
101, 0.0
102, 0.0
103, 0.0
104, 0.0
105, 0.0
106, 0.0
107, 0.0
108, 0.0
109, 0.0
110, 0.0
111, 0.0
112, 0.0
113, 0.0
114, 0.0
115, 0.0
116, 0.0
117, 0.0
118, 0.0
119, 0.0
120, 0.0
121, 0.0
122, 0.0
123, 0.0
124, 0.0
125, 0.0
126, 0.0
127, 0.0
128, 0.0
129, 0.0
130, 0.0
131, 0.0
132, 0.0
133, 0.0
134, 0.0
135, 0.0
136, 0.0
137, 0.0
138, 0.0
139, 0.0
140, 0.0
141, 0.0
142, 0.0
143, 0.0
144, 0.0
145, 0.0
146, 0.0
147, 0.0
148, 0.0
149, 0.0
150, 0.0
151, 0.0
152, 0.0
153, 0.0
154, 0.0
155, 0.0
156, 0.0
157, 0.0
158, 0.0
159, 0.0
160, 0.0
161, 0.0
162, 0.0
163, 0.0
164, 0.0
165, 0.0
166, 0.0
167, 0.0
168, 0.0
169, 0.0
170, 0.0
171, 0.0
172, 0.0
173, 0.0
174, 0.0
175, 0.0
176, 0.0
177, 0.0
178, 0.0
179, 0.0
180, 0.0
181, 0.0
182, 0.0
183, 0.0
184, 0.0
185, 0.0
186, 0.0
187, 0.0
188, 0.0
189, 0.0
190, 0.0
191, 0.0
192, 0.0
193, 0.0
194, 0.0
195, 0.0
196, 0.0
197, 0.0
198, 0.0
199, 0.0
200, 0.0
201, 0.0
202, 0.0
203, 0.0
204, 0.0
205, 0.0
206, 0.0
207, 0.0
208, 0.0
209.0, 0.00034087129394878645
210.0, 0.0001861547421501356
211.0, 4.3183750297952535e-05
212.0, 0.0020988304800922614
213.0, 0.002495270046594741
214.0, 0.002035829882579777
215.0, 0.002108533065005407
216.0, 0.0014294040501264347
217.0, 0.0022699347035482265
218.0, 0.001988898698900878
219.0, 0.0010814873213127673
220.0, 0.002517126906880009
221.0, 0.0005188023741276332
222.0, 0.0010467209327739812
223.0, 0.0021645617907928745
224.0, 0.0014816870991701712
225.0, 0.0040517680191187976
226.0, 0.0024733664747670385
227.0, 0.0025580020721500023
228.0, 0.005408287748098649
229.0, 0.006468388568293125
230.0, 0.006632649217631548
231.0, 0.007403146276683822
232.0, 0.008983604491979371
233.0, 0.010507331692999288
234.0, 0.010149517111626647
235.0, 0.015056039555007035
236.0, 0.01706563537350914
237.0, 0.014188401277058341
238.0, 0.01176844287051067
239.0, 0.010748676865075196
240.0, 0.009108599722037302
241.0, 0.007497069021841041
242.0, 0.007057045807587143
243.0, 0.0077257738105965985
244.0, 0.00746049609963436
245.0, 0.007575735560527589
246.0, 0.008189435667574662
247.0, 0.008231814687423174
248.0, 0.010233954876889223
249.0, 0.010425924132392326
250.0, 0.010318326182343603
251.0, 0.011484536801550534
252.0, 0.01207996919425772
253.0, 0.014582637305505993
254.0, 0.014899573530710395
255.0, 0.013948888426034204
256.0, 0.01553845090951475
257.0, 0.01655763074177796
258.0, 0.017030366984116044
259.0, 0.017179023823523574
260.0, 0.01720224155203356
261.0, 0.01728168228643092
262.0, 0.017764008955536568
263.0, 0.017045262442798872
264.0, 0.01620267745620556
265.0, 0.017062612776839417
266.0, 0.01708164268022799
267.0, 0.016813020465443886
268.0, 0.017010745536069953
269.0, 0.01745244548237315
270.0, 0.017067833647884743
271.0, 0.017523353208283795
272.0, 0.017607646175504768
273.0, 0.01660847005559548
274.0, 0.015089612355575606
275.0, 0.014736160893360797
276.0, 0.012364780919707925
277.0, 0.010679604483807201
278.0, 0.010314447196778027
279.0, 0.009589255800858563
280.0, 0.009810425677253754
281.0, 0.007688330001893672
282.0, 0.005809040468555794
283.0, 0.005404794852986567
284.0, 0.002927743363627124
285.0, 0.0005619840864121285
286.0, 0.0004430045266840168
287.0, 0.0014978806131445085
288.0, 0.0016518315115424567
289.0, 0.0011599759683527868
290.0, 0.00048174419341596926
291.0, 0.0015772638791659015
292.0, 0.001592599378487227
293.0, 0.000387290467712059
294.0, 0.00016566556609140876
295.0, 6.393629113721387e-05
296.0, 8.7822427539478e-05
297.0, 0.0002825849845437455
298.0, 0.00018970225211848089
299.0, 0.000909327178584197
300.0, 0.003283696492248457
301.0, 0.0052982348752969866
302.0, 0.005591744172203709
303.0, 0.004421663893381366
304.0, 0.004285303293742381
305.0, 0.005423424355241396
306.0, 0.0069388575444639215
307.0, 0.007876280480014446
308.0, 0.008989591661414385
309.0, 0.010430545993892723
310.0, 0.011357788531118658
311.0, 0.011768188155298334
312.0, 0.012943495984632016
313.0, 0.015415579554323764
314.0, 0.018079176421335698
315.0, 0.019893984538630102
316.0, 0.020837260190502957
317.0, 0.02221621639489929
318.0, 0.02424954269950317
319.0, 0.026475263741754355
320.0, 0.02930241849925148
321.0, 0.03293190267546808
322.0, 0.03409018831428221
323.0, 0.03623845162389858
324.0, 0.03786755645386665
325.0, 0.03945782017615942
326.0, 0.043637085802767386
327.0, 0.04726895551570227
328.0, 0.049464421664033045
329.0, 0.052215164990359594
330.0, 0.056167771201667584
331.0, 0.05937266935976919
332.0, 0.060588206798384295
333.0, 0.06345984830959352
334.0, 0.06786188820586102
335.0, 0.0720776972249168
336.0, 0.07396096354720662
337.0, 0.07730733398449066
338.0, 0.08195505178470473
339.0, 0.08717081928088369
340.0, 0.09191880909100492
341.0, 0.09470628242489189
342.0, 0.09751973196350003
343.0, 0.10210275211443043
344.0, 0.10656084169860133
345.0, 0.10785900715488156
346.0, 0.11350440098081716
347.0, 0.12142559617182108
348.0, 0.12646432644392924
349.0, 0.12949287893743497
350.0, 0.13781178344628417
351.0, 0.14800057480122034
352.0, 0.15548075084645263
353.0, 0.16302261166664045
354.0, 0.17191447681855568
355.0, 0.17811865155572573
356.0, 0.18127451443500767
357.0, 0.17656843220418791
358.0, 0.16909816953309162
359.0, 0.16182193811564546
360.0, 0.14806339949075237
361.0, 0.13350071462164384
362.0, 0.1150366201393551
363.0, 0.09697041093198373
364.0, 0.08460294811958785
365.0, 0.0755880900369562
366.0, 0.06729860235090367
367.0, 0.05812073925852726
368.0, 0.051306173574143334
369.0, 0.048915847694208904
370.0, 0.04305818501133221
371.0, 0.03879084252651174
372.0, 0.035294490285939464
373.0, 0.032501473285250534
374.0, 0.031018478847784477
375.0, 0.026702665073975423
376.0, 0.02602853043457589
377.0, 0.025051751314824434
378.0, 0.022049263035761053
379.0, 0.02000087460567075
380.0, 0.02184257386500404
381.0, 0.021595574279653987
382.0, 0.021637896600023226
383.0, 0.021552610002092364
384.0, 0.018447886572067713
385.0, 0.019699701323047596
386.0, 0.01694757266545388
387.0, 0.012575392094264864
388.0, 0.009652757253721844
389.0, 0.008037429539055787
390.0, 0.007384237841480298
391.0, 0.005282828063582553
392.0, 0.00403302332994692
393.0, 0.0034162457289149658
394.0, 0.0008821737398679555
395.0, 0.0012187179231621312
396.0, 0.0007822988017547312
397.0, 0.00043110525248911527
398.0, 0.00025059871577718003
399.0, 0.0014913758771765027
400.0, 0.0004580875908766158
401.0, 0.0005037383601508612
402.0, 0.001154104753393167
403.0, 9.69745122383338e-05
404.0, 0.0002407191703364219
405.0, 0.0006752262221488733
406.0, 0.0017814463689238829
407.0, 0.0021302507182849742
408.0, 0.0015681502643739645
409.0, 0.0009404746489858181
410.0, 0.0013555907115617807
411.0, 0.0004908435122209795
412.0, 0.0007321494926217742
413.0, 0.0013635383157332792
414.0, 0.0017340136833475254
415.0, 0.0014155138282507097
416.0, 0.0008517430219061279
417.0, 0.0015421027453963387
418.0, 0.0021551481101894873
419.0, 0.00033446336616338364
420.0, 0.003499519854533914
421.0, 0.004297126439702694
422.0, 0.005509457719088619
423.0, 0.007630824698101393
424.0, 0.00717482492383556
425.0, 0.007813795102183522
426.0, 0.008113552888650807
427.0, 0.010212563457912988
428.0, 0.01286962877737296
429.0, 0.01261063084512706
430.0, 0.014926929729446991
431.0, 0.016042185631320503
432.0, 0.01482361587152837
433.0, 0.012958446252090465
434.0, 0.013568744176420967
435.0, 0.016403954930808234
436.0, 0.016388939438497837
437.0, 0.017507913412120397
438.0, 0.01976054250003588
439.0, 0.021617474176948207
440.0, 0.0288160649753488
441.0, 0.03349124139653206
442.0, 0.03756045285469563
443.0, 0.044124101065055134
444.0, 0.05297729911468256
445.0, 0.058688217531483025
446.0, 0.06459610678137453
447.0, 0.06761421871272412
448.0, 0.06788405231851355
449.0, 0.06771328184003261
450.0, 0.06872942219768778
451.0, 0.07030681467192655
452.0, 0.07520478029988834
453.0, 0.08105466457868381
454.0, 0.08601478293396579
455.0, 0.09268675416710664
456.0, 0.0969874299467221
457.0, 0.10468840020034992
458.0, 0.11079104259996375
459.0, 0.11243088318263217
460.0, 0.11349882695141551
461.0, 0.10880734150166661
462.0, 0.10035418773922233
463.0, 0.0865074183596229
464.0, 0.0704679148092958
465.0, 0.058033353913228974
466.0, 0.04788567763219422
467.0, 0.04246734166165717
468.0, 0.03792082461575146
469.0, 0.03450845744854603
470.0, 0.034217789917914465
471.0, 0.033118845850239394
472.0, 0.03431666173265883
473.0, 0.03655161379336953
474.0, 0.03837049907584475
475.0, 0.039909162730930946
476.0, 0.04261015055552698
477.0, 0.04363028154565213
478.0, 0.04026851087164991
479.0, 0.03521047599455013
480.0, 0.03155800409483792
481.0, 0.02958532803839267
482.0, 0.02287598699443616
483.0, 0.01824997895051852
484.0, 0.015710744377932916
485.0, 0.013361268768170167
486.0, 0.010862629871884607
487.0, 0.010583957814339183
488.0, 0.006960850222891479
489.0, 0.004334999554070443
490.0, 0.003324883688808925
491.0, 0.0027357733214201396
492.0, 0.006414144204792325
493.0, 0.005399510290376375
494.0, 0.0045837033076656306
495.0, 0.003955456166108672
496.0, 0.0025693494800445513
497.0, 0.003232868624114247
498.0, 0.002256509029930455
499.0, 0.003252910257395876
500.0, 0.003765066839705365
501.0, 0.002305005549432292
502.0, 0.0009917800373951857
503.0, 0.001381968716024618
504.0, 0.0008575351295562488
505.0, 0.0015517567716132642
506.0, 0.0024983030483917944
507.0, 0.0017624623716802398
508.0, 0.0014148847671169279
509.0, 0.0011367499301722342
510.0, 0.0001216346842992375
511.0, 0.00027884573285100406
512.0, 0.002201266308824364
513.0, 0.0020637120059742438
514.0, 0.000990136455271794
515.0, 0.0024143458238328106
516.0, 0.002883507877404329
517.0, 0.0014640884094512592
518.0, 0.0006810198259511123
519.0, 0.0007739358688141954
520.0, 0.0006164352569802729
521.0, 0.001570904615773903
522.0, 0.0022813914346454067
523.0, 0.0008574267963009877
524.0, 0.002571322905984915
525.0, 0.001028369024152369
526.0, 0.0011338884813769812
527.0, 0.002350533517655738
528.0, 0.0030931486617392684
529.0, 0.0031924104552736527
530.0, 0.0014934240672367966
531.0, 0.0014086346891335631
532.0, 0.001669483955682702
533.0, 0.0006711114447784034
534.0, 0.0009339226006043874
535.0, 0.000381362732454212
536.0, 0.0015522101120544634
537.0, 0.0019419513571865424
538.0, 0.0006201472036631069
539.0, 0.0013781924372170816
540.0, 0.0006829986659914729
541.0, 0.0005204817323679095
542.0, 0.0003803637110311716
543.0, 0.0006802605046561099
544.0, 0.001827796795605307
545.0, 0.005673519475202481
546.0, 0.0005753743088047949
547.0, 0.0008081936740542964
548.0, 0.0001830299079256264
549.0, 0.0010512701097709193
550.0, 0.0040719919174295955
551.0, 0.009961690353244495
552.0, 0.009261616204646458
553.0, 0.004977359757120741
554.0, 0.0021592150126291845
555.0, 0.0021381232062391495
556.0, 0.002530120160311622
557.0, 0.0015837465393774325
558.0, 0.0036123632258769495
559.0, 0.0021462259230459824
560.0, 0.0009359404402716914
561.0, 0.002386485562327268
562.0, 0.0038446979224229672
563.0, 0.0030159071462043884
564.0, 0.004821510704860084
565.0, 0.005652305280707636
566.0, 0.0063780386937451455
567.0, 0.007767737635235288
568.0, 0.0071669056366265
569.0, 0.007450499024211349
570.0, 0.010136211266306658
571.0, 0.012481353111128463
572.0, 0.013851966522015214
573.0, 0.01575193139386646
574.0, 0.018572113289096248
575.0, 0.022601159441591745
576.0, 0.027356008032871856
577.0, 0.03542724109599448
578.0, 0.04556147798543205
579.0, 0.05356758336162121
580.0, 0.06450246693925378
581.0, 0.07793984358340701
582.0, 0.09095968697379754
583.0, 0.10289592402983831
584.0, 0.11618271225392117
585.0, 0.13362274103385333
586.0, 0.15287847693459175
587.0, 0.1761166090876354
588.0, 0.20242584099204106
589.0, 0.23329025297030445
590.0, 0.26839553814084655
591.0, 0.2974423630734207
592.0, 0.32732834684618345
593.0, 0.34794553176686543
594.0, 0.3535240520335024
595.0, 0.3389429147677896
596.0, 0.3015329457826768
597.0, 0.25068940392846534
598.0, 0.20084962675004442
599.0, 0.15676706335903262
600.0, 0.12228259314949139
601.0, 0.09550639859591711
602.0, 0.07118563137693087
603.0, 0.05570765721709119
604.0, 0.04498583579200932
605.0, 0.03765079485812255
606.0, 0.03203041914506431
607.0, 0.02710026465830871
608.0, 0.024175517754214063
609.0, 0.022557410118490325
610.0, 0.022614666207782543
611.0, 0.023266295553791658
612.0, 0.024529929706003453
613.0, 0.02713448767180069
614.0, 0.031156221663782603
615.0, 0.03175547763440105
616.0, 0.03536779307795389
617.0, 0.040875158545844226
618.0, 0.0470389949119245
619.0, 0.05455779496298285
620.0, 0.06348028697731392
621.0, 0.07180986481934393
622.0, 0.08255999796621787
623.0, 0.09547400308750228
624.0, 0.10890652578774139
625.0, 0.12230968325208669
626.0, 0.13652019758243572
627.0, 0.15150760452390882
628.0, 0.1614619086409702
629.0, 0.16860426026753958
630.0, 0.17114024615211346
631.0, 0.16279090168992186
632.0, 0.14861259123785536
633.0, 0.12897909875975
634.0, 0.11087899856642507
635.0, 0.09645075356563465
636.0, 0.08322267067521759
637.0, 0.06865509743879254
638.0, 0.055523384169136304
639.0, 0.04366405693301675
640.0, 0.035978209787857346
641.0, 0.029914173668414486
642.0, 0.023221780092071837
643.0, 0.017306189974855515
644.0, 0.01280840342275945
645.0, 0.011074778664218625
646.0, 0.010047463362826078
647.0, 0.00804948962066634
648.0, 0.006298275231921546
649.0, 0.006687367914992513
650.0, 0.0031703766519461593
651.0, 0.0014475411383270494
652.0, 0.0017879644935913758
653.0, 0.0016516118673713198
654.0, 0.0016521404591783222
655.0, 0.0035819270936060196
656.0, 0.0015548389631320904
657.0, 0.00013969479733348683
658.0, 0.0018347389081707758
659.0, 0.0016506959990899783
660.0, 0.0012501084577793006
661.0, 0.0010999075475475217
662.0, 0.0005561379147510971
663.0, 0.0027751419550982085
664.0, 0.0022541082831957267
665.0, 0.0002980713917171548
666.0, 1.5445765684657176e-05
667.0, 0.00012725968143863302
668.0, 0.0003234316403178473
669.0, 0.0021095704933815984
670.0, 0.0012927610916193704
671.0, 0.0018343166834798707
672.0, 0.002944415681195454
673.0, 0.0008013686118236372
674.0, 0.003265563388917301
675.0, 0.0039221821261993485
676.0, 0.004871141485729742
677.0, 0.0034677313391322916
678.0, 0.0022785855504416728
679.0, 0.004841173953967092
680.0, 0.004049370360297718
681.0, 0.004731155433994771
682.0, 0.007532070808600586
683.0, 0.0076768881247646775
684.0, 0.006328591726579485
685.0, 0.006665944798248603
686.0, 0.005870956200392171
687.0, 0.005112391824967196
688.0, 0.00809363934050818
689.0, 0.00785262530992391
690.0, 0.006610815020928763
691.0, 0.00806525034597998
692.0, 0.007467855227814786
693.0, 0.006719643799810188
694.0, 0.00703101490913809
695.0, 0.0054389557389544815
696.0, 0.00469170354410431
697.0, 0.005995609873967494
698.0, 0.006031175288235103
699.0, 0.0049954189721579416
700.0, 0.004026242159231106
701.0, 0.00409575676556567
702.0, 0.0038832245196387684
703.0, 0.00289679700674248
704.0, 0.001875204077862348
705.0, 0.0005862317972006844
706.0, 0.002604092549341518
707.0, 0.0012908766446618671
708.0, 0.0012753829717793925
709.0, 0.001939041714625181
710.0, 0.00013506454345020157
711.0, 0.0004235586448578806
712.0, 0.0008501985931457067
713.0, 0.002370132476444009
714.0, 0.002416273417060321
715.0, 0.0005532783569891211
716.0, 0.0005552221676207139
717.0, 0.0006226642291725352
718.0, 0.0020586140213366736
719.0, 0.001712073994646619
720.0, 0.0004788962998499852
721.0, 0.001067854240209576
722.0, 0.0016262368628953063
723.0, 6.55328013405983e-05
724.0, 0.00021484672731882906
725.0, 0.00032823408819510373
726.0, 0.0033555014609858054
727.0, 0.00234417393015324
728.0, 0.0015848840410657167
729.0, 0.0046494634673327605
730.0, 0.0027148834028302643
731.0, 0.003306076550141554
732.0, 0.002316730674466592
733.0, 0.002536606072140947
734.0, 0.00337609696492377
735.0, 0.003243421971804014
736.0, 0.00282513648519469
737.0, 0.004164746283121183
738.0, 0.0034176263497182257
739.0, 0.00411598333839431
740.0, 0.0042110342073773685
741.0, 0.0029237733592985073
742.0, 0.0016857708217195943
743.0, 0.0014599724702048812
744.0, 0.0009641507549630384
745.0, 0.0019588111901894813
746.0, 0.0019707671953049575
747.0, 0.000917711430053179
748.0, 0.001296496727701208
749.0, 0.003314781750058575
750.0, 0.0029786818187812363
751.0, 0.004065376878929173
752.0, 0.00563779913204758
753.0, 0.005850884831413525
754.0, 0.004648446660580576
755.0, 0.004069622405810082
756.0, 0.005146078561596767
757.0, 0.003548740736634326
758.0, 0.004021725862576343
759.0, 0.004415134921401397
760.0, 0.00396063797483816
761.0, 0.0027853476521907824
762.0, 0.001531973583842566
763.0, 0.0017492029113828395
764.0, 0.0025018332097492633
765.0, 0.0035515528509892686
766.0, 0.0018168342128727403
767.0, 0.00117745719375251
768.0, 0.002507899083185098
769.0, 0.0019019365222413115
770.0, 0.002826745113686756
771.0, 0.00453962820884544
772.0, 0.0022163371653748576
773.0, 0.0020000095834945522
774.0, 0.0031422724984073013
775.0, 0.0027882483826203327
776.0, 0.0029565692642433334
777.0, 0.0011347890569352902
778.0, 0.000670341726751171
779.0, 0.002271995093490798
780.0, 0.0023986008544099463
781.0, 0.001220965899842167
782.0, 0.0011973147067241955
783.0, 0.0023460910460229483
784.0, 0.00198318095539622
785.0, 0.0011123710282458555
786.0, 0.0018791248477521589
787.0, 0.0014262253965842632
788.0, 0.00037090444775567815
789.0, 0.00026789186108917395
790.0, 0.0014121713461054397
791.0, 0.0009170176629039038
792.0, 0.0029453996036416
793.0, 0.0023024547909775103
794.0, 0.0009681358630803261
795.0, 0.0016664870485291572
796.0, 0.002175174825343627
797.0, 0.00031403313602017567
798.0, 0.0004207015521965577
799.0, 0.004713815433360038
800.0, 0.005103270206097136
801.0, 0.002018356477012252
802.0, 0.00029064902302492385
803.0, 0.0005939736885867376
804.0, 0.0002007758633358859
805.0, 0.0007476995768314693
806.0, 0.00161258055172795
807.0, 0.0024179767180782913
808.0, 0.002629043616853998
809.0, 0.0043269701561730696
810.0, 0.004944844967716283
811.0, 0.0027459851206458386
812.0, 0.0018506975735561367
813.0, 0.0020199756131914614
814.0, 0.004110465761114613
815.0, 0.005758104483104873
816.0, 0.005686705023275392
817.0, 0.004936183908095358
818.0, 0.0017509456758279859
819.0, 0.0029813349719061107
820.0, 0.004798592602793563
821.0, 0.006070096580429937
822.0, 0.004246921075314804
823.0, 0.0015638831316485593
824.0, 0.003118197560148968
825.0, 0.0021164330663531986
826.0, 0.0019528068506160469
827.0, 0.0013866632297652828
828.0, 0.0016790268186846462
829.0, 0.0017395140001108618
830.0, 0.0011347849702615846
831.0, 0.0011820739628342438
832.0, 0.0016264540367355495
833.0, 0.0017050316785911846
834.0, 0.0016067480426200053
835.0, 0.00319810827779247
836.0, 0.0028207189346028255
837.0, 0.00039986461954918105
838.0, 0.00018684109516873995
839.0, 0.0013819192541849518
840.0, 0.002264266066109981
841.0, 0.0014683168949110729
842.0, 0.0017021629891509314
843.0, 0.0025840810922592218
844.0, 0.0038411065973460597
845.0, 0.005477880209166058
846.0, 0.0047596041817427525
847.0, 0.002287337205466066
848.0, 0.0023004070408821683
849.0, 0.0016169165436906165
850.0, 0.002221464705069253
851.0, 0.003578702797392409
852.0, 0.0035151753637950077
853.0, 0.0024479096443470465
854.0, 0.0011890767062479428
855.0, 0.0037409049996091842
856.0, 0.004124690863870097
857.0, 0.0030578085647508155
858.0, 0.00286396670590599
859.0, 0.002960237509085538
860.0, 0.0027088745801336902
861.0, 0.005737349392947283
862.0, 0.004456703845283596
863.0, 0.004829497702942532
864.0, 0.0039259614334545756
865.0, 0.0031245687015292742
866.0, 0.002817343501600689
867.0, 0.0010837618705009779
868.0, 0.0002942940770073146
869.0, 0.002068287200149244
870.0, 0.002396244971335594
871.0, 0.0033855556156067884
872.0, 0.0029308006148043757
873.0, 0.0018938246439966018
874.0, 0.0027322934369683523
875.0, 0.004088986855437918
876.0, 0.0018601488987493634
877.0, 0.0007294028296913876
878.0, 0.003913841182927466
879.0, 0.003028916110810321
880.0, 0.0011658332615237011
881.0, 0.0008455638733695571
882.0, 8.867457201859995e-05
883.0, 0.0009937547198402088
884.0, 0.0036790189627898735
885.0, 0.0012803130774767606
886.0, 0.0007657438060734299
887.0, 0.005617260842037301
888.0, 0.007106177688489749
889.0, 0.003197303248263518
890.0, 0.002964309249533158
891.0, 0.003836169070601387
892.0, 0.008512888555527183
893.0, 0.0034918078292972203
894.0, 0.0020787785718726385
895.0, 0.0027249128500897945
896.0, 0.0023121965490869438
897.0, 0.002060584611658278
898.0, 8.923976734014744e-05
899.0, 0.0006043068685484435
900.0, 0.0014153340723495908
901.0, 0.0005851958381806366
902.0, 0.0009188245379578297
903.0, 0.0012992905564193603
904.0, 0.001551190333408618
905.0, 0.0027360941820006343
906.0, 0.00412920605189262
907.0, 0.005214675419560118
908.0, 0.00336203798815286
909.0, 0.0038123067038240734
910.0, 0.005112217437558638
911.0, 0.005055550203342894
912.0, 0.003925449225999752
913.0, 0.003374011068635356
914.0, 0.004314402569449004
915.0, 0.003717042298504335
916.0, 0.004605891567760522
917.0, 0.0036982231581030862
918.0, 0.0018892344110967424
919.0, 0.002360156979386106
920.0, 0.0049737618794493
921.0, 0.005893817447400634
922.0, 0.00446896820682624
923.0, 0.005380959141421295
924.0, 0.0037207553511846587
925.0, 0.0037196204864601676
926.0, 0.0038562622146099752
927.0, 0.0024704744497696042
928.0, 0.0015549480652275118
929.0, 0.0030409059225124453
930.0, 0.002873245261707187
931.0, 0.001956518013099902
932.0, 0.0025105449184150853
933.0, 0.0016127868107560792
934.0, 0.000549087496664043
935.0, 0.00015369618792314828
936.0, 0.00039542296405609405
937.0, 0.001723009428446186
938.0, 0.0012490045177789265
939.0, 0.003798157878391644
940.0, 0.0013866157206668592
941.0, 0.002035318592549681
942.0, 0.003472686941874167
943.0, 0.003286619927850749
944.0, 0.0028277283172933195
945.0, 0.0034924469305435226
946.0, 0.003670244955957456
947.0, 0.00045246716159754764
948.0, 0.0010532733037420321
949.0, 0.0014795064920117595
950.0, 0.00022766010811488139
951.0, 0.0011188345324086235
952.0, 0.002335062411438328
953.0, 0.0007740239490382465
954.0, 0.002906616106115259
955.0, 0.002068967488848717
956.0, 0.00018425791310386632
957.0, 0.00028492380098118207
958.0, 0.001570398763599921
959.0, 0.0008087594752198992
960.0, 0.001265535990712971
961.0, 0.0011092215499186916
962.0, 0.00046213916382306837
963.0, 0.002455251587623049
964.0, 0.0014924283335212179
965.0, 0.00197490933094057
966.0, 0.0036586525539347133
967.0, 0.0033338519360747785
968.0, 0.003121567450441596
969.0, 0.003959635989143779
970.0, 0.000995119758661303
971.0, 0.0005342771523680723
972.0, 0.0016711220494811843
973.0, 0.0012350997910777384
974.0, 0.001708512814802917
975.0, 0.001719433251280973
976.0, 0.0012933625625800539
977.0, 0.0010296754663318539
978.0, 0.0011431820227642269
979.0, 0.0013398064220785499
980.0, 0.0013063383311276715
981.0, 0.0019446039762027532
982.0, 0.001249661433106525
983.0, 0.0018531414261381276
984.0, 0.001707062754647912
985.0, 0.0011392059532796225
986.0, 0.0019030808918788537
987.0, 0.0023505661438894504
988.0, 0.0035363147019091077
989.0, 0.0018069270144508431
990.0, 0.004371883739429786
991.0, 0.005232253667162397
992.0, 0.005524130296637767
993.0, 0.005963184435820979
994.0, 0.007963859681639662
995.0, 0.012737954486327831
996.0, 0.014085838336539687
997.0, 0.009920627440419287
998.0, 0.00917670528755049
999.0, 0.009997341652653037
1000.0, 0.012000695274966335
1001.0, 0.014909630945081692
1002.0, 0.01521798842210075
1003.0, 0.01524328372300704
1004.0, 0.02060457148971285
1005.0, 0.02625352169399375
1006.0, 0.02966569343072829
1007.0, 0.03563285957245482
1008.0, 0.04763824094879685
1009.0, 0.06282888559615832
1010.0, 0.08452823206670541
1011.0, 0.11304323490485106
1012.0, 0.14298732111288054
1013.0, 0.17095128519978664
1014.0, 0.20028339719769545
1015.0, 0.23229455753519287
1016.0, 0.2741512277084858
1017.0, 0.3311424350336308
1018.0, 0.41800561605707776
1019.0, 0.5358713975707823
1020.0, 0.6795999275441871
1021.0, 0.8406170113909559
1022.0, 0.9773829878498831
1023.0, 0.9736219687468786
1024.0, 0.7797322985419022
1025.0, 0.5288788174921041
1026.0, 0.3347879819666364
1027.0, 0.21253497279694133
1028.0, 0.14358789236408837
1029.0, 0.10161681477685479
1030.0, 0.07421881544443003
1031.0, 0.05846789146755084
1032.0, 0.04740272960805617
1033.0, 0.04108086536232015
1034.0, 0.03221144805658002
1035.0, 0.03280739972208431
1036.0, 0.034077736092335234
1037.0, 0.02999191991947357
1038.0, 0.021990990116759417
1039.0, 0.016823348303780232
1040.0, 0.016910416111983257
1041.0, 0.015889334855797504
1042.0, 0.014915835482901279
1043.0, 0.010345013848091464
1044.0, 0.009944818961241109
1045.0, 0.008939569920658176
1046.0, 0.009579676900676511
1047.0, 0.010771959757663577
1048.0, 0.00908570363523665
1049.0, 0.007990891353914138
1050.0, 0.012367080621752388
1051.0, 0.010746360640114807
1052.0, 0.008721845641088518
1053.0, 0.00921697447151282
1054.0, 0.009410216269342428
1055.0, 0.008629117496484266
1056.0, 0.0078928191316539
1057.0, 0.009611969402774858
1058.0, 0.011040349260273129
1059.0, 0.007841539884783913
1060.0, 0.007123400201577041
1061.0, 0.005565672879831775
1062.0, 0.0053381931192708724
1063.0, 0.006454529384285753
1064.0, 0.005471789327182191
1065.0, 0.006912299330715875
1066.0, 0.0055619385624941856
1067.0, 0.0013507117332882577
1068.0, 0.0024361391895763983
1069.0, 0.003297112534138534
1070.0, 0.0017417229319672213
1071.0, 0.004675979035900776
1072.0, 0.001682323643785603
1073.0, 0.0008433177687512437
1074.0, 0.00010193240149762741
1075.0, 0.0012472659841795155
1076.0, 0.003393287321109981
1077.0, 0.0037729717743478866
1078.0, 0.004082235831250447
1079.0, 0.002814109047423932
1080.0, 0.0032119012316032926
1081.0, 0.006520955572745027
1082.0, 0.003138094402967707
1083.0, 0.006659916440303348
1084.0, 0.008125893848629632
1085.0, 0.00952648411241895
1086.0, 0.013229021987422677
1087.0, 0.014848476076148745
1088.0, 0.013857962655389355
1089.0, 0.011043863264928693
1090.0, 0.009882781361410747
1091.0, 0.005020255456303209
1092.0, 0.0033634604248186655
1093.0, 0.0037985847569103107
1094.0, 0.0015221590982050625
1095.0, 0.0019287293761639684
1096.0, 0.00035849502576459723
1097.0, 0.000322317086374605
1098.0, 0.0005983677226149978
1099.0, 0.00042393115631391456
1100.0, 0.0033029069715460476
1101.0, 0.00036353304518216625
1102.0, 0.00349841520110092
1103.0, 0.00271248887152144
1104.0, 0.0005651584149301545
1105.0, 0.0009025649268052035
1106.0, 0.00024544147910573056
1107.0, 0.0007750658471703651
1108.0, 0.0010601705968446902
1109.0, 0.0017587284173352597
1110.0, 0.0008359815335120748
1111.0, 0.0019436661516825681
1112.0, 0.003529657105115655
1113.0, 0.004495598151714004
1114.0, 0.005068464016951577
1115.0, 0.003662125651749247
1116.0, 0.0032966142097258476
1117.0, 0.004764388511423109
1118.0, 0.004722729841011575
1119.0, 0.004039417278993557
1120.0, 0.005609706156696711
1121.0, 0.004483592037505211
1122.0, 0.004723273742524107
1123.0, 0.0069178340073217885
1124.0, 0.00641692496860109
1125.0, 0.008749493104017233
1126.0, 0.010104190051801716
1127.0, 0.010729974315704698
1128.0, 0.012405522324397768
1129.0, 0.012371387925719027
1130.0, 0.015268619869833858
1131.0, 0.017448858835148837
1132.0, 0.018645405794870833
1133.0, 0.022090293084067198
1134.0, 0.02766568066470443
1135.0, 0.03216617073058229
1136.0, 0.03553948630085653
1137.0, 0.0408099624754771
1138.0, 0.04725022897915281
1139.0, 0.05381534239835735
1140.0, 0.06217551402978451
1141.0, 0.07004789824046595
1142.0, 0.07925244493896376
1143.0, 0.08365745486217278
1144.0, 0.08923104109919344
1145.0, 0.09276854527894725
1146.0, 0.09582696663418933
1147.0, 0.10013638297941442
1148.0, 0.10414806838954475
1149.0, 0.10859711400228952
1150.0, 0.11366788495162164
1151.0, 0.11572961856071239
1152.0, 0.11475521653281762
1153.0, 0.10886056307365849
1154.0, 0.10122354642236701
1155.0, 0.09046462930310448
1156.0, 0.07768595493063778
1157.0, 0.06743144187944637
1158.0, 0.05742503945021838
1159.0, 0.04734561138038162
1160.0, 0.037777429063638165
1161.0, 0.0305731382606448
1162.0, 0.027537705745261393
1163.0, 0.023965297183911573
1164.0, 0.021432925372302545
1165.0, 0.017586188971190495
1166.0, 0.016155536423250308
1167.0, 0.011723190891010767
1168.0, 0.010338659120582664
1169.0, 0.010211877573194464
1170.0, 0.007397602451113191
1171.0, 0.006057585340949762
1172.0, 0.006383411426680738
1173.0, 0.003928836127562689
1174.0, 0.0034387031884341897
1175.0, 0.003865999092300704
1176.0, 0.0024840307235260936
1177.0, 0.006257724445330314
1178.0, 0.0038386607964788215
1179.0, 0.003989300950209914
1180.0, 0.004413786786588615
1181.0, 0.003294096832970383
1182.0, 0.0038980209315865964
1183.0, 0.004153307627943945
1184.0, 0.0026900340088865846
1185.0, 0.003719025667628089
1186.0, 0.007500383211946006
1187.0, 0.008102264164348921
1188.0, 0.0037464122001375417
1189.0, 0.0031360918689498363
1190.0, 0.0015766160467711081
1191.0, 0.0022631792166679303
1192.0, 0.0035800882278826354
1193.0, 0.002349521358194486
1194.0, 0.0021416141340038354
1195.0, 0.0032567689872719983
1196.0, 0.0036973924755032855
1197.0, 0.003992324724306533
1198.0, 0.0017062658105858111
1199.0, 0.0034333746037694484
1200.0, 0.003573643758622411
1201.0, 0.004300967000420704
1202.0, 0.0025429132480407077
1203.0, 0.00109090150207495
1204.0, 0.0031208061286547087
1205.0, 0.0035729711610731443
1206.0, 0.00362524325885149
1207.0, 0.004464841156997779
1208.0, 0.005066881660228376
1209.0, 0.005285635658752523
1210.0, 0.0035366905696167512
1211.0, 0.0050107845366182706
1212.0, 0.0048030913078033815
1213.0, 0.0031591840095497484
1214.0, 0.0052484730925550695
1215.0, 0.00597301996056466
1216.0, 0.004932009548165615
1217.0, 0.0036329785993915987
1218.0, 0.0011461927453031858
1219.0, 0.0014830116671982075
1220.0, 0.0005867683282213851
1221.0, 0.0017811880132425403
1222.0, 0.0007999122070511441
1223.0, 0.001044539834074416
1224.0, 0.003460157491356901
1225.0, 0.0018306570053348084
1226.0, 0.005046993643529022
1227.0, 0.0019460006634289065
1228.0, 0.003711250537888019
1229.0, 0.0019269003640689634
1230.0, 0.0011552155463217127
1231.0, 0.003919493205013679
1232.0, 0.004541953404068114
1233.0, 0.0014386879427778303
1234.0, 0.00023209465274667314
1235.0, 0.0020715738976796057
1236.0, 0.0007333968460051778
1237.0, 0.002819810445274438
1238.0, 0.00018561958500405387
1239.0, 0.0009661880095785658
1240.0, 0.002783530935649467
1241.0, 0.0010922407481495288
1242.0, 0.0018758784548668856
1243.0, 0.003242645978829656
1244.0, 0.0034107497367312244
1245.0, 0.003258633461489453
1246.0, 0.0030155675650085
1247.0, 0.0028053239625470687
1248.0, 0.0025488746012975075
1249.0, 0.0033074200485336577
1250.0, 0.0031499366585029404
1251.0, 0.002853208337998491
1252.0, 0.004270880577689148
1253.0, 0.006855460712942495
1254.0, 0.007368707329360827
1255.0, 0.004309378504158287
1256.0, 0.0044243131610874524
1257.0, 0.00336301754372061
1258.0, 0.0033839009516430712
1259.0, 0.005754745799070577
1260.0, 0.006607899434923607
1261.0, 0.005429029390494688
1262.0, 0.003288237736805635
1263.0, 0.00424041203844393
1264.0, 0.0036434322275574645
1265.0, 0.004509709590186739
1266.0, 0.0049458354010865685
1267.0, 0.003935600272646987
1268.0, 0.0036684818314645052
1269.0, 0.0032772832857624053
1270.0, 0.004006442438682189
1271.0, 0.0028139026436977232
1272.0, 0.0015388256817082007
1273.0, 0.0021452148985746634
1274.0, 0.003642410810529539
1275.0, 0.003949224402159885
1276.0, 0.0027212347593812123
1277.0, 0.0017066594171072766
1278.0, 0.000713956659205015
1279.0, 0.002173586981202857
1280.0, 0.002155023435319585
1281.0, 0.0008752426805844053
1282.0, 0.0003484688939137324
1283.0, 7.985074579103504e-05
1284.0, 0.00038249217920004674
1285.0, 0.0009732266593357098
1286.0, 0.001331931417508616
1287.0, 0.00030603399416866746
1288.0, 0.0009360964852922338
1289.0, 0.0031086699938375774
1290.0, 0.0036770079696020396
1291.0, 0.0016151207927507809
1292.0, 0.0021718453316681833
1293.0, 0.003389921518929232
1294.0, 0.0013499290631026884
1295.0, 0.00019696869091953835
1296.0, 0.0017149968101909344
1297.0, 0.0010837809365781771
1298.0, 0.0014083248370645783
1299.0, 0.0028790596142368443
1300.0, 0.004061063545160341
1301.0, 0.0030002375366036606
1302.0, 0.0017883581190653265
1303.0, 4.167597780134133e-05
1304, 0.0
1305, 0.0
1306, 0.0
1307, 0.0
1308, 0.0
1309, 0.0
1310, 0.0
1311, 0.0
1312, 0.0
1313, 0.0
1314, 0.0
1315, 0.0
1316, 0.0
1317, 0.0
1318, 0.0
1319, 0.0
1320, 0.0
1321, 0.0
1322, 0.0
1323, 0.0
1324, 0.0
1325, 0.0
1326, 0.0
1327, 0.0
1328, 0.0
1329, 0.0
1330, 0.0
1331, 0.0
1332, 0.0
1333, 0.0
1334, 0.0
1335, 0.0
1336, 0.0
1337, 0.0
1338, 0.0
1339, 0.0
1340, 0.0
1341, 0.0
1342, 0.0
1343, 0.0
1344, 0.0
1345, 0.0
1346, 0.0
1347, 0.0
1348, 0.0
1349, 0.0
1350, 0.0
1351, 0.0
1352, 0.0
1353, 0.0
1354, 0.0
1355, 0.0
1356, 0.0
1357, 0.0
1358, 0.0
1359, 0.0
1360, 0.0
1361, 0.0
1362, 0.0
1363, 0.0
1364, 0.0
1365, 0.0
1366, 0.0
1367, 0.0
1368, 0.0
1369, 0.0
1370, 0.0
1371, 0.0
1372, 0.0
1373, 0.0
1374, 0.0
1375, 0.0
1376, 0.0
1377, 0.0
1378, 0.0
1379, 0.0
1380, 0.0
1381, 0.0
1382, 0.0
1383, 0.0
1384, 0.0
1385, 0.0
1386, 0.0
1387, 0.0
1388, 0.0
1389, 0.0
1390, 0.0
1391, 0.0
1392, 0.0
1393, 0.0
1394, 0.0
1395, 0.0
1396, 0.0
1397, 0.0
1398, 0.0
1399, 0.0
1400, 0.0
1401, 0.0
1402, 0.0
1403, 0.0
1404, 0.0
1405, 0.0
1406, 0.0
1407, 0.0
1408, 0.0
1409, 0.0
1410, 0.0
1411, 0.0
1412, 0.0
1413, 0.0
1414, 0.0
1415, 0.0
1416, 0.0
1417, 0.0
1418, 0.0
1419, 0.0
1420, 0.0
1421, 0.0
1422, 0.0
1423, 0.0
1424, 0.0
1425, 0.0
1426, 0.0
1427, 0.0
1428, 0.0
1429, 0.0
1430, 0.0
1431, 0.0
1432, 0.0
1433, 0.0
1434, 0.0
1435, 0.0
1436, 0.0
1437, 0.0
1438, 0.0
1439, 0.0
1440, 0.0
1441, 0.0
1442, 0.0
1443, 0.0
1444, 0.0
1445, 0.0
1446, 0.0
1447, 0.0
1448, 0.0
1449, 0.0
1450, 0.0
1451, 0.0
1452, 0.0
1453, 0.0
1454, 0.0
1455, 0.0
1456, 0.0
1457, 0.0
1458, 0.0
1459, 0.0
1460, 0.0
1461, 0.0
1462, 0.0
1463, 0.0
1464, 0.0
1465, 0.0
1466, 0.0
1467, 0.0
1468, 0.0
1469, 0.0
1470, 0.0
1471, 0.0
1472, 0.0
1473, 0.0
1474, 0.0
1475, 0.0
1476, 0.0
1477, 0.0
1478, 0.0
1479, 0.0
1480, 0.0
1481, 0.0
1482, 0.0
1483, 0.0
1484, 0.0
1485, 0.0
1486, 0.0
1487, 0.0
1488, 0.0
1489, 0.0
1490, 0.0
1491, 0.0
1492, 0.0
1493, 0.0
1494, 0.0
1495, 0.0
1496, 0.0
1497, 0.0
1498, 0.0
1499, 0.0
1500, 0.0
1501, 0.0
1502, 0.0
1503, 0.0
1504, 0.0
1505, 0.0
1506, 0.0
1507, 0.0
1508, 0.0
1509, 0.0
1510, 0.0
1511, 0.0
1512, 0.0
1513, 0.0
1514, 0.0
1515, 0.0
1516, 0.0
1517, 0.0
1518, 0.0
1519, 0.0
1520, 0.0
1521, 0.0
1522, 0.0
1523, 0.0
1524, 0.0
1525, 0.0
1526, 0.0
1527, 0.0
1528, 0.0
1529, 0.0
1530, 0.0
1531, 0.0
1532, 0.0
1533, 0.0
1534, 0.0
1535, 0.0
1536, 0.0
1537, 0.0
1538, 0.0
1539, 0.0
1540, 0.0
1541, 0.0
1542, 0.0
1543, 0.0
1544, 0.0
1545, 0.0
1546, 0.0
1547, 0.0
1548, 0.0
1549, 0.0
1550, 0.0
1551, 0.0
1552, 0.0
1553, 0.0
1554, 0.0
1555, 0.0
1556, 0.0
1557, 0.0
1558, 0.0
1559, 0.0
1560, 0.0
1561, 0.0
1562, 0.0
1563, 0.0
1564, 0.0
1565, 0.0
1566, 0.0
1567, 0.0
1568, 0.0
1569, 0.0
1570, 0.0
1571, 0.0
1572, 0.0
1573, 0.0
1574, 0.0
1575, 0.0
1576, 0.0
1577, 0.0
1578, 0.0
1579, 0.0
1580, 0.0
1581, 0.0
1582, 0.0
1583, 0.0
1584, 0.0
1585, 0.0
1586, 0.0
1587, 0.0
1588, 0.0
1589, 0.0
1590, 0.0
1591, 0.0
1592, 0.0
1593, 0.0
1594, 0.0
1595, 0.0
1596, 0.0
1597, 0.0
1598, 0.0
1599, 0.0
