30, 0.0
31, 0.0
32, 0.0
33, 0.0
34, 0.0
35, 0.0
36, 0.0
37, 0.0
38, 0.0
39, 0.0
40, 0.0
41, 0.0
42, 0.0
43, 0.0
44, 0.0
45, 0.0
46, 0.0
47, 0.0
48, 0.0
49, 0.0
50, 0.0
51, 0.0
52, 0.0
53, 0.0
54, 0.0
55, 0.0
56, 0.0
57, 0.0
58, 0.0
59, 0.0
60, 0.0
61, 0.0
62, 0.0
63, 0.0
64, 0.0
65, 0.0
66, 0.0
67, 0.0
68, 0.0
69, 0.0
70, 0.0
71, 0.0
72, 0.0
73, 0.0
74, 0.0
75, 0.0
76, 0.0
77, 0.0
78, 0.0
79, 0.0
80, 0.0
81.0, 8.149948339793785e-05
82.0, 0.00025291332617260315
83.0, 0.0005345558961667158
84.0, 0.0016701361143773791
85.0, 0.004196866864270881
86.0, 0.007228782888239832
87.0, 0.008071222243668286
88.0, 0.011288911468389107
89.0, 0.014090641302885908
90.0, 0.015250125774413441
91.0, 0.019952837784507436
92.0, 0.023259223777360602
93.0, 0.025703131347321145
94.0, 0.028406479162985897
95.0, 0.03235741339065115
96.0, 0.03553474250194256
97.0, 0.0373529869263097
98.0, 0.044060134351832696
99.0, 0.04871648549554541
100.0, 0.053291624778165646
101.0, 0.06150296395291059
102.0, 0.06637093416320025
103.0, 0.06998771596413214
104.0, 0.07279700052443397
105.0, 0.07495602298714811
106.0, 0.07191450471831123
107.0, 0.06618268992615976
108.0, 0.06029297642696309
109.0, 0.05092420708455122
110.0, 0.04275194702847261
111.0, 0.03646705123987209
112.0, 0.03134906160047731
113.0, 0.027154487259123814
114.0, 0.02426264802557531
115.0, 0.02338324215837268
116.0, 0.02179938835512081
117.0, 0.020189816131599557
118.0, 0.018613242755885603
119.0, 0.01705042897457498
120.0, 0.015902128670028885
121.0, 0.014656983053370971
122.0, 0.012989060050983648
123.0, 0.010354297425008041
124.0, 0.009515183807112245
125.0, 0.009678431836277635
126.0, 0.008417135435454963
127.0, 0.008622072224595122
128.0, 0.008463131788769392
129.0, 0.0072748313679850945
130.0, 0.007254592773062356
131.0, 0.0064455535872527175
132.0, 0.005194967573041556
133.0, 0.003993283158711599
134.0, 0.0045212491257223784
135.0, 0.0037340495368750953
136.0, 0.0014437447471946834
137.0, 0.0028641672787730185
138.0, 0.002607416540656579
139.0, 0.002258656074932106
140.0, 0.003393277292702534
141.0, 0.002790280340579372
142.0, 0.0018535384686278484
143.0, 0.0010254288062802846
144.0, 0.0017804400612081795
145.0, 0.0010125432884858843
146.0, 0.0006061167407179063
147.0, 0.0016307125947634948
148.0, 0.0009135815135859247
149.0, 0.0011099018776069979
150.0, 0.0016238222734921443
151.0, 0.0010070246167128748
152.0, 0.0009045047703721798
153.0, 0.0013231403673372479
154.0, 0.0021664548735865724
155.0, 0.0014930295577881988
156.0, 0.0028024397923499082
157.0, 0.004055529971974768
158.0, 0.002833367586725707
159.0, 0.0033141608841994034
160.0, 0.005856854933310586
161.0, 0.009197797681856593
162.0, 0.0067417358367091165
163.0, 0.00823350775249503
164.0, 0.010012756981351111
165.0, 0.010107425845207706
166.0, 0.013273209834915221
167.0, 0.014552607830282949
168.0, 0.015477080874272041
169.0, 0.019541038008858598
170.0, 0.021466443826738766
171.0, 0.023445262092217537
172.0, 0.026093702947968662
173.0, 0.030254119641525107
174.0, 0.03220850600118612
175.0, 0.03578195037946642
176.0, 0.045043986856399404
177.0, 0.04861245265194688
178.0, 0.053410956079244384
179.0, 0.060287220869438045
180.0, 0.0707613650311597
181.0, 0.07982754512716266
182.0, 0.09191864868069353
183.0, 0.10889338209054915
184.0, 0.12477719830031564
185.0, 0.1473632471802119
186.0, 0.17465598924238623
187.0, 0.20488879415280065
188.0, 0.24714780090095811
189.0, 0.30036083531639685
190.0, 0.36434972385701875
191.0, 0.4395765387705823
192.0, 0.5350625037011839
193.0, 0.6401040991850728
194.0, 0.7499568921614816
195.0, 0.8614643268764272
196.0, 0.9470806006159407
197.0, 0.9994754458915069
198.0, 0.997280658826683
199.0, 0.965977836917057
200.0, 0.8877110009642312
201.0, 0.7656562270378302
202.0, 0.6542109353402393
203.0, 0.5342528553707246
204.0, 0.4263471945927771
205.0, 0.34633214787493816
206.0, 0.2828447868545941
207.0, 0.22842471846769682
208.0, 0.18455056082062746
209.0, 0.1573034876763073
210.0, 0.13300541717020725
211.0, 0.11358582068984052
212.0, 0.09874101256899565
213.0, 0.0811542762288321
214.0, 0.07115268380276764
215.0, 0.06404685143190836
216.0, 0.05686653377023246
217.0, 0.048954517062887525
218.0, 0.04297734058695189
219.0, 0.03819895417364481
220.0, 0.03299280859364342
221.0, 0.030294406986537105
222.0, 0.027424247256861947
223.0, 0.023896311053957134
224.0, 0.020653116556230807
225.0, 0.01826079359045626
226.0, 0.015759398312708395
227.0, 0.012475890412187144
228.0, 0.013199710994375419
229.0, 0.01261614156293894
230.0, 0.011770776722133953
231.0, 0.01298006399795634
232.0, 0.010639458074121966
233.0, 0.008976663090260129
234.0, 0.008630076672972319
235.0, 0.008500774723682283
236.0, 0.006949328976186474
237.0, 0.005696278882984707
238.0, 0.005743043082006413
239.0, 0.0057191578759594785
240.0, 0.006180801818435898
241.0, 0.005715759876122215
242.0, 0.0018475086578284999
243.0, 0.0030995916128335145
244.0, 0.0037672926103722217
245.0, 0.003208555186469597
246.0, 0.0019796586932910305
247.0, 0.0034481189888054898
248.0, 0.0036480243453145514
249.0, 0.0011778519922679982
250.0, 0.003995269098003266
251.0, 0.004159435716295421
252.0, 0.0032328166767133983
253.0, 0.0027760475696492785
254.0, 0.004194053716258828
255.0, 0.004173679231682199
256.0, 0.0038038323364491186
257.0, 0.0069125326158687665
258.0, 0.005610573285891668
259.0, 0.006533438254497616
260.0, 0.010560629364521939
261.0, 0.009183950272132186
262.0, 0.009777113006019633
263.0, 0.011811407878320293
264.0, 0.015091444669973223
265.0, 0.013561746437081822
266.0, 0.015610943394039973
267.0, 0.019547358206658642
268.0, 0.022668745926694222
269.0, 0.02927928063616412
270.0, 0.03661742494193045
271.0, 0.04423407126587686
272.0, 0.051863358281761605
273.0, 0.06749764445047307
274.0, 0.08576056014639752
275.0, 0.10524158613234769
276.0, 0.13187212593824024
277.0, 0.157434673218955
278.0, 0.17741596298792242
279.0, 0.18714353028772793
280.0, 0.19547986110950635
281.0, 0.1879721819021325
282.0, 0.17019143498906275
283.0, 0.1526785048568661
284.0, 0.12620100113008542
285.0, 0.10425614402167606
286.0, 0.08787498890343423
287.0, 0.07162566603711219
288.0, 0.05935264094283996
289.0, 0.05126367328626221
290.0, 0.04717167358678183
291.0, 0.0392173337668111
292.0, 0.03531940850902873
293.0, 0.032553434308376435
294.0, 0.028511658896779875
295.0, 0.026869259765304895
296.0, 0.026241450667529122
297.0, 0.02552055647343106
298.0, 0.022670287398342027
299.0, 0.02472401741903331
300.0, 0.02517321459995193
301.0, 0.024585974441291163
302.0, 0.029104452293747866
303.0, 0.031501235140976164
304.0, 0.03396544447896498
305.0, 0.03756356262255202
306.0, 0.04555820162568659
307.0, 0.04882543264794669
308.0, 0.05379757699199263
309.0, 0.06501937686786573
310.0, 0.06999882687086961
311.0, 0.07769096071898865
312.0, 0.08706232921610989
313.0, 0.09684097791096612
314.0, 0.09963935283034553
315.0, 0.10568053767358676
316.0, 0.1122731738982292
317.0, 0.10953691668805585
318.0, 0.11488060506944779
319.0, 0.1174992169161412
320.0, 0.11602764466386818
321.0, 0.11664451008871576
322.0, 0.11991389876601534
323.0, 0.11885820630482781
324.0, 0.11116374295627979
325.0, 0.1132641871935249
326.0, 0.10637916838765503
327.0, 0.0969847557319087
328.0, 0.09015995796262569
329.0, 0.08338397127709181
330.0, 0.07510485049475772
331.0, 0.06718561001619726
332.0, 0.0625868031211341
333.0, 0.05168197045021074
334.0, 0.046068097172498136
335.0, 0.044023373563801635
336.0, 0.03803141721372624
337.0, 0.033503912918052936
338.0, 0.03076797168824833
339.0, 0.028762062669928628
340.0, 0.021550881077242352
341.0, 0.021319090555040988
342.0, 0.01994428498030485
343.0, 0.01505257115361617
344.0, 0.016630927662705235
345.0, 0.015810148820072038
346.0, 0.013676686805251949
347.0, 0.010930182484463695
348.0, 0.011691713014315902
349.0, 0.009936368286988287
350.0, 0.00825338185650983
351.0, 0.00966052170137174
352.0, 0.0071538780041563565
353.0, 0.006590188096020092
354.0, 0.007561863746410735
355.0, 0.008897909258688646
356.0, 0.00641126834080748
357.0, 0.006545848880063201
358.0, 0.008332085451138505
359.0, 0.0061883227760766175
360.0, 0.006537930398939061
361.0, 0.00735024804069526
362.0, 0.007704763248964854
363.0, 0.005256204641265248
364.0, 0.007963187118419049
365.0, 0.008778684795390599
366.0, 0.005773243577814626
367.0, 0.007772834521437368
368.0, 0.008545128426788132
369.0, 0.009177104290552194
370.0, 0.010416371667562341
371.0, 0.014971431956850452
372.0, 0.013386677285398912
373.0, 0.011258884810115014
374.0, 0.013730535019051172
375.0, 0.010545931387780517
376.0, 0.009419491020637077
377.0, 0.009495405474240253
378.0, 0.009487563545335084
379.0, 0.005528370891296921
380.0, 0.005551958343652988
381.0, 0.006895275083611874
382.0, 0.0030300248629208217
383.0, 0.004034809275172655
384.0, 0.004237827168951022
385.0, 0.0035102097985638164
386.0, 0.003743320196990504
387.0, 0.004346758792598875
388.0, 0.0030300130987093677
389.0, 0.0010378826022066495
390.0, 0.0061047163484680735
391.0, 0.0029137917420487603
392.0, 0.001120752408869594
393.0, 0.003118282564664981
394.0, 0.0040531987898459985
395.0, 0.0020011120291144576
396.0, 0.0013111564829671662
397.0, 0.003355276012495137
398.0, 0.0012292033385821826
399.0, 0.0018598608639638751
400.0, 0.0025317947336341356
401.0, 0.0016523018046570726
402.0, 0.0006925644809801519
403.0, 0.0023538482251058966
404.0, 0.00324639321415202
405.0, 0.0006410403988330819
406.0, 0.0037477528614834805
407.0, 0.0027962873431150487
408.0, 0.0007130217956007003
409.0, 0.0006171535329193848
410.0, 0.001801862834678281
411.0, 0.0016841988373428132
412.0, 0.0014192352474109793
413.0, 0.002720453578159118
414.0, 0.0012264953153161917
415.0, 0.0008196824801148037
416.0, 0.0013014796128754296
417.0, 0.001961551460157777
418.0, 0.0016194276613802551
419.0, 0.0016373995762130388
420.0, 0.0023557661177428463
421.0, 0.0042822035886590296
422.0, 0.003220298424946028
423.0, 0.00176160978288303
424.0, 0.0007001603270520612
425.0, 0.0012471996267897913
426.0, 0.0015688976763154647
427.0, 0.0018999122202332632
428.0, 0.002247042825560403
429.0, 0.002488357623324805
430.0, 0.002666363547000113
431.0, 0.0021152214994678187
432.0, 0.0009345485791893964
433.0, 0.0001609222703288373
434.0, 3.220323552275379e-05
435.0, 0.0004135017467369952
436.0, 0.0011913235945256728
437.0, 0.0019635451465360946
438.0, 0.002282134154233754
439.0, 0.001593512113492898
440.0, 0.00010563578052858702
441.0, 0.00022942498879894246
442.0, 0.0025140223673058293
443.0, 0.00309090007940151
444.0, 0.001188592928919108
445.0, 0.001962516882394992
446.0, 0.0010119378980509362
447.0, 0.0002489921426922809
448.0, 0.0005060273068000605
449.0, 0.001866307959099391
450.0, 0.0017429558929767364
451.0, 0.0020911307238992505
452.0, 0.00338579329262815
453.0, 0.0011116849735360638
454.0, 0.002089240896160913
455.0, 0.002483159476237636
456.0, 0.0006098914119312184
457.0, 0.00020701042381094647
458.0, 0.0018926220695811246
459.0, 0.0027766560666880632
460.0, 0.0015995842416060054
461.0, 0.0032178058553884014
462.0, 0.003600097052103032
463.0, 0.002540695804288806
464.0, 0.0003035904953309122
465.0, 0.002937989700591051
466.0, 0.0017465989851924656
467.0, 0.0014126887773676785
468.0, 0.004268480985933666
469.0, 0.0016620683411875017
470.0, 0.001580767652292827
471.0, 0.00209133486979713
472.0, 0.002040479298094712
473.0, 0.0022950000763476237
474.0, 0.0021981292700339414
475.0, 0.001767993190237083
476.0, 0.0010688854463835398
477.0, 0.0010730349253905897
478.0, 0.0009924276332159017
479.0, 0.0009695838458335002
480.0, 0.0011949312700071852
481.0, 0.00317267112448569
482.0, 0.0022457461368775153
483.0, 0.0014534057083284463
484.0, 0.002391824276860215
485.0, 0.0008739924486720648
486.0, 0.00032203908839641284
487.0, 0.000905079066788988
488.0, 0.002591592669983549
489.0, 0.0033457577893580264
490.0, 0.003543412143311071
491.0, 0.002507860561084806
492.0, 0.00015560649736646624
493.0, 0.00023294159464227034
494.0, 0.0024845194379658265
495.0, 0.0035671128648762113
496.0, 0.0021679066153938685
497.0, 0.0030842351688049226
498.0, 0.0014470671716544342
499.0, 0.0005772567972016888
500.0, 0.001865180797872731
501.0, 0.0031387266997865925
502.0, 0.002975234914827466
503.0, 0.002853371521499707
504.0, 0.0031815592684700787
505.0, 0.002173286669830247
506.0, 0.0033154837419605695
507.0, 0.0037268865242344714
508.0, 0.0025173495131932426
509.0, 0.0012806391409587857
510.0, 0.003480611772580547
511.0, 0.0038622172035920046
512.0, 0.0017893793397640789
513.0, 0.003343608729236971
514.0, 0.0038041719970111276
515.0, 0.0028732723577837025
516.0, 0.0016647279327142196
517.0, 0.00531169701691208
518.0, 0.0026187923829772567
519.0, 0.0031993320598979625
520.0, 0.00649443083755504
521.0, 0.0021174344812880767
522.0, 0.001776735350868746
523.0, 0.003102050935940827
524.0, 0.004149613870623602
525.0, 0.0007171939303301346
526.0, 0.0029750774711356973
527.0, 0.0028229324902052165
528.0, 0.0010311162995031054
529.0, 0.002374262497836702
530.0, 0.003312025210116267
531.0, 0.0020931071681036797
532.0, 0.0010158962023493676
533.0, 0.004842717933291449
534.0, 0.001661512210313026
535.0, 0.0017320974654455054
536.0, 0.0035294477573482095
537.0, 0.0035245101159218292
538.0, 0.0012049216941930813
539.0, 0.0029756712126961485
540.0, 0.004642616068513546
541.0, 0.0008703265547017657
542.0, 0.004639720934721883
543.0, 0.0055948000703214635
544.0, 0.004226347445699942
545.0, 0.0013644761420700136
546.0, 0.006736155830169596
547.0, 0.004758663720776358
548.0, 0.0023848301145087784
549.0, 0.004295497965178155
550.0, 0.003671394938252389
551.0, 0.002593649893979338
552.0, 0.0032628141305528946
553.0, 0.005881924918778153
554.0, 0.0015496420945808364
555.0, 0.004017127928667282
556.0, 0.005585045020502895
557.0, 0.0037853846265006015
558.0, 0.002557363958776389
559.0, 0.006239966684691522
560.0, 0.005980789984973615
561.0, 0.0022979291384463414
562.0, 0.006985142630118722
563.0, 0.005625285107903839
564.0, 0.004114798132586472
565.0, 0.00415947445036505
566.0, 0.007088757593624222
567.0, 0.004195335526985702
568.0, 0.005408801327577508
569.0, 0.008106275428764105
570.0, 0.005144663343016194
571.0, 0.004679517723585845
572.0, 0.00561246842811317
573.0, 0.0055188166193057935
574.0, 0.0013962795990073093
575.0, 0.008112975813447538
576.0, 0.007565233875872283
577.0, 0.0055115545450219695
578.0, 0.007214924133178588
579.0, 0.006248774966632409
580.0, 0.004881996525120319
581.0, 0.005980552668434584
582.0, 0.009919438032977816
583.0, 0.0032319173144134896
584.0, 0.005052774410860905
585.0, 0.007531707752054626
586.0, 0.0074474452745561595
587.0, 0.005210118668603346
588.0, 0.008092806817488278
589.0, 0.0072330899157579875
590.0, 0.0036703936077933552
591.0, 0.008228928489476138
592.0, 0.007671768139676655
593.0, 0.00617241805754542
594.0, 0.0062542671937387325
595.0, 0.011629387840920602
596.0, 0.005142258314380684
597.0, 0.007658139071055966
598.0, 0.012360087674269576
599.0, 0.00857350909878244
600.0, 0.008181959183314064
601.0, 0.012218818008735621
602.0, 0.013927053786729055
603.0, 0.008698530398204408
604.0, 0.013924421551269174
605.0, 0.0131355332814218
606.0, 0.012324701836353404
607.0, 0.014567893603523636
608.0, 0.019072030229997705
609.0, 0.015243658296787456
610.0, 0.014737777583523733
611.0, 0.018486385685582682
612.0, 0.016632737752884832
613.0, 0.019005892731908836
614.0, 0.023626552714286802
615.0, 0.026569013765237227
616.0, 0.020506694058184925
617.0, 0.027910975025680948
618.0, 0.029755219434248536
619.0, 0.029975059022094783
620.0, 0.03510780375068145
621.0, 0.03813139303336964
622.0, 0.03841583375053839
623.0, 0.042156687839377906
624.0, 0.05253010022720316
625.0, 0.05281496190994776
626.0, 0.05623953449173917
627.0, 0.06297457659813462
628.0, 0.0706841222412446
629.0, 0.06780826731940179
630.0, 0.07799488799569662
631.0, 0.08367033802660236
632.0, 0.08478404256267691
633.0, 0.09190117680566037
634.0, 0.09825473371317794
635.0, 0.10018330693245853
636.0, 0.10248743600523241
637.0, 0.11240642643344241
638.0, 0.10763383951482865
639.0, 0.10833651463350821
640.0, 0.11129608201699356
641.0, 0.11271319445764923
642.0, 0.10149366317378485
643.0, 0.10675157798926584
644.0, 0.10836843963933977
645.0, 0.10084681346563547
646.0, 0.10175293521485346
647.0, 0.10236064948385802
648.0, 0.0998498833182644
649.0, 0.09767931960474811
650.0, 0.10552313698264207
651.0, 0.09610192746074551
652.0, 0.09478718680297164
653.0, 0.09871917648963932
654.0, 0.10122811011889367
655.0, 0.095453927967125
656.0, 0.10151120272067493
657.0, 0.105758087167982
658.0, 0.10076555718511808
659.0, 0.10470924280955525
660.0, 0.11021035486190427
661.0, 0.11183455398293907
662.0, 0.11152996502358344
663.0, 0.12278205320197083
664.0, 0.12064747678324952
665.0, 0.12633714423525866
666.0, 0.13745434385428823
667.0, 0.14420843377099662
668.0, 0.14572557197872205
669.0, 0.16089045198252486
670.0, 0.17512058281246923
671.0, 0.17696346540604435
672.0, 0.1962788034975328
673.0, 0.21605084810244238
674.0, 0.23269215623287529
675.0, 0.2501064224975933
676.0, 0.29220544300119955
677.0, 0.30894866471859417
678.0, 0.33350060423723593
679.0, 0.36645933238362194
680.0, 0.39567540180967364
681.0, 0.397910229263136
682.0, 0.4198248414837573
683.0, 0.43626681593439176
684.0, 0.42240469684358256
685.0, 0.41610452742246784
686.0, 0.4114049610962444
687.0, 0.3916188687250411
688.0, 0.3578938731187272
689.0, 0.35201792685546907
690.0, 0.31766428409131264
691.0, 0.288846123793822
692.0, 0.26813750161600447
693.0, 0.24645428408208356
694.0, 0.21108205580801556
695.0, 0.19256870123971637
696.0, 0.17579346499912418
697.0, 0.14680418921289054
698.0, 0.13324748510866558
699.0, 0.11872252135242209
700.0, 0.1026229390101637
701.0, 0.08772965146281662
702.0, 0.08615441028079979
703.0, 0.07143195298081378
704.0, 0.06193673049040599
705.0, 0.0575899603138248
706.0, 0.05269008228655214
707.0, 0.04438386325614021
708.0, 0.04367502871610275
709.0, 0.041140520179787865
710.0, 0.031113509811297804
711.0, 0.032215448910177844
712.0, 0.03328191174248601
713.0, 0.029018505501607554
714.0, 0.022751544397383482
715.0, 0.029757639485025435
716.0, 0.0219336576394997
717.0, 0.02061872771484241
718.0, 0.022902435317710114
719.0, 0.021902308223536227
720.0, 0.0178317882761102
721.0, 0.02005298887904491
722.0, 0.019328412762871148
723.0, 0.01311212936201148
724.0, 0.015839919527883654
725.0, 0.017804795440755018
726.0, 0.014798626948414037
727.0, 0.01182931426957449
728.0, 0.02024236737628232
729.0, 0.014313876572911976
730.0, 0.013191069021271705
731.0, 0.014625471923451918
732.0, 0.015291784817867913
733.0, 0.008531664388085388
734.0, 0.01454885223655787
735.0, 0.015895461089812567
736.0, 0.0110508912081504
737.0, 0.012876991426541721
738.0, 0.01386069693477477
739.0, 0.009949476166628855
740.0, 0.008087996752049506
741.0, 0.015387835125253008
742.0, 0.007855626512010095
743.0, 0.009555210429268627
744.0, 0.012106337110124502
745.0, 0.011439168998054833
746.0, 0.007577658230896497
747.0, 0.014130612717133806
748.0, 0.012231679744510258
749.0, 0.006960876389527476
750.0, 0.00986077226802421
751.0, 0.011998224002664095
752.0, 0.008597114672446969
753.0, 0.008465494244872033
754.0, 0.013919416102845642
755.0, 0.009604003626616016
756.0, 0.008169402343566475
757.0, 0.00965943796386317
758.0, 0.010367841209686873
759.0, 0.004054804180418138
760.0, 0.009717606574416714
761.0, 0.009109022199933104
762.0, 0.007163914366046231
763.0, 0.007831454630546564
764.0, 0.012280200365538707
765.0, 0.007232334549535141
766.0, 0.007872086302315359
767.0, 0.011425693792141573
768.0, 0.005411239209330441
769.0, 0.004638756546321294
770.0, 0.008869068233138936
771.0, 0.008809510716750365
772.0, 0.0008535147757009484
773.0, 0.007922877853610526
774.0, 0.008634980413467068
775.0, 0.006342638731019915
776.0, 0.004596587279407095
777.0, 0.008590974070092967
778.0, 0.002878305353864586
779.0, 0.0053931235116055475
780.0, 0.008602470994091557
781.0, 0.006669611711358754
782.0, 0.0029590976874234293
783.0, 0.008316450181008845
784.0, 0.008006425760769513
785.0, 0.004562342809719067
786.0, 0.010260568257388736
787.0, 0.00708409651078298
788.0, 0.004639609572358729
789.0, 0.005954445412711767
790.0, 0.010571206795418129
791.0, 0.004236286306365123
792.0, 0.00970042524347672
793.0, 0.012079954137336299
794.0, 0.009711059128862522
795.0, 0.0059970153252498475
796.0, 0.0139189168607469
797.0, 0.010447294691679288
798.0, 0.0075854471907925705
799.0, 0.011615390286931005
800.0, 0.013925977064275012
801.0, 0.00811126937353956
802.0, 0.008883395940692566
803.0, 0.011728056180642505
804.0, 0.006123399138570227
805.0, 0.007663925743050495
806.0, 0.00886325122930001
807.0, 0.006492346143840198
808.0, 0.002440430660232773
809.0, 0.01001339128813027
810.0, 0.006673266034164106
811.0, 0.004207792403942644
812.0, 0.005026989162746541
813.0, 0.00904203564536175
814.0, 0.0019111681022794913
815.0, 0.005320190313688496
816.0, 0.006554412017916723
817.0, 0.00346301554354367
818.0, 0.004389737196389312
819.0, 0.008647438172130997
820.0, 0.006038294814821321
821.0, 0.0029020652937310136
822.0, 0.00465335877728347
823.0, 0.0027902806179899067
824.0, 0.001849560200861299
825.0, 0.004171368831643485
826.0, 0.006952012180176092
827.0, 0.0037430350685587342
828.0, 0.007310749172245457
829.0, 0.007059592294698178
830.0, 0.003991916799215369
831.0, 0.001069744882341509
832.0, 0.007736547094241922
833.0, 0.003124168224705722
834.0, 0.001748633351941456
835.0, 0.0040092826060150934
836.0, 0.006764405028291632
837.0, 0.002367781306022951
838.0, 0.004738467384142227
839.0, 0.005253477586484012
840.0, 0.0029988394017344414
841.0, 0.005054570144552794
842.0, 0.007218877875489484
843.0, 0.004608502443433579
844.0, 0.0036493041686970935
845.0, 0.007732823614284432
846.0, 0.0026041788442459487
847.0, 0.002447043184643281
848.0, 0.00551559389993288
849.0, 0.008053657845150934
850.0, 0.00519942589755561
851.0, 0.008163897584935138
852.0, 0.006022730377537096
853.0, 0.002866463231140095
854.0, 0.0022494342722878717
855.0, 0.008629399723061846
856.0, 0.004658158716809859
857.0, 0.005398543114264098
858.0, 0.0074910296841983245
859.0, 0.00644312504054794
860.0, 0.0017752743952814324
861.0, 0.008629188033283646
862.0, 0.007629088893141776
863.0, 0.0020830249574221825
864.0, 0.005168159663211671
865.0, 0.006414798610606223
866.0, 0.003144907717622413
867.0, 0.0033144151486585614
868.0, 0.00702227989238598
869.0, 0.002503338545430687
870.0, 0.0034869390371220343
871.0, 0.0051993912269603865
872.0, 0.005014454307891033
873.0, 0.002587293040928148
874.0, 0.007910601374544123
875.0, 0.003171619234523547
876.0, 0.002638463423203638
877.0, 0.005655707302079576
878.0, 0.00646737027401709
879.0, 0.0037720921599387024
880.0, 0.007000701734223267
881.0, 0.0073731213941519
882.0, 0.003465162376969159
883.0, 0.0011260658620081438
884.0, 0.00865790961971524
885.0, 0.005113814630982983
886.0, 0.0025402308876300824
887.0, 0.007317225517319067
888.0, 0.005603694791270715
889.0, 0.005268706315308214
890.0, 0.007999012753485286
891.0, 0.008249056275816426
892.0, 0.0014611114131573085
893.0, 0.0064653974522573075
894.0, 0.007029418748685496
895.0, 0.004009125476111573
896.0, 0.002853735957818778
897.0, 0.011924391332373437
898.0, 0.006614011557692883
899.0, 0.004561079203131783
900.0, 0.006465083225243395
901.0, 0.009299662969356196
902.0, 0.0039861526484726096
903.0, 0.0085803749343274
904.0, 0.00727012569983173
905.0, 0.004576220340600134
906.0, 0.005173835716056891
907.0, 0.010971386791424802
908.0, 0.005308787705805406
909.0, 0.00603633326369153
910.0, 0.009587600473950597
911.0, 0.008873708731889536
912.0, 0.0038670179319301758
913.0, 0.009947888342339438
914.0, 0.00844739630831115
915.0, 0.0036145389300831104
916.0, 0.009571649392212358
917.0, 0.01020853151999659
918.0, 0.005796360527636298
919.0, 0.006791017677504603
920.0, 0.0106173018780065
921.0, 0.0016939006455744168
922.0, 0.005317017894279342
923.0, 0.009808001456936399
924.0, 0.009010550042201434
925.0, 0.004220128074565199
926.0, 0.011289466363267182
927.0, 0.008199970566833132
928.0, 0.004911393570389037
929.0, 0.007353864202973539
930.0, 0.014739588362157233
931.0, 0.002654700517479583
932.0, 0.009736135345567215
933.0, 0.012324363897203858
934.0, 0.008945721343997386
935.0, 0.00433761157709524
936.0, 0.014247689655442845
937.0, 0.006491202172868296
938.0, 0.006339597983041616
939.0, 0.011438160198147
940.0, 0.009583116500469887
941.0, 0.00519446475295068
942.0, 0.011639429872984547
943.0, 0.012230739028181342
944.0, 0.007778957382218123
945.0, 0.010284241567446811
946.0, 0.01077043005238233
947.0, 0.006754638884530319
948.0, 0.007713877286459084
949.0, 0.012840641651038789
950.0, 0.010021263573216442
951.0, 0.007050541874334669
952.0, 0.012893941149846433
953.0, 0.013145821611970887
954.0, 0.006108334002532702
955.0, 0.012265893140671742
956.0, 0.012923341822735064
957.0, 0.008933547523390432
958.0, 0.008967305843895264
959.0, 0.014353604504019901
960.0, 0.006805646923442208
961.0, 0.009917347403241657
962.0, 0.012893199650183209
963.0, 0.011616091494197497
964.0, 0.006962760069645928
965.0, 0.014860465263394216
966.0, 0.013376720457272465
967.0, 0.011105832860980701
968.0, 0.011912683419820791
969.0, 0.01555476831084952
970.0, 0.005155183931670361
971.0, 0.013705180354813464
972.0, 0.01616249240798582
973.0, 0.011577327985019325
974.0, 0.007005591898567021
975.0, 0.022652331935799373
976.0, 0.014012825320507486
977.0, 0.00963739150796528
978.0, 0.012972767758822255
979.0, 0.018219602856634976
980.0, 0.0092351211082722
981.0, 0.015779065651883705
982.0, 0.016648011093743968
983.0, 0.012229501109248963
984.0, 0.01153600769792704
985.0, 0.021035046787837606
986.0, 0.01346640633959251
987.0, 0.013347288126952416
988.0, 0.019224384007421064
989.0, 0.01804968873428955
990.0, 0.012375365356981237
991.0, 0.019783666594106193
992.0, 0.01785019816259
993.0, 0.011525714024149791
994.0, 0.019264793771742304
995.0, 0.022766201645648007
996.0, 0.016984571454039712
997.0, 0.01939948668975779
998.0, 0.025589275367724436
999.0, 0.019282968284357577
1000.0, 0.02089027236421663
1001.0, 0.030379386014743246
1002.0, 0.028964572414316707
1003.0, 0.02356951040696546
1004.0, 0.03564935874476159
1005.0, 0.031042343511978106
1006.0, 0.027210775883655686
1007.0, 0.030655696778287
1008.0, 0.03563121424219965
1009.0, 0.02955237832142818
1010.0, 0.03401941298413086
1011.0, 0.038832328673939
1012.0, 0.03693199300488142
1013.0, 0.03449104745436074
1014.0, 0.04445820728793128
1015.0, 0.039004617085382456
1016.0, 0.03939393881411535
1017.0, 0.045110538972034465
1018.0, 0.049710297899108025
1019.0, 0.04462998213137757
1020.0, 0.05196731853885628
1021.0, 0.05828071725283505
1022.0, 0.05970425645234789
1023.0, 0.06300864732985108
1024.0, 0.07830890480117803
1025.0, 0.07651773818336356
1026.0, 0.0871180712616328
1027.0, 0.10341642447838481
1028.0, 0.11972670089328433
1029.0, 0.1327591292052781
1030.0, 0.16461375330598366
1031.0, 0.1836275598731979
1032.0, 0.2000611544804304
1033.0, 0.22315355858554337
1034.0, 0.2554918015231652
1035.0, 0.24537634241521672
1036.0, 0.2541875054261447
1037.0, 0.2536823007725761
1038.0, 0.23782962076846786
1039.0, 0.21237272612927485
1040.0, 0.20858680448608505
1041.0, 0.18132244094673824
1042.0, 0.15750007533563637
1043.0, 0.14168186161025795
1044.0, 0.12995971617026297
1045.0, 0.10628642841194953
1046.0, 0.10225855054011806
1047.0, 0.09537476237590886
1048.0, 0.08399410465049265
1049.0, 0.07325031360101963
1050.0, 0.0780657746738293
1051.0, 0.06588876776997414
1052.0, 0.06314809252458362
1053.0, 0.06356419831386893
1054.0, 0.05883250463642447
1055.0, 0.04612897582768981
1056.0, 0.05206679651687972
1057.0, 0.04555364731676526
1058.0, 0.03839581406823023
1059.0, 0.03940146925559303
1060.0, 0.04645557235917831
1061.0, 0.03605441090686444
1062.0, 0.03656266921125751
1063.0, 0.03921839139930611
1064.0, 0.037198984903128306
1065.0, 0.027880956333205656
1066.0, 0.03878158975630046
1067.0, 0.030918422613064538
1068.0, 0.02697846588491953
1069.0, 0.03088657677087424
1070.0, 0.03158272592020746
1071.0, 0.0215584158303389
1072.0, 0.027662107178983906
1073.0, 0.026455067315743184
1074.0, 0.019618603373909638
1075.0, 0.020116965510120283
1076.0, 0.02750967229630151
1077.0, 0.0181887871111172
1078.0, 0.015412575764297757
1079.0, 0.018677083613356796
1080.0, 0.01993248178747639
1081.0, 0.010856769046395345
1082.0, 0.018542059659019654
1083.0, 0.01700402009319885
1084.0, 0.012461253233184049
1085.0, 0.013595380949456084
1086.0, 0.020675940432407957
1087.0, 0.01097320558656885
1088.0, 0.011985552020835368
1089.0, 0.015524446853073843
1090.0, 0.013856563961182542
1091.0, 0.004607886324155539
1092.0, 0.017172509656069035
1093.0, 0.011880741477818287
1094.0, 0.007707355709113407
1095.0, 0.011198396865698845
1096.0, 0.016371161943614793
1097.0, 0.006634406637868472
1098.0, 0.01470303548907192
1099.0, 0.016502926403620253
1100.0, 0.01146680200404241
1101.0, 0.010165578782997061
1102.0, 0.021595001739095173
1103.0, 0.011290581439678957
1104.0, 0.011241590970901577
1105.0, 0.01703835918068927
1106.0, 0.017143508947097888
1107.0, 0.005625325373077944
1108.0, 0.014719906827152015
1109.0, 0.014564080162701961
1110.0, 0.011439756914763994
1111.0, 0.012026929716784287
1112.0, 0.017369765145894424
1113.0, 0.004785194210365795
1114.0, 0.007735231195932282
1115.0, 0.011129106998960046
1116.0, 0.008447622186954903
1117.0, 0.002497992594008242
1118.0, 0.015086218520633651
1119.0, 0.008511895177437688
1120.0, 0.004791458801160969
1121.0, 0.00928765819499542
1122.0, 0.016807588489188827
1123.0, 0.0035134980030006964
1124.0, 0.01130182648641019
1125.0, 0.014197258630427688
1126.0, 0.008956943498387836
1127.0, 0.002464150774223463
1128.0, 0.014173569843212136
1129.0, 0.0038860302539929685
1130.0, 0.003942851145481279
1131.0, 0.008738396084448766
1132.0, 0.010638568820643407
1133.0, 0.0036252025487779832
1134.0, 0.012412168894378506
1135.0, 0.008985999794268156
1136.0, 0.004068023970193115
1137.0, 0.005025839279641011
1138.0, 0.012541936669428027
1139.0, 0.002113459934736812
1140.0, 0.0029054449533612993
1141.0, 0.008471122667904145
1142.0, 0.009770632363697592
1143.0, 0.005844525121110354
1144.0, 0.0120058387158785
1145.0, 0.004626446626590445
1146.0, 0.002474301265129965
1147.0, 0.0063062650886924615
1148.0, 0.009485433966847078
1149.0, 0.0026060050399230876
1150.0, 0.007447360947611658
1151.0, 0.008957841653664336
1152.0, 0.005952348359068951
1153.0, 0.005891800246167407
1154.0, 0.012291037466222626
1155.0, 0.0053858885451392065
1156.0, 0.0019198670907306353
1157.0, 0.008777356461972342
1158.0, 0.009670972646139437
1159.0, 0.0029697870912691353
1160.0, 0.008294297240582733
1161.0, 0.011268622743013467
1162.0, 0.004937524743242073
1163.0, 0.0066161120207733765
1164.0, 0.010574246562455009
1165.0, 0.004048488290934772
1166.0, 0.0014976991390549387
1167.0, 0.010723746512422042
1168.0, 0.008007146404581557
1169.0, 0.00453703095225968
1170.0, 0.008025210391640688
1171.0, 0.008785370362059496
1172.0, 0.002711298154786523
1173.0, 0.0103571083021174
1174.0, 0.010754104213722256
1175.0, 0.004021673980174989
1176.0, 0.003991289803336885
1177.0, 0.014386498034662049
1178.0, 0.005510371544625232
1179.0, 0.0063646772364919614
1180.0, 0.009894788353872067
1181.0, 0.0067306568198974
1182.0, 0.0002098875337302442
1183.0, 0.013438102230649698
1184.0, 0.008989588152858639
1185.0, 0.003600286495524272
1186.0, 0.0062022790276700605
1187.0, 0.014771399364425654
1188.0, 0.0018999950228706158
1189.0, 0.006126434618832674
1190.0, 0.009374760005167147
1191.0, 0.006667900736476617
1192.0, 0.002542936731349461
1193.0, 0.014417342208924062
1194.0, 0.004604966498303317
1195.0, 0.0023540506460005784
1196.0, 0.007135166186835139
1197.0, 0.009943954838132377
1198.0, 0.0017971730501436453
1199.0, 0.010807843296087638
1200.0, 0.010702529533809664
1201.0, 0.0050291780698451275
1202.0, 0.008280391561092997
1203.0, 0.01943675391830335
1204.0, 0.0057158650062098075
1205.0, 0.004839775271874562
1206.0, 0.008901386898508695
1207.0, 0.007935023591110037
1208.0, 0.006138279729928983
1209.0, 0.012236095827532456
1210.0, 0.012587511136264249
1211.0, 0.005504476984459864
1212.0, 0.010818158787010968
1213.0, 0.013776192911323775
1214.0, 0.007916654473339514
1215.0, 0.006259474324080229
1216.0, 0.015562816772977913
1217.0, 0.007826536338389542
1218.0, 0.006246209061232195
1219.0, 0.011319253384639624
1220.0, 0.013369094724550359
1221.0, 0.0033164399790877154
1222.0, 0.01444967594941424
1223.0, 0.012821619964772313
1224.0, 0.007730759061961789
1225.0, 0.00840089481592013
1226.0, 0.016916538207676444
1227.0, 0.006522879688214107
1228.0, 0.01199952333415346
1229.0, 0.014650109541460168
1230.0, 0.010815383304897206
1231.0, 0.006160623914580784
1232.0, 0.01596544278810678
1233.0, 0.013154044435552596
1234.0, 0.008476025606851893
1235.0, 0.012723169585332705
1236.0, 0.017136979408064298
1237.0, 0.009710173787636724
1238.0, 0.013321217704195427
1239.0, 0.016180975140164287
1240.0, 0.010489588459487791
1241.0, 0.011185867236030751
1242.0, 0.017364852839027067
1243.0, 0.010810406722253679
1244.0, 0.00856226720137341
1245.0, 0.017931849871998216
1246.0, 0.013620270533427828
1247.0, 0.007901409338478233
1248.0, 0.013175695305383418
1249.0, 0.020380741936720837
1250.0, 0.005791267040200792
1251.0, 0.01401144623392108
1252.0, 0.016167540960215027
1253.0, 0.009531434701399564
1254.0, 0.006351188806137392
1255.0, 0.01781076252649201
1256.0, 0.010638474956234382
1257.0, 0.00854301094983902
1258.0, 0.012486576714107106
1259.0, 0.01363235980363529
1260.0, 0.002549987934248695
1261.0, 0.015164004432238863
1262.0, 0.013988142555162088
1263.0, 0.006642650678212681
1264.0, 0.0074712261207470106
1265.0, 0.015630486257286625
1266.0, 0.008876853584976455
1267.0, 0.009405251405559827
1268.0, 0.016539271241165374
1269.0, 0.014172370817790983
1270.0, 0.011138016934158862
1271.0, 0.01621901424033194
1272.0, 0.017866340370146873
1273.0, 0.006894524566841557
1274.0, 0.01513735911601004
1275.0, 0.015297959306622937
1276.0, 0.009693019374727253
1277.0, 0.012989335366030022
1278.0, 0.020862296145000004
1279.0, 0.006015695982623836
1280.0, 0.010532491144072221
1281.0, 0.016813607177381177
1282.0, 0.013496659440765434
1283.0, 0.0037113120472364947
1284.0, 0.018319804643752973
1285.0, 0.013643572746532398
1286.0, 0.006118389474035951
1287.0, 0.010469191585412787
1288.0, 0.017491343475881715
1289.0, 0.0011595884157215523
1290.0, 0.010517736738773497
1291.0, 0.01716909918060493
1292.0, 0.009363068275203043
1293.0, 0.007634124871531147
1294.0, 0.016342720460997294
1295.0, 0.00942431010622787
1296.0, 0.004495918860622003
1297.0, 0.014884822485245057
1298.0, 0.012593657859453405
1299.0, 0.006418031001533946
1300.0, 0.009422434550165896
1301.0, 0.020114208616083158
1302.0, 0.005169855584441015
1303.0, 0.00905876951208891
1304.0, 0.010754807814714218
1305.0, 0.00817157992948234
1306.0, 0.0076205877806002145
1307.0, 0.015781080557432797
1308.0, 0.005389214255365266
1309.0, 0.0012613864564432083
1310.0, 0.007905480001788265
1311.0, 0.011423806382505196
1312.0, 0.0034572063661003124
1313.0, 0.011726811709190571
1314.0, 0.013989764278691719
1315.0, 0.005645470569501373
1316.0, 0.008535676256096828
1317.0, 0.015321131870560728
1318.0, 0.010393541428695561
1319.0, 0.0036211150703784898
1320.0, 0.01598048271773305
1321.0, 0.009695893866706974
1322.0, 0.005277483771062218
1323.0, 0.010182785677257907
1324.0, 0.016707305072628756
1325.0, 0.00130726129452346
1326.0, 0.010018538261264299
1327.0, 0.014353677520204488
1328.0, 0.008858076978627134
1329.0, 0.006572191002593023
1330.0, 0.01808434592293217
1331.0, 0.00947903142756137
1332.0, 0.0051301174365413925
1333.0, 0.013292599552359539
1334.0, 0.010719125328139116
1335.0, 0.004773439482692503
1336.0, 0.013210828143790276
1337.0, 0.01647031071927049
1338.0, 0.003422078383634215
1339.0, 0.008583844735458774
1340.0, 0.011450244015734789
1341.0, 0.0067945671536016414
1342.0, 0.004207693659091494
1343.0, 0.02029090951248291
1344.0, 0.008021993502836335
1345.0, 0.004948370781315513
1346.0, 0.011808126555814947
1347.0, 0.01463363453361306
1348.0, 0.004835710235893167
1349.0, 0.011059273106885287
1350.0, 0.010909451523596802
1351.0, 0.0046635334299446225
1352.0, 0.009279335248380243
1353.0, 0.01438032379092856
1354.0, 0.006147498065745339
1355.0, 0.002641866081378227
1356.0, 0.015128465405370493
1357.0, 0.007728711183375096
1358.0, 0.006241535040729163
1359.0, 0.013099353611809592
1360.0, 0.01613512828052872
1361.0, 0.0003974108732821696
1362.0, 0.013728644740698234
1363.0, 0.014926918361354987
1364.0, 0.007458056966372083
1365.0, 0.007965695376020324
1366.0, 0.018516633864287486
1367.0, 0.007925656022237678
1368.0, 0.008895089914514483
1369.0, 0.017605392674903953
1370.0, 0.011481401761397236
1371.0, 0.005968650542055653
1372.0, 0.011642484731081808
1373.0, 0.013336633670310254
1374.0, 0.007179559725479909
1375.0, 0.011209490780800602
1376.0, 0.010751300860616741
1377.0, 0.006396389412062477
1378.0, 0.007449156759207552
1379.0, 0.021805051990319547
1380.0, 0.006358988608856227
1381.0, 0.009957017254594835
1382.0, 0.01996766711698461
1383.0, 0.01666622907806841
1384.0, 0.007432946059237871
1385.0, 0.01560318002348332
1386.0, 0.017093215802296356
1387.0, 0.004767586790586621
1388.0, 0.014635617938053968
1389.0, 0.01591778582961688
1390.0, 0.006696002426685295
1391.0, 0.006642011510590621
1392.0, 0.024597217727627258
1393.0, 0.00894706807196433
1394.0, 0.009962627586191236
1395.0, 0.017159252502759573
1396.0, 0.014820106253232155
1397.0, 0.003777445826309527
1398.0, 0.01738542986900492
1399.0, 0.016194524219786906
1400.0, 0.007250804382126913
1401.0, 0.014618312340534135
1402.0, 0.017635219508981986
1403.0, 0.006901777288653843
1404.0, 0.007296326004349419
1405.0, 0.025266370918843165
1406.0, 0.011097738257673347
1407.0, 0.008765286805484293
1408.0, 0.016183517629786936
1409.0, 0.016937940870659158
1410.0, 0.002425298738298683
1411.0, 0.019089276978111663
1412.0, 0.017318199449051976
1413.0, 0.007004445525098152
1414.0, 0.01185113511367217
1415.0, 0.018908501241728125
1416.0, 0.009613450185481095
1417.0, 0.009612652570182817
1418.0, 0.018601591235571674
1419.0, 0.008664818397966921
1420.0, 0.00898700063259405
1421.0, 0.016238443642990676
1422.0, 0.015987212217448477
1423.0, 0.0020750035456429906
1424.0, 0.01691302176176357
1425.0, 0.015513647205630945
1426.0, 0.007867682222518711
1427.0, 0.011185468741443952
1428.0, 0.01767992523812814
1429.0, 0.007117454897336913
1430.0, 0.006924683668816869
1431.0, 0.020406386839570113
1432.0, 0.011568858326847512
1433.0, 0.00930683770016135
1434.0, 0.016567148900269075
1435.0, 0.018375204412438905
1436.0, 0.0016560584881952257
1437.0, 0.019347645926506337
1438.0, 0.018328080586385864
1439.0, 0.008261813082715447
1440.0, 0.011931066860843515
1441.0, 0.023960584901253447
1442.0, 0.012682824559270153
1443.0, 0.005266868985162049
1444.0, 0.023706914987241482
1445.0, 0.014508342426771952
1446.0, 0.010118200869735862
1447.0, 0.017963029094758946
1448.0, 0.021243462490409835
1449.0, 0.0032972001027850705
1450.0, 0.018828029849415236
1451.0, 0.02126517795830555
1452.0, 0.010276110425018106
1453.0, 0.011833190008625953
1454.0, 0.02507268953113135
1455.0, 0.014800370495290021
1456.0, 0.009148212255893642
1457.0, 0.02402777902115333
1458.0, 0.016827547055345927
1459.0, 0.01273735429285113
1460.0, 0.019937562642950196
1461.0, 0.02412905005687377
1462.0, 0.0022352513634932257
1463.0, 0.018103562245823813
1464.0, 0.020789563775125287
1465.0, 0.011985378379266642
1466.0, 0.01272263939272109
1467.0, 0.02190646182807581
1468.0, 0.01353676865979329
1469.0, 0.005860879401765982
1470.0, 0.023326585930300774
1471.0, 0.014406938809218613
1472.0, 0.010683766219613044
1473.0, 0.0195752785002236
1474.0, 0.024415893835680554
1475.0, 0.00481770169772573
1476.0, 0.018029434411526157
1477.0, 0.019189502142273197
1478.0, 0.010965690307598235
1479.0, 0.011534171885901901
1480.0, 0.01910102418335361
1481.0, 0.015414573846346915
1482.0, 0.00627352998461553
1483.0, 0.02226507495442031
1484.0, 0.0143253953706185
1485.0, 0.008293109118109399
1486.0, 0.014753302912513044
1487.0, 0.021594937159439026
1488.0, 0.005670634570867211
1489.0, 0.014405900289085272
1490.0, 0.02376590565355552
1491.0, 0.009979876357836308
1492.0, 0.011953371695943332
1493.0, 0.02253342806951811
1494.0, 0.014636865989282946
1495.0, 0.0031340808501816673
1496.0, 0.023069293945043368
1497.0, 0.016241903190579256
1498.0, 0.008501805549967389
1499.0, 0.01565521605182158
1500.0, 0.02236889483898637
1501.0, 0.005584508007258846
1502.0, 0.010944970512052836
1503.0, 0.02400603205752292
1504.0, 0.010443555228301838
1505.0, 0.011617851042143848
1506.0, 0.02173077488381147
1507.0, 0.01972143298365376
1508.0, 0.0025045710969107595
1509.0, 0.02550024179340388
1510.0, 0.01933910027058249
1511.0, 0.006135661596091061
1512.0, 2.516404147128304e-05
1513, 0.0
1514, 0.0
1515, 0.0
1516, 0.0
1517, 0.0
1518, 0.0
1519, 0.0
1520, 0.0
1521, 0.0
1522, 0.0
1523, 0.0
1524, 0.0
1525, 0.0
1526, 0.0
1527, 0.0
1528, 0.0
1529, 0.0
1530, 0.0
1531, 0.0
1532, 0.0
1533, 0.0
1534, 0.0
1535, 0.0
1536, 0.0
1537, 0.0
1538, 0.0
1539, 0.0
1540, 0.0
1541, 0.0
1542, 0.0
1543, 0.0
1544, 0.0
1545, 0.0
1546, 0.0
1547, 0.0
1548, 0.0
1549, 0.0
1550, 0.0
1551, 0.0
1552, 0.0
1553, 0.0
1554, 0.0
1555, 0.0
1556, 0.0
1557, 0.0
1558, 0.0
1559, 0.0
1560, 0.0
1561, 0.0
1562, 0.0
1563, 0.0
1564, 0.0
1565, 0.0
1566, 0.0
1567, 0.0
1568, 0.0
1569, 0.0
1570, 0.0
1571, 0.0
1572, 0.0
1573, 0.0
1574, 0.0
1575, 0.0
1576, 0.0
1577, 0.0
1578, 0.0
1579, 0.0
1580, 0.0
1581, 0.0
1582, 0.0
1583, 0.0
1584, 0.0
1585, 0.0
1586, 0.0
1587, 0.0
1588, 0.0
1589, 0.0
1590, 0.0
1591, 0.0
1592, 0.0
1593, 0.0
1594, 0.0
1595, 0.0
1596, 0.0
1597, 0.0
1598, 0.0
1599, 0.0
