30, 0.0
31, 0.0
32, 0.0
33, 0.0
34, 0.0
35, 0.0
36, 0.0
37, 0.0
38, 0.0
39, 0.0
40, 0.0
41, 0.0
42, 0.0
43, 0.0
44, 0.0
45, 0.0
46, 0.0
47, 0.0
48, 0.0
49, 0.0
50, 0.0
51, 0.0
52.0, 8.36083527064202e-05
53.0, 0.0001805664648081801
54.0, 0.00020644517107851377
55.0, 0.0005443276891211644
56.0, 0.0004061652164438798
57.0, 0.0005770427232891731
58.0, 0.000906651275179808
59.0, 0.0010275570333526088
60.0, 0.0007688964582533723
61.0, 0.0005450756431853076
62.0, 0.00027457798684798324
63.0, 0.00012057038008667473
64.0, 0.00013749132788215304
65.0, 4.1262985151723123e-05
66.0, 0.00015341960441194903
67.0, 0.0002441718090402484
68.0, 0.0004633734480447543
69.0, 0.00089987659674293
70.0, 0.001526021696426215
71.0, 0.0019410645895513588
72.0, 0.00294476355552541
73.0, 0.003444599067986486
74.0, 0.0035315461285030316
75.0, 0.004161451683719324
76.0, 0.004796769868906531
77.0, 0.004707757109603162
78.0, 0.004609919926469516
79.0, 0.004699102430828962
80.0, 0.005101317218512357
81.0, 0.006996426336008228
82.0, 0.008717060876454939
83.0, 0.010195740388632555
84.0, 0.01068416875409299
85.0, 0.009826870608669784
86.0, 0.0087794396791465
87.0, 0.009541093961240626
88.0, 0.010943014470413823
89.0, 0.012444947434335395
90.0, 0.014359499852307549
91.0, 0.018216809566684405
92.0, 0.02114232256117516
93.0, 0.02305294792327674
94.0, 0.02512384637887689
95.0, 0.028364079539344975
96.0, 0.033233791574154785
97.0, 0.03507926078821171
98.0, 0.03895003171195555
99.0, 0.04394889327287511
100.0, 0.04983015731262046
101.0, 0.05629995095669774
102.0, 0.0616321364181638
103.0, 0.07061818894823539
104.0, 0.07900728284301849
105.0, 0.08624614328259422
106.0, 0.090681180609595
107.0, 0.08627993564335322
108.0, 0.07805673305231473
109.0, 0.0676351233500599
110.0, 0.05358164143711654
111.0, 0.037849653518177324
112.0, 0.026107008837933578
113.0, 0.021546547366458328
114.0, 0.01990577680212642
115.0, 0.020190750263125605
116.0, 0.01992480237841932
117.0, 0.016876104630048728
118.0, 0.015671208457577794
119.0, 0.014055616916984462
120.0, 0.01297291833717975
121.0, 0.012991497307028243
122.0, 0.013882392965783589
123.0, 0.013594591239961694
124.0, 0.012932044013356733
125.0, 0.01208274670996001
126.0, 0.01167778725756107
127.0, 0.011707063743935401
128.0, 0.011398422308642454
129.0, 0.011562958474073584
130.0, 0.011666585915529331
131.0, 0.011400298685085472
132.0, 0.010908558681710548
133.0, 0.010524223422265916
134.0, 0.010174561995124978
135.0, 0.010409578453106486
136.0, 0.011011771418142224
137.0, 0.011754098246543537
138.0, 0.012447883388911585
139.0, 0.013026833065645883
140.0, 0.012484900095572097
141.0, 0.011752611645523653
142.0, 0.011155032116602027
143.0, 0.011049196867761131
144.0, 0.011730789308245811
145.0, 0.0117848751065575
146.0, 0.012186335708058766
147.0, 0.012514099563325585
148.0, 0.012590891875818947
149.0, 0.012468097291778783
150.0, 0.012711013918417882
151.0, 0.01345843039639385
152.0, 0.014279657738689182
153.0, 0.014604514706678767
154.0, 0.014443093324734022
155.0, 0.014730500209089642
156.0, 0.014520021955489019
157.0, 0.014777277790339155
158.0, 0.01555461035598212
159.0, 0.016701971811470866
160.0, 0.017895938494058804
161.0, 0.0184528525765871
162.0, 0.020450610994879635
163.0, 0.023724180376969564
164.0, 0.02719721663110347
165.0, 0.03056025507346986
166.0, 0.03581153296861982
167.0, 0.04214656739868284
168.0, 0.05148076080402272
169.0, 0.06219200348558828
170.0, 0.0735644449463456
171.0, 0.08564148042459035
172.0, 0.0955311398352752
173.0, 0.10988448226223366
174.0, 0.12717568168128496
175.0, 0.148144820460415
176.0, 0.17261426468205052
177.0, 0.19600624923218754
178.0, 0.23048945258871187
179.0, 0.26511925917344864
180.0, 0.2901589667558668
181.0, 0.29920812142789843
182.0, 0.2900521261665763
183.0, 0.2624352982491791
184.0, 0.23104854859168297
185.0, 0.208876966520348
186.0, 0.20246184215992508
187.0, 0.21290055104091227
188.0, 0.2335512453104573
189.0, 0.2669907277347117
190.0, 0.3041720012837205
191.0, 0.3497462811882828
192.0, 0.3978512248721924
193.0, 0.42997157247627715
194.0, 0.41846867298028906
195.0, 0.3674352075130631
196.0, 0.2911193289633638
197.0, 0.2079575065289627
198.0, 0.13655804915013858
199.0, 0.09030376932302694
200.0, 0.0671057954569244
201.0, 0.05206652456370093
202.0, 0.042771834558159416
203.0, 0.036480066060785354
204.0, 0.02965648529743677
205.0, 0.022524453896002678
206.0, 0.018620977252534004
207.0, 0.015374895675452013
208.0, 0.013006856611563377
209.0, 0.012214199602068326
210.0, 0.012432779615021178
211.0, 0.011667443146635212
212.0, 0.011721652146444704
213.0, 0.012552134846644606
214.0, 0.013624008281443353
215.0, 0.014224086122169853
216.0, 0.014837529701014724
217.0, 0.01510859250081021
218.0, 0.01674454094363869
219.0, 0.01912820162614134
220.0, 0.021542438933797058
221.0, 0.024508118502074353
222.0, 0.026359174327275827
223.0, 0.028559355531644865
224.0, 0.029277137126689938
225.0, 0.027630376648520187
226.0, 0.023808099437322122
227.0, 0.019425280900201045
228.0, 0.014204330175765811
229.0, 0.010322591573202398
230.0, 0.007598156946711352
231.0, 0.0056340708524138155
232.0, 0.004385947248549779
233.0, 0.0031128834205494645
234.0, 0.0026211640676814273
235.0, 0.002270759982143354
236.0, 0.0016679888784178708
237.0, 0.0009089520146179745
238.0, 0.0013539359214106597
239.0, 0.0011922446302745533
240.0, 0.001165532790727376
241.0, 0.001071794185560712
242.0, 0.0008104944133262499
243.0, 0.0004987866412215008
244.0, 0.0005712253732559846
245.0, 0.0004654297446742627
246.0, 0.0003538807819126513
247.0, 0.000212009001322814
248.0, 5.7279927817765764e-05
249.0, 8.361810808433121e-05
250.0, 0.00033975537793826176
251.0, 0.00018790812451271633
252.0, 0.0002929520855445587
253.0, 0.000500861548153001
254.0, 0.0003931243739176234
255.0, 0.0005028268305776769
256.0, 0.00034657940001367183
257.0, 0.0002754379197186317
258.0, 0.0010270660464937473
259.0, 0.0018820557868880618
260.0, 0.0010980117310526315
261.0, 0.0029170035192437947
262.0, 0.0011066933298513966
263.0, 0.00014849494745325796
264.0, 0.00015752857046810677
265.0, 0.00029291072569659186
266.0, 0.00029354113549522477
267.0, 0.0003778130886381415
268.0, 0.0002718528255339802
269.0, 0.00038973512853699625
270.0, 0.00047291437664158023
271.0, 0.0001719837680860873
272.0, 0.00011984144169407122
273.0, 0.00034954882124379886
274.0, 0.0005313356880254691
275.0, 0.0006680564160688136
276.0, 0.0007387606516609857
277.0, 0.0008012210847754163
278.0, 0.0019263229663275554
279.0, 0.002697192172807969
280.0, 0.0025458333176907556
281.0, 0.002161436370566102
282.0, 0.002144073220176969
283.0, 0.002507428825649629
284.0, 0.0029478260135668657
285.0, 0.003965490886112952
286.0, 0.004996346506946202
287.0, 0.0053679891987247425
288.0, 0.005189059443539165
289.0, 0.006384992791405017
290.0, 0.0066321791358141995
291.0, 0.007809656484983015
292.0, 0.008636533353874409
293.0, 0.009297755613323796
294.0, 0.010564922126282773
295.0, 0.011853775347188247
296.0, 0.013204915415002634
297.0, 0.014835436009348594
298.0, 0.016915560719161667
299.0, 0.019255600306249288
300.0, 0.02149810650545775
301.0, 0.024189326538368812
302.0, 0.02681307344538623
303.0, 0.030365049117673504
304.0, 0.0345169791020618
305.0, 0.038453007665245946
306.0, 0.041242824504453185
307.0, 0.043217872939188856
308.0, 0.04403739340580332
309.0, 0.044718561667647976
310.0, 0.04408957955849687
311.0, 0.04155743720266759
312.0, 0.038517141045453215
313.0, 0.034886283726460535
314.0, 0.03143675609138054
315.0, 0.028068806508950606
316.0, 0.025474176052919413
317.0, 0.02425093543263077
318.0, 0.024054681010065814
319.0, 0.025411093393472396
320.0, 0.026308177204820846
321.0, 0.028411732489629114
322.0, 0.031369889133854134
323.0, 0.03454627076695651
324.0, 0.040083316075483835
325.0, 0.044469153434000305
326.0, 0.051552771156256914
327.0, 0.05778363183654616
328.0, 0.0646913338137301
329.0, 0.07508889450452166
330.0, 0.08138523602111893
331.0, 0.09326836090428443
332.0, 0.1031351342154834
333.0, 0.11248659511212705
334.0, 0.12021935492988335
335.0, 0.12300702461931119
336.0, 0.12037029537789669
337.0, 0.11180352193397662
338.0, 0.10413455978287464
339.0, 0.0970148709594373
340.0, 0.09152977324472758
341.0, 0.09040920920152803
342.0, 0.09283405527222575
343.0, 0.09970453713822089
344.0, 0.10882587434481723
345.0, 0.11975569835933711
346.0, 0.13119648462817757
347.0, 0.141130600892934
348.0, 0.1507578807343943
349.0, 0.15466577277340174
350.0, 0.15158176147146146
351.0, 0.14064492654507377
352.0, 0.12301278882333011
353.0, 0.1021180690862177
354.0, 0.08276477366441956
355.0, 0.0643967673645016
356.0, 0.05153735094277165
357.0, 0.041473485351515585
358.0, 0.03264738771889974
359.0, 0.027058859831520527
360.0, 0.023249724663024347
361.0, 0.019225412345046173
362.0, 0.01670430749469275
363.0, 0.014715760359587562
364.0, 0.012445814695997036
365.0, 0.010385415223189292
366.0, 0.010595371974234123
367.0, 0.009446750993428833
368.0, 0.00943922801511446
369.0, 0.009992486190073941
370.0, 0.010368080584548819
371.0, 0.010764132157670445
372.0, 0.011779765479086862
373.0, 0.012580815436588639
374.0, 0.014254101643442237
375.0, 0.01597219744648795
376.0, 0.01758245255865229
377.0, 0.020253245688913447
378.0, 0.022788483226694904
379.0, 0.02505167821340291
380.0, 0.027924363467507974
381.0, 0.0309605320778839
382.0, 0.03366426577560505
383.0, 0.03586719911442724
384.0, 0.03680828021223017
385.0, 0.036572168897361805
386.0, 0.03454873138438726
387.0, 0.03223002998098277
388.0, 0.029651273928555
389.0, 0.02515184369076399
390.0, 0.021318363175302432
391.0, 0.01617422999454236
392.0, 0.012642086482821452
393.0, 0.010230635809005897
394.0, 0.008174296588670252
395.0, 0.006253583529977424
396.0, 0.0050027465948218495
397.0, 0.003852021415381986
398.0, 0.0027655433501486853
399.0, 0.001812101403299952
400.0, 0.0010131463531551637
401.0, 0.0003764334012514788
402.0, 0.00015545982433203532
403.0, 0.00045847239555148943
404.0, 0.0005271404289323446
405.0, 0.0007042199033567923
406.0, 0.0009582316911470238
407.0, 0.0010165736382518843
408.0, 0.0011575301021335015
409.0, 0.0011079163204983941
410.0, 0.0008426918243519472
411.0, 0.0006188910056578306
412.0, 0.0004524091125750278
413.0, 0.0004088146952975598
414.0, 0.0011868710293326016
415.0, 0.0011114181729746126
416.0, 0.00086031459591386
417.0, 0.0011901751537719888
418.0, 0.001269890921692976
419.0, 0.0005476829125859846
420.0, 0.0007556741900623514
421.0, 0.0010425919260376533
422.0, 0.0004005348091103547
423.0, 0.0001092038271038825
424.0, 0.0003196907100948876
425.0, 0.0005898947001839534
426.0, 0.00036538534552991986
427.0, 0.0003308212484669179
428.0, 0.000715785311254854
429.0, 0.0013747212696536713
430.0, 0.0019000365863190356
431.0, 0.002246850769499661
432.0, 0.002825039144148652
433.0, 0.003416074753777147
434.0, 0.00398737045543633
435.0, 0.004643649897434486
436.0, 0.005427772893832513
437.0, 0.006319236068557077
438.0, 0.007275742545564235
439.0, 0.00837532554820425
440.0, 0.0095611778262307
441.0, 0.010931167688052891
442.0, 0.012392272386132474
443.0, 0.013803858920346577
444.0, 0.015200500691739215
445.0, 0.01711739345611535
446.0, 0.01941718873788945
447.0, 0.021152299410024663
448.0, 0.024219774258282856
449.0, 0.027548357704610473
450.0, 0.030251639299784566
451.0, 0.03409160610231594
452.0, 0.038930030125709045
453.0, 0.044214848611399966
454.0, 0.050126859345281
455.0, 0.057274863595121114
456.0, 0.06561898443235123
457.0, 0.07436959633733266
458.0, 0.08376975592637037
459.0, 0.0972264535975713
460.0, 0.11330359575691175
461.0, 0.13284618900506848
462.0, 0.15682523118887162
463.0, 0.18553475976158493
464.0, 0.21767983876067054
465.0, 0.26386459511330934
466.0, 0.313151042431918
467.0, 0.37042886790947943
468.0, 0.4344779725981434
469.0, 0.5036058040289791
470.0, 0.5813702566034932
471.0, 0.662852806421748
472.0, 0.7518250654560912
473.0, 0.8387723341138559
474.0, 0.914651526760714
475.0, 0.970696243296448
476.0, 0.9999976350365622
477.0, 0.9999746742264868
478.0, 0.9542441290734848
479.0, 0.8670855583405581
480.0, 0.7493855386864364
481.0, 0.6229170207403809
482.0, 0.5078369002618067
483.0, 0.40250284910947387
484.0, 0.3276755156694258
485.0, 0.2686783389101473
486.0, 0.2222388236888648
487.0, 0.18664068471512538
488.0, 0.15962475190811373
489.0, 0.13752658146761904
490.0, 0.12148754902692613
491.0, 0.10703138220296823
492.0, 0.09491820845542233
493.0, 0.08579743256518312
494.0, 0.07917644683726505
495.0, 0.07383845854914424
496.0, 0.06942452276425286
497.0, 0.06530437615446594
498.0, 0.06227322878253354
499.0, 0.05953176384171244
500.0, 0.05725472964684757
501.0, 0.05526220193715646
502.0, 0.05206338975091881
503.0, 0.04887496525924706
504.0, 0.045255980402770554
505.0, 0.04185827976216495
506.0, 0.038292290489926335
507.0, 0.034479006585316226
508.0, 0.030925460298119142
509.0, 0.028393467060970283
510.0, 0.02574537614677809
511.0, 0.023572117874566808
512.0, 0.021871481883653454
513.0, 0.020363710892460165
514.0, 0.018875765869621117
515.0, 0.017672401404227666
516.0, 0.017658861472448547
517.0, 0.016836883445508863
518.0, 0.016317723695625983
519.0, 0.01563172762612073
520.0, 0.014676366309153515
521.0, 0.013959775208712017
522.0, 0.013867200952374667
523.0, 0.014114387311652174
524.0, 0.01383837285002726
525.0, 0.014125442373701778
526.0, 0.015190367300343961
527.0, 0.016513505396226175
528.0, 0.017369788743594364
529.0, 0.018969379107633817
530.0, 0.021557250789398952
531.0, 0.024577878091997404
532.0, 0.02712727868033297
533.0, 0.02947759239943205
534.0, 0.03288294677051366
535.0, 0.03855865438819019
536.0, 0.04272631134943022
537.0, 0.045037355208512715
538.0, 0.04838796255052524
539.0, 0.051399300600781406
540.0, 0.052377224209121984
541.0, 0.05116809010023941
542.0, 0.04790848999671996
543.0, 0.04618950660659944
544.0, 0.04401876644982262
545.0, 0.043758521138239664
546.0, 0.04540960351433351
547.0, 0.04794869257805294
548.0, 0.05137878203180026
549.0, 0.056369587251719894
550.0, 0.06288243120610922
551.0, 0.07096891221869031
552.0, 0.07965920606102182
553.0, 0.089171755414567
554.0, 0.1002987706280732
555.0, 0.11215232690068276
556.0, 0.12113910826603719
557.0, 0.12901737168945995
558.0, 0.13283886931941377
559.0, 0.1315807418055081
560.0, 0.1259749416836821
561.0, 0.11726953303579901
562.0, 0.10340809439243538
563.0, 0.08746467014265763
564.0, 0.07308492069560624
565.0, 0.05990781366166907
566.0, 0.0486017027507248
567.0, 0.03955173937957304
568.0, 0.03193730104764612
569.0, 0.027083988586030176
570.0, 0.022525609614032147
571.0, 0.018733791922772306
572.0, 0.01526561096655734
573.0, 0.012352680296283877
574.0, 0.010393789485577037
575.0, 0.008946166898287105
576.0, 0.006399877928069174
577.0, 0.005206567110330634
578.0, 0.0044866149498867846
579.0, 0.003721649232315962
580.0, 0.0030343752614779983
581.0, 0.002513988227811277
582.0, 0.0009154176973401568
583.0, 0.0007603066080120219
584.0, 0.0002883878535666939
585.0, 0.0006012800212258448
586.0, 0.0008543291304541461
587.0, 0.0006172618223720517
588.0, 0.000481222379773009
589.0, 0.000905644817325211
590.0, 0.0007860209060277392
591.0, 0.00078806754238481
592.0, 0.0007859000776587792
593.0, 0.0009105862397726619
594.0, 0.001077966951902263
595.0, 0.0008825044196333313
596.0, 0.00015766155501595596
597.0, 0.0004711463227551854
598.0, 0.0011195195546178883
599.0, 0.0013833442094562645
600.0, 0.001609696608534779
601.0, 0.0020724099553948794
602.0, 0.0025328667273968224
603.0, 0.004193922058217431
604.0, 0.005165475770509957
605.0, 0.006819983329472763
606.0, 0.008562681882483884
607.0, 0.01089061071352862
608.0, 0.013431174316483436
609.0, 0.014491741401089579
610.0, 0.017781378677787483
611.0, 0.020388923635457967
612.0, 0.02238946770584914
613.0, 0.023934368250002832
614.0, 0.025574447519660704
615.0, 0.02719465726684166
616.0, 0.027580058799193966
617.0, 0.026862120650972484
618.0, 0.02482362699364919
619.0, 0.021537901862604805
620.0, 0.018801690369094994
621.0, 0.016838556300829165
622.0, 0.014514901209749916
623.0, 0.010788326169203
624.0, 0.008891545540738318
625.0, 0.007864721422859731
626.0, 0.005962674091871715
627.0, 0.004545826481606555
628.0, 0.0039288180145596865
629.0, 0.0036603623617106076
630.0, 0.00336058981852102
631.0, 0.003134178155181707
632.0, 0.0033777831897076243
633.0, 0.003790222159018923
634.0, 0.0035288060953691668
635.0, 0.003452511027941603
636.0, 0.003871916768637681
637.0, 0.003488503139927177
638.0, 0.003684917446167556
639.0, 0.003598463626359607
640.0, 0.0036879523745176443
641.0, 0.0035043045782473573
642.0, 0.0031833237702935534
643.0, 0.0028270113332143063
644.0, 0.0022191235354557426
645.0, 0.0017373112940025934
646.0, 0.0012688906168746377
647.0, 0.0011872306307883973
648.0, 0.0009075057889871506
649.0, 0.0009761355062727247
650.0, 0.0012956744650562007
651.0, 0.0009648524585790868
652.0, 0.0008654754363420609
653.0, 0.0009545756835532656
654.0, 0.0002815533914892501
655.0, 0.0010205438728921343
656.0, 0.0011683806983959282
657.0, 0.0005698796637493409
658.0, 0.0011694334511955194
659.0, 0.001647045605092837
660.0, 0.001549383944639336
661.0, 0.0018319840078818235
662.0, 0.001580523965587952
663.0, 0.0016603609933827188
664.0, 0.0021721429402896553
665.0, 0.0024527565973747664
666.0, 0.002336171214499968
667.0, 0.000790630641835015
668.0, 0.0014868455634937396
669.0, 0.0018457349764074281
670.0, 0.0013890617328841464
671.0, 0.0014778533073510217
672.0, 0.002404690467853645
673.0, 0.0017398288983598675
674.0, 0.0021495187349590576
675.0, 0.0029035696864125426
676.0, 0.002774015380580678
677.0, 0.0025992376236518614
678.0, 0.002679354589722565
679.0, 0.0028358926108400066
680.0, 0.002938093046608939
681.0, 0.0036327065026965206
682.0, 0.003153361932756998
683.0, 0.00334644004647585
684.0, 0.003164434517259782
685.0, 0.003505435209560597
686.0, 0.00407405558888014
687.0, 0.0037331300972370273
688.0, 0.0038773122165901056
689.0, 0.004907959954147122
690.0, 0.0051860547891340895
691.0, 0.004946956555275656
692.0, 0.004982390354599133
693.0, 0.005272159118454253
694.0, 0.005570894495256442
695.0, 0.00620213300349237
696.0, 0.006122285005008562
697.0, 0.006212682980822431
698.0, 0.006197870631321899
699.0, 0.006312385901860696
700.0, 0.00672932676947711
701.0, 0.007099114246098306
702.0, 0.006953034085192686
703.0, 0.007357054881057897
704.0, 0.007574836118346316
705.0, 0.00762138864951629
706.0, 0.008459779404402078
707.0, 0.008751759517399054
708.0, 0.008457849022404495
709.0, 0.008853575780146845
710.0, 0.01025043039141859
711.0, 0.009167960463246016
712.0, 0.007643675980463411
713.0, 0.008007446318624906
714.0, 0.00798855560303791
715.0, 0.007871024227107325
716.0, 0.0079598231359163
717.0, 0.007309943065269273
718.0, 0.008133700478492597
719.0, 0.007059022131193736
720.0, 0.006925964562561537
721.0, 0.006920795837563939
722.0, 0.007121566000770923
723.0, 0.00685283269198886
724.0, 0.005809826122933125
725.0, 0.005786705158078567
726.0, 0.005902727124245046
727.0, 0.005729852755090793
728.0, 0.006088474362062078
729.0, 0.006119025829962145
730.0, 0.006003693066003803
731.0, 0.006165693424837488
732.0, 0.00637089977967761
733.0, 0.005681568788843341
734.0, 0.006169428169477352
735.0, 0.005591761622921822
736.0, 0.005781583647917712
737.0, 0.006422389866965608
738.0, 0.006868197476921901
739.0, 0.007057438070607701
740.0, 0.007512625839967665
741.0, 0.007687361110720565
742.0, 0.006404145327273679
743.0, 0.006876187493978961
744.0, 0.007406351372003322
745.0, 0.007384509572584904
746.0, 0.007423312870411273
747.0, 0.007773671891151328
748.0, 0.006743480134299684
749.0, 0.0076662166435725095
750.0, 0.007224843496054305
751.0, 0.00808642145215665
752.0, 0.008978888813634147
753.0, 0.0089543033854881
754.0, 0.008850242711444505
755.0, 0.009641614811166195
756.0, 0.007883603027353003
757.0, 0.007364754518478997
758.0, 0.007662278473382605
759.0, 0.008118053330228352
760.0, 0.0076726466274002186
761.0, 0.007357146892950115
762.0, 0.0076423103674160215
763.0, 0.006917874230976223
764.0, 0.006674898497289632
765.0, 0.005758121844925045
766.0, 0.006362691463842391
767.0, 0.0058504948545105885
768.0, 0.005376897999584979
769.0, 0.005021889287299563
770.0, 0.004522186500979708
771.0, 0.005140960998960385
772.0, 0.004484812203706684
773.0, 0.0032630455822957186
774.0, 0.0037804130072553524
775.0, 0.003729375716074276
776.0, 0.003582687476807818
777.0, 0.003477924617975959
778.0, 0.0031932304815504727
779.0, 0.003583785262208711
780.0, 0.0026769681971667955
781.0, 0.003546485243017418
782.0, 0.002998376977761715
783.0, 0.0026840362779176736
784.0, 0.0024530030535402526
785.0, 0.002107555857250943
786.0, 0.0020744173003033268
787.0, 0.0024935685816222784
788.0, 0.0020688551957475324
789.0, 0.002188289857141938
790.0, 0.0012604174400519825
791.0, 0.001432224347992997
792.0, 0.0021641950716179605
793.0, 0.0021043902939100034
794.0, 0.0012633998070799054
795.0, 0.0014470189857139493
796.0, 0.0013555260578870794
797.0, 0.001572311004467324
798.0, 0.001509998101340519
799.0, 0.0013832030953330118
800.0, 0.001426183795650852
801.0, 0.0014732217893468414
802.0, 0.0013787810615612406
803.0, 0.0015790158777012472
804.0, 0.0009985877463065025
805.0, 0.0007590534728004509
806.0, 0.0011751316604292216
807.0, 0.0010733145056731094
808.0, 0.0009605187850184279
809.0, 0.000715667184028924
810.0, 0.0001624307288422845
811.0, 0.0007107656913102837
812.0, 0.0007242743638861257
813.0, 0.0010893144108955375
814.0, 0.00034655375649916294
815.0, 0.0001858245454180637
816.0, 0.0002120827284189701
817.0, 0.00030358870170931645
818.0, 0.0005616433606604155
819.0, 0.00041654847675882316
820.0, 0.0008043753135991767
821.0, 0.0007547380316689327
822.0, 0.00031128375304512
823.0, 0.00014553618905549937
824.0, 0.00022061343438465944
825.0, 0.0003076565270771462
826.0, 0.0002714730566828263
827.0, 0.00020113895363297837
828.0, 0.00048476699385831376
829.0, 0.0001534389309476783
830.0, 0.00044511378791618387
831.0, 0.0005846736644776417
832.0, 0.0007013206978564019
833.0, 0.0008111098311273124
834.0, 0.0008466502598621717
835.0, 0.0008127848815069889
836.0, 0.0006508385349162059
837.0, 0.00024878699803254433
838.0, 0.00022201447514755466
839.0, 9.512114828823824e-05
840.0, 0.00017042149421147478
841.0, 0.0002052268697496431
842.0, 0.0001062258739730553
843.0, 0.00019966041637617437
844.0, 0.0006438843695579252
845.0, 0.0002616814703445962
846.0, 0.0003098995220578561
847.0, 0.0006976360925958991
848.0, 0.0006978355055372666
849.0, 0.0003776880323409845
850.0, 0.0001811192783382813
851.0, 0.0004113676295823508
852.0, 0.0008321027195194061
853.0, 0.0005569611966775771
854.0, 0.00038048903360615933
855.0, 0.0004617071307368242
856.0, 0.00027173415410089273
857.0, 0.00037932482562811536
858.0, 0.0004873788551032761
859.0, 0.0004126194074772715
860.0, 0.0005086021037927238
861.0, 0.000659337806988231
862.0, 0.0004517197235121218
863.0, 0.0001511735363421702
864.0, 0.000277848127608728
865.0, 0.0002835662338216083
866.0, 0.0004653199533889716
867.0, 0.0004567992587875348
868.0, 0.00010053930513949242
869.0, 0.00024071256267664093
870.0, 2.1842564310769065e-05
871.0, 0.0005819617181945078
872.0, 0.0006942350260055805
873.0, 0.0009631036204712786
874.0, 0.0010106848831262245
875.0, 0.0005951309515378436
876.0, 0.0001366902661467729
877.0, 0.00016841223341566633
878.0, 0.00040001906327947405
879.0, 0.0010710123458232323
880.0, 0.0012394574326727444
881.0, 0.0009221081068934481
882.0, 0.00030116880895576017
883.0, 0.00017778796815530262
884.0, 0.0006509916873342013
885.0, 0.0008515461954338528
886.0, 0.00024459235750805855
887.0, 0.0005491452883493029
888.0, 0.0003927854617659024
889.0, 0.00036684915230552717
890.0, 0.00010798964500674703
891.0, 0.00043982484690604205
892.0, 0.0006588238328915904
893.0, 0.000514284407300703
894.0, 0.0005056278591822997
895.0, 0.0007188440442412027
896.0, 0.0002906731077539318
897.0, 0.0002252955289316856
898.0, 0.00020594670945720897
899.0, 6.89647208013761e-05
900.0, 0.0005731181687645113
901.0, 0.0009944527098354726
902.0, 0.0010157982600350211
903.0, 0.0009328492911784396
904.0, 0.0005221468482715796
905.0, 0.0006674328128276583
906.0, 0.00045008576498994945
907.0, 0.0005290421641699157
908.0, 0.0008598029050006832
909.0, 0.0013034031913011427
910.0, 0.00116208337271909
911.0, 0.0007038910651484753
912.0, 0.0006473907837878589
913.0, 0.0004171147543015644
914.0, 0.0009143408191938835
915.0, 0.0007535759134641274
916.0, 0.0005533734677855861
917.0, 0.0009759295811533999
918.0, 0.0009944073318280727
919.0, 0.0007725209869746926
920.0, 0.0008745310513296182
921.0, 0.001338055146196798
922.0, 0.0017783034184978355
923.0, 0.0008812991444480956
924.0, 0.0018755880109382437
925.0, 0.0012109934329541218
926.0, 0.0006463407336822001
927.0, 0.0004181873566113869
928.0, 0.00028733251707653296
929.0, 0.0005434928169984782
930.0, 0.0011452061396319418
931.0, 0.0008198181628201213
932.0, 0.0014237094411750633
933.0, 0.0012985557844966604
934.0, 0.0010365426481696578
935.0, 0.0009377899341913072
936.0, 0.0010848146407971813
937.0, 0.0013971966328605522
938.0, 0.0014885351871969134
939.0, 0.0012529698249479446
940.0, 0.0013244899592005353
941.0, 0.0015391569236014695
942.0, 0.0007776150133930384
943.0, 0.0011493129652344373
944.0, 0.0012563357787481974
945.0, 0.0014399959767422666
946.0, 0.0015761267162858388
947.0, 0.0013125228764520552
948.0, 0.0009469682725347593
949.0, 0.0013049713751166461
950.0, 0.0018295657500274857
951.0, 0.0012625090789360404
952.0, 0.0014068129813849613
953.0, 0.0012683565569352759
954.0, 0.0015047225941553838
955.0, 0.0015505591319520359
956.0, 0.0013522233517701786
957.0, 0.001150237389883286
958.0, 0.0010413316547342203
959.0, 0.0015391631231202764
960.0, 0.0006298238662068973
961.0, 0.0006040904989772081
962.0, 0.0011795833808643501
963.0, 0.0015251476021401285
964.0, 0.0016977249915768777
965.0, 0.001447221054715368
966.0, 0.0012154873275003054
967.0, 0.0014644249773878438
968.0, 0.0012869492698171466
969.0, 0.0013907026937453476
970.0, 0.001329514562366639
971.0, 0.0006964354371191815
972.0, 0.0006821325928340629
973.0, 0.0013321076834713575
974.0, 0.0017435026874011513
975.0, 0.001529212342269782
976.0, 0.0011236913900457611
977.0, 0.0010514631211779096
978.0, 0.001228200944082827
979.0, 0.0013279738851688344
980.0, 0.0014649563307375711
981.0, 0.001513772759365444
982.0, 0.0016334210098956949
983.0, 0.001440713857103373
984.0, 0.0015870018268766355
985.0, 0.0020045249234055197
986.0, 0.002048233131523472
987.0, 0.001991508290445953
988.0, 0.0013608726812906506
989.0, 0.001349141135658166
990.0, 0.0012852530681950135
991.0, 0.0013764746963374614
992.0, 0.0015162007438415716
993.0, 0.001702547299893504
994.0, 0.0017216912604212887
995.0, 0.0016843189171531563
996.0, 0.0019963109899457654
997.0, 0.00240801025980028
998.0, 0.002128647185708089
999.0, 0.002123018259379324
1000.0, 0.0022327292693623295
1001.0, 0.002113459737586382
1002.0, 0.0016082264218824187
1003.0, 0.0016283619270943
1004.0, 0.0021106211108651894
1005.0, 0.0020750242145467037
1006.0, 0.0014456893802149847
1007.0, 0.0016217758744152754
1008.0, 0.0007499008670890729
1009.0, 0.0018047596253240245
1010.0, 0.0018484466368191915
1011.0, 0.0014694836420084615
1012.0, 0.0016738506363637108
1013.0, 0.0017545518871973631
1014.0, 0.0016233714365086797
1015.0, 0.0016957035930816144
1016.0, 0.0017255002283891954
1017.0, 0.001602294596196186
1018.0, 0.002208660508606309
1019.0, 0.0024231259039304747
1020.0, 0.0020070790710223626
1021.0, 0.001762531482412
1022.0, 0.0012244365356919285
1023.0, 0.0014856153142008253
1024.0, 0.0019446892416766968
1025.0, 0.0019352478538083523
1026.0, 0.0021287830009605138
1027.0, 0.0015184099318883812
1028.0, 0.0013737941505521335
1029.0, 0.0022701044351507824
1030.0, 0.0021435524623751212
1031.0, 0.0017186210902148478
1032.0, 0.0010637572580111587
1033.0, 0.0016254704072989586
1034.0, 0.0019111068869764837
1035.0, 0.0012845068392544979
1036.0, 0.0016003600134382153
1037.0, 0.0019773806601916816
1038.0, 0.0018591014715036692
1039.0, 0.0010243938275260962
1040.0, 0.0016430730338077367
1041.0, 0.0013376679632787943
1042.0, 0.0014358212884172652
1043.0, 0.001264125654046643
1044.0, 0.0011998847593078937
1045.0, 0.0015211741106347357
1046.0, 0.0017482364529318429
1047.0, 0.002052940156712408
1048.0, 0.0024145892317258967
1049.0, 0.001665200637664979
1050.0, 0.0012175143493573265
1051.0, 0.0016086665562373495
1052.0, 0.002014580678741456
1053.0, 0.0020182995672976345
1054.0, 0.001710305898169036
1055.0, 0.0013015037835477274
1056.0, 0.0010197272968181187
1057.0, 0.0010131970992748945
1058.0, 0.0010147735007637643
1059.0, 0.0008976164869911433
1060.0, 0.001022770876310967
1061.0, 0.000980157330498693
1062.0, 0.0011372504563761383
1063.0, 0.0012169399197718878
1064.0, 0.0012299213482790583
1065.0, 0.0012506211563725093
1066.0, 0.0012900523869330094
1067.0, 0.0013384110955833423
1068.0, 0.0013649141446136104
1069.0, 0.001284640901579063
1070.0, 0.0016944240496891336
1071.0, 0.0013629113521694148
1072.0, 0.001489047452032
1073.0, 0.0011641477185929249
1074.0, 0.0012220288353942072
1075.0, 0.0015354546419680312
1076.0, 0.0015830247546677657
1077.0, 0.001467105928356838
1078.0, 0.0012627424207270848
1079.0, 0.0004573570783915645
1080.0, 0.001355374663718026
1081.0, 0.0006987255551444075
1082.0, 0.0013049311151048018
1083.0, 0.0013009072096123507
1084.0, 0.0015674177345299648
1085.0, 0.002177740416366962
1086.0, 0.002137854262784628
1087.0, 0.0015215654409300229
1088.0, 0.001410038536639652
1089.0, 0.0018510625405873651
1090.0, 0.0015390828087919841
1091.0, 0.0016193171087194782
1092.0, 0.0014980763696245602
1093.0, 0.0015469734645549692
1094.0, 0.0014526679718722133
1095.0, 0.0014649724673031243
1096.0, 0.0013970615134919738
1097.0, 0.0013798950829534203
1098.0, 0.0015626221365710622
1099.0, 0.0014977044918647814
1100.0, 0.0009099789545989997
1101.0, 0.000852793308709406
1102.0, 0.0009957429607792161
1103.0, 0.0012206189943928785
1104.0, 0.00023944914115402855
1105.0, 0.0001504620864386312
1106.0, 0.0006994950864011221
1107.0, 0.0007886638331948816
1108.0, 0.0012517702088836377
1109.0, 0.001511200575500997
1110.0, 0.001012092669288839
1111.0, 0.0007184533336468924
1112.0, 0.000765264580807572
1113.0, 0.0012324636223944878
1114.0, 0.0006649438556750441
1115.0, 0.001459157108164649
1116.0, 0.0009717424869433309
1117.0, 0.001013284924058388
1118.0, 0.0013396927586179586
1119.0, 0.0017533441414730375
1120.0, 0.001717619650017974
1121.0, 0.001800826837728349
1122.0, 0.0022951859990535373
1123.0, 0.002149889538360633
1124.0, 0.0029891599434406016
1125.0, 0.0013903611440094189
1126.0, 0.0012267604677219863
1127.0, 0.001251421057839167
1128.0, 0.001531548085437765
1129.0, 0.0007985019267775636
1130.0, 0.00039641939064451274
1131.0, 0.0004970884107978416
1132.0, 0.00090707827820913
1133.0, 0.00103906695938571
1134.0, 0.0006332259536246661
1135.0, 0.0010471979671557855
1136.0, 0.0005972434199987807
1137.0, 0.0010953498361623345
1138.0, 0.0004921611436297971
1139.0, 0.00041180387136895743
1140.0, 0.001020190553356924
1141.0, 0.0009878214506571154
1142.0, 0.0013348342701917275
1143.0, 0.001966283180162629
1144.0, 0.0016486898127515016
1145.0, 0.0011266679013544985
1146.0, 0.0018438968597175268
1147.0, 0.0014218841114627381
1148.0, 0.0014028560191915956
1149.0, 0.0013973971845155128
1150.0, 0.0004720830616964892
1151.0, 0.0007303360759704744
1152.0, 0.0007423987523292209
1153.0, 0.0004154756670968104
1154.0, 0.0005839051492363594
1155.0, 0.0011371143200415701
1156.0, 0.0009824303092676513
1157.0, 0.0001859913730224617
1158.0, 0.00021295455779448306
1159.0, 0.0007543476479267884
1160.0, 0.00028532466743310655
1161.0, 0.0003960288788938398
1162.0, 0.0002360980979710458
1163.0, 0.00012294363552628243
1164.0, 0.0001438748850392995
1165.0, 8.915883605653786e-05
1166.0, 0.00011598974871442576
1167.0, 0.0004328437986548354
1168.0, 0.0005271842384433116
1169.0, 0.00031822477371484977
1170.0, 0.0004339892228187509
1171.0, 0.00036788065310354185
1172.0, 1.2828392063502933e-05
1173.0, 0.00014017817631676102
1174.0, 0.0005565547953376666
1175.0, 0.0008127483423738331
1176.0, 0.0004025662073964435
1177.0, 0.000410278735254778
1178.0, 0.00029576975072967616
1179.0, 0.00016261361825825835
1180.0, 0.00010379844463330572
1181.0, 4.126615031930575e-05
1182.0, 0.00022025014120685606
1183.0, 0.0006792756151785317
1184.0, 0.0006249605556577875
1185.0, 0.0004370514895573861
1186.0, 0.00010193211452061394
1187.0, 0.00027763809837206936
1188.0, 0.0002871427173239274
1189.0, 0.00041368897058552834
1190.0, 0.0003278616108246927
1191.0, 0.00022180833757929177
1192.0, 0.00015382443638062805
1193.0, 8.176668830299558e-05
1194.0, 0.00022148048328184027
1195.0, 0.0005009686927669347
1196.0, 0.0003664852003556662
1197.0, 0.0006370297649340746
1198.0, 0.0003448641292238602
1199.0, 0.000747774324386591
1200.0, 0.0009437807832109286
1201.0, 0.0005485174434409286
1202.0, 0.0006523993592947885
1203.0, 0.0007718872097072589
1204.0, 0.0007441765759118403
1205.0, 0.0006886398285238499
1206.0, 0.0005234617237730285
1207.0, 0.00032902574726506416
1208.0, 0.00042467760121952494
1209.0, 0.0005184965347507284
1210.0, 0.0001430208115950958
1211.0, 0.0007551242509129558
1212.0, 0.0005009147736451142
1213.0, 0.00048117928919926743
1214.0, 0.0011699273052027744
1215.0, 0.0010452777961746317
1216.0, 0.000818635209022077
1217.0, 0.00037755863786481745
1218.0, 0.000751966463985181
1219.0, 0.0012814606288177861
1220.0, 0.001490067608058951
1221.0, 0.0020496950608261517
1222.0, 0.0016927317585294188
1223.0, 0.0012301176897647735
1224.0, 0.0013513654947417426
1225.0, 0.0011700676651809775
1226.0, 0.0016210017574831731
1227.0, 0.0011495867940029148
1228.0, 0.0010548943770030716
1229.0, 0.0011516798375607272
1230.0, 0.0005791192713940848
1231.0, 0.0003939460144862125
1232.0, 0.0006221186732856265
1233.0, 0.0008963332288638623
1234.0, 0.0010568931041113779
1235.0, 0.0007107868645215099
1236.0, 0.0007731859847237045
1237.0, 0.0011357284919353578
1238.0, 0.0010556830040880114
1239.0, 0.001358375151805207
1240.0, 0.001296325463260018
1241.0, 0.001475343209169287
1242.0, 0.0019486218685950492
1243.0, 0.0014882391224387583
1244.0, 0.0011104818578623551
1245.0, 0.0010961452538117067
1246.0, 0.0007016298093965529
1247.0, 0.00029293230457595396
1248.0, 0.00044267939259503127
1249.0, 0.0006312088971708226
1250.0, 0.001129124753117441
1251.0, 0.0003425130682299276
1252.0, 0.0004888977940449043
1253.0, 0.0006127040043640122
1254.0, 0.00042203777192648156
1255.0, 0.0008395820281980942
1256.0, 0.0005516151582433891
1257.0, 0.0007539840146399146
1258.0, 0.0007309821801590638
1259.0, 0.0006660612847428841
1260.0, 0.0009876835992318914
1261.0, 0.0011401020259193635
1262.0, 0.0006136368722389376
1263.0, 0.00030337865291878336
1264.0, 0.0010621765057496186
1265.0, 0.0010488295081599217
1266.0, 0.00024721351018837064
1267.0, 0.0010082573768898041
1268.0, 0.00101111642798022
1269.0, 0.0008301717519190235
1270.0, 0.0012537570276187247
1271.0, 0.001260857011080051
1272.0, 0.001005244026665073
1273.0, 0.0008242150346821869
1274.0, 0.0013890158197683773
1275.0, 0.001905369618984301
1276.0, 0.0015692735466782924
1277.0, 0.0011459970967422962
1278.0, 0.0009711312297603459
1279.0, 0.0006132245887538794
1280.0, 0.0011616841030418958
1281.0, 0.0005019524887934777
1282.0, 0.0009538277556788498
1283.0, 0.0007720192121749174
1284.0, 0.001215291609482599
1285.0, 0.00102089875779215
1286.0, 0.0008368378242389137
1287.0, 0.000636184642180821
1288.0, 0.000545872588895661
1289.0, 0.0004567573032230846
1290.0, 0.00030305303016929844
1291.0, 0.00024261652571408467
1292.0, 0.00025989360305822296
1293.0, 0.0002596984582503574
1294.0, 0.00043609137209231453
1295.0, 0.0005493951003869642
1296.0, 0.001246834230009227
1297.0, 0.0016259975611974233
1298.0, 0.00016625849200948238
1299.0, 0.0010920407287181213
1300.0, 0.0003520753293430946
1301.0, 0.000668215512934041
1302.0, 0.0005777901437969044
1303.0, 0.0010462713987616397
1304.0, 0.001316570427139185
1305.0, 0.0009808573757076936
1306.0, 0.0004893818737028178
1307.0, 0.0005140043896390706
1308.0, 0.001236766451855705
1309.0, 0.0012784964920179902
1310.0, 0.0007178528968118818
1311.0, 0.0008282952626241456
1312.0, 0.0005102486125329534
1313.0, 0.0011130553620531639
1314.0, 0.0008154308657465548
1315.0, 0.0008866569730755466
1316.0, 0.0008101350321689099
1317.0, 0.0005386735147973132
1318.0, 0.0009314639993706084
1319.0, 0.0012832787134637886
1320.0, 0.0012836665509361961
1321.0, 0.0015174665663939737
1322.0, 0.0011682342558087143
1323.0, 0.0006115047933363045
1324.0, 0.001118420643950491
1325.0, 0.0007881685111122777
1326.0, 0.0004268607936073526
1327.0, 0.0006026949652817303
1328.0, 0.0006181370171982456
1329.0, 0.0009397355707628205
1330.0, 0.0005328399777716975
1331.0, 0.0012113930123765567
1332.0, 0.0009265116350196003
1333.0, 0.0012474969088263732
1334.0, 0.000860820794405498
1335.0, 0.0008303545890438085
1336.0, 0.0007666644634751219
1337.0, 0.0006504054333772122
1338.0, 0.00043753993542552466
1339.0, 0.00033150080283228517
1340.0, 0.00044248555176074755
1341.0, 0.0003070518458198055
1342.0, 0.0006142646851522743
1343.0, 0.0010427740675981474
1344.0, 0.0004108686786753419
1345.0, 0.0005126507851638206
1346.0, 0.00017847305461519934
1347.0, 0.0009000718658023917
1348.0, 0.0002572382075071391
1349.0, 0.0005515184294398632
1350.0, 0.0006168101027661824
1351.0, 0.0005735989357655932
1352.0, 0.0004405362993409522
1353.0, 0.00024227572371457302
1354.0, 0.0002559976860915637
1355.0, 0.00036014754674359545
1356.0, 0.0002174418524731347
1357.0, 0.00017236925585546785
1358.0, 0.00041074614508877755
1359.0, 0.0003842056383920094
1360.0, 0.0006109342139449443
1361.0, 0.0006773851092087108
1362.0, 0.0008387302444378921
1363.0, 0.0004781885743629123
1364.0, 0.0006217813995731901
1365.0, 0.00044930627269157745
1366.0, 0.0002919240106079852
1367.0, 0.00043253745678959615
1368.0, 0.0005969368621281702
1369.0, 0.000599640315803745
1370.0, 0.000574369987929709
1371.0, 0.0005420846000337992
1372.0, 0.00045176917001507513
1373.0, 0.00025693680870769964
1374.0, 0.00014695208126372803
1375.0, 0.0003593948303179747
1376.0, 0.0007122004092357371
1377.0, 0.0006444739526857038
1378.0, 0.00013380623530817148
1379.0, 0.0003329498444459966
1380.0, 8.103487414386444e-05
1381.0, 0.0002195710519113615
1382.0, 0.0006558282268748139
1383.0, 0.0007097541509951428
1384.0, 0.00013751763166574389
1385.0, 0.0010733757070592687
1386.0, 0.0011351744719292384
1387.0, 0.0006532789724418457
1388.0, 0.0006786620531768852
1389.0, 0.00040202345469035123
1390.0, 0.0005762156550688915
1391.0, 0.0008543668689105652
1392.0, 0.0008937884572225993
1393.0, 0.0007837341366972642
1394.0, 0.0005984668920206848
1395.0, 0.0005456654644009315
1396.0, 0.00034719810350656395
1397.0, 0.0002754954959599911
1398.0, 0.000838282051813557
1399.0, 0.0005695175046918451
1400.0, 0.00044120327544336347
1401.0, 0.0003147545098717604
1402.0, 0.001211299295831549
1403.0, 0.000552836351760974
1404.0, 0.00035581245553330514
1405.0, 8.202609767707501e-05
1406.0, 0.0008990912566986746
1407.0, 0.0009461285381789278
1408.0, 0.001061149877314267
1409.0, 0.0014757279758899635
1410.0, 0.0010469895642652833
1411.0, 0.00038511931764498915
1412.0, 0.00040930094711564473
1413.0, 0.0007717304291920842
1414.0, 0.0010671666908586284
1415.0, 0.001298330309659971
1416.0, 0.0010502266935557523
1417.0, 0.0004206831359809236
1418.0, 0.0008337104280045462
1419.0, 0.0004578529817252019
1420.0, 0.0011188419119391659
1421.0, 0.0005565338509287271
1422.0, 0.0005232228058498073
1423.0, 0.0009250519832816748
1424.0, 0.00027451103272064956
1425.0, 0.0007240262761568748
1426.0, 0.0001660922966626754
1427.0, 0.0005747017686043409
1428.0, 0.0003330439517167851
1429.0, 0.0003041763667803259
1430.0, 0.00018001243556593234
1431.0, 0.0001353742245222311
1432.0, 0.00045859876864240103
1433.0, 0.0006384320939334349
1434.0, 0.0007838750070128591
1435.0, 0.0010125595230308807
1436.0, 0.0008037022551780969
1437.0, 0.0006185246746558868
1438.0, 0.0009375982418644504
1439.0, 0.0009625086239635366
1440.0, 0.0007838602245794379
1441.0, 0.0007540546110968289
1442.0, 0.0002970442881908835
1443.0, 0.00032327659908801504
1444.0, 0.001238816101191989
1445.0, 0.00011974830512272107
1446.0, 0.0011347027595189853
1447.0, 0.0002734701417995084
1448.0, 0.00017960600017406092
1449.0, 0.00014364794410750168
1450.0, 0.0005430504386816419
1451.0, 0.00039743237115939627
1452.0, 0.0008487977296670719
1453.0, 0.0010345564802902174
1454.0, 0.0006055910934003765
1455.0, 0.0004692325177517242
1456.0, 0.0006693447215448329
1457.0, 0.000736256131608265
1458.0, 0.0004931292798009869
1459.0, 0.00021168249390028591
1460.0, 0.0004187699417673026
1461.0, 0.0006478609369846901
1462.0, 0.000698071137173967
1463.0, 0.0012568595431363702
1464.0, 0.0010527954283722717
1465.0, 0.0006031796495420056
1466.0, 8.395562417275014e-05
1467.0, 0.0006143721936921794
1468.0, 0.0005797527230375462
1469.0, 0.0008897642834874294
1470.0, 9.964680253238105e-05
1471.0, 0.000492760704653414
1472.0, 0.0003140688500688945
1473.0, 0.0008674685131944383
1474.0, 0.0005557273144908112
1475.0, 0.000917332681733062
1476.0, 0.0008684811534253452
1477.0, 0.00033725989401072224
1478.0, 0.0007984352550045905
1479.0, 0.00106278409077699
1480.0, 0.000662052299330201
1481.0, 0.00029933038949127213
1482.0, 0.00032761868523517644
1483.0, 0.0004385034872223027
1484.0, 0.00042939867804855675
1485.0, 0.0006998262061379188
1486.0, 0.0006370097661815509
1487.0, 0.0010217750521756151
1488.0, 0.000944294762143898
1489.0, 0.0012238723054633952
1490.0, 0.0001758379329996964
1491.0, 0.0004313634217485288
1492.0, 0.0008194707194131906
1493.0, 0.0006819853670872044
1494.0, 0.0014397104471622249
1495.0, 0.0010888863654799894
1496.0, 0.0010789582159143514
1497.0, 0.0009241396856524514
1498.0, 0.0013354661766575703
1499.0, 0.0012248883843411916
1500.0, 0.0007859735140036041
1501.0, 0.0002743797384960713
1502.0, 0.00046306400893812114
1503.0, 0.00124281733069148
1504.0, 0.001114522374643065
1505.0, 0.0010974216698186648
1506.0, 0.0013455855929836182
1507.0, 0.0013242005269951383
1508.0, 0.0015722012383705645
1509.0, 0.0012776791112127416
1510.0, 0.0006297677122637616
1511.0, 0.0011848906787358597
1512.0, 0.0014476974883772759
1513.0, 0.0009017123042802992
1514.0, 0.0011058566926584695
1515.0, 0.0008809861189422919
1516.0, 0.0003686904860322897
1517.0, 0.0008827243791787339
1518.0, 0.0013696190334689074
1519.0, 0.00041695960112650074
1520.0, 0.0009449138030165049
1521.0, 0.0007732748427012381
1522.0, 0.0012260071806428133
1523.0, 0.000395778117112468
1524.0, 0.0008723744969679109
1525.0, 0.001302028164948255
1526.0, 0.0006227837361036052
1527.0, 0.0006350013917442692
1528.0, 0.00023589152395715745
1529.0, 0.0009302779692603458
1530.0, 0.0010420093775108275
1531.0, 0.000708848463919316
1532.0, 0.0004179405954657433
1533.0, 0.0006547387429488215
1534.0, 0.0005714777448043248
1535.0, 0.0004312344125289558
1536.0, 0.0009183601221161863
1537.0, 0.0011174428353526791
1538.0, 0.0009136101615124377
1539.0, 0.0006216559365374904
1540.0, 0.000496234646461169
1541.0, 0.0007429536580803378
1542.0, 0.0008670620592911325
1543.0, 0.0008362033764151689
1544.0, 0.0008637038117570735
1545.0, 0.0008362618522566258
1546.0, 0.000668432521699886
1547.0, 0.0008746787943185943
1548.0, 0.0007249442613306747
1549.0, 0.001131548011942889
1550.0, 0.001289771675434017
1551.0, 0.0018933096219099523
1552.0, 0.00202062107729763
1553.0, 0.0034063839538822083
1554.0, 0.004446447963247593
1555.0, 0.003034609251962534
1556.0, 0.0028265818646563685
1557.0, 0.0015945089203317996
1558.0, 0.000832989880353301
1559.0, 0.0007822481306930375
1560.0, 0.0016618651567861344
1561.0, 0.001052951177307167
1562.0, 0.000343221337892746
1563.0, 0.0008646842806926646
1564.0, 0.00025148705130927486
1565.0, 0.0006816201359773103
1566.0, 0.00117879630719567
1567.0, 0.0008224513637432164
1568.0, 0.00020878452295529376
1569.0, 0.0009506882039150223
1570.0, 0.0005446473282372545
1571, 0.0
1572, 0.0
1573, 0.0
1574, 0.0
1575, 0.0
1576, 0.0
1577, 0.0
1578, 0.0
1579, 0.0
1580, 0.0
1581, 0.0
1582, 0.0
1583, 0.0
1584, 0.0
1585, 0.0
1586, 0.0
1587, 0.0
1588, 0.0
1589, 0.0
1590, 0.0
1591, 0.0
1592, 0.0
1593, 0.0
1594, 0.0
1595, 0.0
1596, 0.0
1597, 0.0
1598, 0.0
1599, 0.0
