30, 0.0
31, 0.0
32, 0.0
33, 0.0
34, 0.0
35, 0.0
36, 0.0
37, 0.0
38, 0.0
39, 0.0
40, 0.0
41, 0.0
42, 0.0
43, 0.0
44, 0.0
45, 0.0
46, 0.0
47, 0.0
48, 0.0
49, 0.0
50, 0.0
51, 0.0
52, 0.0
53, 0.0
54, 0.0
55, 0.0
56, 0.0
57, 0.0
58, 0.0
59, 0.0
60, 0.0
61, 0.0
62, 0.0
63, 0.0
64, 0.0
65, 0.0
66, 0.0
67, 0.0
68, 0.0
69, 0.0
70, 0.0
71, 0.0
72, 0.0
73, 0.0
74, 0.0
75, 0.0
76, 0.0
77, 0.0
78, 0.0
79, 0.0
80, 0.0
81, 0.0
82, 0.0
83, 0.0
84, 0.0
85, 0.0
86, 0.0
87, 0.0
88, 0.0
89, 0.0
90, 0.0
91, 0.0
92, 0.0
93, 0.0
94, 0.0
95, 0.0
96, 0.0
97, 0.0
98, 0.0
99, 0.0
100, 0.0
101, 0.0
102, 0.0
103, 0.0
104, 0.0
105, 0.0
106, 0.0
107, 0.0
108, 0.0
109, 0.0
110, 0.0
111, 0.0
112, 0.0
113, 0.0
114, 0.0
115, 0.0
116, 0.0
117, 0.0
118, 0.0
119, 0.0
120, 0.0
121, 0.0
122, 0.0
123, 0.0
124, 0.0
125, 0.0
126, 0.0
127, 0.0
128, 0.0
129, 0.0
130, 0.0
131, 0.0
132, 0.0
133, 0.0
134, 0.0
135, 0.0
136, 0.0
137, 0.0
138, 0.0
139, 0.0
140, 0.0
141, 0.0
142.0, 0.0001573677943641999
143.0, 0.0008974578661938073
144.0, 0.0024430723950376303
145.0, 0.0013000829282102844
146.0, 0.0007636068788218014
147.0, 0.0002089952041960268
148.0, 0.0014449308818632418
149.0, 0.0010991361273790493
150.0, 0.0031185053238905326
151.0, 0.003911821684966099
152.0, 0.005184341475865536
153.0, 0.008351396685291255
154.0, 0.013415171844222206
155.0, 0.020010220932932636
156.0, 0.02775843880434887
157.0, 0.039856902701842535
158.0, 0.059687210732378135
159.0, 0.08453759822595315
160.0, 0.10933654240352535
161.0, 0.12877530962456654
162.0, 0.1410242463666528
163.0, 0.15153033960933854
164.0, 0.16247668267759494
165.0, 0.17588469541859247
166.0, 0.19292337268539395
167.0, 0.21365929063512326
168.0, 0.23535058828048522
169.0, 0.26510863954673924
170.0, 0.3030883433212375
171.0, 0.3474284048552747
172.0, 0.40470848375391055
173.0, 0.4794815575788812
174.0, 0.5659998507111905
175.0, 0.6648272954578865
176.0, 0.790567306768842
177.0, 0.925861352792124
178.0, 0.9965120842050378
179.0, 0.9407111682892391
180.0, 0.7547331778757411
181.0, 0.576583333719049
182.0, 0.46235325934827554
183.0, 0.4105845781191053
184.0, 0.40007528306991985
185.0, 0.4181444109501925
186.0, 0.46555097120996697
187.0, 0.5469135430549203
188.0, 0.6639738460443265
189.0, 0.8098456613874798
190.0, 0.9473642893273544
191.0, 0.9671320807702024
192.0, 0.8237610122479998
193.0, 0.5659271341572272
194.0, 0.35419436344621186
195.0, 0.22265200709456792
196.0, 0.15286954481148657
197.0, 0.11796473873883322
198.0, 0.09262109250133835
199.0, 0.07765392482041021
200.0, 0.069802555629162
201.0, 0.06612081345375156
202.0, 0.06410193161927805
203.0, 0.06004126830182748
204.0, 0.057692322162365604
205.0, 0.057207798183996066
206.0, 0.056230882670412624
207.0, 0.053682081017441714
208.0, 0.05053040020371059
209.0, 0.05012851618780501
210.0, 0.05230880289498052
211.0, 0.05275376149634134
212.0, 0.0527728641419729
213.0, 0.0556404146543279
214.0, 0.05889064752739868
215.0, 0.059486114203982025
216.0, 0.06590134208979045
217.0, 0.07449879898980262
218.0, 0.08503067000551662
219.0, 0.09898121074876956
220.0, 0.11746159454371416
221.0, 0.1315415052536397
222.0, 0.13283725942797414
223.0, 0.11699671083767113
224.0, 0.08523198442545774
225.0, 0.05419234634150916
226.0, 0.03451149350515
227.0, 0.022688912720687578
228.0, 0.014488480747927234
229.0, 0.009078892582303474
230.0, 0.005507261598051279
231.0, 0.003195626616412201
232.0, 0.0012085433417128402
233.0, 0.0010799962336581236
234.0, 0.0017403472253658488
235.0, 0.003973228991283249
236.0, 0.005282121470750116
237.0, 0.004815813630294458
238.0, 0.00626639994608997
239.0, 0.006106952900650981
240.0, 0.005868478109635908
241.0, 0.005404795565310872
242.0, 0.0038782364010000914
243.0, 0.0034192511422789394
244.0, 0.002286711577030269
245.0, 0.0009701264071389184
246.0, 0.0003730577564194337
247.0, 0.0009191304988859679
248.0, 0.00214397899462647
249.0, 0.002201605146004368
250.0, 0.000875601513309816
251.0, 0.0005292423299404801
252.0, 0.0014994862837366247
253.0, 0.0008509665618004083
254.0, 4.86035473237192e-05
255.0, 0.00022595179288589144
256.0, 0.002181346675011815
257.0, 0.003854241838201145
258.0, 0.0031000399356484777
259.0, 0.0017763003040231528
260.0, 0.0016545868953871314
261.0, 0.0003139757168125156
262.0, 0.00042930731890683375
263.0, 0.0012907509923870662
264.0, 0.0017497743260493886
265.0, 0.0021827109935182807
266.0, 0.001793549205878732
267.0, 0.002570171208462484
268.0, 0.004239318490857676
269.0, 0.005828007042656197
270.0, 0.006149047346164074
271.0, 0.006723276044075857
272.0, 0.00760223099355601
273.0, 0.00900719230945106
274.0, 0.010688735882616643
275.0, 0.010446139046803572
276.0, 0.012000030066698891
277.0, 0.013685758653892256
278.0, 0.01510675331303329
279.0, 0.018742915240570708
280.0, 0.023417426519889345
281.0, 0.027427749489141586
282.0, 0.03103644482204619
283.0, 0.03529262671302772
284.0, 0.04107871206600009
285.0, 0.04600780334377579
286.0, 0.05168538623916825
287.0, 0.05865755132192692
288.0, 0.0659626077904634
289.0, 0.07322174438788115
290.0, 0.0827877362293014
291.0, 0.09133203399503967
292.0, 0.09770486026243717
293.0, 0.10453705012017521
294.0, 0.11113909235133808
295.0, 0.11875211512337588
296.0, 0.1275558894822667
297.0, 0.13729088779588924
298.0, 0.14713996048908923
299.0, 0.15873137596743664
300.0, 0.17256606916959008
301.0, 0.1887927180970199
302.0, 0.2070848316636963
303.0, 0.224189141976888
304.0, 0.24228786848338404
305.0, 0.25763578211977123
306.0, 0.26583047027618906
307.0, 0.26353232339948623
308.0, 0.2509419214326312
309.0, 0.2303453124485425
310.0, 0.2047296955654442
311.0, 0.17831508210941643
312.0, 0.15563599840523032
313.0, 0.1446816819722604
314.0, 0.13555519458434742
315.0, 0.13036115707818463
316.0, 0.1336396623534184
317.0, 0.1350558556796849
318.0, 0.1387974126619433
319.0, 0.14368231979819346
320.0, 0.1490467151582378
321.0, 0.15582545853240112
322.0, 0.1659712830463183
323.0, 0.17814461373150012
324.0, 0.19319828222288743
325.0, 0.21109721717402333
326.0, 0.23082970800234665
327.0, 0.25709959882654665
328.0, 0.2879819337209773
329.0, 0.32588642005608065
330.0, 0.36881769549062865
331.0, 0.4061022236521863
332.0, 0.43674339558435765
333.0, 0.44304297244495844
334.0, 0.4213264789886045
335.0, 0.37687057222881604
336.0, 0.3305832130948061
337.0, 0.29301519391732866
338.0, 0.27151317155029275
339.0, 0.26571496167994535
340.0, 0.2703689426234009
341.0, 0.28619408517263595
342.0, 0.3120328724238088
343.0, 0.3442970983341031
344.0, 0.3807910912065122
345.0, 0.42000473330065746
346.0, 0.4507335432579129
347.0, 0.46203615812229254
348.0, 0.4453424757885274
349.0, 0.4000998168208902
350.0, 0.3358610198635919
351.0, 0.2683304343295754
352.0, 0.20809672941475665
353.0, 0.16152373575526752
354.0, 0.12720255885525453
355.0, 0.09946993482857218
356.0, 0.0816665304441774
357.0, 0.06976830098158503
358.0, 0.06322331481270368
359.0, 0.061754366922434495
360.0, 0.06123480329268866
361.0, 0.06483522717852269
362.0, 0.07201837268615857
363.0, 0.08045939151143727
364.0, 0.08960757214159414
365.0, 0.10366566200992514
366.0, 0.11958462207309968
367.0, 0.13248660894964462
368.0, 0.14535246493623666
369.0, 0.16376047324256407
370.0, 0.18334330966943443
371.0, 0.20441185533921946
372.0, 0.2265645154287845
373.0, 0.25271320653354784
374.0, 0.2873405931673997
375.0, 0.32365296836452145
376.0, 0.3599557284568703
377.0, 0.3953127411579855
378.0, 0.4264718733007474
379.0, 0.44592683464526073
380.0, 0.4476618155879786
381.0, 0.4410298717918357
382.0, 0.4281334002994665
383.0, 0.4083606823605746
384.0, 0.3810949377212976
385.0, 0.3432058744450562
386.0, 0.2943248382293417
387.0, 0.24519798596103684
388.0, 0.2010096071435793
389.0, 0.160143958730554
390.0, 0.12936241407100177
391.0, 0.10428707106160606
392.0, 0.08361778169392904
393.0, 0.06732677858932799
394.0, 0.05463691118983185
395.0, 0.04470446524062208
396.0, 0.035839578043439006
397.0, 0.029147832747152633
398.0, 0.024492119213934987
399.0, 0.019573007409052916
400.0, 0.01161599022730975
401.0, 0.00971169623217903
402.0, 0.009294140591483946
403.0, 0.0069516625929160174
404.0, 0.0046599163813672104
405.0, 0.0035246778289516546
406.0, 0.0019609391412591473
407.0, 0.0004138080553383717
408.0, 0.0003168133376851299
409.0, 0.0007003594894081259
410.0, 0.0036345448664042135
411.0, 0.00513132477103851
412.0, 0.004897953881429226
413.0, 0.005075515222014694
414.0, 0.007088035481306078
415.0, 0.006833769161864757
416.0, 0.0043528022491326965
417.0, 0.0038747487470604048
418.0, 0.005649132312346914
419.0, 0.005542210567714541
420.0, 0.003642427720107528
421.0, 0.003474472645439001
422.0, 0.0027680275364493434
423.0, 0.0012193628494923778
424.0, 0.001157138224803564
425.0, 0.0003271429585753506
426.0, 0.0011029403264936157
427.0, 0.001888951964548986
428.0, 0.003266557599717379
429.0, 0.005805230503655937
430.0, 0.007016376829573928
431.0, 0.00651462405800004
432.0, 0.006798924799966301
433.0, 0.008597094971353081
434.0, 0.010279269578816695
435.0, 0.011194224641340567
436.0, 0.013177782884122633
437.0, 0.014597859709945277
438.0, 0.015537781169622643
439.0, 0.0171433859055182
440.0, 0.01841929573392105
441.0, 0.02233936207530666
442.0, 0.0236990225410691
443.0, 0.024725055829032044
444.0, 0.02927650318184344
445.0, 0.033319557718959746
446.0, 0.034160975641390895
447.0, 0.036814005536853676
448.0, 0.041564121943753626
449.0, 0.04682926199519032
450.0, 0.053296853586208
451.0, 0.06103299760004877
452.0, 0.06981127018914288
453.0, 0.07936316405913468
454.0, 0.09059364656667576
455.0, 0.10569028352474877
456.0, 0.12309363638122041
457.0, 0.14186293548993104
458.0, 0.16468386605187005
459.0, 0.1920751359884159
460.0, 0.22014750989985665
461.0, 0.24366490991843875
462.0, 0.27152839000694134
463.0, 0.3024335832551724
464.0, 0.33302114456077886
465.0, 0.364653278317234
466.0, 0.4066731804585143
467.0, 0.45001200304723005
468.0, 0.496107250963267
469.0, 0.5474420738369555
470.0, 0.604097677044151
471.0, 0.6601434196845105
472.0, 0.7086446863270998
473.0, 0.7446210745906208
474.0, 0.7612925281668723
475.0, 0.7474371491038361
476.0, 0.6934844426883506
477.0, 0.6101898113012096
478.0, 0.5094765835628677
479.0, 0.4117212853560531
480.0, 0.32898815600170644
481.0, 0.2621761512668469
482.0, 0.2121650612783826
483.0, 0.17606753864707456
484.0, 0.14884693358704998
485.0, 0.12769583989106792
486.0, 0.11184361597535457
487.0, 0.10031707414379559
488.0, 0.09209950665896398
489.0, 0.08565706661734261
490.0, 0.08137775714036088
491.0, 0.07970952591659353
492.0, 0.07885777740724725
493.0, 0.08117747052133721
494.0, 0.08317005133154715
495.0, 0.08594493864056021
496.0, 0.09157539062298127
497.0, 0.09901079699258235
498.0, 0.10549472259540617
499.0, 0.11001977415165339
500.0, 0.11277236199462076
501.0, 0.11258416929479692
502.0, 0.10697190836581325
503.0, 0.09369096640534329
504.0, 0.07830323872854845
505.0, 0.06194982743795712
506.0, 0.047442241461117356
507.0, 0.03682815336412667
508.0, 0.027096661869733495
509.0, 0.019445457035567697
510.0, 0.01254311341032609
511.0, 0.007372691823639155
512.0, 0.00428209370382842
513.0, 0.001603048602658446
514.0, 0.0004103785293255215
515.0, 0.003084062815296567
516.0, 0.004503422679183037
517.0, 0.003210554338334327
518.0, 0.0003599626382863343
519.0, 0.0003105951786981117
520.0, 0.00036159939838614844
521.0, 0.0031968699257336566
522.0, 0.007618118798313853
523.0, 0.011686136283533127
524.0, 0.01576205425926234
525.0, 0.017697962364019968
526.0, 0.021298184562028397
527.0, 0.0261076116319851
528.0, 0.032137710403107554
529.0, 0.03984327292550258
530.0, 0.04585668131140218
531.0, 0.053999368042178066
532.0, 0.06199301160847587
533.0, 0.07202337160792312
534.0, 0.08404571649726754
535.0, 0.09051270897316231
536.0, 0.10132283795723689
537.0, 0.10763114811742752
538.0, 0.10816124658119601
539.0, 0.1034980922383352
540.0, 0.0954828880686808
541.0, 0.08951823484512075
542.0, 0.08495737381372237
543.0, 0.07899692668786998
544.0, 0.07487976133528042
545.0, 0.07573923562362032
546.0, 0.07898878224440306
547.0, 0.08410717482493568
548.0, 0.0896799924024466
549.0, 0.0982769841104232
550.0, 0.10965935465909096
551.0, 0.1210300439790284
552.0, 0.13274347648865623
553.0, 0.14573632416442012
554.0, 0.15750268874750414
555.0, 0.1664100571075242
556.0, 0.17208535809863107
557.0, 0.1738756651128324
558.0, 0.16577741522479975
559.0, 0.15336065118643366
560.0, 0.1362065619453751
561.0, 0.11597236849186883
562.0, 0.09645350617183024
563.0, 0.07730013835854754
564.0, 0.06364070550242812
565.0, 0.04947033193175978
566.0, 0.037430623658441596
567.0, 0.029665399565598372
568.0, 0.022970900214526985
569.0, 0.01713920376688313
570.0, 0.011702107073309652
571.0, 0.00867985657752714
572.0, 0.006192246362797548
573.0, 0.0023699629210937323
574.0, 0.00035055310616473843
575.0, 0.002047973290573151
576.0, 0.0027315261135439375
577.0, 0.002434476893032327
578.0, 0.002419621761402184
579.0, 0.0034658304425462657
580.0, 0.002340295117900396
581.0, 0.0008947007944887836
582.0, 0.0007097945014817943
583.0, 0.0024282697429718588
584.0, 0.002976230477106326
585.0, 0.0015012544423292993
586.0, 0.0015368510998383707
587.0, 0.002676421233242231
588.0, 0.0041379293374108035
589.0, 0.005840024676729623
590.0, 0.008251445024350863
591.0, 0.012006493312729563
592.0, 0.01381493736287681
593.0, 0.018826067992858783
594.0, 0.025834620573093086
595.0, 0.03335582365206555
596.0, 0.041357676108925136
597.0, 0.049585161513185205
598.0, 0.061500950047684105
599.0, 0.07480248518660038
600.0, 0.08846255191939437
601.0, 0.10327694605858175
602.0, 0.120066832071899
603.0, 0.13713392699116703
604.0, 0.1548123808262938
605.0, 0.17454026043204782
606.0, 0.1943623495205625
607.0, 0.21421223727027666
608.0, 0.23695506553676393
609.0, 0.25780501407199585
610.0, 0.27979635906820655
611.0, 0.30035660800956443
612.0, 0.31856385927207104
613.0, 0.3331782825687131
614.0, 0.3403808164877373
615.0, 0.3415520832094347
616.0, 0.33110138817735
617.0, 0.3176026372521998
618.0, 0.300524705917023
619.0, 0.2780206527318481
620.0, 0.258558820672185
621.0, 0.24117526966657787
622.0, 0.2314701698304322
623.0, 0.22684889488329849
624.0, 0.2259146935761406
625.0, 0.22927228994732549
626.0, 0.23548155857341477
627.0, 0.24722725502572998
628.0, 0.2614727617902725
629.0, 0.27690941419463916
630.0, 0.2944680384398118
631.0, 0.3151242213382996
632.0, 0.33636643587731263
633.0, 0.35230189513230814
634.0, 0.36627613210898513
635.0, 0.37259737081847494
636.0, 0.37041835880032187
637.0, 0.36240629145290815
638.0, 0.34229834327154773
639.0, 0.3144689235014926
640.0, 0.28033041342389886
641.0, 0.2445193440628125
642.0, 0.20940273796133888
643.0, 0.1763414055586326
644.0, 0.15185346917413023
645.0, 0.1261947053972745
646.0, 0.10455108340438543
647.0, 0.08752917558550519
648.0, 0.07374393258095499
649.0, 0.06226846107500128
650.0, 0.052897288317683214
651.0, 0.04442643459697927
652.0, 0.03611464893229495
653.0, 0.029303321614022975
654.0, 0.02509640120626581
655.0, 0.02240162319377446
656.0, 0.0182168214830381
657.0, 0.016259779341305677
658.0, 0.012569320668058742
659.0, 0.009638265764236861
660.0, 0.00867903821866655
661.0, 0.007391724401330293
662.0, 0.003562271447389154
663.0, 0.003825764530770266
664.0, 0.0035769930556299235
665.0, 0.0020414903123879605
666.0, 0.0009541549933218732
667.0, 0.0007538023133919204
668.0, 9.717038611494496e-05
669.0, 0.0005532449699135314
670.0, 0.001192845449500828
671.0, 0.0014817409960957298
672.0, 0.001382516483839164
673.0, 0.0013727374344800628
674.0, 0.002072002718976364
675.0, 0.002829333159792142
676.0, 0.002832678246685268
677.0, 0.0009743952098141431
678.0, 0.0013529142175630747
679.0, 0.0009441501821952769
680.0, 0.0023020691265666212
681.0, 0.0010155190201410027
682.0, 0.002958293580117248
683.0, 0.0032042030504363626
684.0, 0.0033124354196979833
685.0, 0.005328553059214985
686.0, 0.00605923961720649
687.0, 0.008989890053274602
688.0, 0.010084175673244652
689.0, 0.011614528842399838
690.0, 0.01419264803737783
691.0, 0.017089159932159505
692.0, 0.019735970860792162
693.0, 0.02196341321714099
694.0, 0.023926828905417582
695.0, 0.026374998093152614
696.0, 0.027978176389700113
697.0, 0.028721321646185967
698.0, 0.03027234102718755
699.0, 0.034397815495708195
700.0, 0.037688827510020485
701.0, 0.039200591598493734
702.0, 0.041539875904458026
703.0, 0.042568868048272236
704.0, 0.04102097418494674
705.0, 0.042267931805173076
706.0, 0.04330326612341352
707.0, 0.04273163992392786
708.0, 0.04245613543436199
709.0, 0.04180423243304364
710.0, 0.040072826814329957
711.0, 0.03815324453501808
712.0, 0.034863702001037715
713.0, 0.031114169618616044
714.0, 0.030367019193885857
715.0, 0.028180789531214855
716.0, 0.024429808387039575
717.0, 0.02290673864840883
718.0, 0.01941750165760917
719.0, 0.018509267386752293
720.0, 0.014392349448635124
721.0, 0.010984454344938213
722.0, 0.008895952370108135
723.0, 0.007100562732651296
724.0, 0.008484045299048653
725.0, 0.006657594613767533
726.0, 0.005512970920526207
727.0, 0.004352794269006092
728.0, 0.0031507901325035625
729.0, 0.002082794716959418
730.0, 0.0013983219579879658
731.0, 0.002319039322472889
732.0, 0.0018806968619278245
733.0, 0.0021706693956903378
734.0, 0.0026422721809608563
735.0, 0.0026919349939374206
736.0, 0.002873364865382212
737.0, 0.0048722918184095155
738.0, 0.006551122501672397
739.0, 0.00778791864652504
740.0, 0.008621993910205135
741.0, 0.009717636973894127
742.0, 0.011368178321222444
743.0, 0.01250395361634356
744.0, 0.011176713937429795
745.0, 0.013770803400905474
746.0, 0.014103967604004454
747.0, 0.014427084514759545
748.0, 0.016438232842084573
749.0, 0.018159833887991746
750.0, 0.0189150243545094
751.0, 0.02146584242367465
752.0, 0.019835879939780372
753.0, 0.017864410051598677
754.0, 0.019825898418790847
755.0, 0.021912895816484295
756.0, 0.01876153868954508
757.0, 0.01861557653499716
758.0, 0.016516286982062374
759.0, 0.015778116896609146
760.0, 0.014761155390350061
761.0, 0.013168510859659796
762.0, 0.012632874111415353
763.0, 0.013378704570525405
764.0, 0.013049306441174984
765.0, 0.011575227523472502
766.0, 0.010016697896349408
767.0, 0.008500032827501404
768.0, 0.007646791490856313
769.0, 0.007240310517755977
770.0, 0.005312420960363233
771.0, 0.0049299065063203255
772.0, 0.005003625642090541
773.0, 0.004268975111326537
774.0, 0.0029565382192816053
775.0, 0.0029189424817895448
776.0, 0.004139748765048315
777.0, 0.0018771923807097634
778.0, 0.0014215443000320104
779.0, 0.0025463015550329276
780.0, 0.0026154145548065925
781.0, 0.002319169711613323
782.0, 0.0027927981943365364
783.0, 0.0032296221492871587
784.0, 0.0032694246932624977
785.0, 0.003933303883415303
786.0, 0.0020411382523455703
787.0, 0.0011219682113068376
788.0, 0.0011512452299377916
789.0, 0.00015371962664599524
790.0, 0.0005683292121356945
791.0, 0.00016843703942311014
792.0, 0.0013515194824932151
793.0, 0.0008735851403726679
794.0, 0.000607412275078467
795.0, 0.0006701199386907478
796.0, 3.52126272656258e-05
797.0, 0.00027409313527323477
798.0, 0.00120672587239466
799.0, 0.0007932501492313855
800.0, 0.001465430650417139
801.0, 0.0009072543209119408
802.0, 0.0008623300186523467
803.0, 0.00029603895857790183
804.0, 0.0004519319085498587
805.0, 0.00040180177997799693
806.0, 0.0010170644503303997
807.0, 0.0008492904279123866
808.0, 0.0001436623389421193
809.0, 0.000883083451289328
810.0, 0.0006863375982568148
811.0, 0.0008922387244353481
812.0, 0.0017048497952975945
813.0, 0.0007155840982112331
814.0, 0.0006434894277105148
815.0, 0.0016133880369770726
816.0, 0.0018379569825919444
817.0, 0.0008853975721670002
818.0, 0.0007913848570000974
819.0, 0.0019022905104161016
820.0, 0.0011879311427203448
821.0, 0.0013301966694023446
822.0, 0.0011633726652587927
823.0, 0.001400622606047846
824.0, 0.0025408626703906758
825.0, 0.0017419198470920386
826.0, 0.002221485863176729
827.0, 0.0009818434584183884
828.0, 0.0024242188079591155
829.0, 0.003238147610733378
830.0, 0.002981193448084688
831.0, 0.003479219950717925
832.0, 0.0033281929322215246
833.0, 0.002695686740995327
834.0, 0.003225728346608663
835.0, 0.0038716092408675393
836.0, 0.003976233651284537
837.0, 0.004052301512835766
838.0, 0.004681309465134927
839.0, 0.004954379969574502
840.0, 0.003665427010249081
841.0, 0.005712865770484753
842.0, 0.006751540765505677
843.0, 0.0060336510382093846
844.0, 0.005233038390169267
845.0, 0.0049254701258265735
846.0, 0.004770542524733561
847.0, 0.005553317788929957
848.0, 0.005237217328030273
849.0, 0.005744243891495864
850.0, 0.004909712555993921
851.0, 0.004462470658547467
852.0, 0.004966791042393084
853.0, 0.004581464057858
854.0, 0.0042918403998090954
855.0, 0.004489636522460829
856.0, 0.0048803564435466185
857.0, 0.005261005792345489
858.0, 0.004420771497283157
859.0, 0.003479625344463673
860.0, 0.004044439544027574
861.0, 0.004924005969931684
862.0, 0.005034241770012417
863.0, 0.006257499220844571
864.0, 0.004810759110429289
865.0, 0.0034354374383318816
866.0, 0.003342273021061823
867.0, 0.0032320223130121763
868.0, 0.0030053066919578605
869.0, 0.004001777501207542
870.0, 0.0037478368666845814
871.0, 0.002299537636578692
872.0, 0.003111784727020816
873.0, 0.0036245394242461985
874.0, 0.0037812948277447214
875.0, 0.004582776198702123
876.0, 0.0025243083173839063
877.0, 0.001934966275297018
878.0, 0.0012857369648276878
879.0, 0.0021858126206973
880.0, 0.0026508592754880596
881.0, 0.0013398300817732487
882.0, 0.00028304552883320585
883.0, 0.0009519607664287931
884.0, 0.0006220466835173254
885.0, 0.0016891101096586428
886.0, 0.00042765887749285754
887.0, 0.0006463394055657882
888.0, 0.0003852089588672663
889.0, 0.0004037667602856844
890.0, 0.0004432579618192501
891.0, 0.00029777824593791143
892.0, 0.0003962610609928932
893.0, 0.0009493669538449723
894.0, 0.0022786257327596397
895.0, 0.0018867309182104008
896.0, 0.000281419794865045
897.0, 0.0007293801234657613
898.0, 0.0032101797248164374
899.0, 0.0027583255416877873
900.0, 0.0025697034127678603
901.0, 0.0032584466479311154
902.0, 0.0021156713988420917
903.0, 0.0026218461790019154
904.0, 0.0029737013619001206
905.0, 0.0019044607103282328
906.0, 0.0023759633273787834
907.0, 0.0008343907749210585
908.0, 0.0013394451437606114
909.0, 0.00232662973380353
910.0, 0.003467765519058386
911.0, 0.0030395584326832455
912.0, 0.002222071827785276
913.0, 0.0019030474794664064
914.0, 0.000648767073794651
915.0, 0.0030814313622720526
916.0, 0.0026920410342260058
917.0, 0.002129367776845575
918.0, 0.0018878356193173457
919.0, 0.0022370308331290277
920.0, 0.0021153386432608973
921.0, 0.0006989452553154685
922.0, 0.0001258075165043911
923.0, 0.0016164776905689615
924.0, 0.0017335186881991236
925.0, 0.0015293037792361197
926.0, 0.0010338422699098227
927.0, 0.001496816812396197
928.0, 0.0015396204677612098
929.0, 8.076496128254938e-05
930.0, 0.000241462646620413
931.0, 0.0015267952153591813
932.0, 0.0019227581105901264
933.0, 0.00269233747232781
934.0, 0.002069141467262911
935.0, 0.0014265749346847924
936.0, 0.0015387686503571412
937.0, 0.0009398580669319832
938.0, 0.0003356125128701072
939.0, 0.00023170784887271154
940.0, 0.0006282743143903443
941.0, 0.00031734107628803303
942.0, 0.0014286541933115607
943.0, 0.0013359748494725155
944.0, 0.0003263851244495456
945.0, 0.00011671271505385763
946.0, 0.0006962041890381787
947.0, 0.0022396958363026013
948.0, 0.0013986123886091694
949.0, 0.002171243506142924
950.0, 0.002855152034948802
951.0, 0.004771618926564198
952.0, 0.0077645868539949975
953.0, 0.007860691465174298
954.0, 0.0029654118260176096
955.0, 0.001552802288920073
956.0, 0.0017990251025082596
957.0, 0.0018382835194967909
958.0, 0.0013887657617033743
959.0, 0.003624603788513723
960.0, 0.0035573564469884396
961.0, 0.0005410454524893826
962.0, 0.0014943377101102062
963.0, 0.0026176649184862523
964.0, 0.0018231410022092553
965.0, 0.002162063659141098
966.0, 0.00196247523561949
967.0, 0.0007269485204093374
968.0, 0.0008506595651482331
969.0, 0.0012835344401231435
970.0, 0.0004827193974152014
971.0, 0.0018438600454355628
972.0, 0.0015741620169165277
973.0, 0.0012203060833168506
974.0, 0.00026953275240503504
975.0, 0.0004825917073343659
976.0, 0.00038002268021017577
977.0, 0.00013854107397026947
978.0, 0.0011418826111515934
979.0, 0.0029811325426470346
980.0, 0.0030846062006886937
981.0, 0.0030929366071266793
982.0, 0.0034257811031955794
983.0, 0.002420619730424158
984.0, 0.001888348433952047
985.0, 0.002419344023998452
986.0, 0.0022462527136001935
987.0, 0.0014649325621872553
988.0, 0.0029909726348304453
989.0, 0.0028037110007067324
990.0, 0.0009014598942733154
991.0, 0.0006072247526650731
992.0, 0.000683867006736992
993.0, 0.00175459144886232
994.0, 0.0024709998710486674
995.0, 0.0020630783316963022
996.0, 0.0020429805001614134
997.0, 0.0014366031400136988
998.0, 0.002618858058719345
999.0, 0.002675001999431372
1000.0, 0.0021369837789591024
1001.0, 0.0010734522246621959
1002.0, 0.0020291194825057
1003.0, 0.0020435855929791732
1004.0, 0.0004183916734747834
1005.0, 0.0021493454072104724
1006.0, 0.002512473832753916
1007.0, 0.0020870164996902828
1008.0, 0.0014958955786549062
1009.0, 0.0015934523009093462
1010.0, 0.0033479593500259715
1011.0, 0.003927571502869433
1012.0, 0.003063542869885114
1013.0, 0.0033335945877724935
1014.0, 0.004039992789232144
1015.0, 0.004082427750893453
1016.0, 0.0034099454751957766
1017.0, 0.002866109675729647
1018.0, 0.0021915236017055733
1019.0, 0.0009496463074353577
1020.0, 0.0004959693831303408
1021.0, 0.001301253337576392
1022.0, 0.0020936446699333453
1023.0, 0.0015949555069260251
1024.0, 0.0008357711248951359
1025.0, 0.002817085811286823
1026.0, 0.0017012223525921931
1027.0, 0.0013420868748434945
1028.0, 0.0019107258183356697
1029.0, 0.0019890339397213162
1030.0, 0.0012444462412790841
1031.0, 0.0010615809344603018
1032.0, 0.0016662843835461073
1033.0, 0.00059530157276341
1034.0, 0.0010660182545178124
1035.0, 0.0006918398541191237
1036.0, 0.0014362697560701802
1037.0, 0.0018535988237517033
1038.0, 0.0012692250412227526
1039.0, 0.0011732984790188085
1040.0, 0.00112139405517069
1041.0, 0.00018464842964029812
1042.0, 0.001376302275908325
1043.0, 0.0022697608705523433
1044.0, 0.0009984311052941889
1045.0, 0.0008412484966115014
1046.0, 0.0004760871981217274
1047.0, 0.0015834449314453606
1048.0, 0.0018740855114179231
1049.0, 0.0014897743867290474
1050.0, 0.0003751886721920947
1051.0, 0.0004691201080487431
1052.0, 0.0007161078649927218
1053.0, 0.0020051589623109717
1054.0, 0.0010354282469993536
1055.0, 0.0012564050682640107
1056.0, 0.0014547791836723952
1057.0, 0.0009070726720167645
1058.0, 0.0012423209275136769
1059.0, 0.0016763130721166668
1060.0, 0.001083949552035205
1061.0, 0.003458338440798579
1062.0, 7.722745365933663e-05
1063.0, 0.0005679372781156369
1064.0, 0.0020590009851206227
1065.0, 0.0018382259550212689
1066.0, 0.0012172528782596424
1067.0, 0.0011247224214336327
1068.0, 0.0006654303287405229
1069.0, 0.0003497814108311327
1070.0, 0.0018055284971378973
1071.0, 0.0023122787737983774
1072.0, 0.0037498091601753177
1073.0, 0.002480860481455948
1074.0, 0.001113353873004093
1075.0, 0.0005676855287297624
1076.0, 0.0011925901833012907
1077.0, 0.0018693657455012855
1078.0, 0.0013929985366868422
1079.0, 0.0006179488602047275
1080.0, 0.001020352758871448
1081.0, 0.0025167656265387326
1082.0, 0.0014969150120486294
1083.0, 0.0026226107551600066
1084.0, 0.001455928337473556
1085.0, 0.0010146037232156568
1086.0, 0.002403269843529287
1087.0, 0.0032569039490360583
1088.0, 0.0029185106074874527
1089.0, 0.0021084956932639442
1090.0, 0.001209099912158884
1091.0, 0.0017134728952393292
1092.0, 0.0015993024674139304
1093.0, 0.001334329897055139
1094.0, 0.0022270557042273894
1095.0, 0.0014888295695767756
1096.0, 0.0014290254856912034
1097.0, 0.00164581168284969
1098.0, 0.00047092233182435
1099.0, 0.0008023480634328257
1100.0, 0.001185652333919
1101.0, 6.353759962564185e-05
1102.0, 0.00039262159968391625
1103.0, 0.0013144072749078624
1104.0, 0.0010663811475121762
1105.0, 0.00174430584223238
1106.0, 0.0023015029755726417
1107.0, 0.002159206508603305
1108.0, 0.001291296880114622
1109.0, 0.00014870923595313836
1110.0, 0.00011964617877583368
1111.0, 0.0004780210151271621
1112.0, 0.002348325061929444
1113.0, 0.0017258341141067725
1114.0, 0.001101218435653017
1115.0, 6.035009546364635e-05
1116.0, 0.00024218054306663562
1117.0, 0.00032720150533044936
1118.0, 0.0003238008243545922
1119.0, 0.001163248808799395
1120.0, 0.0016605289272754273
1121.0, 0.0005790556352401044
1122.0, 0.0027227247790517013
1123.0, 0.0014976695852911403
1124.0, 0.0018245034239029582
1125.0, 0.003606219528650577
1126.0, 0.0036654825525708618
1127.0, 0.002889013655951029
1128.0, 0.0015933701224043358
1129.0, 0.00015414998288879744
1130.0, 0.0006470732753664291
1131.0, 0.0015194705506846587
1132.0, 0.00198541321654359
1133.0, 0.0010394472116366002
1134.0, 0.0021575810912837926
1135.0, 0.0014294861912020494
1136.0, 0.001187950233687225
1137.0, 0.00083941981738291
1138.0, 0.00035919902616693254
1139.0, 0.0008732559314025938
1140.0, 0.0017021741515108615
1141.0, 0.0019651899785276326
1142.0, 0.0021698900547610245
1143.0, 0.0014602018447094033
1144.0, 0.0021051364329176202
1145.0, 0.002674981394225558
1146.0, 0.0017960867931118988
1147.0, 0.002235241993337129
1148.0, 0.0032055335881860884
1149.0, 0.0025672725577183496
1150.0, 0.002092888281716769
1151.0, 0.0026507621693807547
1152.0, 0.0021864145709460563
1153.0, 0.0019513596811268582
1154.0, 0.0019576547792362975
1155.0, 0.0024647080638628364
1156.0, 0.003043288016254943
1157.0, 0.00037407212926646665
1158.0, 0.0007174245117268303
1159.0, 0.0016221127682322103
1160.0, 0.0017572439633228745
1161.0, 0.0018756182677681897
1162.0, 0.0018462347779603636
1163.0, 0.0022394857799903117
1164.0, 0.002541813232673477
1165.0, 0.0025131800857285647
1166.0, 0.002436087018266022
1167.0, 0.0027082489841556115
1168.0, 0.002302672183774816
1169.0, 0.0018340250665144133
1170.0, 0.00029335404392183244
1171.0, 0.00026418957012094304
1172.0, 0.0005898013328635095
1173.0, 0.0009474229929249205
1174.0, 0.0009860844282819701
1175.0, 0.0010651334105144263
1176.0, 0.0009877600785061214
1177.0, 0.0006650625426123634
1178.0, 0.0006557548594513553
1179.0, 0.001072310879506198
1180.0, 0.0008819793206278513
1181.0, 0.0007016116630375655
1182.0, 0.0007001740230149601
1183.0, 6.577340181519363e-05
1184.0, 0.0003176879730167352
1185.0, 0.0016274948021206114
1186.0, 0.001350741435576396
1187.0, 0.0008615474735716984
1188.0, 0.00012384143358291658
1189.0, 0.0003774726788923679
1190.0, 0.0014897092650291933
1191.0, 0.0016918705384316266
1192.0, 0.0008696861781318196
1193.0, 0.0017282616557763837
1194.0, 0.0012053049014371937
1195.0, 0.0002790582172461011
1196.0, 0.0011503347277563396
1197.0, 0.002096780171626393
1198.0, 0.0016311047295563918
1199.0, 0.001045477644297008
1200.0, 0.00143948330925404
1201.0, 0.0022168325109219933
1202.0, 0.0007730299339771448
1203.0, 0.0004708512193236664
1204.0, 0.0008199830063692323
1205.0, 0.0007238276966132429
1206.0, 0.0005346198575761507
1207.0, 0.0010909847400186997
1208.0, 0.0010680744956371717
1209.0, 5.172471252076801e-05
1210.0, 0.00011720404434864182
1211.0, 0.0003015098569698073
1212.0, 0.00020298476854207535
1213.0, 0.001492565579912354
1214.0, 0.0017369280861255834
1215.0, 0.001134988687511921
1216.0, 0.0008042158390907272
1217.0, 0.002202238914471947
1218.0, 0.001986964262483108
1219.0, 0.0020296951971855966
1220.0, 0.0025637757718127655
1221.0, 0.0018704953997305286
1222.0, 0.0018373026378209296
1223.0, 0.0033159603775140423
1224.0, 0.0028252865038616267
1225.0, 0.0016158367333849416
1226.0, 0.000841986823250954
1227.0, 0.003645895226385544
1228.0, 0.002044078955864839
1229.0, 0.0015917203959832811
1230.0, 0.0027497026756087106
1231.0, 0.002679211166368242
1232.0, 0.002018598623638069
1233.0, 0.00139340558341277
1234.0, 0.0011505326921907918
1235.0, 0.001721935935630571
1236.0, 0.002609406029786752
1237.0, 0.0034521040530729346
1238.0, 0.0005644511519851139
1239.0, 0.0005462252586183744
1240.0, 0.0020441423917970953
1241.0, 0.002496239029925061
1242.0, 0.0018757051919595532
1243.0, 0.0004761893139817489
1244.0, 0.0006194154780261699
1245.0, 0.0006997626816351475
1246.0, 0.0020761981498964256
1247.0, 0.003790421746375195
1248.0, 0.002024530184960588
1249.0, 0.0021148160612119763
1250.0, 0.003383040606268835
1251.0, 0.003077466360836525
1252.0, 0.0028076893217872352
1253.0, 0.0016593818573038541
1254.0, 0.0015364529207123707
1255.0, 0.002271853661968531
1256.0, 0.0023161915222305895
1257.0, 0.002370641897333773
1258.0, 0.0022964926769773863
1259.0, 0.0026024128862851864
1260.0, 0.002630690585582262
1261.0, 0.0020460330226815104
1262.0, 0.0016793507643333729
1263.0, 0.0018259832548231066
1264.0, 0.0028705392950486375
1265.0, 0.0022481918631174166
1266.0, 0.0021562840535673893
1267.0, 0.0022690253895007377
1268.0, 0.001740801041932645
1269.0, 0.0014558579182988988
1270.0, 0.0007482560074064845
1271.0, 0.0029451366361826106
1272.0, 0.003288502885426014
1273.0, 0.0011947904596061086
1274.0, 0.00040282055077105845
1275.0, 0.001305936051569916
1276.0, 0.0017916682201873009
1277.0, 0.0009118733015702395
1278.0, 0.0015508845877182582
1279.0, 0.0012954267444553248
1280.0, 0.0009601581394010661
1281.0, 0.0013721589249085038
1282.0, 0.001609789494732347
1283.0, 0.0013322583700225653
1284.0, 0.001923939894548391
1285.0, 0.0014270387304184471
1286.0, 0.0013721392008840573
1287.0, 0.0012755781410295883
1288.0, 0.0008674128591061439
1289.0, 0.0012114473851930745
1290.0, 0.0019509589077635345
1291.0, 0.0018743238689085924
1292.0, 0.0015367199560114
1293.0, 0.0026569795960662067
1294.0, 0.0011634155690542392
1295.0, 0.0023796078409876907
1296.0, 0.0017614760240875326
1297.0, 0.0009669712363618764
1298.0, 0.0002894704414821771
1299.0, 0.0001056821929227249
1300.0, 0.001115159672005377
1301.0, 0.0018453726895378542
1302.0, 0.002455621315759597
1303.0, 0.0011554361353203887
1304.0, 0.0002970644896145504
1305, 0.0
1306, 0.0
1307, 0.0
1308, 0.0
1309, 0.0
1310, 0.0
1311, 0.0
1312, 0.0
1313, 0.0
1314, 0.0
1315, 0.0
1316, 0.0
1317, 0.0
1318, 0.0
1319, 0.0
1320, 0.0
1321, 0.0
1322, 0.0
1323, 0.0
1324, 0.0
1325, 0.0
1326, 0.0
1327, 0.0
1328, 0.0
1329, 0.0
1330, 0.0
1331, 0.0
1332, 0.0
1333, 0.0
1334, 0.0
1335, 0.0
1336, 0.0
1337, 0.0
1338, 0.0
1339, 0.0
1340, 0.0
1341, 0.0
1342, 0.0
1343, 0.0
1344, 0.0
1345, 0.0
1346, 0.0
1347, 0.0
1348, 0.0
1349, 0.0
1350, 0.0
1351, 0.0
1352, 0.0
1353, 0.0
1354, 0.0
1355, 0.0
1356, 0.0
1357, 0.0
1358, 0.0
1359, 0.0
1360, 0.0
1361, 0.0
1362, 0.0
1363, 0.0
1364, 0.0
1365, 0.0
1366, 0.0
1367, 0.0
1368, 0.0
1369, 0.0
1370, 0.0
1371, 0.0
1372, 0.0
1373, 0.0
1374, 0.0
1375, 0.0
1376, 0.0
1377, 0.0
1378, 0.0
1379, 0.0
1380, 0.0
1381, 0.0
1382, 0.0
1383, 0.0
1384, 0.0
1385, 0.0
1386, 0.0
1387, 0.0
1388, 0.0
1389, 0.0
1390, 0.0
1391, 0.0
1392, 0.0
1393, 0.0
1394, 0.0
1395, 0.0
1396, 0.0
1397, 0.0
1398, 0.0
1399, 0.0
1400, 0.0
1401, 0.0
1402, 0.0
1403, 0.0
1404, 0.0
1405, 0.0
1406, 0.0
1407, 0.0
1408, 0.0
1409, 0.0
1410, 0.0
1411, 0.0
1412, 0.0
1413, 0.0
1414, 0.0
1415, 0.0
1416, 0.0
1417, 0.0
1418, 0.0
1419, 0.0
1420, 0.0
1421, 0.0
1422, 0.0
1423, 0.0
1424, 0.0
1425, 0.0
1426, 0.0
1427, 0.0
1428, 0.0
1429, 0.0
1430, 0.0
1431, 0.0
1432, 0.0
1433, 0.0
1434, 0.0
1435, 0.0
1436, 0.0
1437, 0.0
1438, 0.0
1439, 0.0
1440, 0.0
1441, 0.0
1442, 0.0
1443, 0.0
1444, 0.0
1445, 0.0
1446, 0.0
1447, 0.0
1448, 0.0
1449, 0.0
1450, 0.0
1451, 0.0
1452, 0.0
1453, 0.0
1454, 0.0
1455, 0.0
1456, 0.0
1457, 0.0
1458, 0.0
1459, 0.0
1460, 0.0
1461, 0.0
1462, 0.0
1463, 0.0
1464, 0.0
1465, 0.0
1466, 0.0
1467, 0.0
1468, 0.0
1469, 0.0
1470, 0.0
1471, 0.0
1472, 0.0
1473, 0.0
1474, 0.0
1475, 0.0
1476, 0.0
1477, 0.0
1478, 0.0
1479, 0.0
1480, 0.0
1481, 0.0
1482, 0.0
1483, 0.0
1484, 0.0
1485, 0.0
1486, 0.0
1487, 0.0
1488, 0.0
1489, 0.0
1490, 0.0
1491, 0.0
1492, 0.0
1493, 0.0
1494, 0.0
1495, 0.0
1496, 0.0
1497, 0.0
1498, 0.0
1499, 0.0
1500, 0.0
1501, 0.0
1502, 0.0
1503, 0.0
1504, 0.0
1505, 0.0
1506, 0.0
1507, 0.0
1508, 0.0
1509, 0.0
1510, 0.0
1511, 0.0
1512, 0.0
1513, 0.0
1514, 0.0
1515, 0.0
1516, 0.0
1517, 0.0
1518, 0.0
1519, 0.0
1520, 0.0
1521, 0.0
1522, 0.0
1523, 0.0
1524, 0.0
1525, 0.0
1526, 0.0
1527, 0.0
1528, 0.0
1529, 0.0
1530, 0.0
1531, 0.0
1532, 0.0
1533, 0.0
1534, 0.0
1535, 0.0
1536, 0.0
1537, 0.0
1538, 0.0
1539, 0.0
1540, 0.0
1541, 0.0
1542, 0.0
1543, 0.0
1544, 0.0
1545, 0.0
1546, 0.0
1547, 0.0
1548, 0.0
1549, 0.0
1550, 0.0
1551, 0.0
1552, 0.0
1553, 0.0
1554, 0.0
1555, 0.0
1556, 0.0
1557, 0.0
1558, 0.0
1559, 0.0
1560, 0.0
1561, 0.0
1562, 0.0
1563, 0.0
1564, 0.0
1565, 0.0
1566, 0.0
1567, 0.0
1568, 0.0
1569, 0.0
1570, 0.0
1571, 0.0
1572, 0.0
1573, 0.0
1574, 0.0
1575, 0.0
1576, 0.0
1577, 0.0
1578, 0.0
1579, 0.0
1580, 0.0
1581, 0.0
1582, 0.0
1583, 0.0
1584, 0.0
1585, 0.0
1586, 0.0
1587, 0.0
1588, 0.0
1589, 0.0
1590, 0.0
1591, 0.0
1592, 0.0
1593, 0.0
1594, 0.0
1595, 0.0
1596, 0.0
1597, 0.0
1598, 0.0
1599, 0.0
