30, 0.0
31, 0.0
32, 0.0
33, 0.0
34, 0.0
35, 0.0
36, 0.0
37, 0.0
38, 0.0
39, 0.0
40, 0.0
41, 0.0
42, 0.0
43, 0.0
44, 0.0
45, 0.0
46, 0.0
47, 0.0
48, 0.0
49, 0.0
50, 0.0
51, 0.0
52, 0.0
53, 0.0
54, 0.0
55, 0.0
56, 0.0
57, 0.0
58, 0.0
59, 0.0
60, 0.0
61, 0.0
62, 0.0
63, 0.0
64, 0.0
65, 0.0
66, 0.0
67, 0.0
68, 0.0
69, 0.0
70, 0.0
71, 0.0
72, 0.0
73, 0.0
74, 0.0
75, 0.0
76, 0.0
77, 0.0
78, 0.0
79, 0.0
80, 0.0
81, 0.0
82, 0.0
83, 0.0
84, 0.0
85, 0.0
86, 0.0
87, 0.0
88, 0.0
89, 0.0
90, 0.0
91, 0.0
92, 0.0
93, 0.0
94, 0.0
95, 0.0
96, 0.0
97, 0.0
98, 0.0
99, 0.0
100, 0.0
101, 0.0
102, 0.0
103, 0.0
104, 0.0
105, 0.0
106, 0.0
107, 0.0
108, 0.0
109, 0.0
110, 0.0
111, 0.0
112, 0.0
113, 0.0
114, 0.0
115, 0.0
116, 0.0
117, 0.0
118, 0.0
119, 0.0
120, 0.0
121, 0.0
122, 0.0
123, 0.0
124, 0.0
125, 0.0
126, 0.0
127, 0.0
128, 0.0
129, 0.0
130, 0.0
131, 0.0
132, 0.0
133, 0.0
134, 0.0
135, 0.0
136, 0.0
137, 0.0
138, 0.0
139, 0.0
140, 0.0
141, 0.0
142, 0.0
143, 0.0
144, 0.0
145, 0.0
146, 0.0
147, 0.0
148, 0.0
149, 0.0
150, 0.0
151, 0.0
152, 0.0
153, 0.0
154, 0.0
155, 0.0
156, 0.0
157, 0.0
158, 0.0
159, 0.0
160, 0.0
161, 0.0
162, 0.0
163.0, 0.0006451322103674048
164.0, 0.003390354942552431
165.0, 0.0014421551859426314
166.0, 0.005406261239455205
167.0, 0.014735755281147678
168.0, 0.02535179467500036
169.0, 0.03245739673691585
170.0, 0.04094059544962789
171.0, 0.05284047515849089
172.0, 0.07043801326930176
173.0, 0.08736195713531808
174.0, 0.10313881171846145
175.0, 0.13645757130965333
176.0, 0.16363324533334891
177.0, 0.1824235480542413
178.0, 0.2093167765810051
179.0, 0.24848017582942494
180.0, 0.29019279355929967
181.0, 0.3127996538309289
182.0, 0.30589037330092955
183.0, 0.29413972958983314
184.0, 0.2954333372459331
185.0, 0.31903470750544305
186.0, 0.35420978837648354
187.0, 0.4296210217777857
188.0, 0.46127539201761736
189.0, 0.4820126621006452
190.0, 0.5026364391201045
191.0, 0.49167651546691615
192.0, 0.48281291281764377
193.0, 0.4209065929876221
194.0, 0.3414094307654803
195.0, 0.26263700418423186
196.0, 0.19279330185072172
197.0, 0.13460122270642924
198.0, 0.09917479942251221
199.0, 0.08518111250991858
200.0, 0.07749447263252315
201.0, 0.06949823759540867
202.0, 0.07068236540429067
203.0, 0.05849098527409017
204.0, 0.058061113329383685
205.0, 0.06275061200347684
206.0, 0.059583279574939946
207.0, 0.0407320116877404
208.0, 0.03963712770384366
209.0, 0.04289270307324179
210.0, 0.046208431413347975
211.0, 0.049060864712884455
212.0, 0.04991441213791606
213.0, 0.045135595517288504
214.0, 0.05387812801198386
215.0, 0.060263983746158344
216.0, 0.06470056528445278
217.0, 0.06947236610140617
218.0, 0.07661407759715456
219.0, 0.08228258574843751
220.0, 0.09451074532767623
221.0, 0.09171076829514074
222.0, 0.08485790742292128
223.0, 0.07991710422611002
224.0, 0.06809826157908262
225.0, 0.04627511218655651
226.0, 0.03483220681351384
227.0, 0.03317350768123297
228.0, 0.02625365291420881
229.0, 0.003927490217164851
230.0, 0.003449681667844336
231.0, 0.012877455147109279
232.0, 0.006981037755592783
233.0, 0.003563121025646058
234.0, 0.00805360529591324
235.0, 0.005893939420271673
236.0, 0.006579292164920355
237.0, 0.011381942008941935
238.0, 0.015337998017698194
239.0, 0.016014592561463623
240.0, 0.015107678215248567
241.0, 0.0233523679486633
242.0, 0.021968072584935473
243.0, 0.023731088149001513
244.0, 0.028704097513535174
245.0, 0.03446028080506781
246.0, 0.03773677308088088
247.0, 0.03947435234583427
248.0, 0.05041988825292962
249.0, 0.056784644489964266
250.0, 0.06254117468935065
251.0, 0.07047169022399623
252.0, 0.07251800101929307
253.0, 0.07787471623869989
254.0, 0.0768097778527856
255.0, 0.07601339946903772
256.0, 0.07707438842777728
257.0, 0.07925625979511727
258.0, 0.08681204391586282
259.0, 0.0872506354386613
260.0, 0.08433809989279245
261.0, 0.081753900835848
262.0, 0.08044966390816864
263.0, 0.07791184091429777
264.0, 0.07009188267392615
265.0, 0.06924987540855518
266.0, 0.06783451348797194
267.0, 0.0661329143767984
268.0, 0.06611033727155133
269.0, 0.0673870213508313
270.0, 0.0666280158485836
271.0, 0.07069760639935382
272.0, 0.07075448008614536
273.0, 0.07034591924473249
274.0, 0.07926772779673273
275.0, 0.09546766052021192
276.0, 0.10098356819677426
277.0, 0.10421878658917168
278.0, 0.11295640249321202
279.0, 0.12643874820685833
280.0, 0.13485358070749684
281.0, 0.14495640670763
282.0, 0.164533390858267
283.0, 0.17905213175778964
284.0, 0.19404953730614233
285.0, 0.21330183882699
286.0, 0.2232420423958203
287.0, 0.23986841885261598
288.0, 0.25741001408121283
289.0, 0.2772415818681344
290.0, 0.2879546392892855
291.0, 0.2826236896799613
292.0, 0.2997671567481474
293.0, 0.3052705440651618
294.0, 0.3144032236421274
295.0, 0.32841540737475944
296.0, 0.34049052908410427
297.0, 0.3411275840229346
298.0, 0.3462833755905294
299.0, 0.34747398653848405
300.0, 0.35560610095602424
301.0, 0.36798525057827314
302.0, 0.3775704476210842
303.0, 0.3770725361458185
304.0, 0.38527131227331135
305.0, 0.38585545381864944
306.0, 0.3778518112156795
307.0, 0.3679869625002025
308.0, 0.3636584535658926
309.0, 0.36678138131984883
310.0, 0.3550295114682639
311.0, 0.34179449045439797
312.0, 0.33391318154603894
313.0, 0.3303688745289699
314.0, 0.32709534252533545
315.0, 0.32585877892895687
316.0, 0.3318731357204775
317.0, 0.33638183461258364
318.0, 0.34374038519185
319.0, 0.35273248876972996
320.0, 0.3592364736439845
321.0, 0.3739233813870603
322.0, 0.38593637446752654
323.0, 0.3973073360732785
324.0, 0.4098726729244874
325.0, 0.42727522705700416
326.0, 0.451602491331446
327.0, 0.4515725983215779
328.0, 0.4802795601939673
329.0, 0.5013403249018434
330.0, 0.5044654517030849
331.0, 0.49448434282697157
332.0, 0.48743976752981727
333.0, 0.47291791391621324
334.0, 0.4469589022079259
335.0, 0.4076846721053221
336.0, 0.3597377333196358
337.0, 0.31614683977769403
338.0, 0.29887825353655717
339.0, 0.27674435008245585
340.0, 0.25700842362512477
341.0, 0.242214543153976
342.0, 0.23215954795959012
343.0, 0.22802015780753487
344.0, 0.23714127667881482
345.0, 0.2351339832238792
346.0, 0.2429493488408594
347.0, 0.24492322452499676
348.0, 0.2359307706989767
349.0, 0.21785292662316683
350.0, 0.1934884826206439
351.0, 0.17108830230962963
352.0, 0.13548943561029728
353.0, 0.10732996593188085
354.0, 0.0861354276059991
355.0, 0.06300304196640914
356.0, 0.052229577247653286
357.0, 0.05134858189408054
358.0, 0.04793879222862882
359.0, 0.04610160599443553
360.0, 0.04456036415627969
361.0, 0.04121522774529626
362.0, 0.0500004567202281
363.0, 0.05459917274948641
364.0, 0.0550457173744707
365.0, 0.05911852996154979
366.0, 0.06838966089736354
367.0, 0.08058874739074116
368.0, 0.10226898523298367
369.0, 0.12738023543220134
370.0, 0.14728648571430658
371.0, 0.16617117678956614
372.0, 0.19180261589583555
373.0, 0.22762497368224616
374.0, 0.24949961223622386
375.0, 0.27354049904632116
376.0, 0.2970115775611779
377.0, 0.31327093278209106
378.0, 0.3229501805045393
379.0, 0.33126042885516715
380.0, 0.3329704015247927
381.0, 0.32846245358940757
382.0, 0.31760950762549484
383.0, 0.30376812549050725
384.0, 0.28328330832853954
385.0, 0.25019235183619454
386.0, 0.21678971811564018
387.0, 0.17622946118680388
388.0, 0.14756692066380878
389.0, 0.12151642655538535
390.0, 0.09493709567114653
391.0, 0.07261237253310214
392.0, 0.05987114458810176
393.0, 0.041869895134073014
394.0, 0.030189766068941925
395.0, 0.01962812010370091
396.0, 0.011636755546831764
397.0, 0.010146555545530712
398.0, 0.0038019207046023854
399.0, 0.005169186705973107
400.0, 0.010700106638228055
401.0, 0.01576247794087442
402.0, 0.01506411456041854
403.0, 0.009967613291486589
404.0, 0.024544680637749436
405.0, 0.014561650435122515
406.0, 0.019410287966162783
407.0, 0.028862314567610826
408.0, 0.03196247265925388
409.0, 0.026200083609596702
410.0, 0.02752289509695235
411.0, 0.019721659518390774
412.0, 0.026807566445906632
413.0, 0.033272379322850036
414.0, 0.030999223547296166
415.0, 0.01987452295260786
416.0, 0.00633471499125039
417.0, 0.018679049906370142
418.0, 0.013731890467079769
419.0, 0.005058820415488454
420.0, 0.0005221215720290622
421.0, 0.0017441535200987202
422.0, 0.004015874046490524
423.0, 0.0011637355904770604
424.0, 0.0033265210934458923
425.0, 0.009654954730455176
426.0, 0.014291056496105722
427.0, 0.01564638483479642
428.0, 0.01939735860681879
429.0, 0.012382024364682906
430.0, 0.021167389955013154
431.0, 0.02333705948867983
432.0, 0.022537960777998745
433.0, 0.025163843201042167
434.0, 0.03295517562556852
435.0, 0.04571133395384688
436.0, 0.03315192839520472
437.0, 0.03793866742282091
438.0, 0.03537891777868289
439.0, 0.029998944705491457
440.0, 0.04661654414579288
441.0, 0.04819609087081516
442.0, 0.05160902665856697
443.0, 0.05873113496062463
444.0, 0.065802632904139
445.0, 0.07084867508216348
446.0, 0.07233707763537416
447.0, 0.06558677746450003
448.0, 0.07158735158127166
449.0, 0.07220435599316283
450.0, 0.08167593583088806
451.0, 0.09012640459296106
452.0, 0.09268658943024442
453.0, 0.11226542710465252
454.0, 0.11694251689707509
455.0, 0.12971066543009593
456.0, 0.14321104569526177
457.0, 0.15980130236018272
458.0, 0.17802960031686985
459.0, 0.19227939690499538
460.0, 0.2305848905558704
461.0, 0.26681975697232896
462.0, 0.2987953971209176
463.0, 0.3505566256358592
464.0, 0.41653246974947383
465.0, 0.4753634707445398
466.0, 0.5601383485582173
467.0, 0.6418619733590699
468.0, 0.7218046006380993
469.0, 0.7820500614829453
470.0, 0.8380683500924955
471.0, 0.9073306136453118
472.0, 0.9679678910286599
473.0, 0.9952990420280963
474.0, 0.9948844014063882
475.0, 0.9542942368549182
476.0, 0.8953987574850745
477.0, 0.8284588079156631
478.0, 0.7360840800436488
479.0, 0.6419175040184228
480.0, 0.5193742191144872
481.0, 0.42691059209654375
482.0, 0.36248774560555086
483.0, 0.31509481982758675
484.0, 0.27463295449878394
485.0, 0.22849200207102832
486.0, 0.2028880090599204
487.0, 0.19545875776338748
488.0, 0.1763859011487733
489.0, 0.15699271136610882
490.0, 0.15487311455706954
491.0, 0.15614634096543759
492.0, 0.14841557962116575
493.0, 0.14158881613633365
494.0, 0.13569466613697673
495.0, 0.13087143227764172
496.0, 0.13171017369388405
497.0, 0.14345738208823758
498.0, 0.1502348402899877
499.0, 0.13643758765394978
500.0, 0.13289557552015008
501.0, 0.12902025932468678
502.0, 0.12213883478514558
503.0, 0.11657805677004184
504.0, 0.11392332888795664
505.0, 0.09412017124755187
506.0, 0.0938060176000548
507.0, 0.09057749443149461
508.0, 0.07642909442389959
509.0, 0.06494912641180461
510.0, 0.07870804587153755
511.0, 0.0703070735186125
512.0, 0.06493654566217345
513.0, 0.06798134442340965
514.0, 0.06825815529729641
515.0, 0.06415548307499824
516.0, 0.06148168255987298
517.0, 0.06347307316208554
518.0, 0.06970799227521973
519.0, 0.06543152558433127
520.0, 0.0693909785926634
521.0, 0.07964907569890808
522.0, 0.08765334540150362
523.0, 0.0887650769186581
524.0, 0.09419844038476281
525.0, 0.10194710811213216
526.0, 0.11294756848198516
527.0, 0.12225288811455856
528.0, 0.12919349887294515
529.0, 0.137320025261039
530.0, 0.15147589781423018
531.0, 0.16049803741077726
532.0, 0.17412988646807318
533.0, 0.18545006723743138
534.0, 0.19954751757026676
535.0, 0.21197791414933792
536.0, 0.21257206632988943
537.0, 0.22803567678709777
538.0, 0.21853300092304825
539.0, 0.2270779437080157
540.0, 0.2361296713957722
541.0, 0.23528071379286286
542.0, 0.23085607994891208
543.0, 0.24363478606514735
544.0, 0.25854757532930167
545.0, 0.2641536677266442
546.0, 0.29269021217375235
547.0, 0.32086661323487553
548.0, 0.34940749959145667
549.0, 0.3945047674266297
550.0, 0.43237051862792486
551.0, 0.4632126827070867
552.0, 0.49972848127483976
553.0, 0.533087008563122
554.0, 0.5573619103922821
555.0, 0.5771914084459386
556.0, 0.5999739262226216
557.0, 0.5868289094154128
558.0, 0.5778627812509236
559.0, 0.5483078375466329
560.0, 0.5077486092610735
561.0, 0.4539055213783112
562.0, 0.39289067606506867
563.0, 0.3539139166772646
564.0, 0.2955556686221974
565.0, 0.2672567115887631
566.0, 0.23151988619295766
567.0, 0.20390020756395447
568.0, 0.18460874985437323
569.0, 0.16185925443228763
570.0, 0.14399595716334018
571.0, 0.13434858495992763
572.0, 0.12479251861297355
573.0, 0.11406102525247648
574.0, 0.10512687336593009
575.0, 0.09225402403548295
576.0, 0.07119559427392476
577.0, 0.0821683620458092
578.0, 0.07231447977041847
579.0, 0.06109225266502489
580.0, 0.06461717054613919
581.0, 0.06559506820080478
582.0, 0.061114785112916806
583.0, 0.07430786397465085
584.0, 0.05928280369888646
585.0, 0.06146558418523299
586.0, 0.06921357277533371
587.0, 0.06662082476341634
588.0, 0.06257753667385085
589.0, 0.0658985633179817
590.0, 0.06488869457246955
591.0, 0.07084535316881461
592.0, 0.07673018122520504
593.0, 0.08485658287054773
594.0, 0.09481618652901914
595.0, 0.1071643856939038
596.0, 0.12329677865098419
597.0, 0.14326917486866744
598.0, 0.1494190537225276
599.0, 0.17802778802273508
600.0, 0.20048393630957437
601.0, 0.21961810204434062
602.0, 0.23732327073467727
603.0, 0.2562669439322222
604.0, 0.2899963464046084
605.0, 0.28741304895488967
606.0, 0.3165232682257028
607.0, 0.3361343993727478
608.0, 0.35956740962773315
609.0, 0.3776175519998168
610.0, 0.3748706149960366
611.0, 0.39344962014125096
612.0, 0.38012379234807625
613.0, 0.36102073252903943
614.0, 0.3529265300487997
615.0, 0.3397995757744045
616.0, 0.31473360102199327
617.0, 0.28658539745425704
618.0, 0.26210605371195284
619.0, 0.24183513672445273
620.0, 0.21726784427617316
621.0, 0.19891744641024955
622.0, 0.1782760207859322
623.0, 0.15903461244978936
624.0, 0.15263202281047844
625.0, 0.1466381893289189
626.0, 0.15619227642148187
627.0, 0.14916388752839607
628.0, 0.14898639268649264
629.0, 0.16652938430290826
630.0, 0.1822329851602326
631.0, 0.17441692052522823
632.0, 0.1814789070506518
633.0, 0.20082324478683297
634.0, 0.20063177398069074
635.0, 0.20946222264399272
636.0, 0.20985364879625454
637.0, 0.19719484516805663
638.0, 0.1839909309513713
639.0, 0.16829465363570872
640.0, 0.15576474244482263
641.0, 0.14491272454843296
642.0, 0.12887881978841198
643.0, 0.11168301061018605
644.0, 0.09477751947064923
645.0, 0.07828497509777449
646.0, 0.06901145477790807
647.0, 0.07192092145339801
648.0, 0.05372078118513965
649.0, 0.04788889278463985
650.0, 0.043170317847033915
651.0, 0.036327663588704755
652.0, 0.033195581460490564
653.0, 0.03232088807571955
654.0, 0.031787684211687824
655.0, 0.03605481754741454
656.0, 0.034229907779609825
657.0, 0.02836996947852468
658.0, 0.025194720187979
659.0, 0.028534366761986552
660.0, 0.03351248032165639
661.0, 0.026205283666745804
662.0, 0.02773184391306567
663.0, 0.02737396726216348
664.0, 0.025583763228729284
665.0, 0.02918788097200744
666.0, 0.03486460816486697
667.0, 0.02733107882569498
668.0, 0.018831621852140972
669.0, 0.013702693743591808
670.0, 0.03872939462318376
671.0, 0.04254100823078396
672.0, 0.039634403180636726
673.0, 0.04126660608709902
674.0, 0.03410538314416383
675.0, 0.040250571970624545
676.0, 0.04811587631053808
677.0, 0.04672996686187237
678.0, 0.053197131540613174
679.0, 0.05367223906352715
680.0, 0.052351375343580815
681.0, 0.06239899199052603
682.0, 0.06522967021945349
683.0, 0.0651225489511585
684.0, 0.06735243940658257
685.0, 0.07283903491387617
686.0, 0.07797377146805934
687.0, 0.08345748503517836
688.0, 0.09032377284176826
689.0, 0.09561032586863609
690.0, 0.10273751618956722
691.0, 0.10725141329622395
692.0, 0.11399009309688861
693.0, 0.1216353388404801
694.0, 0.13049491551689332
695.0, 0.1404518092077155
696.0, 0.15127264179236619
697.0, 0.1678807812052515
698.0, 0.1819197961440497
699.0, 0.1806732286514449
700.0, 0.1809157631036377
701.0, 0.19389224081335166
702.0, 0.2039691828720309
703.0, 0.19723433906050988
704.0, 0.20349718209817103
705.0, 0.20627031441879742
706.0, 0.2130849191779673
707.0, 0.21139884175113957
708.0, 0.2094336471001479
709.0, 0.21181148274434905
710.0, 0.20988524696518115
711.0, 0.19126260047307422
712.0, 0.18455246060028513
713.0, 0.17701523939680222
714.0, 0.14265850066833247
715.0, 0.13900400040456082
716.0, 0.128622676753078
717.0, 0.10809653290951292
718.0, 0.10861686483318563
719.0, 0.10478517097546426
720.0, 0.09137403082094407
721.0, 0.084415580162613
722.0, 0.06891489755307725
723.0, 0.059996989974741
724.0, 0.05656260035566427
725.0, 0.052539294761671726
726.0, 0.05041558618496554
727.0, 0.05018647911963824
728.0, 0.04941563730817665
729.0, 0.04726174009173552
730.0, 0.039774386129043146
731.0, 0.03524520944929324
732.0, 0.03066419153324478
733.0, 0.023405341251249143
734.0, 0.03240896674075814
735.0, 0.031176491275850968
736.0, 0.025870453867678
737.0, 0.02229947529616704
738.0, 0.015437843988655582
739.0, 0.019413005704185325
740.0, 0.030782043419625992
741.0, 0.028979340724473425
742.0, 0.03706930713142755
743.0, 0.018416858740537126
744.0, 0.0366814969165649
745.0, 0.03469362719625918
746.0, 0.02988224587132761
747.0, 0.032825289760268134
748.0, 0.035017376570407
749.0, 0.026865389599234114
750.0, 0.02317452881848211
751.0, 0.029646041570047965
752.0, 0.0253547851597939
753.0, 0.025562033952944145
754.0, 0.03097369465900121
755.0, 0.033421980480432614
756.0, 0.03130367799616995
757.0, 0.03768234605397558
758.0, 0.024346810746731184
759.0, 0.018719723193401195
760.0, 0.030294508383820175
761.0, 0.03147346914802721
762.0, 0.022394057691259923
763.0, 0.021168780430988805
764.0, 0.031126063649729724
765.0, 0.012356430802656828
766.0, 0.01782485121981345
767.0, 0.022734060419668814
768.0, 0.021796781281603783
769.0, 0.02575815418595086
770.0, 0.024518086903476417
771.0, 0.01849328300724047
772.0, 0.023392807272300975
773.0, 0.017612814514665634
774.0, 0.003595213498799865
775.0, 0.015702336549976423
776.0, 0.01683997489958685
777.0, 0.016897300177310715
778.0, 0.011475987789763662
779.0, 0.004327458123003551
780.0, 0.014861505233055931
781.0, 0.011555102292717421
782.0, 0.02120992024210371
783.0, 0.020011077236776666
784.0, 0.01047712386272732
785.0, 0.004912510674539821
786.0, 0.008048741393212593
787.0, 0.010697424701555458
788.0, 0.0015260927819997498
789.0, 0.0038588029607352597
790.0, 0.0014017359248579778
791.0, 0.014088121387852242
792.0, 0.009787640090382747
793.0, 0.005487663123455965
794.0, 0.004785661524779435
795.0, 0.0024757422873225663
796.0, 0.0034666619019614116
797.0, 0.004165173166333432
798.0, 0.00643176646334402
799.0, 0.0048929308430308086
800.0, 0.005561883853344756
801.0, 0.005492940281013829
802.0, 0.0058506885598272485
803.0, 0.008183958918558215
804.0, 0.009796170301324804
805.0, 0.01251961491334443
806.0, 0.01009690307111133
807.0, 0.013123445292062037
808.0, 0.01591718145509681
809.0, 0.009868192909747884
810.0, 0.0022811764486538283
811.0, 0.001613079411271387
812.0, 0.0036625199679045056
813.0, 0.003503734880706685
814.0, 0.0005629482686990669
815.0, 0.0012030392391155966
816.0, 0.0008532681157761835
817.0, 0.0014655065766366166
818.0, 0.002219176086332558
819.0, 0.0019855431368770373
820.0, 0.0015285248244813958
821.0, 0.0006556414166385158
822.0, 0.002792432984027119
823.0, 0.002503945411996892
824.0, 0.002933185640396296
825.0, 0.0015162706387686915
826.0, 0.003084355238961492
827.0, 0.00816257033450393
828.0, 0.011067867497022332
829.0, 0.011829141794982404
830.0, 0.013031151199828245
831.0, 0.003038175233251717
832.0, 0.004814147274993961
833.0, 0.005620922596549981
834.0, 0.0064477558576355055
835.0, 0.008225493305369225
836.0, 0.009255558743236324
837.0, 0.01119268705579328
838.0, 0.006075166178510888
839.0, 0.006650040699977777
840.0, 0.0023990019320379815
841.0, 0.005134826709827971
842.0, 0.010759220562066928
843.0, 0.009510206543118082
844.0, 0.002754288035293866
845.0, 0.0035184069823765113
846.0, 0.00636261173650144
847.0, 0.0008161163016078689
848.0, 0.00500639571837323
849.0, 0.016336841145586752
850.0, 0.015028428191081272
851.0, 0.006175661860475381
852.0, 0.005927374711728911
853.0, 0.013959057833339708
854.0, 0.0061045195129023995
855.0, 0.01970489986206661
856.0, 0.0217081067389638
857.0, 0.015815445532539236
858.0, 0.0072701823204609365
859.0, 0.00954436967482602
860.0, 0.012670042535128875
861.0, 0.01007250357804466
862.0, 0.02053358233922938
863.0, 0.016863701403859923
864.0, 0.016023121940977814
865.0, 0.021676454952842556
866.0, 0.01568143458393665
867.0, 0.010096240474788775
868.0, 0.01585959133857174
869.0, 0.022409491248026967
870.0, 0.016417968590776436
871.0, 0.0192987606268325
872.0, 0.01937585362013675
873.0, 0.02605698161572924
874.0, 0.02648485160128339
875.0, 0.024175996474512775
876.0, 0.022331118995530523
877.0, 0.01773525542338483
878.0, 0.011733580719763185
879.0, 0.012051221480101048
880.0, 0.006045705748611618
881.0, 0.004520433400647793
882.0, 0.0031611804810239715
883.0, 0.008215960583975456
884.0, 0.0059968336956144185
885.0, 0.006708921479399801
886.0, 0.009680571464664237
887.0, 0.006664757916025572
888.0, 0.009449159731066368
889.0, 0.014932776285615694
890.0, 0.011582211715200812
891.0, 0.005428950416051211
892.0, 0.0066751816515480565
893.0, 0.009716938967824369
894.0, 0.00882437592470659
895.0, 0.008628899517616707
896.0, 0.014269723031655449
897.0, 0.01322386201471279
898.0, 0.008955917818532881
899.0, 0.012129119475676648
900.0, 0.014417642897293512
901.0, 0.00764847996898772
902.0, 0.015659714328380633
903.0, 0.022739674076651062
904.0, 0.021232681088095826
905.0, 0.02850636416966114
906.0, 0.013768883085749748
907.0, 0.011419190771169811
908.0, 0.03023895123090576
909.0, 0.021752069974660056
910.0, 0.021228096559477612
911.0, 0.018805253947572882
912.0, 0.020291164794571784
913.0, 0.029520053191491234
914.0, 0.028533802472673588
915.0, 0.022937288517994526
916.0, 0.024047238078518947
917.0, 0.028876739057430535
918.0, 0.02061717167038901
919.0, 0.030683151658921798
920.0, 0.029385078214061146
921.0, 0.026841024941236323
922.0, 0.03549223386152396
923.0, 0.028847085223791258
924.0, 0.018727667971093872
925.0, 0.021590245662345534
926.0, 0.02296440001740265
927.0, 0.020512808742188096
928.0, 0.021260497031738892
929.0, 0.020783883354411028
930.0, 0.020276136807790595
931.0, 0.022505623198388735
932.0, 0.02464386866931644
933.0, 0.024460244841438973
934.0, 0.017518173933776422
935.0, 0.020445867212142928
936.0, 0.016821726037723587
937.0, 0.014206975530213604
938.0, 0.021390990244228244
939.0, 0.030545828190056367
940.0, 0.03268025731233376
941.0, 0.02936693563540401
942.0, 0.02336889053271682
943.0, 0.022611794567948186
944.0, 0.027900666481426917
945.0, 0.022013758309260664
946.0, 0.02230932223368023
947.0, 0.02517742960264194
948.0, 0.026608945623708958
949.0, 0.02585217939061223
950.0, 0.024518313245883147
951.0, 0.025462830471654187
952.0, 0.025240191408374812
953.0, 0.0227576068677405
954.0, 0.025551702354342686
955.0, 0.02116482668834803
956.0, 0.018415568512547425
957.0, 0.01886172091652676
958.0, 0.01567737547946897
959.0, 0.013381117590159197
960.0, 0.021760372363336673
961.0, 0.002984288484641066
962.0, 0.014945547367596353
963.0, 0.02343823549834525
964.0, 0.011275844974028077
965.0, 0.014464774302968214
966.0, 0.01611913090303656
967.0, 0.013148628797241053
968.0, 0.019331760099782415
969.0, 0.031280017779479176
970.0, 0.02268760137607722
971.0, 0.019981692498717746
972.0, 0.02702559083639268
973.0, 0.012115688095341883
974.0, 0.01111070578213405
975.0, 0.01452541142772434
976.0, 0.015337513647498309
977.0, 0.010383706790078282
978.0, 0.008048197127730344
979.0, 0.021979885351135334
980.0, 0.022557306447322026
981.0, 0.01494079313716108
982.0, 0.006285136666550039
983.0, 0.007534614011987583
984.0, 0.015469452246416875
985.0, 0.016424222625269415
986.0, 0.013538783506076676
987.0, 0.015769360053912725
988.0, 0.018880315429533282
989.0, 0.013132782843104285
990.0, 0.02764143620555567
991.0, 0.02105251787692222
992.0, 0.017229362488652995
993.0, 0.013686070017012233
994.0, 0.0052028285019085595
995.0, 0.00845493710416711
996.0, 0.010056575054046621
997.0, 0.006475937978245993
998.0, 0.020495242622260514
999.0, 0.030219988843797452
1000.0, 0.019709008425470423
1001.0, 0.005311243053409044
1002.0, 0.01584375112845956
1003.0, 0.025971788038250586
1004.0, 0.022514412445978002
1005.0, 0.025237428764345867
1006.0, 0.030764151751713324
1007.0, 0.02808370886339422
1008.0, 0.02748748954824375
1009.0, 0.02451930454852463
1010.0, 0.026284098427722714
1011.0, 0.02346216811052812
1012.0, 0.02607642372217819
1013.0, 0.022923838113298425
1014.0, 0.015950510984692735
1015.0, 0.014356828769635796
1016.0, 0.016263290831073845
1017.0, 0.014610894974428471
1018.0, 0.014143636120803925
1019.0, 0.025011539180088298
1020.0, 0.013404826529117847
1021.0, 0.023962338500274755
1022.0, 0.008540490132642716
1023.0, 0.01792744291870674
1024.0, 0.025071815125391226
1025.0, 0.026017884354778104
1026.0, 0.02047016290963898
1027.0, 0.013434082243363404
1028.0, 0.017217020697139963
1029.0, 0.01567868998359627
1030.0, 0.003286913145992009
1031.0, 0.02379661932215591
1032.0, 0.02260444096875875
1033.0, 0.01248369890661653
1034.0, 0.01566036321021849
1035.0, 0.019385722543405773
1036.0, 0.012169865119406657
1037.0, 0.012226786191110067
1038.0, 0.027246812946897833
1039.0, 0.010538173074493767
1040.0, 0.0008725308358228812
1041.0, 0.011702352908580078
1042.0, 0.01873072496770503
1043.0, 0.018816869907741833
1044.0, 0.018183639663702327
1045.0, 0.015647812650607336
1046.0, 0.014301924318202056
1047.0, 0.01555209675257515
1048.0, 0.017782230173453692
1049.0, 0.021219353110551845
1050.0, 0.018363715059885453
1051.0, 0.015068064019324588
1052.0, 0.022856331729293904
1053.0, 0.016261719947486084
1054.0, 0.01839526541134844
1055.0, 0.020143139956184972
1056.0, 0.020061182540070877
1057.0, 0.01588726036318405
1058.0, 0.00837407650693174
1059.0, 0.00555077779629174
1060.0, 0.006632347937940103
1061.0, 0.020542059600881075
1062.0, 0.004423941693116638
1063.0, 0.010724402447633213
1064.0, 0.023184353848004075
1065.0, 0.012698002271557034
1066.0, 0.0072308387494038175
1067.0, 0.013888606156606103
1068.0, 0.017154716677317515
1069.0, 0.011697380727506559
1070.0, 0.009801511817423607
1071.0, 0.01792786489814443
1072.0, 0.005139628165201156
1073.0, 0.011106839028766123
1074.0, 0.012759498697144989
1075.0, 0.014445919988067008
1076.0, 0.02434144947831884
1077.0, 0.01591793621793712
1078.0, 0.006864166440980115
1079.0, 0.014329533354121151
1080.0, 0.016035259556292387
1081.0, 0.006257005828204664
1082.0, 0.011237631781682515
1083.0, 0.010982353414646304
1084.0, 0.010353867870846835
1085.0, 0.012638848422741688
1086.0, 0.013282997495660106
1087.0, 0.014200764546511155
1088.0, 0.015028031483267097
1089.0, 0.015810215965448036
1090.0, 0.016350441336952726
1091.0, 0.015537953725362996
1092.0, 0.012952297527508594
1093.0, 0.006713778673483199
1094.0, 0.020145399717312877
1095.0, 0.01459474187803308
1096.0, 0.016596145725200736
1097.0, 0.011301267627285293
1098.0, 0.015636805221853203
1099.0, 0.011253454360258682
1100.0, 0.014229811355588344
1101.0, 0.020577955946270658
1102.0, 0.007713730804402819
1103.0, 0.012530531078115838
1104.0, 0.0059597631665906335
1105.0, 0.012326137438389728
1106.0, 0.0085343065663729
1107.0, 0.001626310083045264
1108.0, 0.006018931019640985
1109.0, 0.006488146328114897
1110.0, 0.004585630548195742
1111.0, 0.0037695853784767606
1112.0, 0.004112983505868699
1113.0, 0.005497580640838413
1114.0, 0.008946318507496935
1115.0, 0.01689469574952485
1116.0, 0.013663528887064293
1117.0, 0.013002693259223133
1118.0, 0.0024233120770473827
1119.0, 0.002764550371300772
1120.0, 0.011597859882645053
1121.0, 0.015464659339378435
1122.0, 0.012534819867390405
1123.0, 0.007213444677572022
1124.0, 0.0067745514431504705
1125.0, 0.013785708022389521
1126.0, 0.017247872187506348
1127.0, 0.029693949492632054
1128.0, 0.0038934646722597072
1129.0, 0.012549532164505748
1130.0, 0.0049729007181700344
1131.0, 0.009049241714755695
1132.0, 0.01858874710888117
1133.0, 0.024599491500456903
1134.0, 0.02382343643184714
1135.0, 0.018933296222264754
1136.0, 0.015311913111635893
1137.0, 0.014728018968868151
1138.0, 0.012793850985920615
1139.0, 0.011892405307761218
1140.0, 0.012181501235873698
1141.0, 0.014565895174647089
1142.0, 0.01382996512781851
1143.0, 0.012854811569305413
1144.0, 0.017070796707702254
1145.0, 0.015112235794933775
1146.0, 0.012677306176805967
1147.0, 0.016863967161058112
1148.0, 0.020114164193235893
1149.0, 0.02097493192451918
1150.0, 0.0216578502458335
1151.0, 0.004152161285937886
1152.0, 0.024475030110479475
1153.0, 0.007580486236723237
1154.0, 0.001184357707323812
1155.0, 0.003778110353665612
1156.0, 0.0048715566335480655
1157.0, 0.004698559612327338
1158.0, 0.006841065975654062
1159.0, 0.009356490620707182
1160.0, 0.010737117346432838
1161.0, 0.014667910917894936
1162.0, 0.0168961581282537
1163.0, 0.022221394549287638
1164.0, 0.012526359209265356
1165.0, 0.022934658448056606
1166.0, 0.012900639702206274
1167.0, 0.016045745319310193
1168.0, 0.020317229960107652
1169.0, 0.02781758666617127
1170.0, 0.0275485551646045
1171.0, 0.020664882042888372
1172.0, 0.017841638211615166
1173.0, 0.013339531639059729
1174.0, 0.01789925663781854
1175.0, 0.027190785274107954
1176.0, 0.005150881484823377
1177.0, 0.004796930679061887
1178.0, 0.011559116628128377
1179.0, 0.02146774204808
1180.0, 0.011971760104526028
1181.0, 0.013050638421735533
1182.0, 0.016516992355013367
1183.0, 0.010516261089690386
1184.0, 0.007940016690157203
1185.0, 0.014733465559147906
1186.0, 0.015475589999859929
1187.0, 0.0076585200299752135
1188.0, 0.008625418805149446
1189.0, 0.015810808840665297
1190.0, 0.010656789567960751
1191.0, 0.011078472885406894
1192.0, 0.010612040756859857
1193.0, 0.00815818174098204
1194.0, 0.004858505645541149
1195.0, 0.0043822751032081405
1196.0, 0.0048866731714707606
1197.0, 0.0033061852570882
1198.0, 0.002924922844532331
1199.0, 0.004047651043110724
1200.0, 0.0006729227510145758
1201.0, 0.00041640055827207954
1202.0, 0.009198996314375926
1203.0, 0.005359613588973436
1204.0, 0.019200616401874777
1205.0, 0.018235182361362318
1206.0, 0.012427896830109099
1207.0, 0.018286588742222283
1208.0, 0.021601791330463384
1209.0, 0.018823951393184123
1210.0, 0.023090023083505225
1211.0, 0.02748795460812975
1212.0, 0.020248722914237845
1213.0, 0.021877926152459676
1214.0, 0.007648066110863106
1215.0, 0.009587771795480223
1216.0, 0.01356693968777787
1217.0, 0.014690788820599503
1218.0, 0.011062719336125092
1219.0, 0.016543375286889567
1220.0, 0.010167494976631922
1221.0, 0.00814581154204918
1222.0, 0.0075919914839120166
1223.0, 0.005368631025831424
1224.0, 0.013560341501013326
1225.0, 0.011379400093760438
1226.0, 0.018099276738510976
1227.0, 0.02006604574881826
1228.0, 0.02093781074053239
1229.0, 0.023968088164064406
1230.0, 0.02659745945500091
1231.0, 0.024306764747003374
1232.0, 0.03137652153398025
1233.0, 0.03159822399124881
1234.0, 0.03236233094706221
1235.0, 0.02914738324751436
1236.0, 0.020005865147455944
1237.0, 0.019111301437259323
1238.0, 0.02462838243294886
1239.0, 0.016801161973525224
1240.0, 0.007154000914802089
1241.0, 0.0066729388639038675
1242.0, 0.000692592406564484
1243.0, 0.0068558281636238545
1244.0, 0.003368694015034021
1245.0, 0.00832315064965283
1246.0, 0.011639911018563369
1247.0, 0.007305820661803392
1248.0, 0.0062917361125459405
1249.0, 0.00548275912686727
1250.0, 0.0016089447272936346
1251.0, 0.0005526086135619503
1252.0, 0.0011448431991441512
1253.0, 0.003091437110558623
1254.0, 0.014194859727328016
1255.0, 0.012813037890956096
1256.0, 0.00800428478170211
1257.0, 0.026059648824661972
1258.0, 0.01783569498439491
1259.0, 0.024995026957442323
1260.0, 0.02113461192648318
1261.0, 0.011955171551185839
1262.0, 0.0062165290122534736
1263.0, 0.003490974655557617
1264.0, 0.004344570578344366
1265.0, 0.0065593222645869125
1266.0, 0.0071682027698189025
1267.0, 0.010578575482168333
1268.0, 0.009538356861852892
1269.0, 0.013195394643360827
1270.0, 0.026447469669899706
1271.0, 0.009734898290585135
1272.0, 0.01828453432971106
1273.0, 0.01176838001089573
1274.0, 0.012490362720856771
1275.0, 0.01593044387139235
1276.0, 0.010453978008864804
1277.0, 0.005420985024744423
1278.0, 0.00847295423022883
1279.0, 0.012878521466330346
1280.0, 0.01070101869767366
1281.0, 0.006743970174030462
1282.0, 0.009095483246459533
1283.0, 0.006337080740464334
1284.0, 0.006890228004659993
1285.0, 0.02038892204397311
1286.0, 0.017211264257670597
1287.0, 0.02984191041986418
1288.0, 0.01297046455702448
1289.0, 0.0027217848596112963
1290.0, 0.0007403857436861441
1291.0, 0.007781865204871388
1292.0, 0.013887684693096296
1293.0, 0.013927143867929113
1294.0, 0.018281733217694215
1295.0, 0.022848654510531113
1296.0, 0.017955860598269945
1297.0, 0.020318308088942152
1298.0, 0.018915847381295967
1299.0, 0.017576509760420064
1300.0, 0.017842348134402827
1301.0, 0.012034259340812889
1302.0, 0.01591440565704537
1303.0, 0.016605706696645506
1304.0, 0.01692393364273886
1305.0, 0.023228314312512804
1306.0, 0.016497506926859355
1307.0, 0.017612908712525552
1308.0, 0.026692006934095187
1309.0, 0.027900196609556803
1310.0, 0.020337727377366607
1311.0, 0.016788856784050364
1312.0, 0.022899717215720462
1313.0, 0.02587320361005359
1314.0, 0.01832854355685263
1315.0, 0.016188207078367132
1316.0, 0.010876614365579004
1317.0, 0.017636377471727555
1318.0, 0.014262900654825387
1319.0, 0.01026267113374141
1320.0, 0.016236894631713503
1321.0, 0.012920010579856648
1322.0, 0.01898098311626072
1323.0, 0.01679905776198003
1324.0, 0.010681933255111834
1325.0, 0.01486117860628621
1326.0, 0.016325500165909914
1327.0, 0.014934162447650935
1328.0, 0.022728625775856992
1329.0, 0.016163664798655688
1330.0, 0.009478942110643627
1331.0, 0.009518428932539331
1332.0, 0.01881137034190849
1333.0, 0.020937628914177064
1334.0, 0.012375466359490977
1335.0, 0.013425256491114392
1336.0, 0.011179942157134295
1337.0, 0.02078674848280275
1338.0, 0.017645548649105537
1339.0, 0.014648126335592737
1340.0, 0.019253815444140718
1341.0, 0.020380125391137115
1342.0, 0.017243347015918
1343.0, 0.018227442230332357
1344.0, 0.02179323768170183
1345.0, 0.023296040524405755
1346.0, 0.026551540730569166
1347.0, 0.029022634315446615
1348.0, 0.021813649885342776
1349.0, 0.017570823993141145
1350.0, 0.007511864868105039
1351.0, 0.022690749082724445
1352.0, 0.020948976224675845
1353.0, 0.028338912334604994
1354.0, 0.011879773142501483
1355.0, 0.019166847275675934
1356.0, 0.009528917540651653
1357.0, 0.01161280286364665
1358.0, 0.019580082742869636
1359.0, 0.020582884210425777
1360.0, 0.013576007966400605
1361.0, 0.013001005965774354
1362.0, 0.02270018742230935
1363.0, 0.0173628632912376
1364.0, 0.01671354632011012
1365.0, 0.013592911737285716
1366.0, 0.01331899814219809
1367.0, 0.012634047329498497
1368.0, 0.010913556276712179
1369.0, 0.025400249968358178
1370.0, 0.021211234472186376
1371.0, 0.025733720470381784
1372.0, 0.011068339522952199
1373.0, 0.015077967684663629
1374.0, 0.017225461215010462
1375.0, 0.01408737977031736
1376.0, 0.015224048321460274
1377.0, 0.017534971806367042
1378.0, 0.013073843055167341
1379.0, 0.011121114119876574
1380.0, 0.021790109327939542
1381.0, 0.02583062030324204
1382.0, 0.011569281127601565
1383.0, 0.016705362257976357
1384.0, 0.03641350282720006
1385.0, 0.016223887797338726
1386.0, 0.010564232331199776
1387.0, 0.017077096585571647
1388.0, 0.008454572006854025
1389.0, 0.010931872494350112
1390.0, 0.013618240591460733
1391.0, 0.01200998272807067
1392.0, 0.010271857774149339
1393.0, 0.00919931450272158
1394.0, 0.01327673332621848
1395.0, 0.01382046745806174
1396.0, 0.01044583717612695
1397.0, 0.016894882809441375
1398.0, 0.02379386781499951
1399.0, 0.017890466697942458
1400.0, 0.019321774702870352
1401.0, 0.025612528426309334
1402.0, 0.01169225236182752
1403.0, 0.02663256366584784
1404.0, 0.011131117647322407
1405.0, 0.0034068402298547545
1406.0, 0.029632277051516276
1407.0, 0.02053182346329161
1408.0, 0.02177695684951713
1409.0, 0.009953920677080001
1410.0, 0.018258510739811176
1411.0, 0.0172017741865782
1412.0, 0.012587806398770553
1413.0, 0.015242882513735156
1414.0, 0.017313601813636573
1415.0, 0.021150806373001554
1416.0, 0.022525457115762593
1417.0, 0.021516668406656458
1418.0, 0.02072325409956749
1419.0, 0.019153319407486706
1420.0, 0.016689639053668284
1421.0, 0.011822403602491705
1422.0, 0.011402057237416217
1423.0, 0.016104681826546653
1424.0, 0.024536339738762483
1425.0, 0.018944401321128766
1426.0, 0.03047030160130088
1427.0, 0.012099622507942467
1428.0, 0.021891503940486112
1429.0, 0.02581075046697756
1430.0, 0.028097798716961178
1431.0, 0.029265410774821865
1432.0, 0.03039038551622462
1433.0, 0.025633297302374035
1434.0, 0.026257536256151633
1435.0, 0.023682984682545094
1436.0, 0.015983183876090705
1437.0, 0.017550366037394308
1438.0, 0.015582857068970482
1439.0, 0.018011804710480497
1440.0, 0.025227025557270865
1441.0, 0.016899927172155976
1442.0, 0.016754226259022408
1443.0, 0.027692397078818116
1444.0, 0.02404339559229127
1445.0, 0.029153102472088955
1446.0, 0.011509161133236068
1447.0, 0.02736723339553958
1448.0, 0.017231879882400245
1449.0, 0.013744285392067969
1450.0, 0.027594516850330868
1451.0, 0.019772678771937408
1452.0, 0.024242970501513247
1453.0, 0.024745267439542962
1454.0, 0.015193419181656545
1455.0, 0.01943470786821031
1456.0, 0.023981636207826795
1457.0, 0.019717891412139484
1458.0, 0.017487291357611207
1459.0, 0.022482511197046803
1460.0, 0.023928803180788306
1461.0, 0.016295635903571738
1462.0, 0.011486670448612972
1463.0, 0.018402889843320454
1464.0, 0.0210575920362626
1465.0, 0.01842333061824432
1466.0, 0.02578988222788206
1467.0, 0.016719928733283256
1468.0, 0.01691521490029678
1469.0, 0.02875455974253974
1470.0, 0.0253088528253858
1471.0, 0.018190713872674673
1472.0, 0.014812808753843616
1473.0, 0.01291694663386529
1474.0, 0.009035047371625757
1475.0, 0.012685382136040294
1476.0, 0.010455892188039047
1477.0, 0.01466488384181183
1478.0, 0.015598100067103321
1479.0, 0.014437783770082912
1480.0, 0.018448677923508704
1481.0, 0.024772997668938108
1482.0, 0.030996274522450143
1483.0, 0.03365433966879791
1484.0, 0.021190603715532615
1485.0, 0.022245601817066724
1486.0, 0.025678261169854517
1487.0, 0.015935086463859632
1488.0, 0.017417207063072686
1489.0, 0.020269563526552375
1490.0, 0.01652252953571127
1491.0, 0.020631723805558645
1492.0, 0.0068403423082599646
1493.0, 0.0077890755969471015
1494.0, 0.008167875282168897
1495.0, 0.016714564124999023
1496.0, 0.02259378886973493
1497.0, 0.018034609585015172
1498.0, 0.01577275969821966
1499.0, 0.007376727245808803
1500.0, 0.011458064188142145
1501.0, 0.012019296730032759
1502.0, 0.014673963174531467
1503.0, 0.010839478955515618
1504.0, 0.016647573119628306
1505.0, 0.010559316304201547
1506.0, 0.006357336733133994
1507.0, 0.010186106268497398
1508.0, 0.006367419775338328
1509.0, 0.016813995042890835
1510.0, 0.01824589799401509
1511.0, 0.007867402311284497
1512.0, 0.0021799740953351897
1513.0, 0.01092930077536822
1514.0, 0.012226587501051335
1515.0, 0.0075193378316332025
1516.0, 0.0061080968043917185
1517.0, 0.010482650988913088
1518.0, 0.02262938876054637
1519.0, 0.01902749561285658
1520.0, 0.019439837153038944
1521.0, 0.018187576592772838
1522.0, 0.015884756441951028
1523.0, 0.013033584014100423
1524.0, 0.015815924957925425
1525.0, 0.011945477269251957
1526.0, 0.011943423540613755
1527.0, 0.011952539655783367
1528.0, 0.013053421191570677
1529.0, 0.010671614240278873
1530.0, 0.017137177089667274
1531.0, 0.018150114113641466
1532.0, 0.02803618381785484
1533.0, 0.013109348254791153
1534.0, 0.031276629688477976
1535.0, 0.02163036454697139
1536.0, 0.017132245332487382
1537.0, 0.02898409691150407
1538.0, 0.018744985284152096
1539.0, 0.007974626162191245
1540.0, 0.0024498812589680927
1541.0, 0.004892403516702105
1542.0, 0.016692427825781998
1543.0, 0.0280693976760267
1544.0, 0.023482416797617298
1545.0, 0.016542099209944535
1546.0, 0.008813475589170165
1547.0, 0.0060752894734623876
1548.0, 0.01218875842424918
1549.0, 0.019058415114737947
1550.0, 0.02882815109095742
1551.0, 0.021908886322088816
1552.0, 0.01550982370482678
1553.0, 0.018524554782717993
1554.0, 0.016220111505651925
1555.0, 0.011140881170902747
1556.0, 0.012763357356255459
1557.0, 0.013770559797288378
1558.0, 0.018513636801013172
1559.0, 0.004205645227680695
1560.0, 0.0013897547109412208
1561.0, 0.013528076019043288
1562, 0.0
1563, 0.0
1564, 0.0
1565, 0.0
1566, 0.0
1567, 0.0
1568, 0.0
1569, 0.0
1570, 0.0
1571, 0.0
1572, 0.0
1573, 0.0
1574, 0.0
1575, 0.0
1576, 0.0
1577, 0.0
1578, 0.0
1579, 0.0
1580, 0.0
1581, 0.0
1582, 0.0
1583, 0.0
1584, 0.0
1585, 0.0
1586, 0.0
1587, 0.0
1588, 0.0
1589, 0.0
1590, 0.0
1591, 0.0
1592, 0.0
1593, 0.0
1594, 0.0
1595, 0.0
1596, 0.0
1597, 0.0
1598, 0.0
1599, 0.0
