30, 0.0
31, 0.0
32, 0.0
33, 0.0
34, 0.0
35, 0.0
36, 0.0
37, 0.0
38, 0.0
39, 0.0
40, 0.0
41.0, 5.408679894164534e-06
42.0, 0.00014786256971722963
43.0, 0.0004812463000172474
44.0, 0.000493214004833778
45.0, 0.0010064180238726359
46.0, 0.0013790137198107523
47.0, 0.0014465126657431408
48.0, 0.0012611442106994807
49.0, 0.0012728300001793023
50.0, 0.002320683469847324
51.0, 0.002775716348916458
52.0, 0.002823588644912754
53.0, 0.002969828878680564
54.0, 0.0038767525974295553
55.0, 0.0036517554043622516
56.0, 0.0037897657527290476
57.0, 0.0040257633783517275
58.0, 0.004244447141350237
59.0, 0.0048677005710618905
60.0, 0.005902594234306923
61.0, 0.006565689625504974
62.0, 0.007213739065057299
63.0, 0.007711423983145167
64.0, 0.007294118721661246
65.0, 0.006135288173227106
66.0, 0.005722688218548241
67.0, 0.005243742671585765
68.0, 0.004448620374489026
69.0, 0.0035682119622415624
70.0, 0.002897203676740158
71.0, 0.0024545921234677918
72.0, 0.002055204459524461
73.0, 0.0015915630370122635
74.0, 0.0010101213861807314
75.0, 0.00037289270539734583
76.0, 0.00011118020586168561
77.0, 0.0003867716613645399
78.0, 0.00090716103081908
79.0, 0.001280939195719184
80.0, 0.00143382741162677
81.0, 0.0012731743061299545
82.0, 0.0014917710087768822
83.0, 0.0018982072709641416
84.0, 0.002104593185242917
85.0, 0.001638028396822407
86.0, 0.0008750396634104578
87.0, 0.0007381052265018702
88.0, 0.0016394767012608534
89.0, 0.003603686489351767
90.0, 0.0061465395798674174
91.0, 0.010770750560151759
92.0, 0.01774153973832804
93.0, 0.026343788519618383
94.0, 0.036481084589067195
95.0, 0.048770120373454524
96.0, 0.06618333339932819
97.0, 0.09096712357549311
98.0, 0.12302873219941254
99.0, 0.15864230011716024
100.0, 0.19147092257125037
101.0, 0.2105415661798633
102.0, 0.22097659892827715
103.0, 0.21794539327557816
104.0, 0.20411794955835405
105.0, 0.1833771311861393
106.0, 0.15251223543397657
107.0, 0.1253281249727123
108.0, 0.10039410648573813
109.0, 0.07924340539537023
110.0, 0.06358448613529755
111.0, 0.05498135982318938
112.0, 0.05144217555008284
113.0, 0.04680178035965569
114.0, 0.043854555160037244
115.0, 0.04301867438977344
116.0, 0.0416656725836997
117.0, 0.03915641344911298
118.0, 0.03917693031332908
119.0, 0.03891788897617093
120.0, 0.03776848147545906
121.0, 0.03656874877855603
122.0, 0.03735157387481593
123.0, 0.03560526004089309
124.0, 0.03515161266203205
125.0, 0.03522653594622036
126.0, 0.03442717153572369
127.0, 0.03354022784809139
128.0, 0.03410097996889769
129.0, 0.0334691668278856
130.0, 0.03350619075179078
131.0, 0.03452253581576057
132.0, 0.033605806219903896
133.0, 0.03310484900084321
134.0, 0.032131649574187356
135.0, 0.031464629093159814
136.0, 0.03203380677123409
137.0, 0.03439021089400894
138.0, 0.03382590463397523
139.0, 0.03268236629684376
140.0, 0.033099062749425895
141.0, 0.033266264775451776
142.0, 0.03162215724616278
143.0, 0.033520127471067
144.0, 0.035105078045722
145.0, 0.03620930238652197
146.0, 0.036228259920220184
147.0, 0.03556382285599115
148.0, 0.03638910354477837
149.0, 0.036286457345874004
150.0, 0.037913815884998606
151.0, 0.03906759864243396
152.0, 0.03943693000251423
153.0, 0.040251621766878624
154.0, 0.04175911805469332
155.0, 0.0443508309141093
156.0, 0.04609958403438563
157.0, 0.04820154341229692
158.0, 0.051551113980493814
159.0, 0.0520917675874692
160.0, 0.05656885539786408
161.0, 0.06256037085263012
162.0, 0.06854514602034667
163.0, 0.07483635191974242
164.0, 0.08421611304395153
165.0, 0.10219049635122715
166.0, 0.12690362221299376
167.0, 0.15488201790547323
168.0, 0.18277850156428044
169.0, 0.20719364866532408
170.0, 0.2220205896862993
171.0, 0.248237768960427
172.0, 0.28930565733397123
173.0, 0.3409093815813869
174.0, 0.3952947484709576
175.0, 0.44218153006416594
176.0, 0.4808928196845039
177.0, 0.5140281492593141
178.0, 0.5435756568123989
179.0, 0.5741277971936362
180.0, 0.609719626094888
181.0, 0.6134849148441874
182.0, 0.5983540144648007
183.0, 0.5829061379454814
184.0, 0.5904524156628344
185.0, 0.643511248999478
186.0, 0.7601051202242854
187.0, 0.8715552081108965
188.0, 0.9411252523808855
189.0, 0.9805837045662945
190.0, 0.9940355143664316
191.0, 0.9689756278431385
192.0, 0.9007767119281824
193.0, 0.7868663157619191
194.0, 0.649102012949445
195.0, 0.5018880972327482
196.0, 0.3588727061172111
197.0, 0.2485649887448089
198.0, 0.18113896007539534
199.0, 0.13964044732022232
200.0, 0.11417289386100292
201.0, 0.09795602160257845
202.0, 0.08863561994505571
203.0, 0.07902696933104103
204.0, 0.07105226192999443
205.0, 0.06526516744936425
206.0, 0.06077082152261216
207.0, 0.056409629884660493
208.0, 0.053909985102348276
209.0, 0.05187868773934886
210.0, 0.04959241353518994
211.0, 0.048397347717843146
212.0, 0.04822909971454726
213.0, 0.04644070932431923
214.0, 0.04637319902811021
215.0, 0.04492003645937929
216.0, 0.044141119895752944
217.0, 0.043704233182967234
218.0, 0.042674039672058704
219.0, 0.0439095544485559
220.0, 0.04470060733075438
221.0, 0.04435925641467207
222.0, 0.042186555647807635
223.0, 0.03892010864463922
224.0, 0.03712064755672098
225.0, 0.034777960848748436
226.0, 0.033267480281880944
227.0, 0.032276155762478075
228.0, 0.03175853200820514
229.0, 0.0312766405984652
230.0, 0.02822220426297848
231.0, 0.028724908310550037
232.0, 0.02791505805426221
233.0, 0.02784478229763861
234.0, 0.028388502535376614
235.0, 0.026275084486894543
236.0, 0.025521245305272184
237.0, 0.026776534454557497
238.0, 0.02594791293584372
239.0, 0.025620631432542812
240.0, 0.027899525341753394
241.0, 0.026024389203608424
242.0, 0.02650237671888293
243.0, 0.025478785556828972
244.0, 0.025618224023347163
245.0, 0.027493762590102194
246.0, 0.02910085086277237
247.0, 0.025677265917526712
248.0, 0.02621511941871526
249.0, 0.027854681756281894
250.0, 0.028058966251164878
251.0, 0.026839260515596854
252.0, 0.02884289232199124
253.0, 0.029373384632192724
254.0, 0.027034983985090993
255.0, 0.027715513412980248
256.0, 0.030371272650651884
257.0, 0.030993555525777244
258.0, 0.03155567040208349
259.0, 0.03460600251632823
260.0, 0.0332694223351031
261.0, 0.03075020135460625
262.0, 0.03016664232723533
263.0, 0.032300126686253885
264.0, 0.03241113962457702
265.0, 0.03001200467864815
266.0, 0.02948384664172727
267.0, 0.031151472788178758
268.0, 0.03337808566147391
269.0, 0.03339340733527953
270.0, 0.034390268737763144
271.0, 0.03468792191766668
272.0, 0.03675100287991045
273.0, 0.039764420648308034
274.0, 0.04136224772188194
275.0, 0.04302835664485537
276.0, 0.04524355343361374
277.0, 0.04743667052774188
278.0, 0.04934498728859356
279.0, 0.051366860823781106
280.0, 0.05444297819789431
281.0, 0.057090902121425056
282.0, 0.05919515562256008
283.0, 0.06255786336853547
284.0, 0.06795872379431953
285.0, 0.07430383484662968
286.0, 0.07746117658176525
287.0, 0.08906699465637044
288.0, 0.09562156184326255
289.0, 0.10213987326455454
290.0, 0.11048598035003517
291.0, 0.1211644890396423
292.0, 0.1381897097204443
293.0, 0.15404661139839898
294.0, 0.17395898819913666
295.0, 0.19885802085042936
296.0, 0.22761676229920388
297.0, 0.25837053237125857
298.0, 0.29554413644501837
299.0, 0.33350120256946825
300.0, 0.37322274573684805
301.0, 0.41339848766384896
302.0, 0.45225536492895935
303.0, 0.4880971551569689
304.0, 0.5136162155185563
305.0, 0.5369792719954045
306.0, 0.5459264894444459
307.0, 0.5376036392036782
308.0, 0.5143044219377877
309.0, 0.48086297320856697
310.0, 0.43524001066967943
311.0, 0.38470630591154775
312.0, 0.33421116784576604
313.0, 0.28862888182110014
314.0, 0.2506199005119935
315.0, 0.2166233019080735
316.0, 0.1941614972815181
317.0, 0.17572780051651127
318.0, 0.16177678672629006
319.0, 0.15064131541154782
320.0, 0.13983926958121798
321.0, 0.13460440744673824
322.0, 0.13223589654263046
323.0, 0.13099882597218793
324.0, 0.1293258545521676
325.0, 0.128065066755557
326.0, 0.1298695360497526
327.0, 0.129355630877082
328.0, 0.13461919935241057
329.0, 0.1411613746103969
330.0, 0.1492243017360981
331.0, 0.15968837732156482
332.0, 0.17274660533410147
333.0, 0.18985895902902475
334.0, 0.21712458703139045
335.0, 0.251760014676873
336.0, 0.2974885788688822
337.0, 0.3560370702207162
338.0, 0.4215259186458094
339.0, 0.4813687775942069
340.0, 0.549016475386325
341.0, 0.6258094742351129
342.0, 0.7109860000740988
343.0, 0.8007122798811656
344.0, 0.8866737752006235
345.0, 0.9416054204666259
346.0, 0.9762426169465522
347.0, 0.9847937326518623
348.0, 0.9585714786329689
349.0, 0.8939507209903472
350.0, 0.804071021001449
351.0, 0.6944010292555448
352.0, 0.5730353517906086
353.0, 0.46353202024630064
354.0, 0.37537592446608925
355.0, 0.30633570273818767
356.0, 0.2506812514944341
357.0, 0.21051677275414973
358.0, 0.17437970205336323
359.0, 0.15066571561301195
360.0, 0.13567002022589583
361.0, 0.12012268645364767
362.0, 0.11162054739333088
363.0, 0.10556755480461459
364.0, 0.10291909827176818
365.0, 0.10331567738746955
366.0, 0.10721609412272289
367.0, 0.11499078838176334
368.0, 0.12338678562227111
369.0, 0.1382562644948864
370.0, 0.1554230375231029
371.0, 0.1721121139524094
372.0, 0.18887007316419657
373.0, 0.2097430016419064
374.0, 0.24339424232393272
375.0, 0.26635514255656856
376.0, 0.2874424429944871
377.0, 0.29999452850088887
378.0, 0.3023757617233633
379.0, 0.2979747818454749
380.0, 0.28530970766086755
381.0, 0.26282442799090366
382.0, 0.23476912944815295
383.0, 0.20328850619895636
384.0, 0.17309925443314386
385.0, 0.14923940629861318
386.0, 0.12918172005982043
387.0, 0.108763735934788
388.0, 0.0912397739562541
389.0, 0.07758286539566706
390.0, 0.06656401359636642
391.0, 0.05587024980831469
392.0, 0.04512281525791136
393.0, 0.039325663449194345
394.0, 0.032630456008768696
395.0, 0.02730211545278799
396.0, 0.023721847858278872
397.0, 0.020448873388032522
398.0, 0.01714369558297845
399.0, 0.014351218705860107
400.0, 0.011562123415364008
401.0, 0.01097432502730968
402.0, 0.009946518246729093
403.0, 0.005705565573338711
404.0, 0.006763682803731521
405.0, 0.006098165335657494
406.0, 0.0035748971279142825
407.0, 0.0031396374688487444
408.0, 0.0038257616849460985
409.0, 0.00272696139058501
410.0, 0.000592685347021047
411.0, 0.0014717550041478144
412.0, 0.0007061841244690556
413.0, 0.0011486359762807098
414.0, 0.0017549559223794524
415.0, 0.0014397561879281955
416.0, 0.003939535392928138
417.0, 0.000990409030320469
418.0, 0.0005716345052590161
419.0, 0.0018191143001630118
420.0, 0.0031845739473488318
421.0, 0.0038027848048778723
422.0, 0.004496879585193456
423.0, 0.00392802965525047
424.0, 0.00396131827768382
425.0, 0.003857251597076014
426.0, 0.003129857732841969
427.0, 0.0021613517604488065
428.0, 0.0022312689433109214
429.0, 0.0021307581164474393
430.0, 0.0006844463406419177
431.0, 0.000609683843255167
432.0, 0.0007298442719431166
433.0, 0.0005818878122861372
434.0, 0.0011534549263616297
435.0, 0.00022483607009645296
436.0, 0.0007509219268081264
437.0, 0.000717152864298583
438.0, 0.0008018350314813118
439.0, 0.001330401910669841
440.0, 0.0021953483531893547
441.0, 0.0044385451592815674
442.0, 0.003719298678881582
443.0, 0.004147836261196372
444.0, 0.004089749929186105
445.0, 0.004065357508840037
446.0, 0.005658931687527369
447.0, 0.008647657457337274
448.0, 0.009339123944320196
449.0, 0.010719080216614368
450.0, 0.013751747337606274
451.0, 0.015944424672977207
452.0, 0.016087767153680772
453.0, 0.0180314080695664
454.0, 0.022390216127104796
455.0, 0.026477574173157943
456.0, 0.029398125254891414
457.0, 0.034799790340097135
458.0, 0.0429112105639095
459.0, 0.04902706159334717
460.0, 0.05683816352513069
461.0, 0.07079578293819734
462.0, 0.08553685372897497
463.0, 0.1037439768179559
464.0, 0.12301619765029582
465.0, 0.13986527891098785
466.0, 0.16793256550259383
467.0, 0.19551614435439008
468.0, 0.22321605193982183
469.0, 0.24877820362446196
470.0, 0.27100059804336035
471.0, 0.29181915065951597
472.0, 0.3175643105188072
473.0, 0.3239461572792786
474.0, 0.3269613084242473
475.0, 0.3159870906392497
476.0, 0.2934321858305814
477.0, 0.2629736428112917
478.0, 0.22449530350597646
479.0, 0.1862220169821677
480.0, 0.15038048586290542
481.0, 0.11920040349547101
482.0, 0.09458565802024047
483.0, 0.07504714085239622
484.0, 0.057853211371972274
485.0, 0.04604143191784832
486.0, 0.03845910837881799
487.0, 0.0344094562010003
488.0, 0.02946858365034546
489.0, 0.024035653072557703
490.0, 0.020796274543939047
491.0, 0.021140765039703635
492.0, 0.018999081123251577
493.0, 0.017011606506850293
494.0, 0.01714210218587439
495.0, 0.01801386424516611
496.0, 0.01788107161185143
497.0, 0.016530541004005535
498.0, 0.018176891572294993
499.0, 0.019417232864103153
500.0, 0.018587554410460304
501.0, 0.017663528961569575
502.0, 0.017325407149032013
503.0, 0.015927683159943966
504.0, 0.009481274895911291
505.0, 0.010076777306280933
506.0, 0.008523195692586638
507.0, 0.004431738026957398
508.0, 0.0017916920072507208
509.0, 0.0022853483481641945
510.0, 0.002835081458038899
511.0, 0.0004504391466476677
512.0, 0.00047589578614573797
513.0, 0.0018438675540074468
514.0, 0.0027075997708245524
515.0, 0.003207382106035932
516.0, 0.003935008778838407
517.0, 0.0030202578196206545
518.0, 0.0030098063609414753
519.0, 0.00182125294612183
520.0, 0.0023971678945967994
521.0, 0.0036591447963442826
522.0, 0.0038595454621387338
523.0, 0.00278661655350956
524.0, 0.0035116153941338007
525.0, 0.0011631515812087847
526.0, 0.0012596302189039072
527.0, 0.0010234789525674923
528.0, 0.0006371032920557655
529.0, 0.001247168447619709
530.0, 0.0007213696050700208
531.0, 0.002298453326679497
532.0, 0.0029173397408895525
533.0, 0.0026322317322970776
534.0, 0.0035127240333306447
535.0, 0.00512829667573733
536.0, 0.0047614739453039024
537.0, 0.00433188883544217
538.0, 0.0075883324333203776
539.0, 0.007450174766992675
540.0, 0.0073188847286670055
541.0, 0.006728850942613048
542.0, 0.005038691133673907
543.0, 0.005117678119515838
544.0, 0.004509443356488737
545.0, 0.008165041485783496
546.0, 0.010119677636554346
547.0, 0.01158734106888909
548.0, 0.012636941303051976
549.0, 0.012653932418724156
550.0, 0.01512439438885044
551.0, 0.015042123237556052
552.0, 0.015904364379153844
553.0, 0.01759514416619434
554.0, 0.019440294477382155
555.0, 0.020692752357487215
556.0, 0.020808122007718765
557.0, 0.019235222121216557
558.0, 0.017840564976139128
559.0, 0.016517265180527953
560.0, 0.015472315961832217
561.0, 0.014618812849175836
562.0, 0.013659806174426541
563.0, 0.01237359907536092
564.0, 0.011878488862340414
565.0, 0.009813997564781626
566.0, 0.007961388211695454
567.0, 0.007404753474608128
568.0, 0.006432596542749782
569.0, 0.00420149776259713
570.0, 0.006989259735878186
571.0, 0.004604411437696763
572.0, 0.0031320881581709307
573.0, 0.0023840044686436017
574.0, 0.0021179203442339323
575.0, 0.0021974817701678733
576.0, 0.0025221708379506093
577.0, 0.002625373563109291
578.0, 0.003322055427275631
579.0, 0.003450784052701893
580.0, 0.004149507986684894
581.0, 0.004243872884660259
582.0, 0.0032445406783583445
583.0, 0.002627588777540873
584.0, 0.0021088466265149594
585.0, 0.003589220209156972
586.0, 0.0032349689504069844
587.0, 0.0034027291728560205
588.0, 0.005425812990764403
589.0, 0.007732001467279366
590.0, 0.006636744949678692
591.0, 0.007812232003338813
592.0, 0.010891940982700993
593.0, 0.013002274516654248
594.0, 0.012968297889854041
595.0, 0.013364861381672727
596.0, 0.016556575500609152
597.0, 0.020085574974909332
598.0, 0.023472766251424224
599.0, 0.027545937244043864
600.0, 0.03163143925460241
601.0, 0.0349866637378419
602.0, 0.038566034234569814
603.0, 0.04438574322604728
604.0, 0.053429943123240814
605.0, 0.05660104823187545
606.0, 0.06465450963235629
607.0, 0.07434270329408821
608.0, 0.08285779039280777
609.0, 0.08934600399407272
610.0, 0.09510668021584065
611.0, 0.10255446752257427
612.0, 0.1080579670539177
613.0, 0.11038245253605099
614.0, 0.11165377694350055
615.0, 0.11189156295188653
616.0, 0.11015748016514189
617.0, 0.10531186163752736
618.0, 0.09672945063773632
619.0, 0.0893190484485327
620.0, 0.08405951983155471
621.0, 0.07731087411660997
622.0, 0.07198035252014655
623.0, 0.0685304711816065
624.0, 0.06561383872432837
625.0, 0.06791641429727975
626.0, 0.06733451633355561
627.0, 0.06965750184686575
628.0, 0.07532469071831287
629.0, 0.08029199910095498
630.0, 0.08428247882194473
631.0, 0.0896451423012532
632.0, 0.09315226827015177
633.0, 0.09782068588212649
634.0, 0.10233545859292952
635.0, 0.10370606349180486
636.0, 0.10402816889465005
637.0, 0.10259103956557837
638.0, 0.09703681817371994
639.0, 0.09028154617282565
640.0, 0.08248711723789134
641.0, 0.07302917147878123
642.0, 0.06531596075922569
643.0, 0.05662284245347995
644.0, 0.047438483572975025
645.0, 0.04083127132702758
646.0, 0.036649786683617416
647.0, 0.03136332779100734
648.0, 0.02761351584884228
649.0, 0.025762727277598946
650.0, 0.02344454186254744
651.0, 0.020607835172449362
652.0, 0.019134368220425642
653.0, 0.019888064863565695
654.0, 0.0172541989314688
655.0, 0.016063954749002705
656.0, 0.013739171510780924
657.0, 0.01361359954886717
658.0, 0.014262340134033191
659.0, 0.01333307747253193
660.0, 0.012562261106139935
661.0, 0.010499582100371434
662.0, 0.012696546204413232
663.0, 0.012596505732671518
664.0, 0.0106119078087789
665.0, 0.009707920282422126
666.0, 0.010244411388892472
667.0, 0.009036147621386624
668.0, 0.009577507348476628
669.0, 0.010596907958845858
670.0, 0.010903336305303305
671.0, 0.01136777160752661
672.0, 0.01220527478742744
673.0, 0.01259095182287462
674.0, 0.012094578695242653
675.0, 0.01410102733017388
676.0, 0.011881591788064777
677.0, 0.01322903848182849
678.0, 0.013454698628533714
679.0, 0.01309049529985884
680.0, 0.013604300209712527
681.0, 0.015029074606740385
682.0, 0.015523237075747317
683.0, 0.01588642323249396
684.0, 0.01593040194018731
685.0, 0.016475513694108584
686.0, 0.017153704941880326
687.0, 0.01851753958813493
688.0, 0.020264027726684192
689.0, 0.02030418496786187
690.0, 0.02186271605409411
691.0, 0.02414824720684536
692.0, 0.024298883028745125
693.0, 0.024864377525941735
694.0, 0.027042856874270726
695.0, 0.02888898752347691
696.0, 0.02775312293152391
697.0, 0.027858827090319734
698.0, 0.027855917599703055
699.0, 0.02958650484131796
700.0, 0.03133216215300887
701.0, 0.033251563611549816
702.0, 0.035032283849716295
703.0, 0.03619450850250124
704.0, 0.037512615281831536
705.0, 0.03763242816058078
706.0, 0.03866339920934069
707.0, 0.03784316081435644
708.0, 0.036252168698563375
709.0, 0.03576035407963521
710.0, 0.03600405455904153
711.0, 0.03449324934699071
712.0, 0.03365941052392052
713.0, 0.03335235290823618
714.0, 0.03151194742218287
715.0, 0.030699423786386414
716.0, 0.029886967896467727
717.0, 0.028432646214076523
718.0, 0.027505915330414542
719.0, 0.028458019887179106
720.0, 0.024897259792760723
721.0, 0.02546236743298731
722.0, 0.022142662479697418
723.0, 0.021265554227160928
724.0, 0.021710037098218747
725.0, 0.020298244101992758
726.0, 0.018389196647211965
727.0, 0.01722277974817445
728.0, 0.019192293643171286
729.0, 0.02004714111034557
730.0, 0.019170822809815205
731.0, 0.01870593377721587
732.0, 0.01886185784748551
733.0, 0.018086129724077627
734.0, 0.0163785609974789
735.0, 0.017566979233825705
736.0, 0.016397331253811327
737.0, 0.01527137326992903
738.0, 0.01514745129021331
739.0, 0.015568970557016544
740.0, 0.015719692871071018
741.0, 0.015495310827096462
742.0, 0.016008152759540577
743.0, 0.016452555026310683
744.0, 0.016745512196756445
745.0, 0.01672717134003044
746.0, 0.017266368830493737
747.0, 0.01845162708499325
748.0, 0.019551506438019197
749.0, 0.01944767088119298
750.0, 0.016182746019660195
751.0, 0.018884473780909454
752.0, 0.017705378204957076
753.0, 0.015544019737796632
754.0, 0.01503003005817222
755.0, 0.015656876622605783
756.0, 0.015659111748731094
757.0, 0.01582024025620436
758.0, 0.017389689178820767
759.0, 0.015699002580598368
760.0, 0.015561798474019253
761.0, 0.013626821454180945
762.0, 0.012173873073400681
763.0, 0.012451490771850766
764.0, 0.012560922882879936
765.0, 0.012433434646540793
766.0, 0.008900524789055614
767.0, 0.009231991300092534
768.0, 0.008383069940352986
769.0, 0.007596278798514239
770.0, 0.007576141239568472
771.0, 0.0076017221117678216
772.0, 0.006992419327626321
773.0, 0.007583652359458253
774.0, 0.006784652188129749
775.0, 0.006016337625339753
776.0, 0.005971986555572496
777.0, 0.004896119683828189
778.0, 0.0047163377074033175
779.0, 0.005000541619420994
780.0, 0.002051561839480142
781.0, 0.00399563166966374
782.0, 0.004585794396507372
783.0, 0.004425787794820921
784.0, 0.002909602077267906
785.0, 0.001624811333749071
786.0, 0.0023107026370043095
787.0, 0.00339165678360697
788.0, 0.0011038417315312394
789.0, 0.0007572135990020494
790.0, 0.0035299858215813336
791.0, 0.0016468564499536945
792.0, 0.0004281789791372531
793.0, 0.0014797944183329399
794.0, 0.002088908379221837
795.0, 0.0009350289424906498
796.0, 0.0009647256782142363
797.0, 0.00035282387938916776
798.0, 0.00011972390415351194
799.0, 0.00020874817642656956
800.0, 0.0003490716135088131
801.0, 0.0012716103365344304
802.0, 0.0013850596461546768
803.0, 0.0004965556477381089
804.0, 0.0012881220071401692
805.0, 0.00036641336751632467
806.0, 0.0021004158162975274
807.0, 0.0006981348084017857
808.0, 0.0012313440693948257
809.0, 0.0015732956397920268
810.0, 0.0009651073099270126
811.0, 0.0003431218682670835
812.0, 0.0001923603244962363
813.0, 0.0001800841177704144
814.0, 0.0006849202358527428
815.0, 0.0006188708927436423
816.0, 0.0010458145827486412
817.0, 0.0009162220640340272
818.0, 0.0010128428801497362
819.0, 0.0012988026017758964
820.0, 0.0006039797578637745
821.0, 0.00134619766064407
822.0, 0.0006492455476044537
823.0, 0.0009426829097375506
824.0, 0.0014275225106046665
825.0, 0.0019660574668179252
826.0, 0.0015074104427573755
827.0, 0.0011170779642290436
828.0, 0.002053312903927881
829.0, 0.0006591249826799395
830.0, 0.0020091891934214726
831.0, 0.0005686633515392448
832.0, 9.56408496562722e-05
833.0, 0.00048131414548097004
834.0, 0.0007056224009410927
835.0, 0.0005420547040375873
836.0, 0.0004612014541247287
837.0, 0.0005798823523433755
838.0, 0.000940785749371064
839.0, 0.0007183386907188312
840.0, 0.0007643790512866698
841.0, 0.00047049546001044074
842.0, 0.0004351737169517693
843.0, 0.0007807520931210219
844.0, 0.0011040322910520785
845.0, 0.0012568078431454688
846.0, 0.0017745467244849734
847.0, 0.0004381868149150186
848.0, 0.00021187732269034858
849.0, 0.0004785791187390476
850.0, 0.0008125781342927377
851.0, 0.0011035914157463606
852.0, 0.0015343724332127027
853.0, 0.002049599947640642
854.0, 0.0018939898701777166
855.0, 0.002107215314804422
856.0, 0.002529399215839445
857.0, 0.0019869143039835334
858.0, 0.0016929385438039794
859.0, 0.0011143346555531391
860.0, 0.0007089103358975823
861.0, 0.001521826182938074
862.0, 0.002948723942581709
863.0, 0.00213643260975056
864.0, 0.003007983897224599
865.0, 0.0028378480323204306
866.0, 0.001900929132934903
867.0, 0.0029412164956921284
868.0, 0.003579685512416244
869.0, 0.002759256095217048
870.0, 0.003039385593188222
871.0, 0.0043370538423538035
872.0, 0.002998124828021526
873.0, 0.0037365303682743664
874.0, 0.004252820044216922
875.0, 0.0043059322126304915
876.0, 0.0029394556016755745
877.0, 0.0024834989515925693
878.0, 0.0033477318060924697
879.0, 0.0018003514651332973
880.0, 0.0015210361894221972
881.0, 0.0020829743515841004
882.0, 0.002783648051756063
883.0, 0.0020419220234634263
884.0, 0.0008619818936951776
885.0, 0.0016082036380197229
886.0, 0.002430772071434992
887.0, 0.0011818817753628313
888.0, 0.001870858591843621
889.0, 0.0034194992453761464
890.0, 0.0014987690000725258
891.0, 0.0019037727537942028
892.0, 0.000794934331039463
893.0, 0.001246068622606141
894.0, 0.0017961534500730428
895.0, 0.0012230225166914611
896.0, 0.0009438346854764132
897.0, 0.00022660806533342107
898.0, 8.297572749671574e-05
899.0, 0.0005194032376857518
900.0, 0.00028276292314468893
901.0, 0.0009594197465075176
902.0, 0.00200300959859984
903.0, 0.0022038234999014355
904.0, 0.0019419039363927186
905.0, 0.0024177886605223704
906.0, 0.0020169352198208777
907.0, 0.0016522253362065739
908.0, 0.0022702317273140707
909.0, 0.002334887551845597
910.0, 0.0024895964991177378
911.0, 0.0026256121562934142
912.0, 0.003124412814647354
913.0, 0.0037649911092644214
914.0, 0.0033601298128025942
915.0, 0.0022035322512577453
916.0, 0.0012680428125382286
917.0, 0.0024603186770072952
918.0, 0.00267505765060909
919.0, 0.0017170926024581354
920.0, 0.0017235871937087424
921.0, 0.0028355211588258207
922.0, 0.003578920878755847
923.0, 0.00330641614615332
924.0, 0.0028768671521390006
925.0, 0.0032265600869582985
926.0, 0.002998526469745096
927.0, 0.002261677500101725
928.0, 0.002885575637110457
929.0, 0.0031533035306113345
930.0, 0.003515563429819391
931.0, 0.0038997750090509938
932.0, 0.0026302600783843226
933.0, 0.0025260487425207336
934.0, 0.002587294145480807
935.0, 0.003357947489674302
936.0, 0.0030001062219157976
937.0, 0.0026181165321295936
938.0, 0.0019876289099916714
939.0, 0.0016278071438879777
940.0, 0.002288980653363824
941.0, 0.003210206982428791
942.0, 0.0022382381420887536
943.0, 0.0027105067079953643
944.0, 0.0033963327522174864
945.0, 0.0032462995124737668
946.0, 0.00285802805561631
947.0, 0.0025103880652882333
948.0, 0.0023451106304818894
949.0, 0.0021279119134434417
950.0, 0.0022714846142749294
951.0, 0.003961795525574476
952.0, 0.003346872589356383
953.0, 0.003757133424691503
954.0, 0.0031418664322092377
955.0, 0.002282230800993749
956.0, 0.0023903129294055255
957.0, 0.0020292297686698604
958.0, 0.0013697488995203268
959.0, 0.0014193714165935463
960.0, 0.0014889998278270204
961.0, 0.002243727878285069
962.0, 0.0028419114793348786
963.0, 0.0023980900625292807
964.0, 0.0021618275319319103
965.0, 0.002466287378542469
966.0, 0.0017301688643676608
967.0, 0.0012434818192655385
968.0, 0.0022014510975887284
969.0, 0.0027849449661278515
970.0, 0.0012523682015099268
971.0, 0.0013071168514927729
972.0, 0.0005854690211519873
973.0, 0.0024210745488460386
974.0, 0.0019928593208321673
975.0, 0.0015183315477287679
976.0, 0.001986797774514617
977.0, 0.002396451453683428
978.0, 0.002890542018735118
979.0, 0.004604095185400597
980.0, 0.0030737702461545112
981.0, 0.0031363943221278568
982.0, 0.0010307738998696363
983.0, 0.0019491382924673962
984.0, 0.002643798517935809
985.0, 0.0026662757677328383
986.0, 0.0024410918220954697
987.0, 0.002147284371385102
988.0, 0.001822728332974258
989.0, 0.001779226124815253
990.0, 0.0027184731689207904
991.0, 0.002434918390477659
992.0, 0.0027455926793255752
993.0, 0.0021247601533650523
994.0, 0.003228157599441909
995.0, 0.00291010170555602
996.0, 0.0017958617493193084
997.0, 0.0025414390116819817
998.0, 0.003884231606800194
999.0, 0.0028591776307433318
1000.0, 0.0036164691506911577
1001.0, 0.004597765713085085
1002.0, 0.0035543158093078687
1003.0, 0.0027416628121385727
1004.0, 0.0033751798795914724
1005.0, 0.0031175757843081766
1006.0, 0.0026735532880312637
1007.0, 0.003256514518496556
1008.0, 0.003015236337094194
1009.0, 0.0026248479043277264
1010.0, 0.0030695721398354484
1011.0, 0.0030077651105624354
1012.0, 0.002504276922734632
1013.0, 0.0021144229416553977
1014.0, 0.002181890662157509
1015.0, 0.0022537933526877774
1016.0, 0.0022059327641265765
1017.0, 0.0023340500516724136
1018.0, 0.002541995260250764
1019.0, 0.0022464709281069892
1020.0, 0.002184734710365818
1021.0, 0.0021074323244828184
1022.0, 0.0027201301675888784
1023.0, 0.0028634536911755952
1024.0, 0.003370152857510865
1025.0, 0.0034456460758909005
1026.0, 0.0035163596523296752
1027.0, 0.0039009070577706376
1028.0, 0.003510851110699325
1029.0, 0.0030705482532473556
1030.0, 0.0015110507255071503
1031.0, 0.0021943952528936826
1032.0, 0.0018962237465447469
1033.0, 0.0015252064169854964
1034.0, 0.0018729899404977307
1035.0, 0.002253227339116507
1036.0, 0.0019255742295590573
1037.0, 0.0019660937328007454
1038.0, 0.00334367549215492
1039.0, 0.0033063261315117044
1040.0, 0.000994079700166295
1041.0, 0.0025506707621148193
1042.0, 0.0029602867475215545
1043.0, 0.0012517367867729426
1044.0, 0.000941203890977801
1045.0, 0.0023917638606920223
1046.0, 0.0034539769912150203
1047.0, 0.0028513740926673923
1048.0, 0.0013205448671714552
1049.0, 0.00038146373139938535
1050.0, 0.0018287963349930074
1051.0, 0.001991060862495586
1052.0, 0.0010577106167377775
1053.0, 0.0006992386422251502
1054.0, 0.0013905043598195633
1055.0, 0.0013352855643012352
1056.0, 0.0013165686160220831
1057.0, 0.0024128609904811955
1058.0, 0.002881608698284696
1059.0, 0.0015781299415248318
1060.0, 0.0030416815942602093
1061.0, 0.0012147879979679662
1062.0, 0.0012999823555896325
1063.0, 0.0029168379978518535
1064.0, 0.0017549653717046224
1065.0, 0.0012053626824871696
1066.0, 0.0017736741186971457
1067.0, 0.0016562323193605535
1068.0, 0.0013360378403014794
1069.0, 0.0020574662444124894
1070.0, 0.002003417573806725
1071.0, 0.001018623835127506
1072.0, 0.0010899999592190032
1073.0, 0.00042772976861903914
1074.0, 0.0007745130913570249
1075.0, 0.0013983287815159638
1076.0, 0.0014247662544261222
1077.0, 0.0014973595675822266
1078.0, 0.0013669690261059557
1079.0, 0.0014863966797743617
1080.0, 0.002393892168593246
1081.0, 0.0020567589846097606
1082.0, 0.0012996581893384013
1083.0, 0.0024744628515280423
1084.0, 0.002360690140565996
1085.0, 0.0020065827269740736
1086.0, 0.0011689494575158792
1087.0, 0.0006702947365144852
1088.0, 0.0004023905043849073
1089.0, 0.00018990671590033792
1090.0, 0.0001348423674729201
1091.0, 0.0005966954659792946
1092.0, 0.0016358398361430689
1093.0, 0.000889371364820437
1094.0, 0.0016407944814156713
1095.0, 0.0023556966231370506
1096.0, 0.001222249348491532
1097.0, 0.0018485454306041344
1098.0, 0.0016712634299760395
1099.0, 0.0007441140826055074
1100.0, 0.0003465508065189119
1101.0, 0.00043359759494896464
1102.0, 0.00026404452334170136
1103.0, 0.0005228461247005048
1104.0, 0.002447565165109892
1105.0, 0.0013467333990865842
1106.0, 0.0009133250041681382
1107.0, 0.0014654322529858935
1108.0, 0.0008387458283234461
1109.0, 0.0012254440836973347
1110.0, 0.0012355358347880126
1111.0, 0.001008037237707156
1112.0, 0.0010949031172818732
1113.0, 0.001000360171453061
1114.0, 0.0008661612932732527
1115.0, 0.0009314958094011476
1116.0, 0.002072757344591781
1117.0, 0.0005150947586512206
1118.0, 0.001262281287173445
1119.0, 0.00146550037408292
1120.0, 0.0009669443067166975
1121.0, 0.0005822943073397403
1122.0, 0.000654793489638144
1123.0, 0.00113787151278817
1124.0, 0.0013779557811418111
1125.0, 0.0009348310641942016
1126.0, 0.000913594468882039
1127.0, 0.00036427871036341517
1128.0, 0.00031674747086416155
1129.0, 6.79856623946506e-05
1130.0, 0.0013880892309405851
1131.0, 0.0016062847157171595
1132.0, 0.0015092781688367074
1133.0, 0.0012961981057454917
1134.0, 0.0006451030518112607
1135.0, 0.0007888250037548752
1136.0, 0.0014874197189073766
1137.0, 0.0002512049020812714
1138.0, 0.0005820583959411601
1139.0, 0.0007703832022900988
1140.0, 0.0026693507154373305
1141.0, 0.0011828034063367798
1142.0, 0.0016413300012629083
1143.0, 0.00319400944665178
1144.0, 0.00334541867950907
1145.0, 0.003065969037910162
1146.0, 0.003243537846901306
1147.0, 0.0034813170055366786
1148.0, 0.0034201360417314666
1149.0, 0.002912118044541159
1150.0, 0.001743907196424091
1151.0, 0.0012583233980819864
1152.0, 0.0012160144515220106
1153.0, 0.0004876873942948449
1154.0, 0.0014419526217858134
1155.0, 0.0014597969936552238
1156.0, 0.0019633468620415514
1157.0, 0.001987926530720324
1158.0, 0.0013027972859321567
1159.0, 0.0005659225530790059
1160.0, 6.077987622413081e-05
1161.0, 0.00014757528314300817
1162.0, 0.00017145393871825527
1163.0, 0.000897579846829252
1164.0, 0.000745991560128303
1165.0, 0.001607396053049046
1166.0, 0.001980665372283901
1167.0, 0.001014251456175617
1168.0, 0.0010521606819473299
1169.0, 0.0014031184352433662
1170.0, 0.00216919292375713
1171.0, 0.0024548889225449095
1172.0, 0.001545464171993348
1173.0, 0.0011881297799689508
1174.0, 0.0004110148306902008
1175.0, 0.0002121198435069826
1176.0, 0.0002977559148375007
1177.0, 0.0014832944096415722
1178.0, 0.0003795793810512711
1179.0, 0.00062883463072975
1180.0, 0.0006814641785869216
1181.0, 0.0005304534050558705
1182.0, 0.0007111016878463373
1183.0, 0.001446300784109584
1184.0, 0.001753481788148878
1185.0, 0.0007933877271476743
1186.0, 0.0003208310646686882
1187.0, 0.0016565036108152117
1188.0, 0.00358111329988125
1189.0, 0.0009268163961889642
1190.0, 0.0011285519142061984
1191.0, 0.0018354700949533363
1192.0, 0.0009946708712787946
1193.0, 0.0006289145281096128
1194.0, 0.00042854676716969797
1195.0, 0.00034523286327585765
1196.0, 0.00044761087913016903
1197.0, 0.0004696799198982643
1198.0, 0.0005037803725589998
1199.0, 0.0005771983880193363
1200.0, 0.0008729735022653781
1201.0, 0.0005840744111281224
1202.0, 0.001427070366809052
1203.0, 0.00025867168560441713
1204.0, 0.0012591392141687006
1205.0, 0.0006055152845833053
1206.0, 0.0008432355414245878
1207.0, 0.0020555252815156414
1208.0, 0.002396983965480499
1209.0, 0.0017323047891607231
1210.0, 0.0012940084207232916
1211.0, 0.0010997884951086752
1212.0, 0.0009589105532526803
1213.0, 0.003300814651869464
1214.0, 0.0027116029017563337
1215.0, 0.0033968180941710805
1216.0, 0.0020015121745682657
1217.0, 0.002328730517591126
1218.0, 0.0043147721146332575
1219.0, 0.0031248904430260975
1220.0, 0.004002252638606209
1221.0, 0.005346705933874608
1222.0, 0.005276788738800839
1223.0, 0.005334038101948366
1224.0, 0.005524777849860818
1225.0, 0.005458504880029368
1226.0, 0.0055403968363890235
1227.0, 0.005401263581576404
1228.0, 0.006008996399889866
1229.0, 0.004608015156399667
1230.0, 0.0021262447617404197
1231.0, 0.003015395013117648
1232.0, 0.002008698128375832
1233.0, 0.0010163434496991718
1234.0, 0.0024513327573475324
1235.0, 0.003247734481987605
1236.0, 0.0023459212108916682
1237.0, 0.0018151494983051286
1238.0, 0.0012673207561973321
1239.0, 0.0009394011143742714
1240.0, 0.003017765556311803
1241.0, 0.0017505992708481328
1242.0, 0.003200578783423143
1243.0, 0.0027115982872233553
1244.0, 0.0023748212325873947
1245.0, 0.0031069114895424257
1246.0, 0.002303461218253042
1247.0, 0.0013097267396873593
1248.0, 0.002636272028124767
1249.0, 0.0026973113307286432
1250.0, 0.0016295227975884137
1251.0, 0.0022089763918950144
1252.0, 0.0021950233477806037
1253.0, 0.0021844884658753735
1254.0, 0.0019015656557941764
1255.0, 0.002269061763030694
1256.0, 0.0013671257103039407
1257.0, 0.002809886953193153
1258.0, 0.0031666558646330422
1259.0, 0.00328035840649579
1260.0, 0.0024319487628489227
1261.0, 0.0025886970053459286
1262.0, 0.0029481486590602008
1263.0, 0.002419682335516464
1264.0, 0.002907103148254668
1265.0, 0.003796410113889664
1266.0, 0.0023530538434695753
1267.0, 0.0014386093382670146
1268.0, 0.0021950549254915073
1269.0, 0.0022716106333361555
1270.0, 0.002608945415158218
1271.0, 0.0032233232355045904
1272.0, 0.0020910304327438926
1273.0, 0.0029588225248550967
1274.0, 0.0022727744064577537
1275.0, 0.0013522517354998182
1276.0, 0.0019681213859944293
1277.0, 0.0024327980292857565
1278.0, 0.002099826111391759
1279.0, 0.0012266040887413284
1280.0, 0.00038028575925167613
1281.0, 0.00039503079191920306
1282.0, 0.0007531826848944931
1283.0, 0.002349811777547506
1284.0, 0.0012515123047513862
1285.0, 0.001220620147308298
1286.0, 0.0009509708642281326
1287.0, 0.0027288008109142845
1288.0, 0.0019677671528609687
1289.0, 0.0031020770874440164
1290.0, 0.0022148327134110532
1291.0, 0.001705475019995781
1292.0, 0.001235818981583973
1293.0, 0.001078641483260406
1294.0, 0.00136018404547489
1295.0, 0.0013790418936835411
1296.0, 0.0011940466796872338
1297.0, 0.0006621743984946279
1298.0, 0.0007948105341088743
1299.0, 0.00036131545655198965
1300.0, 0.0007502097272410353
1301.0, 0.0014494220078522968
1302.0, 0.001090616005223758
1303.0, 0.0018856805579778647
1304.0, 0.0008357945306477748
1305.0, 0.000421518351999866
1306.0, 0.0020340786091332494
1307.0, 0.0020660114482372585
1308.0, 0.0011568937948056568
1309.0, 0.001514205650427822
1310.0, 0.0020979455335066945
1311.0, 0.0020155325047227185
1312.0, 0.0020297687861939246
1313.0, 0.0016345094761585134
1314.0, 0.0029227379078146576
1315.0, 0.001979582317896789
1316.0, 0.0022609774957395214
1317.0, 0.0020727628693978342
1318.0, 0.0016893115195326155
1319.0, 0.0028285493186249355
1320.0, 0.0011319539087973856
1321.0, 0.002232160891981554
1322.0, 0.0027070871821864625
1323.0, 0.0028386712803245423
1324.0, 0.0026150403394765067
1325.0, 0.002210913279427995
1326.0, 0.0019293506967065469
1327.0, 0.0016808258575672294
1328.0, 0.0013691665373276964
1329.0, 0.0007897556292134007
1330.0, 0.001277612919692014
1331.0, 0.0011616743957958313
1332.0, 0.0020593677756754196
1333.0, 0.0021148584935967887
1334.0, 0.001321376382136396
1335.0, 0.002267649566215884
1336.0, 0.0013945829033677381
1337.0, 0.00046256684381804623
1338.0, 0.0007971710663893177
1339.0, 0.000628782002718848
1340.0, 0.0008667035796535962
1341.0, 0.001385967245027872
1342.0, 0.0018671395499100262
1343.0, 0.0023858846024731955
1344.0, 0.002056736916029491
1345.0, 0.0011098933242189662
1346.0, 0.001369906826660873
1347.0, 0.0018066864259433841
1348.0, 0.003545229586912123
1349.0, 0.0019267295850994273
1350.0, 0.0024690483921567708
1351.0, 0.0026093171337918746
1352.0, 0.0010109168304025542
1353.0, 0.001304106577748031
1354.0, 0.00198483597146351
1355.0, 0.000673243937938053
1356.0, 0.0013715838600501427
1357.0, 0.0019849559646934207
1358.0, 0.001023897057049926
1359.0, 0.0006089587212326701
1360.0, 0.0007098206590858286
1361.0, 0.0010823246802997935
1362.0, 0.0016365543964071692
1363.0, 0.0008174979433902613
1364.0, 0.002196996134493535
1365.0, 0.0033703177387639097
1366.0, 0.0015270016721496823
1367.0, 0.0017410830810894575
1368.0, 0.0025327145942170377
1369.0, 0.0002783520057129869
1370.0, 0.002375869250604234
1371.0, 0.0015265555368327395
1372.0, 0.0016495141945803975
1373.0, 0.001545477809772658
1374.0, 0.0025509131836868306
1375.0, 0.002615984385095373
1376.0, 0.0028226702923653895
1377.0, 0.002164204682108082
1378.0, 0.0018168298822852813
1379.0, 0.0016555053756736218
1380.0, 0.0015384023607722323
1381.0, 0.0034430596210383957
1382.0, 0.00227983543894364
1383.0, 0.0021762609029428045
1384.0, 0.0015546850506040924
1385.0, 0.0008680800596243122
1386.0, 0.0011719696244888928
1387.0, 0.0005327053904703617
1388.0, 0.0007798254965349126
1389.0, 0.002367780321718949
1390.0, 0.0009336328128758282
1391.0, 0.0012337936491434772
1392.0, 0.0005552768269478621
1393.0, 0.00010844756839538173
1394.0, 0.0014773746722266203
1395.0, 0.0015069380466598008
1396.0, 0.001144780206484769
1397.0, 0.001879063106053905
1398.0, 0.002608982752234612
1399.0, 0.002676872234350778
1400.0, 0.00173244047791707
1401.0, 0.0006532497490519061
1402.0, 0.0011289092517199491
1403.0, 0.0009198641420278469
1404.0, 0.002907958484191392
1405.0, 0.0007276367099532374
1406.0, 0.002552740105539405
1407.0, 0.0019087565881034474
1408.0, 0.0021829942332029935
1409.0, 0.0028659069381226057
1410.0, 0.0022439405051429286
1411.0, 0.003133182508740664
1412.0, 0.0020974099382468996
1413.0, 0.002139258307558966
1414.0, 0.0022415075087700628
1415.0, 0.0024970846978045955
1416.0, 0.0025930097389924092
1417.0, 0.0018725050390559718
1418.0, 0.001951677145423561
1419.0, 0.002315758219566091
1420.0, 0.0011711995354486975
1421.0, 0.0011720249123240954
1422.0, 0.002375181684749058
1423.0, 0.002036255171338618
1424.0, 0.0013061997654409496
1425.0, 0.0023623345484829385
1426.0, 0.0018905187368584318
1427.0, 0.0035403469309739756
1428.0, 0.003707375499034769
1429.0, 0.0014969734830223595
1430.0, 0.0038455882759844302
1431.0, 0.002478964597207504
1432.0, 0.0012977094457562095
1433.0, 0.0013297049914054583
1434.0, 0.0023222699150915807
1435.0, 0.002332189287723279
1436.0, 0.0018063939026490689
1437.0, 0.0018480973750367817
1438.0, 0.0018622558285717823
1439.0, 0.0021612946215246115
1440.0, 0.0024941167131321495
1441.0, 0.002067193226999569
1442.0, 0.0013815577920640418
1443.0, 0.0006784685316353282
1444.0, 0.0016545384325304588
1445.0, 0.0012408403472620511
1446.0, 0.0009585749631106772
1447.0, 0.0017854577219305087
1448.0, 0.0014945347287420928
1449.0, 0.002130654295848404
1450.0, 0.0020310128404260443
1451.0, 0.0014503308111255106
1452.0, 0.002002953405432717
1453.0, 0.0013000210355160928
1454.0, 0.0015567904207682433
1455.0, 0.0016427916499857085
1456.0, 0.0006381621548389707
1457.0, 0.0001304191419293587
1458.0, 0.0006544171099305457
1459.0, 0.0011587005026811115
1460.0, 0.0015968002675202117
1461.0, 0.002067624325475378
1462.0, 0.0016396409035263492
1463.0, 0.0005310357638441527
1464.0, 0.00034066494618443936
1465.0, 0.0014045636136353133
1466.0, 0.002580084793973776
1467.0, 0.00262348427692021
1468.0, 0.001517528461009084
1469.0, 0.001030206919575463
1470.0, 0.0011149587888345165
1471.0, 0.0016997818916930107
1472.0, 0.001394836516741466
1473.0, 0.0017555691692000676
1474.0, 0.0022787498601412235
1475.0, 0.0006629660099548791
1476.0, 0.00015259965616466889
1477.0, 0.00123821186870986
1478.0, 0.002464692444413186
1479.0, 0.0017105505345931162
1480.0, 0.0023433260084958865
1481.0, 0.00223034965545104
1482.0, 0.0008319005226348761
1483.0, 0.0005015119510422541
1484.0, 0.0009945980164241706
1485.0, 0.0014706315836100841
1486.0, 0.0018923418647997883
1487.0, 0.002260817997327283
1488.0, 0.0024828489465816943
1489.0, 0.002699345608689613
1490.0, 0.0029714419421376314
1491.0, 0.003039384914364375
1492.0, 0.0028896302909007824
1493.0, 0.002498436267664905
1494.0, 0.00281025133098306
1495.0, 0.0022036550574760197
1496.0, 0.002128090100694324
1497.0, 0.000986326686398357
1498.0, 0.0006251483051509284
1499.0, 0.0018093667337376145
1500.0, 0.0011733750832485033
1501.0, 0.0010722627410166613
1502.0, 0.002637439361439642
1503.0, 0.004478304097906776
1504.0, 0.00280138881898482
1505.0, 0.0025491179568874764
1506.0, 0.0023953911837841474
1507.0, 0.0031018824489021366
1508.0, 0.0018390761802529155
1509.0, 0.002234971182162136
1510.0, 0.002725632184738985
1511.0, 0.001269837379300457
1512.0, 0.0007589670273144302
1513.0, 0.0015753206538115948
1514.0, 0.0018578571235280791
1515.0, 0.0014388581055999458
1516.0, 0.0006800098522016738
1517.0, 0.0010316696159805786
1518.0, 0.0018412135098861198
1519.0, 0.0010395566104472226
1520.0, 0.0013078088142577681
1521.0, 0.0008798793807614236
1522.0, 0.0014317206687522416
1523.0, 0.0026596843828252566
1524.0, 0.0014147594855270476
1525.0, 0.0013069733330100552
1526.0, 0.0005015430058555399
1527.0, 0.0013243557703345981
1528.0, 0.0022091893041302916
1529.0, 0.0013811118691701043
1530.0, 0.003085928459141957
1531.0, 0.0014188239861533246
1532.0, 0.002210032790940552
1533.0, 0.0032033762061745414
1534.0, 0.00215447884518359
1535.0, 0.0010599997224420292
1536.0, 0.001535984357358368
1537.0, 0.002686464574421187
1538.0, 0.0026806911607010955
1539.0, 0.0027587870586738734
1540.0, 0.002102105913474786
1541.0, 0.0018845052865912734
1542.0, 0.002412588269299366
1543.0, 0.0030720746379441113
1544.0, 0.0030203904614140953
1545.0, 0.00293008717220223
1546.0, 0.0022546949745413164
1547.0, 0.002020815446972811
1548.0, 0.0020743387359033606
1549.0, 0.0007795457903467868
1550.0, 0.0004401532906043822
1551.0, 0.0009418415016828401
1552.0, 0.0013566806672616798
1553.0, 0.0009671078057591132
1554.0, 0.0009182229370265257
1555.0, 0.0007662580393373598
1556.0, 0.0007045412577657954
1557.0, 0.0006599205353192004
1558.0, 0.0008496932988559465
1559.0, 0.001441961943635149
1560.0, 0.0005352932386125344
1561.0, 7.393203527731962e-06
1562, 0.0
1563, 0.0
1564, 0.0
1565, 0.0
1566, 0.0
1567, 0.0
1568, 0.0
1569, 0.0
1570, 0.0
1571, 0.0
1572, 0.0
1573, 0.0
1574, 0.0
1575, 0.0
1576, 0.0
1577, 0.0
1578, 0.0
1579, 0.0
1580, 0.0
1581, 0.0
1582, 0.0
1583, 0.0
1584, 0.0
1585, 0.0
1586, 0.0
1587, 0.0
1588, 0.0
1589, 0.0
1590, 0.0
1591, 0.0
1592, 0.0
1593, 0.0
1594, 0.0
1595, 0.0
1596, 0.0
1597, 0.0
1598, 0.0
1599, 0.0
