30, 0.0
31, 0.0
32, 0.0
33, 0.0
34, 0.0
35, 0.0
36, 0.0
37, 0.0
38, 0.0
39, 0.0
40, 0.0
41, 0.0
42, 0.0
43, 0.0
44, 0.0
45, 0.0
46, 0.0
47, 0.0
48, 0.0
49, 0.0
50, 0.0
51, 0.0
52, 0.0
53, 0.0
54, 0.0
55, 0.0
56, 0.0
57, 0.0
58, 0.0
59, 0.0
60, 0.0
61, 0.0
62, 0.0
63, 0.0
64, 0.0
65, 0.0
66, 0.0
67, 0.0
68, 0.0
69, 0.0
70, 0.0
71, 0.0
72, 0.0
73, 0.0
74, 0.0
75, 0.0
76, 0.0
77, 0.0
78, 0.0
79, 0.0
80, 0.0
81, 0.0
82, 0.0
83, 0.0
84, 0.0
85, 0.0
86, 0.0
87, 0.0
88, 0.0
89, 0.0
90, 0.0
91, 0.0
92, 0.0
93, 0.0
94, 0.0
95, 0.0
96, 0.0
97, 0.0
98, 0.0
99, 0.0
100, 0.0
101, 0.0
102, 0.0
103, 0.0
104, 0.0
105, 0.0
106, 0.0
107, 0.0
108, 0.0
109, 0.0
110, 0.0
111, 0.0
112, 0.0
113, 0.0
114, 0.0
115, 0.0
116, 0.0
117, 0.0
118, 0.0
119, 0.0
120, 0.0
121, 0.0
122, 0.0
123, 0.0
124, 0.0
125, 0.0
126, 0.0
127, 0.0
128, 0.0
129, 0.0
130, 0.0
131, 0.0
132, 0.0
133, 0.0
134, 0.0
135, 0.0
136, 0.0
137, 0.0
138, 0.0
139, 0.0
140, 0.0
141, 0.0
142, 0.0
143, 0.0
144, 0.0
145, 0.0
146, 0.0
147, 0.0
148, 0.0
149, 0.0
150, 0.0
151, 0.0
152, 0.0
153, 0.0
154, 0.0
155, 0.0
156, 0.0
157, 0.0
158.0, 0.00023168549902926006
159.0, 0.0009077882490699853
160.0, 0.010077754514943419
161.0, 0.020851233961755325
162.0, 0.027684895270835223
163.0, 0.028777410249505697
164.0, 0.030444899927572072
165.0, 0.03704720285427696
166.0, 0.04350414447218609
167.0, 0.04154217224198164
168.0, 0.030504540394597695
169.0, 0.024335615498287253
170.0, 0.02177772702510366
171.0, 0.01869946515725676
172.0, 0.020065711427149385
173.0, 0.02237637968091912
174.0, 0.02162655693961726
175.0, 0.018192269006700238
176.0, 0.017462943901349656
177.0, 0.01984631454699677
178.0, 0.027231780153853278
179.0, 0.03331912037007979
180.0, 0.029378730953386063
181.0, 0.03147042853053914
182.0, 0.03308518640936152
183.0, 0.03416141797138122
184.0, 0.037779005158006564
185.0, 0.042841229230095444
186.0, 0.040988559618702444
187.0, 0.03963050107014991
188.0, 0.04202799220732222
189.0, 0.038815333635884956
190.0, 0.037101350669812946
191.0, 0.03615492366919463
192.0, 0.03377924820421708
193.0, 0.0273903177285028
194.0, 0.014942402100347453
195.0, 0.010915365268534757
196.0, 0.013600700635302977
197.0, 0.01341788191907449
198.0, 0.009916818417375992
199.0, 0.00570972604670175
200.0, 0.008402847953742937
201.0, 0.01276745266990791
202.0, 0.0027925714550096252
203.0, 0.0034848091157437845
204.0, 0.0026277949380684364
205.0, 0.00845771401326898
206.0, 0.010209639724832338
207.0, 0.014584542423743702
208.0, 0.00958091264335177
209.0, 0.004889250440848868
210.0, 0.009829258023136812
211.0, 0.008764671885574383
212.0, 0.009038488445912991
213.0, 0.011093369420392653
214.0, 0.01268730194929395
215.0, 0.011555205435425904
216.0, 0.011209280168187398
217.0, 0.01564463039618008
218.0, 0.02044242107264291
219.0, 0.019911008373440845
220.0, 0.02161651033434502
221.0, 0.016304020718629436
222.0, 0.013032622403719439
223.0, 0.015499882648004868
224.0, 0.008987554379195574
225.0, 0.01042938492949168
226.0, 0.013070709523743054
227.0, 0.012243290242238249
228.0, 0.009367307346553312
229.0, 0.015413600289006738
230.0, 0.014659365350921917
231.0, 0.012831274163289042
232.0, 0.01640456718242049
233.0, 0.009610209022377376
234.0, 0.005250120517529877
235.0, 0.004433463698451972
236.0, 0.0051403079623322
237.0, 0.004447083051944089
238.0, 0.002081091218705398
239.0, 0.0002506741282504856
240.0, 0.00017149142963217176
241.0, 0.0006678907760177874
242.0, 0.0005483155847228768
243.0, 0.00516635699614195
244.0, 0.006741278760722856
245.0, 0.003992662979847227
246.0, 0.011631632386556222
247.0, 0.008572362466561349
248.0, 0.00995919545421707
249.0, 0.011025547281338477
250.0, 0.0025494670461154367
251.0, 0.0008481088558123053
252.0, 0.006718454863054854
253.0, 0.009474073009847015
254.0, 0.006528329351509725
255.0, 0.0031402488000405702
256.0, 0.002414799383381982
257.0, 0.0007032736959638239
258.0, 0.004748245936961857
259.0, 0.014010640831361448
260.0, 0.01839074705235868
261.0, 0.024259718816355906
262.0, 0.0314769269200049
263.0, 0.03835973428773445
264.0, 0.04418339390209272
265.0, 0.04780748006259999
266.0, 0.049661997881260786
267.0, 0.0556136945049692
268.0, 0.06900506770402857
269.0, 0.07922738761082124
270.0, 0.08044714052723646
271.0, 0.08041478974999805
272.0, 0.08452754395069949
273.0, 0.09265369172357396
274.0, 0.10150102049111898
275.0, 0.10782530879845946
276.0, 0.10507292958215232
277.0, 0.09475862609960452
278.0, 0.09702217672569542
279.0, 0.09840381732630053
280.0, 0.09704558411128354
281.0, 0.0997815465526979
282.0, 0.1126534297721901
283.0, 0.11442825870417
284.0, 0.11303825612792996
285.0, 0.12083717317155229
286.0, 0.14225961929131886
287.0, 0.1680184069441775
288.0, 0.19921660783066028
289.0, 0.2354309245651992
290.0, 0.27834276854043793
291.0, 0.3278704947601031
292.0, 0.3744754469255087
293.0, 0.41850330824357446
294.0, 0.46945310957100184
295.0, 0.5247313686755577
296.0, 0.5676149363388696
297.0, 0.6249031324817046
298.0, 0.6785346256468168
299.0, 0.7177894958117932
300.0, 0.7335952657256537
301.0, 0.7124846119265102
302.0, 0.6622330981958442
303.0, 0.5917034602820972
304.0, 0.5139764670173531
305.0, 0.44538093870242035
306.0, 0.3989520407654786
307.0, 0.363006616336344
308.0, 0.32834138530074397
309.0, 0.29723083531922795
310.0, 0.28075081000952057
311.0, 0.2618316966221665
312.0, 0.24012545146172995
313.0, 0.21734519449795622
314.0, 0.19687679802437524
315.0, 0.1876753443824044
316.0, 0.1791932326925437
317.0, 0.16477625448548144
318.0, 0.1498337449043053
319.0, 0.14438030744216065
320.0, 0.13516155397970084
321.0, 0.12729444937856535
322.0, 0.12144428484592582
323.0, 0.11413447266408298
324.0, 0.0977450007003548
325.0, 0.09341418838947137
326.0, 0.08116192472371403
327.0, 0.0664339989539881
328.0, 0.06244974393984986
329.0, 0.04605173082173981
330.0, 0.039711624447224904
331.0, 0.040066165153850516
332.0, 0.04097306525196148
333.0, 0.03876278662261389
334.0, 0.029192154551430177
335.0, 0.021745876958945632
336.0, 0.019278909471406414
337.0, 0.0200851294338467
338.0, 0.020265624621461486
339.0, 0.016100123275856866
340.0, 0.014653633503520686
341.0, 0.01272306082216959
342.0, 0.007067699198901053
343.0, 0.007136170757222907
344.0, 0.002231322522942625
345.0, 0.0016170641825015274
346.0, 0.004509522554187843
347.0, 0.006198517280081571
348.0, 0.00783417968844077
349.0, 0.012518711256523993
350.0, 0.013712339137947546
351.0, 0.008891265081507033
352.0, 0.003635468202880891
353.0, 0.008374386901807562
354.0, 0.011678022144571563
355.0, 0.005727312999347645
356.0, 0.003624685287162306
357.0, 0.0014286569876759561
358.0, 0.006988563839972207
359.0, 0.00481484501428436
360.0, 0.007796647114637356
361.0, 0.005881260797552912
362.0, 0.008180311918141586
363.0, 0.0018541653293543102
364.0, 0.005623574247848623
365.0, 0.006608498571237001
366.0, 0.0016850252366472744
367.0, 0.0023318201344554902
368.0, 0.005015953190156954
369.0, 0.007418191078084136
370.0, 0.00729337280951367
371.0, 0.005516563864848034
372.0, 0.007923669066076163
373.0, 0.01242802489182972
374.0, 0.01646196333109179
375.0, 0.017036632770704732
376.0, 0.012239168443267966
377.0, 0.014827801842873913
378.0, 0.013017993993519125
379.0, 0.011567016119867957
380.0, 0.013339642500556425
381.0, 0.009973699068232313
382.0, 0.010349298368323897
383.0, 0.009140549364947436
384.0, 0.010690445286483528
385.0, 0.017911575776131426
386.0, 0.023058678594521213
387.0, 0.026624667554374943
388.0, 0.02489243437819591
389.0, 0.017778284883765167
390.0, 0.011593819229265261
391.0, 0.01817938223398121
392.0, 0.018570621731929682
393.0, 0.01801837661501173
394.0, 0.019405338870763407
395.0, 0.019950675111319927
396.0, 0.015776934462119592
397.0, 0.025553902103586806
398.0, 0.026888658448465125
399.0, 0.020861951642678938
400.0, 0.021147606556983358
401.0, 0.018951532570512672
402.0, 0.01867392146473684
403.0, 0.016269570790730638
404.0, 0.015020455414949943
405.0, 0.020225320635619774
406.0, 0.03111684080930513
407.0, 0.033636274817663944
408.0, 0.03696477835643967
409.0, 0.043944899722786715
410.0, 0.049199762956573266
411.0, 0.0557628072745481
412.0, 0.07150574104687049
413.0, 0.08812503081559286
414.0, 0.10849964203363928
415.0, 0.14379648893527852
416.0, 0.18417287179444078
417.0, 0.21758360580146133
418.0, 0.24646654957718825
419.0, 0.2806151704628831
420.0, 0.32303230642609937
421.0, 0.35835506818031654
422.0, 0.39191703231330977
423.0, 0.43978353797006
424.0, 0.4956439526478785
425.0, 0.5346298578054371
426.0, 0.558981369588868
427.0, 0.5381729233923863
428.0, 0.4725845190828593
429.0, 0.3738854856814211
430.0, 0.26215337751655926
431.0, 0.19753445064050806
432.0, 0.14641889309939296
433.0, 0.10531331545723865
434.0, 0.0798437294810287
435.0, 0.06968733939283421
436.0, 0.058596419549336955
437.0, 0.037347498931535356
438.0, 0.03145758085396531
439.0, 0.03674130641140132
440.0, 0.02884227545956616
441.0, 0.023618891058073136
442.0, 0.02174394640403344
443.0, 0.019715553529855465
444.0, 0.014176604895373446
445.0, 0.006116995367633828
446.0, 0.011666126229213068
447.0, 0.007510331994394502
448.0, 0.001150828211304377
449.0, 0.0016468657969861892
450.0, 0.003778362885740549
451.0, 0.0016450478004632794
452.0, 0.024756700729931868
453.0, 0.02918645745336599
454.0, 0.011498563184329982
455.0, 0.003982870918167501
456.0, 0.0017104103664785592
457.0, 0.004769901578502555
458.0, 0.006753973175184373
459.0, 0.0012262344317224678
460.0, 0.005431826006249391
461.0, 0.0016362708413093518
462.0, 0.00990623889341319
463.0, 0.01391427481472022
464.0, 0.01580532694014583
465.0, 0.019222526063731916
466.0, 0.013538214224321027
467.0, 0.03171060105303095
468.0, 0.042156739509740984
469.0, 0.04774669540660423
470.0, 0.05950902190111553
471.0, 0.07279789079310121
472.0, 0.07422656792448507
473.0, 0.08307327812383578
474.0, 0.09134025420531959
475.0, 0.09337521407534977
476.0, 0.09943616133925204
477.0, 0.1114270273965375
478.0, 0.11952111800265493
479.0, 0.12376524909138982
480.0, 0.12775226967827674
481.0, 0.1334068083059237
482.0, 0.1396914067460956
483.0, 0.1492151912239708
484.0, 0.1556061448664244
485.0, 0.15635806241779646
486.0, 0.15404759982635913
487.0, 0.155439018511028
488.0, 0.1561046480045078
489.0, 0.1444227686220472
490.0, 0.1305939688800523
491.0, 0.1285513155432255
492.0, 0.12876787851756105
493.0, 0.11272127142634311
494.0, 0.10468399982486361
495.0, 0.10337848876816852
496.0, 0.10042143500110862
497.0, 0.09766607155011371
498.0, 0.07029801805651056
499.0, 0.06357486783995313
500.0, 0.060197908126083895
501.0, 0.05063170461458412
502.0, 0.049759636618355925
503.0, 0.03241566421086243
504.0, 0.029455394449486593
505.0, 0.02995966768302104
506.0, 0.025284518837614987
507.0, 0.01840342839858893
508.0, 0.014963475055364866
509.0, 0.018266385552161046
510.0, 0.009501259187510774
511.0, 0.0016919714885692662
512.0, 0.0019112712223848737
513.0, 0.005328464876190658
514.0, 0.0028686092300198797
515.0, 0.0010881301844318581
516.0, 0.005015813597106513
517.0, 0.008794039215681582
518.0, 0.002056537948896322
519.0, 0.0013275799066630829
520.0, 0.0016638531745183113
521.0, 0.003740820681875313
522.0, 0.006044378133594494
523.0, 0.010435699138490736
524.0, 0.005009594407568828
525.0, 0.002090768314729404
526.0, 0.0002384299589557569
527.0, 0.0025376006753269993
528.0, 0.007513849571491506
529.0, 0.029135983374833335
530.0, 0.03068865418826439
531.0, 0.02430540196471177
532.0, 0.008945071526270226
533.0, 0.0054064169636959085
534.0, 0.021238139945752712
535.0, 0.006152419898543632
536.0, 0.005269392624851573
537.0, 0.006810999822081177
538.0, 0.005843594566651767
539.0, 0.005906304223352847
540.0, 0.0030260718277360303
541.0, 0.002684389253438056
542.0, 0.0009930999001949862
543.0, 0.0024609849163121475
544.0, 0.014526772856465954
545.0, 0.02385504411778409
546.0, 0.014916348191582555
547.0, 0.02167346996625997
548.0, 0.028428546943014835
549.0, 0.028104306384386497
550.0, 0.028641431043126837
551.0, 0.023518440567015138
552.0, 0.029564884392953957
553.0, 0.025450809366331636
554.0, 0.020034679454552104
555.0, 0.025187791458630055
556.0, 0.028929706471531414
557.0, 0.028002079258670768
558.0, 0.03627528183420261
559.0, 0.03887355034463017
560.0, 0.036525138673019444
561.0, 0.03977120156697047
562.0, 0.03185351402976465
563.0, 0.04860494117774732
564.0, 0.05361624841067256
565.0, 0.053214706061636974
566.0, 0.06187645111813567
567.0, 0.06860147260647638
568.0, 0.06691807817373542
569.0, 0.065041348761718
570.0, 0.0688461205685594
571.0, 0.07030636962169777
572.0, 0.06696345238846214
573.0, 0.08231679684777751
574.0, 0.07434209138872279
575.0, 0.07966615382724246
576.0, 0.08265896229672977
577.0, 0.07368769144712461
578.0, 0.08031620980728017
579.0, 0.08729751314076857
580.0, 0.09167506589885135
581.0, 0.10503822699027295
582.0, 0.11836677726904855
583.0, 0.1199302555828094
584.0, 0.12400531819326926
585.0, 0.12061866235674036
586.0, 0.12950418786775547
587.0, 0.13611295206756996
588.0, 0.1376723297027222
589.0, 0.15240577356635904
590.0, 0.17010586731146476
591.0, 0.1779432194955215
592.0, 0.18346360396502936
593.0, 0.19238003780241406
594.0, 0.2013169169118089
595.0, 0.2023840952969446
596.0, 0.2190550249377796
597.0, 0.228091146270503
598.0, 0.2418914366803716
599.0, 0.25539146873800567
600.0, 0.2589507453392566
601.0, 0.2785915425661125
602.0, 0.28726461126992864
603.0, 0.29006150713155304
604.0, 0.2880774289742648
605.0, 0.2809518368510458
606.0, 0.27380451281228074
607.0, 0.2811942825098282
608.0, 0.2830208484342309
609.0, 0.27724134380939897
610.0, 0.2749310788450009
611.0, 0.2831344305923185
612.0, 0.29603783333428635
613.0, 0.2988670607402632
614.0, 0.3028313554012298
615.0, 0.3189108452091428
616.0, 0.3402740063397617
617.0, 0.3537938051744278
618.0, 0.36306195838455313
619.0, 0.3835650689573276
620.0, 0.4109117703581295
621.0, 0.434086135614071
622.0, 0.45388024437041946
623.0, 0.47823565104820137
624.0, 0.5064730560425982
625.0, 0.5349238786404248
626.0, 0.5664950881805058
627.0, 0.601078055113658
628.0, 0.6311631605612062
629.0, 0.6527990740274878
630.0, 0.6842269055911826
631.0, 0.7024338579480347
632.0, 0.7092266198798514
633.0, 0.7074880422711757
634.0, 0.7020538123335481
635.0, 0.7012407900597326
636.0, 0.693523077801051
637.0, 0.6993756149518077
638.0, 0.719453196035945
639.0, 0.7570315306440352
640.0, 0.8052865799021087
641.0, 0.8466421046369254
642.0, 0.8907175080690082
643.0, 0.9335906753605968
644.0, 0.9782364911997886
645.0, 0.9996563880713089
646.0, 0.9745827854630673
647.0, 0.9063630003367176
648.0, 0.7820926094260923
649.0, 0.6594264692801092
650.0, 0.5314283264368145
651.0, 0.4162441062593786
652.0, 0.33747994156560146
653.0, 0.27460274436561705
654.0, 0.21157394063647017
655.0, 0.1861705713692062
656.0, 0.15682732586947157
657.0, 0.12052722584607316
658.0, 0.10587029355820614
659.0, 0.111990620132119
660.0, 0.08920230915649965
661.0, 0.06263311428780284
662.0, 0.05005044703569941
663.0, 0.055186889466171445
664.0, 0.0582749669270847
665.0, 0.02552633165064854
666.0, 0.026826825683224986
667.0, 0.028296077416125085
668.0, 0.02919271424129641
669.0, 0.03298442974407744
670.0, 0.03295941022244066
671.0, 0.02179709661236895
672.0, 0.0040731435873074965
673.0, 0.0018467920476707737
674.0, 0.0016491853652025295
675.0, 0.006433714189020578
676.0, 0.01616187292446962
677.0, 0.01380205382469043
678.0, 0.01450147836933332
679.0, 0.011809291542695641
680.0, 0.005320617503435148
681.0, 0.0016510893158355614
682.0, 0.00400182216580741
683.0, 0.0043847658822422355
684.0, 0.002706630937624922
685.0, 0.009121647676701441
686.0, 0.013045698932609448
687.0, 0.01308788566851388
688.0, 0.009292114537882274
689.0, 0.004734951450311447
690.0, 0.00024411380209068826
691.0, 0.0035221675020482793
692.0, 0.010403769595301633
693.0, 0.014242192651328905
694.0, 0.013761381563959823
695.0, 0.0121791887621095
696.0, 0.006280310179076775
697.0, 0.011687705148645991
698.0, 0.009964966906153871
699.0, 0.003442491344924652
700.0, 0.002146348344160128
701.0, 0.006078485561923532
702.0, 0.009651264949288536
703.0, 0.01287097342976504
704.0, 0.01434594501100308
705.0, 0.012562889849000823
706.0, 0.009592588687626536
707.0, 0.01140210844388931
708.0, 0.016769004467842276
709.0, 0.010536963582489303
710.0, 0.013222177477969277
711.0, 0.018708782570409553
712.0, 0.01451298448159325
713.0, 0.010374598029945111
714.0, 0.030645866539272527
715.0, 0.027726377368936777
716.0, 0.018917413249682973
717.0, 0.016831606256209945
718.0, 0.020182292460952305
719.0, 0.02010367224125602
720.0, 0.012812815054250457
721.0, 0.014819612973286387
722.0, 0.01806844194489038
723.0, 0.022636247469430187
724.0, 0.032476977043762484
725.0, 0.036210856394544515
726.0, 0.0232283072928842
727.0, 0.02533529740030385
728.0, 0.027023368114958035
729.0, 0.028576381486352317
730.0, 0.03268256236381942
731.0, 0.03636726862234977
732.0, 0.03402605906709816
733.0, 0.02358106687195541
734.0, 0.020649606500184523
735.0, 0.02086702228345991
736.0, 0.02251103757809509
737.0, 0.02194851082601997
738.0, 0.015671881302969135
739.0, 0.007353210710014449
740.0, 0.011645759531347695
741.0, 0.005275951500373634
742.0, 0.013229586051507699
743.0, 0.019052192392070257
744.0, 0.01394082926183517
745.0, 0.0132930616597367
746.0, 0.022331719487916322
747.0, 0.016598907702817838
748.0, 0.017037866703177643
749.0, 0.017393103891068698
750.0, 0.012850237181461886
751.0, 0.006961937792044721
752.0, 0.0022716085924707557
753.0, 0.007125918928484358
754.0, 0.012531919044621219
755.0, 0.01646262413850909
756.0, 0.012817565913849435
757.0, 0.00702818803995579
758.0, 0.007615817623921203
759.0, 0.019937143869319874
760.0, 0.015406170430816176
761.0, 0.008850619801625537
762.0, 0.011216241917845987
763.0, 0.00986025358014145
764.0, 0.004097161121920346
765.0, 0.010475016895176707
766.0, 0.009455377782646367
767.0, 0.00628557053932306
768.0, 0.01514788058969449
769.0, 0.016523099138396634
770.0, 0.01326974345627723
771.0, 0.009154800131285425
772.0, 0.01210360424254075
773.0, 0.0027341010328794835
774.0, 0.002727776689115594
775.0, 0.002573544656957228
776.0, 0.011218678977305559
777.0, 0.016756807953105038
778.0, 0.016627147590183192
779.0, 0.007280281160338678
780.0, 0.011414668221078186
781.0, 0.016262617382351578
782.0, 0.01829604887903988
783.0, 0.0218120060536266
784.0, 0.02668109560460067
785.0, 0.026954684354891935
786.0, 0.033936249611056686
787.0, 0.03438650046799739
788.0, 0.04055579930941021
789.0, 0.0583762140160134
790.0, 0.07521335394224435
791.0, 0.07973167562444645
792.0, 0.0840332232706352
793.0, 0.08643707394700118
794.0, 0.09598895785404339
795.0, 0.0924670768093891
796.0, 0.08953902336113681
797.0, 0.09844145864706874
798.0, 0.10773774368525199
799.0, 0.11115666737944287
800.0, 0.1134168136518389
801.0, 0.10913749422129274
802.0, 0.11188760306460555
803.0, 0.12376035382363684
804.0, 0.13399826340406493
805.0, 0.13589848333211116
806.0, 0.13228120612646319
807.0, 0.14064987389273942
808.0, 0.1553385237916727
809.0, 0.1618155118466774
810.0, 0.16407852717404975
811.0, 0.17228936937047254
812.0, 0.1839671636717795
813.0, 0.19535545429196405
814.0, 0.2075358750067882
815.0, 0.22332964335633362
816.0, 0.22878348065655915
817.0, 0.2306962403991889
818.0, 0.24470504322933453
819.0, 0.2624318122731713
820.0, 0.29287744071024474
821.0, 0.29975286648303423
822.0, 0.2952755409031701
823.0, 0.3043847100989009
824.0, 0.31688374566413857
825.0, 0.31498675136999743
826.0, 0.31110305800167165
827.0, 0.3004090454091237
828.0, 0.30571751910456474
829.0, 0.30184152025256
830.0, 0.29034384984229306
831.0, 0.28693096291687026
832.0, 0.29658069457996006
833.0, 0.3015643690938736
834.0, 0.2639806827397435
835.0, 0.26686054739486204
836.0, 0.263786179478574
837.0, 0.25208081170142627
838.0, 0.244668667879349
839.0, 0.24123526392342284
840.0, 0.23220162788482596
841.0, 0.22213058160055668
842.0, 0.20971459975310044
843.0, 0.20364158024913273
844.0, 0.19909396116148678
845.0, 0.18365594548103834
846.0, 0.16595590984980838
847.0, 0.16347615396459936
848.0, 0.1497261990070053
849.0, 0.12295070981123357
850.0, 0.1319313078039626
851.0, 0.13649812950766346
852.0, 0.1299977298318494
853.0, 0.12257797744504033
854.0, 0.1104029869796063
855.0, 0.1070702615682363
856.0, 0.09838780231156984
857.0, 0.10184367038292085
858.0, 0.10210971127179964
859.0, 0.10323080544107964
860.0, 0.10923506313342146
861.0, 0.10838279285055474
862.0, 0.09587416523561905
863.0, 0.08260637968601159
864.0, 0.09461871839688228
865.0, 0.09558401199360436
866.0, 0.08795035869148086
867.0, 0.08100586290813006
868.0, 0.0732000542663686
869.0, 0.06734180000983502
870.0, 0.06359316438503898
871.0, 0.06225181803912432
872.0, 0.07277984262628914
873.0, 0.06865373009339482
874.0, 0.05855410863343025
875.0, 0.0630725828101631
876.0, 0.07127157129728022
877.0, 0.07427746271326433
878.0, 0.06970574308829108
879.0, 0.06826221148607758
880.0, 0.06749952369458827
881.0, 0.06836513781790167
882.0, 0.06817583881555883
883.0, 0.0623640038685154
884.0, 0.062193021228153456
885.0, 0.07257797962424811
886.0, 0.07423062618633917
887.0, 0.0656066171827583
888.0, 0.06711627255757757
889.0, 0.07260951431259709
890.0, 0.07283892119524858
891.0, 0.08255053867894017
892.0, 0.08675532336862662
893.0, 0.098189147447847
894.0, 0.10443899742759952
895.0, 0.09668919913199298
896.0, 0.09134540232407104
897.0, 0.08910131846785008
898.0, 0.07774011408906142
899.0, 0.07854991991182116
900.0, 0.07685457039353193
901.0, 0.060850987002595405
902.0, 0.05153398390221184
903.0, 0.04865120671715856
904.0, 0.04295320949557158
905.0, 0.03216347557893752
906.0, 0.026015830268265098
907.0, 0.03443433654627121
908.0, 0.022874991144775432
909.0, 0.024440202125421414
910.0, 0.023206661502942618
911.0, 0.019917846655959956
912.0, 0.020091485422683682
913.0, 0.015035726321708605
914.0, 0.001840725407456229
915.0, 0.0032182308347847286
916.0, 0.00900050061023069
917.0, 0.004951176815601248
918.0, 0.0037305887835245915
919.0, 0.007087217123596903
920.0, 0.00420367343113761
921.0, 0.01760694333413696
922.0, 0.01323170820525426
923.0, 0.012037892833660866
924.0, 0.00924695670030847
925.0, 0.01771643196385575
926.0, 0.0265559450030064
927.0, 0.028065248086662598
928.0, 0.024885713132272665
929.0, 0.021181778659218838
930.0, 0.0214034680298913
931.0, 0.01621095903138868
932.0, 0.008299277715874813
933.0, 0.006155469137758617
934.0, 0.0047361549906720455
935.0, 0.003934102466277506
936.0, 0.007445760299268062
937.0, 0.01174968158420893
938.0, 0.010101926471528137
939.0, 0.005658686306808864
940.0, 0.006338556971888639
941.0, 0.0017547292307294698
942.0, 0.004299703031883017
943.0, 0.007605185616767289
944.0, 0.01280582890438735
945.0, 0.021964505976919783
946.0, 0.02025317016183396
947.0, 0.008552682647427803
948.0, 0.001114357346621595
949.0, 0.014138800990926462
950.0, 0.012970066737738732
951.0, 0.0006377258205602707
952.0, 0.004190520828197083
953.0, 0.015475510435886677
954.0, 0.02456746495962266
955.0, 0.02768526605307403
956.0, 0.04474131399095135
957.0, 0.06525156173450938
958.0, 0.08082316927541665
959.0, 0.10769929310231532
960.0, 0.13675204263355892
961.0, 0.14869081334645565
962.0, 0.1887476286835606
963.0, 0.19709444309907792
964.0, 0.23597215480234843
965.0, 0.2427003642760761
966.0, 0.21112910411264693
967.0, 0.17385920502810748
968.0, 0.12282514122155701
969.0, 0.05774341136308019
970.0, 0.04041498052760532
971.0, 0.032147139320016296
972.0, 0.011137682235075268
973.0, 0.009078679930997514
974.0, 0.0014281859252182336
975.0, 0.008431476094674463
976.0, 0.024777566531154354
977.0, 0.011400921439397756
978.0, 0.00654343510117822
979.0, 0.011608284777778383
980.0, 0.005327695537331541
981.0, 0.011540054695048124
982.0, 0.024046614219012077
983.0, 0.031345122865919214
984.0, 0.03547443959485626
985.0, 0.039824784392397054
986.0, 0.04570180478037554
987.0, 0.06688121588793301
988.0, 0.07660702532602201
989.0, 0.1004148328728533
990.0, 0.12226718400392905
991.0, 0.13901947645905832
992.0, 0.15494772074902732
993.0, 0.18071952747128273
994.0, 0.22382110692308438
995.0, 0.27031383179379415
996.0, 0.3082796638237291
997.0, 0.3476243596657665
998.0, 0.39476918535263816
999.0, 0.4483641080154257
1000.0, 0.49871803570531814
1001.0, 0.5656304353934996
1002.0, 0.632581219868997
1003.0, 0.6605179527931573
1004.0, 0.7159671913647042
1005.0, 0.7725399512209965
1006.0, 0.8170080452470454
1007.0, 0.8652337311362094
1008.0, 0.8928957412007952
1009.0, 0.8987095870192191
1010.0, 0.8951723839737113
1011.0, 0.8835007000262725
1012.0, 0.8543096307397541
1013.0, 0.8038988558205049
1014.0, 0.7492696164665472
1015.0, 0.6700060084173534
1016.0, 0.6021753960033894
1017.0, 0.5330004302747661
1018.0, 0.4689978186218236
1019.0, 0.418485447309766
1020.0, 0.37067566285109266
1021.0, 0.33044515596817275
1022.0, 0.31154474382125696
1023.0, 0.2737830172324745
1024.0, 0.26348131251100204
1025.0, 0.2528174747571158
1026.0, 0.2463698715459748
1027.0, 0.24292783654999678
1028.0, 0.24078406294773688
1029.0, 0.2498010792372647
1030.0, 0.2735964989390262
1031.0, 0.2931300998445698
1032.0, 0.2994644423752194
1033.0, 0.31841521477035506
1034.0, 0.3540490508050193
1035.0, 0.3887643142044635
1036.0, 0.4222456961210535
1037.0, 0.45772937205673153
1038.0, 0.49151737233785703
1039.0, 0.5229289039142216
1040.0, 0.55108744765651
1041.0, 0.5584048420739198
1042.0, 0.6006016819780998
1043.0, 0.6160507915372395
1044.0, 0.6215846999428399
1045.0, 0.6367696968286232
1046.0, 0.6431215229886089
1047.0, 0.6399980836770298
1048.0, 0.6470378180839914
1049.0, 0.6400801695322318
1050.0, 0.636844242548131
1051.0, 0.6527069942869947
1052.0, 0.6441068842972475
1053.0, 0.6560647044857983
1054.0, 0.6686619453170498
1055.0, 0.6762278082448787
1056.0, 0.691776363652154
1057.0, 0.6947263439398378
1058.0, 0.685196962920519
1059.0, 0.6841048239912546
1060.0, 0.6652464626922976
1061.0, 0.6252137369782345
1062.0, 0.5757127302517052
1063.0, 0.5049585372555759
1064.0, 0.42627896205576615
1065.0, 0.36254610496148054
1066.0, 0.3079398734854149
1067.0, 0.24159519214712283
1068.0, 0.2002470094647858
1069.0, 0.16408534461076643
1070.0, 0.12237095194077516
1071.0, 0.10735985193093929
1072.0, 0.09830023725680052
1073.0, 0.07453537026624547
1074.0, 0.05132260796969205
1075.0, 0.03788352485409928
1076.0, 0.02057315734530963
1077.0, 0.007275626615660906
1078.0, 0.006518473348344602
1079.0, 0.006081941094040506
1080.0, 0.01054794499791617
1081.0, 0.016118419525624643
1082.0, 0.011032633556465067
1083.0, 0.00877688774573021
1084.0, 0.0058649992937509395
1085.0, 0.004275727695645
1086.0, 0.006876500031972268
1087.0, 0.0033411930738217865
1088.0, 0.010262656786438699
1089.0, 0.0016581478212979648
1090.0, 0.004596856013987889
1091.0, 0.011561261766049335
1092.0, 0.010075428456232794
1093.0, 0.007710880689178605
1094.0, 0.016722869869628662
1095.0, 0.028452637803994357
1096.0, 0.030926204608372844
1097.0, 0.03220233949120906
1098.0, 0.03349503371965252
1099.0, 0.02968174684710751
1100.0, 0.042575723903419994
1101.0, 0.0497010473146819
1102.0, 0.05391368675437582
1103.0, 0.061404738649958504
1104.0, 0.06769379235771578
1105.0, 0.0729264767786086
1106.0, 0.08077267043106606
1107.0, 0.08930020988661236
1108.0, 0.09439243196968419
1109.0, 0.09596032334155465
1110.0, 0.08736621525038625
1111.0, 0.08494663351642336
1112.0, 0.08755538285041728
1113.0, 0.08646386139497723
1114.0, 0.08557036397811103
1115.0, 0.08440481061713964
1116.0, 0.07431329787311401
1117.0, 0.07237283210455095
1118.0, 0.07567092515221042
1119.0, 0.06997018025032743
1120.0, 0.04878863968300132
1121.0, 0.054932310499209436
1122.0, 0.05254185148548099
1123.0, 0.04652194250800084
1124.0, 0.05386833646650654
1125.0, 0.05823931935240608
1126.0, 0.05124532385261212
1127.0, 0.052168400674482765
1128.0, 0.054591127720770884
1129.0, 0.07192948259201923
1130.0, 0.06872836722730215
1131.0, 0.0616304495869289
1132.0, 0.05766227589230222
1133.0, 0.06406022819427216
1134.0, 0.05186578140290252
1135.0, 0.03392933839518522
1136.0, 0.03493790989206575
1137.0, 0.020508762400451484
1138.0, 0.026874241200607826
1139.0, 0.02121512848548857
1140.0, 0.02121141862566476
1141.0, 0.02651965425000834
1142.0, 0.0218862467823837
1143.0, 0.007256522728029688
1144.0, 0.005219779178071159
1145.0, 0.009936605505603765
1146.0, 0.03153286978464109
1147.0, 0.01718165230068254
1148.0, 0.005443978501903612
1149.0, 0.004675083581901577
1150.0, 0.005476365504077393
1151.0, 0.007429384429130341
1152.0, 0.018013512015096732
1153.0, 0.013088008811804917
1154.0, 0.016603172012048476
1155.0, 0.026534337367475354
1156.0, 0.028574652990840225
1157.0, 0.0229735124361151
1158.0, 0.02040826402515029
1159.0, 0.031951950050782614
1160.0, 0.026229618006337947
1161.0, 0.020917237466424793
1162.0, 0.006471402280367211
1163.0, 0.002658412009554685
1164.0, 0.004956254619134809
1165.0, 0.005644094027486233
1166.0, 0.00866063471099754
1167.0, 0.0079240957450497
1168.0, 0.013177998154707877
1169.0, 0.012209960749528957
1170.0, 0.02377463831034595
1171.0, 0.02716613062341323
1172.0, 0.02538095337546673
1173.0, 0.03942831651836496
1174.0, 0.03499674827020433
1175.0, 0.033483406971586284
1176.0, 0.03616894111109744
1177.0, 0.04139192057776232
1178.0, 0.050959075695407724
1179.0, 0.05323685420818174
1180.0, 0.0516719618690782
1181.0, 0.06447669264393634
1182.0, 0.06338800306267028
1183.0, 0.059900277262858445
1184.0, 0.053185597922092764
1185.0, 0.0391670839750903
1186.0, 0.049523256732179374
1187.0, 0.04149009481281543
1188.0, 0.04013506998226109
1189.0, 0.045603721319553384
1190.0, 0.038529875523324354
1191.0, 0.032656139727472715
1192.0, 0.042713662572393056
1193.0, 0.04374126962280182
1194.0, 0.04123721834995455
1195.0, 0.047612359371374716
1196.0, 0.045213940576817706
1197.0, 0.038542030272145394
1198.0, 0.033694951178502436
1199.0, 0.035209696802311195
1200.0, 0.04007211801907918
1201.0, 0.029681692757928646
1202.0, 0.023658552383931886
1203.0, 0.03218380529253839
1204.0, 0.027973531407197955
1205.0, 0.02253295879921677
1206.0, 0.03816080213162401
1207.0, 0.03601809426559725
1208.0, 0.04478807593953252
1209.0, 0.040301270966943456
1210.0, 0.030392704066827085
1211.0, 0.04562803241196298
1212.0, 0.034037754323214466
1213.0, 0.025053269952437427
1214.0, 0.029143059558651402
1215.0, 0.02683500864818852
1216.0, 0.02522050214572908
1217.0, 0.02398118494958153
1218.0, 0.01635416028413811
1219.0, 0.0116042580981719
1220.0, 0.017427310954682064
1221.0, 0.015226159913700299
1222.0, 0.025646236344368065
1223.0, 0.017890401522379105
1224.0, 0.011849079011126772
1225.0, 0.02034067411423248
1226.0, 0.03153986986462603
1227.0, 0.028476835152975524
1228.0, 0.01870267956861475
1229.0, 0.017449693214755407
1230.0, 0.017784603719918596
1231.0, 0.032709959290981964
1232.0, 0.03365504339829315
1233.0, 0.030134042487209384
1234.0, 0.03293594949490008
1235.0, 0.035995507730901787
1236.0, 0.04237522732821362
1237.0, 0.03650158251713771
1238.0, 0.04212299479577203
1239.0, 0.03725223034635608
1240.0, 0.032195330955638285
1241.0, 0.036582627676096095
1242.0, 0.02393487935817214
1243.0, 0.027166725388422273
1244.0, 0.03465294786456407
1245.0, 0.04216623199078683
1246.0, 0.04259159182810098
1247.0, 0.04176016550464786
1248.0, 0.05127582867097088
1249.0, 0.0357217602208236
1250.0, 0.029396110598655812
1251.0, 0.03014643932497537
1252.0, 0.02411772894502501
1253.0, 0.013518630439533018
1254.0, 0.013206391102944753
1255.0, 0.025389348627343118
1256.0, 0.028087609671541187
1257.0, 0.033120006298798216
1258.0, 0.03707438625610162
1259.0, 0.03029659261297735
1260.0, 0.01858648971655372
1261.0, 0.012563116822213337
1262.0, 0.009862102579011517
1263.0, 0.0022420051592171686
1264.0, 0.007422837244684646
1265.0, 0.007886630297253604
1266.0, 0.004016287069053508
1267.0, 0.016249254651389773
1268.0, 0.024436127869583716
1269.0, 0.031635651899427845
1270.0, 0.037438922386340945
1271.0, 0.042080900277379304
1272.0, 0.05473059057163585
1273.0, 0.04599190051758761
1274.0, 0.05096140362322691
1275.0, 0.04362869797524892
1276.0, 0.04179834929195565
1277.0, 0.040786175266388676
1278.0, 0.0411862530870287
1279.0, 0.03929730412157122
1280.0, 0.02968256682311049
1281.0, 0.01794071665198246
1282.0, 0.019893419067294662
1283.0, 0.024345929495924963
1284.0, 0.021783027502107873
1285.0, 0.01814692272541519
1286.0, 0.024843362921199236
1287.0, 0.025012982931229392
1288.0, 0.0222851642107269
1289.0, 0.0297232148741994
1290.0, 0.01977838779680667
1291.0, 0.009778290981162828
1292.0, 0.007871752050300353
1293.0, 0.0010818913185405006
1294.0, 0.017417269209929736
1295.0, 0.028306294430828344
1296.0, 0.004571017892694472
1297, 0.0
1298, 0.0
1299, 0.0
1300, 0.0
1301, 0.0
1302, 0.0
1303, 0.0
1304, 0.0
1305, 0.0
1306, 0.0
1307, 0.0
1308, 0.0
1309, 0.0
1310, 0.0
1311, 0.0
1312, 0.0
1313, 0.0
1314, 0.0
1315, 0.0
1316, 0.0
1317, 0.0
1318, 0.0
1319, 0.0
1320, 0.0
1321, 0.0
1322, 0.0
1323, 0.0
1324, 0.0
1325, 0.0
1326, 0.0
1327, 0.0
1328, 0.0
1329, 0.0
1330, 0.0
1331, 0.0
1332, 0.0
1333, 0.0
1334, 0.0
1335, 0.0
1336, 0.0
1337, 0.0
1338, 0.0
1339, 0.0
1340, 0.0
1341, 0.0
1342, 0.0
1343, 0.0
1344, 0.0
1345, 0.0
1346, 0.0
1347, 0.0
1348, 0.0
1349, 0.0
1350, 0.0
1351, 0.0
1352, 0.0
1353, 0.0
1354, 0.0
1355, 0.0
1356, 0.0
1357, 0.0
1358, 0.0
1359, 0.0
1360, 0.0
1361, 0.0
1362, 0.0
1363, 0.0
1364, 0.0
1365, 0.0
1366, 0.0
1367, 0.0
1368, 0.0
1369, 0.0
1370, 0.0
1371, 0.0
1372, 0.0
1373, 0.0
1374, 0.0
1375, 0.0
1376, 0.0
1377, 0.0
1378, 0.0
1379, 0.0
1380, 0.0
1381, 0.0
1382, 0.0
1383, 0.0
1384, 0.0
1385, 0.0
1386, 0.0
1387, 0.0
1388, 0.0
1389, 0.0
1390, 0.0
1391, 0.0
1392, 0.0
1393, 0.0
1394, 0.0
1395, 0.0
1396, 0.0
1397, 0.0
1398, 0.0
1399, 0.0
1400, 0.0
1401, 0.0
1402, 0.0
1403, 0.0
1404, 0.0
1405, 0.0
1406, 0.0
1407, 0.0
1408, 0.0
1409, 0.0
1410, 0.0
1411, 0.0
1412, 0.0
1413, 0.0
1414, 0.0
1415, 0.0
1416, 0.0
1417, 0.0
1418, 0.0
1419, 0.0
1420, 0.0
1421, 0.0
1422, 0.0
1423, 0.0
1424, 0.0
1425, 0.0
1426, 0.0
1427, 0.0
1428, 0.0
1429, 0.0
1430, 0.0
1431, 0.0
1432, 0.0
1433, 0.0
1434, 0.0
1435, 0.0
1436, 0.0
1437, 0.0
1438, 0.0
1439, 0.0
1440, 0.0
1441, 0.0
1442, 0.0
1443, 0.0
1444, 0.0
1445, 0.0
1446, 0.0
1447, 0.0
1448, 0.0
1449, 0.0
1450, 0.0
1451, 0.0
1452, 0.0
1453, 0.0
1454, 0.0
1455, 0.0
1456, 0.0
1457, 0.0
1458, 0.0
1459, 0.0
1460, 0.0
1461, 0.0
1462, 0.0
1463, 0.0
1464, 0.0
1465, 0.0
1466, 0.0
1467, 0.0
1468, 0.0
1469, 0.0
1470, 0.0
1471, 0.0
1472, 0.0
1473, 0.0
1474, 0.0
1475, 0.0
1476, 0.0
1477, 0.0
1478, 0.0
1479, 0.0
1480, 0.0
1481, 0.0
1482, 0.0
1483, 0.0
1484, 0.0
1485, 0.0
1486, 0.0
1487, 0.0
1488, 0.0
1489, 0.0
1490, 0.0
1491, 0.0
1492, 0.0
1493, 0.0
1494, 0.0
1495, 0.0
1496, 0.0
1497, 0.0
1498, 0.0
1499, 0.0
1500, 0.0
1501, 0.0
1502, 0.0
1503, 0.0
1504, 0.0
1505, 0.0
1506, 0.0
1507, 0.0
1508, 0.0
1509, 0.0
1510, 0.0
1511, 0.0
1512, 0.0
1513, 0.0
1514, 0.0
1515, 0.0
1516, 0.0
1517, 0.0
1518, 0.0
1519, 0.0
1520, 0.0
1521, 0.0
1522, 0.0
1523, 0.0
1524, 0.0
1525, 0.0
1526, 0.0
1527, 0.0
1528, 0.0
1529, 0.0
1530, 0.0
1531, 0.0
1532, 0.0
1533, 0.0
1534, 0.0
1535, 0.0
1536, 0.0
1537, 0.0
1538, 0.0
1539, 0.0
1540, 0.0
1541, 0.0
1542, 0.0
1543, 0.0
1544, 0.0
1545, 0.0
1546, 0.0
1547, 0.0
1548, 0.0
1549, 0.0
1550, 0.0
1551, 0.0
1552, 0.0
1553, 0.0
1554, 0.0
1555, 0.0
1556, 0.0
1557, 0.0
1558, 0.0
1559, 0.0
1560, 0.0
1561, 0.0
1562, 0.0
1563, 0.0
1564, 0.0
1565, 0.0
1566, 0.0
1567, 0.0
1568, 0.0
1569, 0.0
1570, 0.0
1571, 0.0
1572, 0.0
1573, 0.0
1574, 0.0
1575, 0.0
1576, 0.0
1577, 0.0
1578, 0.0
1579, 0.0
1580, 0.0
1581, 0.0
1582, 0.0
1583, 0.0
1584, 0.0
1585, 0.0
1586, 0.0
1587, 0.0
1588, 0.0
1589, 0.0
1590, 0.0
1591, 0.0
1592, 0.0
1593, 0.0
1594, 0.0
1595, 0.0
1596, 0.0
1597, 0.0
1598, 0.0
1599, 0.0
