30, 0.0
31, 0.0
32, 0.0
33, 0.0
34, 0.0
35, 0.0
36, 0.0
37, 0.0
38, 0.0
39, 0.0
40, 0.0
41, 0.0
42, 0.0
43, 0.0
44, 0.0
45, 0.0
46, 0.0
47, 0.0
48, 0.0
49, 0.0
50.0, 0.00033311670281553824
51.0, 0.0007624912619188988
52.0, 0.0008818986492651628
53.0, 0.0009530780609208526
54.0, 0.0020064031200394006
55.0, 0.004261579979334431
56.0, 0.0039162307757509215
57.0, 0.0047801673660715725
58.0, 0.006340870755506522
59.0, 0.007906995931082248
60.0, 0.008443107140130255
61.0, 0.009387348761269685
62.0, 0.011108049220171652
63.0, 0.012584004632666608
64.0, 0.014656076462329743
65.0, 0.016642109771620714
66.0, 0.01730836483375393
67.0, 0.017590300338133497
68.0, 0.017412443047083618
69.0, 0.016753763213119832
70.0, 0.01612289948293298
71.0, 0.014721726688304054
72.0, 0.013530692594709941
73.0, 0.014179404613356499
74.0, 0.013780420254617195
75.0, 0.012680045256627566
76.0, 0.01104671793686593
77.0, 0.01065557724876797
78.0, 0.010090995702391798
79.0, 0.00908912956413506
80.0, 0.007143883145298669
81.0, 0.00572783714440675
82.0, 0.004181210857818757
83.0, 0.002485373839198019
84.0, 0.0016079180137589253
85.0, 0.0009978639824011505
86.0, 0.0006862077909681143
87.0, 0.000801269373232
88.0, 0.0016487613872900285
89.0, 0.001782095002192692
90.0, 0.0012531417273731681
91.0, 0.0017073627831968028
92.0, 0.0010909944398919977
93.0, 0.0005124128970647636
94.0, 0.0009075277728295113
95.0, 0.0012367398406763336
96.0, 0.0022027389323967966
97.0, 0.0035648955995509013
98.0, 0.003950085023891037
99.0, 0.005792749344959979
100.0, 0.007601590660502666
101.0, 0.008465701166949832
102.0, 0.009865872726205318
103.0, 0.011521263613595626
104.0, 0.013066468128281833
105.0, 0.01330798415801114
106.0, 0.014956323876667638
107.0, 0.016353677853511394
108.0, 0.016808291502564097
109.0, 0.020718016058894832
110.0, 0.026037905392044553
111.0, 0.030714526194667618
112.0, 0.030047841028826572
113.0, 0.03762830294556797
114.0, 0.03924456675261443
115.0, 0.0315150132738054
116.0, 0.02983524712309614
117.0, 0.029065894839325597
118.0, 0.029843326977904202
119.0, 0.03352564980241953
120.0, 0.032371308487443996
121.0, 0.030992276942957572
122.0, 0.030255396226656052
123.0, 0.031256743098793054
124.0, 0.02832975115442386
125.0, 0.02531366842328355
126.0, 0.025380664786485752
127.0, 0.025833551652005664
128.0, 0.025504997585081634
129.0, 0.02458417113627379
130.0, 0.024050134445400353
131.0, 0.024824145115167267
132.0, 0.025174884719490812
133.0, 0.02423239023001106
134.0, 0.023291799369685593
135.0, 0.023016801795056052
136.0, 0.023022112840761402
137.0, 0.022521394916337166
138.0, 0.02360064533429199
139.0, 0.023879455765396223
140.0, 0.022822502954974296
141.0, 0.02208346259735859
142.0, 0.02149249037850978
143.0, 0.02085227844665324
144.0, 0.01991997863050675
145.0, 0.02056787634062109
146.0, 0.021191122484091437
147.0, 0.021708983569234723
148.0, 0.022667088393676982
149.0, 0.022352969964056085
150.0, 0.021676198641284016
151.0, 0.021106283943970492
152.0, 0.01993996134788087
153.0, 0.019657479206827692
154.0, 0.019788816861580818
155.0, 0.019211671586862763
156.0, 0.01961971162423393
157.0, 0.019626870231964015
158.0, 0.01895165678197246
159.0, 0.019370205398479147
160.0, 0.018538849966267378
161.0, 0.017350281937592325
162.0, 0.016726669006742884
163.0, 0.017365529745463622
164.0, 0.018126238120597268
165.0, 0.018630142801843642
166.0, 0.017643732890317367
167.0, 0.017103616885176295
168.0, 0.01681243971654881
169.0, 0.01670070927973938
170.0, 0.016226226249085457
171.0, 0.0164600910584885
172.0, 0.016954022854142197
173.0, 0.01689366106810552
174.0, 0.016208374148635317
175.0, 0.015628708909318195
176.0, 0.015275971387472071
177.0, 0.014901768391825054
178.0, 0.01498064944950221
179.0, 0.014953512680142805
180.0, 0.014361713609304126
181.0, 0.014677255251589591
182.0, 0.014740891303885449
183.0, 0.014655590629572182
184.0, 0.01484434574084149
185.0, 0.014755519579449728
186.0, 0.01418869361129725
187.0, 0.013184819511665427
188.0, 0.01369274963345304
189.0, 0.013654318850022221
190.0, 0.013669022948122913
191.0, 0.014398058523089393
192.0, 0.014498019782008403
193.0, 0.014429427307409015
194.0, 0.014101860423477655
195.0, 0.01297847446551306
196.0, 0.013188588125181169
197.0, 0.013398100840684943
198.0, 0.013093648725610132
199.0, 0.01241465317459765
200.0, 0.012813657193128443
201.0, 0.013388727975538266
202.0, 0.013002901332846687
203.0, 0.012264057293719554
204.0, 0.01260056701676539
205.0, 0.013622321962932619
206.0, 0.012993445518355046
207.0, 0.013372196572102807
208.0, 0.013574891348304986
209.0, 0.013127693542677892
210.0, 0.01387420822464685
211.0, 0.014643258243833538
212.0, 0.015460379298259715
213.0, 0.01637124582475017
214.0, 0.017745325211730965
215.0, 0.019107667810089345
216.0, 0.020561626829242962
217.0, 0.022820874606697652
218.0, 0.02364960169599679
219.0, 0.025502760316078035
220.0, 0.02929652250563035
221.0, 0.028738530973390373
222.0, 0.030239620696287956
223.0, 0.0320642124206886
224.0, 0.032036470949241794
225.0, 0.03233980054868599
226.0, 0.03182686942062028
227.0, 0.030574616090245275
228.0, 0.029237603259248336
229.0, 0.027762704842373174
230.0, 0.026022517438741
231.0, 0.024013058244812563
232.0, 0.022812994937081343
233.0, 0.02212513116264154
234.0, 0.02119312362487164
235.0, 0.019171038957973258
236.0, 0.018149671631595244
237.0, 0.017803360663290694
238.0, 0.017555165676503254
239.0, 0.0157881448077514
240.0, 0.014728689805115762
241.0, 0.014399086496627574
242.0, 0.01468992528112194
243.0, 0.014173832808691247
244.0, 0.012992027887225305
245.0, 0.011989368012019677
246.0, 0.01183308769619511
247.0, 0.011504015621414121
248.0, 0.010804663468685142
249.0, 0.009882089044298789
250.0, 0.00900664769760857
251.0, 0.008165526946288089
252.0, 0.008360567674205292
253.0, 0.00918969833620992
254.0, 0.007358864330203738
255.0, 0.0067602446553189175
256.0, 0.007357829826688318
257.0, 0.009121077528689209
258.0, 0.007991671428396296
259.0, 0.007132901223753911
260.0, 0.0068096544369008714
261.0, 0.0074468264434457265
262.0, 0.0074635044912957065
263.0, 0.007623860158463769
264.0, 0.007718370495315727
265.0, 0.006889126295389789
266.0, 0.005817849448977837
267.0, 0.005665184799018709
268.0, 0.0065598382814715875
269.0, 0.006519056935316621
270.0, 0.005978491814659625
271.0, 0.00578272096188475
272.0, 0.0065294679951517
273.0, 0.0057829405557644495
274.0, 0.005170282875468874
275.0, 0.004999208179921595
276.0, 0.005820939688445812
277.0, 0.005357859975241861
278.0, 0.004925685238134837
279.0, 0.00473500518813108
280.0, 0.004992648831460826
281.0, 0.005349967301370564
282.0, 0.005775007991967048
283.0, 0.006229286579128337
284.0, 0.006389624969462558
285.0, 0.005796496222686369
286.0, 0.005382872347090716
287.0, 0.005839520793849734
288.0, 0.007494553554320177
289.0, 0.0076280217083671996
290.0, 0.007393403793633731
291.0, 0.008647949809493925
292.0, 0.008516044151186362
293.0, 0.008728596257577185
294.0, 0.009418382403178289
295.0, 0.010377070047608275
296.0, 0.012237461044944376
297.0, 0.014862158051244094
298.0, 0.017982453996915188
299.0, 0.01943321730837166
300.0, 0.022354916487283712
301.0, 0.02569567132526319
302.0, 0.028819932677211658
303.0, 0.029898250286019164
304.0, 0.030638619999725593
305.0, 0.03009299099160541
306.0, 0.026853596582354852
307.0, 0.026095635472292267
308.0, 0.02419580819757715
309.0, 0.02129276897481859
310.0, 0.01834810450770117
311.0, 0.01814175920980854
312.0, 0.017449627403722617
313.0, 0.016291641178056936
314.0, 0.0184592962855011
315.0, 0.018457497602422254
316.0, 0.01834694497539041
317.0, 0.018892863726402174
318.0, 0.018370060863607127
319.0, 0.01815874236985247
320.0, 0.018232946298795738
321.0, 0.01859957057902014
322.0, 0.01869880361178811
323.0, 0.020180088180606764
324.0, 0.02251480201406675
325.0, 0.024936537865118936
326.0, 0.028645618114610853
327.0, 0.029504008639999732
328.0, 0.0283736145943257
329.0, 0.028742413002768412
330.0, 0.02785946397718518
331.0, 0.026152692858937315
332.0, 0.02401178508376304
333.0, 0.02310354908916908
334.0, 0.023101286776430866
335.0, 0.023538960676897362
336.0, 0.024259814795135195
337.0, 0.025524442508201694
338.0, 0.025267419345927473
339.0, 0.02455149986390321
340.0, 0.024130087698281344
341.0, 0.022746902685021903
342.0, 0.02028780809801472
343.0, 0.01761614115922232
344.0, 0.015858601075344515
345.0, 0.014655250319186573
346.0, 0.01278847258467082
347.0, 0.010581004233169034
348.0, 0.008899454361063135
349.0, 0.008563588851100788
350.0, 0.007740842166548879
351.0, 0.006530470559799693
352.0, 0.006416227373924289
353.0, 0.006844294790421159
354.0, 0.006283461091560016
355.0, 0.004697854751659812
356.0, 0.005048731034556589
357.0, 0.003889024082162727
358.0, 0.004022241405458787
359.0, 0.00650039502811588
360.0, 0.0055865926544002
361.0, 0.0051460202506532216
362.0, 0.00514065807407736
363.0, 0.0055799023816378475
364.0, 0.008988350907193594
365.0, 0.010564070795871391
366.0, 0.011714124964561817
367.0, 0.0141312906361866
368.0, 0.015768006763768345
369.0, 0.017859296104641716
370.0, 0.01980124836745675
371.0, 0.020330654333319816
372.0, 0.02046599129957078
373.0, 0.019298029843763144
374.0, 0.017548570195564044
375.0, 0.017532499867710476
376.0, 0.0151371321741635
377.0, 0.012071483792945176
378.0, 0.009271444597665428
379.0, 0.00930587455278249
380.0, 0.0062022636974826025
381.0, 0.004620024995995894
382.0, 0.005334241184298984
383.0, 0.003126297862880866
384.0, 0.0034873840139281282
385.0, 0.003968859875241543
386.0, 0.003476462566047785
387.0, 0.0025889901319942985
388.0, 0.0025278202810479658
389.0, 0.0021994401336675354
390.0, 0.0009134991039034669
391.0, 0.0005244583927829313
392.0, 0.0010349059409590243
393.0, 0.0017087921120477357
394.0, 0.0018684075076253867
395.0, 0.0007720637572758455
396.0, 0.0008290779676895009
397.0, 0.0011022917237713786
398.0, 0.0003398247749352364
399.0, 0.0012624303922648258
400.0, 0.0015764874541735118
401.0, 0.0015617718027890954
402.0, 0.0018980821681610642
403.0, 0.0036284432054856266
404.0, 0.005201791995388053
405.0, 0.0066234586854755795
406.0, 0.008258592740472146
407.0, 0.00984983525902797
408.0, 0.010185976532871642
409.0, 0.00932829291482899
410.0, 0.007967620478079413
411.0, 0.008156813963300041
412.0, 0.007568165956056619
413.0, 0.006309683304790908
414.0, 0.006847995647207059
415.0, 0.006524945097567167
416.0, 0.005656163350377198
417.0, 0.004848823552544341
418.0, 0.006939685981759669
419.0, 0.006691191859551108
420.0, 0.006384854794560317
421.0, 0.00668878516594158
422.0, 0.0064804816242032895
423.0, 0.005639413013366653
424.0, 0.00497809611250983
425.0, 0.004817948244017298
426.0, 0.0046350149444761455
427.0, 0.003912903537365901
428.0, 0.004332263937346324
429.0, 0.006569824191057582
430.0, 0.006386929680382949
431.0, 0.0075583301533529886
432.0, 0.0077748620023477
433.0, 0.005688217728660784
434.0, 0.005931242284540099
435.0, 0.006736100921017692
436.0, 0.006767566139286241
437.0, 0.00503235235349393
438.0, 0.004474127152489196
439.0, 0.00494120742766058
440.0, 0.005164271864056507
441.0, 0.004004403441084775
442.0, 0.0028936831540308616
443.0, 0.002901868834663806
444.0, 0.0025117538131313047
445.0, 0.00014702442791499851
446.0, 0.00032119111251641217
447.0, 0.0002671347125228476
448.0, 0.00013715382759367666
449.0, 0.0001422993162185316
450.0, 0.0005644420301865393
451.0, 0.0005817765507134973
452.0, 0.00042308888147630987
453.0, 0.00040017263213732167
454.0, 0.0004662521933631469
455.0, 0.00041342969492989953
456.0, 0.00040038771337396514
457.0, 0.0006606680132710282
458.0, 0.0006894123829278755
459.0, 0.00045985457794311567
460.0, 0.00039431483291989256
461.0, 0.0011301178463231608
462.0, 0.00038397040610032966
463.0, 0.0002574100326408813
464.0, 0.0005624182103232975
465.0, 0.0008311637298398301
466.0, 0.0006504986933838457
467.0, 0.0003805514960628457
468.0, 0.00029915174605606534
469.0, 0.0008287244576504003
470.0, 0.0010341597696770116
471.0, 0.0007987949136312392
472.0, 0.0005468334555485678
473.0, 0.000999422088967719
474.0, 0.0018608452869212453
475.0, 0.0014931123159943412
476.0, 0.0006421771586283562
477.0, 0.0007423495308004407
478.0, 0.0007658087221608254
479.0, 0.001342385086318047
480.0, 0.0017272057332801051
481.0, 0.0005876233288341604
482.0, 0.0006487549010401135
483.0, 0.001272491190808813
484.0, 0.0015727767978729686
485.0, 0.00016177766980003064
486.0, 0.0016318104432620783
487.0, 0.0018726982988858773
488.0, 0.0013048737633646968
489.0, 0.0009941728273169534
490.0, 0.000346997577614684
491.0, 0.0003547101364747378
492.0, 0.0008230979873808423
493.0, 0.0013890058433892254
494.0, 0.000633358429583937
495.0, 0.0003628316769044978
496.0, 0.0003278848310473157
497.0, 5.671599525780487e-05
498.0, 0.0006951379672998466
499.0, 0.0005976190029943352
500.0, 0.00016758599916509047
501.0, 6.5298273176496e-06
502.0, 0.0009198676390569102
503.0, 0.000791017464552217
504.0, 0.0004697158433146659
505.0, 0.0010185723449298318
506.0, 0.00046489279846178254
507.0, 0.0002543794591119683
508.0, 0.0005915215727336187
509.0, 0.0016639266291283816
510.0, 0.0014183017474331463
511.0, 0.0006715731728728868
512.0, 0.0005521255039652452
513.0, 0.0020584927280523943
514.0, 0.0020719111243672267
515.0, 0.0033818498550015493
516.0, 0.003769112628795445
517.0, 0.0016716241656221287
518.0, 0.003766294412321786
519.0, 0.004706595776931484
520.0, 0.004304689936871508
521.0, 0.0026379937179866354
522.0, 0.0032333682822581
523.0, 0.003470347099206259
524.0, 0.003467147290013002
525.0, 0.0034164986144072586
526.0, 0.004663634332926781
527.0, 0.005620467845057438
528.0, 0.006355951858527785
529.0, 0.006919266900751101
530.0, 0.007451139460788133
531.0, 0.007406198914155069
532.0, 0.007685942563097145
533.0, 0.008577191095834867
534.0, 0.009608213389834185
535.0, 0.011365438296399634
536.0, 0.013866925638521202
537.0, 0.017482266277873255
538.0, 0.023799252713953216
539.0, 0.024506554908948288
540.0, 0.028063272891320715
541.0, 0.035050900739701844
542.0, 0.04027661038086283
543.0, 0.04274129671539786
544.0, 0.04332185942000989
545.0, 0.04186114541443217
546.0, 0.037478952424623575
547.0, 0.033083968445278514
548.0, 0.027618363753581468
549.0, 0.02229030053670436
550.0, 0.01975010040982004
551.0, 0.01664366272113667
552.0, 0.013668292610641413
553.0, 0.011207526020274137
554.0, 0.009749669200088474
555.0, 0.007258929574464272
556.0, 0.005793286746627098
557.0, 0.005849395346362931
558.0, 0.007856707797887991
559.0, 0.006260613792513445
560.0, 0.005531034826985262
561.0, 0.00568347727451654
562.0, 0.006597250130541501
563.0, 0.00566144751121676
564.0, 0.00512905887240616
565.0, 0.004926014217992485
566.0, 0.0050883208887234615
567.0, 0.0064390873807457834
568.0, 0.0066816905484647785
569.0, 0.006028736753211825
570.0, 0.005195250327692511
571.0, 0.00789570123435409
572.0, 0.007531221741644582
573.0, 0.008479820001748566
574.0, 0.01091285321880415
575.0, 0.010200610851706234
576.0, 0.01090046839714682
577.0, 0.012948592204856342
578.0, 0.015337053804854554
579.0, 0.015515268709128007
580.0, 0.01911402204981276
581.0, 0.02122833207753311
582.0, 0.023269262105678395
583.0, 0.028746656673553327
584.0, 0.03212012450423179
585.0, 0.03525187076721931
586.0, 0.03901191579203345
587.0, 0.044289901911586285
588.0, 0.05086680605977299
589.0, 0.05676518064638757
590.0, 0.060264663517488895
591.0, 0.06005784993630236
592.0, 0.057171017000588714
593.0, 0.05364272670375972
594.0, 0.049260182906346796
595.0, 0.043874666360046256
596.0, 0.037261014048621546
597.0, 0.031798979165256674
598.0, 0.02730982902075972
599.0, 0.023755670256323243
600.0, 0.0212300133442898
601.0, 0.01940914580388424
602.0, 0.01871767992180358
603.0, 0.01868479363448443
604.0, 0.01793776277749362
605.0, 0.018859939476350188
606.0, 0.019491067171936223
607.0, 0.019364469492450798
608.0, 0.0181027878438776
609.0, 0.01813515819274256
610.0, 0.017153411063492205
611.0, 0.015879279002468195
612.0, 0.015108263947232125
613.0, 0.015151491140541607
614.0, 0.013432478260120718
615.0, 0.012292138736265196
616.0, 0.012685119856489626
617.0, 0.010679665593156295
618.0, 0.009295821416211597
619.0, 0.008553941822504886
620.0, 0.008158728413740062
621.0, 0.00689010484758013
622.0, 0.006785119336092954
623.0, 0.0077135226909689275
624.0, 0.00882713002929335
625.0, 0.008252918886108023
626.0, 0.008695752056768861
627.0, 0.007428313770931848
628.0, 0.0067000532673761526
629.0, 0.009788240977487253
630.0, 0.008520896880741315
631.0, 0.006395245580924223
632.0, 0.00499894730231259
633.0, 0.005292087615794869
634.0, 0.0034137018597909497
635.0, 0.003532300760915334
636.0, 0.0036891970247247712
637.0, 0.0030347992032340285
638.0, 0.0019180256066448909
639.0, 0.0032159893821394163
640.0, 0.0033546303792578603
641.0, 0.0024671769431910415
642.0, 0.003242491606553606
643.0, 0.003927893167326925
644.0, 0.0032606817168994396
645.0, 0.0028166082784089855
646.0, 0.005028858622670621
647.0, 0.0035929146497280778
648.0, 0.0038982674663500462
649.0, 0.004150578531689029
650.0, 0.003117650530220111
651.0, 0.004659214571821144
652.0, 0.004844662030543433
653.0, 0.004090614663466942
654.0, 0.0030565513217814403
655.0, 0.003910394795826092
656.0, 0.0025599607531639934
657.0, 0.0021173109067656073
658.0, 0.0027252167986810422
659.0, 0.0031144454272544276
660.0, 0.0018615988068552487
661.0, 0.0013775209318459408
662.0, 0.0014399441625199728
663.0, 0.0015213525072267265
664.0, 0.0013287507008034475
665.0, 0.0014969553862614988
666.0, 0.0012471438984366446
667.0, 0.00027187294232222973
668.0, 8.791814377685355e-05
669.0, 0.0005416990110329968
670.0, 0.0009039923722408733
671.0, 0.0009320984296178463
672.0, 0.00062064450640771
673.0, 0.0017345500236004966
674.0, 0.001490885897511276
675.0, 0.00045235235053818967
676.0, 9.168082646353917e-05
677.0, 0.00010883758266989286
678.0, 0.0005210056558781116
679.0, 0.0007230805652956051
680.0, 0.00030489511636113076
681.0, 0.00010075969667607734
682.0, 8.744549883581536e-05
683.0, 0.0005709852121540035
684.0, 0.0013899549721857996
685.0, 0.001495944513662306
686.0, 0.0025061666104264006
687.0, 0.002464157800051791
688.0, 0.0017427068672216804
689.0, 0.001558714801183264
690.0, 0.002148232198451348
691.0, 0.0019788687322186767
692.0, 0.0017294068899765137
693.0, 0.001864383660961835
694.0, 0.00042458954199531013
695.0, 0.00032912680391931524
696.0, 0.0006527979673148848
697.0, 0.0008226171435099186
698.0, 0.00013971590046858923
699.0, 0.00030779909592556484
700.0, 0.0005777029271019921
701.0, 0.0007157530193067264
702.0, 0.0005483732374475765
703.0, 0.00020325456515042281
704.0, 0.00014521556816139757
705.0, 0.000456455010143488
706.0, 0.0010121984000837638
707.0, 0.0001991127119811895
708.0, 0.00026834201672193495
709.0, 0.00063138425031778
710.0, 0.0008837260990058437
711.0, 0.00043245702207090513
712.0, 0.0011220440385957197
713.0, 0.0011789656654233663
714.0, 0.0007694529753399428
715.0, 0.0004532523292074798
716.0, 0.00051317104844254
717.0, 0.0017160439462187086
718.0, 0.0019263647868321934
719.0, 0.0003137424410552206
720.0, 0.0002954612760682041
721.0, 0.0003411559534434845
722.0, 0.0008673090792591751
723.0, 0.0018379072033878432
724.0, 0.0029075074199009787
725.0, 0.0008590137497544443
726.0, 0.0015542355444195977
727.0, 0.0026496037053714847
728.0, 0.001543784236871177
729.0, 0.0013427955583225795
730.0, 0.003236450980014262
731.0, 0.0034409363449352188
732.0, 0.001807862198321164
733.0, 0.004070242632110454
734.0, 0.0041389579419645285
735.0, 0.003209330126305412
736.0, 0.0031199915102208785
737.0, 0.006200403125865865
738.0, 0.002312975026309811
739.0, 0.002179386078901174
740.0, 0.0036625483169900287
741.0, 0.0048401782632789755
742.0, 0.0031052856209791125
743.0, 0.004460609218218623
744.0, 0.00402738190452199
745.0, 0.002686057312509153
746.0, 0.004822813780642754
747.0, 0.00586490326341216
748.0, 0.005144662532450452
749.0, 0.004829154256069
750.0, 0.006473961310711771
751.0, 0.006426807672274348
752.0, 0.006111637691873351
753.0, 0.0055304285474861705
754.0, 0.005030440506583717
755.0, 0.005555359848933875
756.0, 0.005039700398037213
757.0, 0.004629340526837584
758.0, 0.004497281550868693
759.0, 0.004735081077283562
760.0, 0.005884164845295694
761.0, 0.006775691391808314
762.0, 0.00804384874249544
763.0, 0.009158875870660409
764.0, 0.007366965011561394
765.0, 0.008982476873284486
766.0, 0.009171739185316687
767.0, 0.008411616655348137
768.0, 0.008249508544659404
769.0, 0.011823814851627094
770.0, 0.010653569015475749
771.0, 0.009542185143423025
772.0, 0.010599163103787652
773.0, 0.01235104331652695
774.0, 0.010266575479677046
775.0, 0.010606828394564663
776.0, 0.011517664960790016
777.0, 0.009281778101069475
778.0, 0.012233216217343119
779.0, 0.01340742326262001
780.0, 0.013491006682896376
781.0, 0.01350517646035802
782.0, 0.016015262508738276
783.0, 0.014118586909538804
784.0, 0.013744181489201967
785.0, 0.015006087496854566
786.0, 0.01656208758154558
787.0, 0.0172462918131758
788.0, 0.018083638287421416
789.0, 0.018941715165324995
790.0, 0.01965018084705582
791.0, 0.019812176299126613
792.0, 0.020571029901047387
793.0, 0.02077426830931636
794.0, 0.02143336390202135
795.0, 0.024060860555082168
796.0, 0.026025216285139412
797.0, 0.026303804262756705
798.0, 0.027709235417999734
799.0, 0.03069299352171619
800.0, 0.031560757333044566
801.0, 0.034506679773244175
802.0, 0.03832561712578582
803.0, 0.04197222484034872
804.0, 0.044545845525005415
805.0, 0.0495263696592434
806.0, 0.05251367855904845
807.0, 0.05711567762364778
808.0, 0.06424273599989092
809.0, 0.07169026219518787
810.0, 0.07743237771226108
811.0, 0.087671247582538
812.0, 0.10045698088532738
813.0, 0.11330805754118449
814.0, 0.13076393958857827
815.0, 0.15423593566476235
816.0, 0.18200224732468964
817.0, 0.2156194850499961
818.0, 0.2602413235655856
819.0, 0.31002008257234226
820.0, 0.3841091008763637
821.0, 0.46692593554967377
822.0, 0.5451053800679208
823.0, 0.6277439942654763
824.0, 0.6789978576604112
825.0, 0.6867018700636516
826.0, 0.6589221703344439
827.0, 0.6175451193773218
828.0, 0.546973806939608
829.0, 0.4710986253633642
830.0, 0.40465738857521727
831.0, 0.3532462724928889
832.0, 0.30157074156834884
833.0, 0.26968399769777107
834.0, 0.2440479281369682
835.0, 0.22248642074915992
836.0, 0.2051094392137854
837.0, 0.19755606792073543
838.0, 0.1895509499703793
839.0, 0.18591979296182343
840.0, 0.18741031272968395
841.0, 0.19021841023927843
842.0, 0.1947965891863962
843.0, 0.2052665164825375
844.0, 0.2182163017724203
845.0, 0.23177372130983626
846.0, 0.25869265728542035
847.0, 0.2931144117421547
848.0, 0.3309088817325996
849.0, 0.3781147803678289
850.0, 0.4463722093339348
851.0, 0.5237767538414733
852.0, 0.6192999271110563
853.0, 0.7232839426032779
854.0, 0.8231405632823767
855.0, 0.8942983787358064
856.0, 0.9709460242880178
857.0, 0.986582391560837
858.0, 0.9526587030869611
859.0, 0.8935077180424024
860.0, 0.8089768059249999
861.0, 0.686520477468249
862.0, 0.5826518426204919
863.0, 0.5052614819304355
864.0, 0.4318022822158904
865.0, 0.3541826005519806
866.0, 0.30495731259836084
867.0, 0.2640065929372245
868.0, 0.22143247781041156
869.0, 0.19437555235978912
870.0, 0.17315725378175223
871.0, 0.14953982801894816
872.0, 0.1307013388377548
873.0, 0.1239001092323139
874.0, 0.10674305072546211
875.0, 0.0998229349392197
876.0, 0.09393066076464401
877.0, 0.08666801816414778
878.0, 0.07940132151795248
879.0, 0.07967322361675366
880.0, 0.07723509038624743
881.0, 0.0746481009664834
882.0, 0.07361011514438565
883.0, 0.07408115141503305
884.0, 0.0704373883413857
885.0, 0.06565731050752138
886.0, 0.060350292715483596
887.0, 0.054851349504187415
888.0, 0.04962553894050959
889.0, 0.04634699785138595
890.0, 0.042379803272630016
891.0, 0.03882130422990628
892.0, 0.03854078163245243
893.0, 0.03518042341187492
894.0, 0.030637645016315353
895.0, 0.029390591199476547
896.0, 0.030828494588652465
897.0, 0.026937625997382524
898.0, 0.02727374851948087
899.0, 0.029940382150593952
900.0, 0.030554424626775472
901.0, 0.02747387994901456
902.0, 0.029936363214029156
903.0, 0.02950794564545072
904.0, 0.02739841918349479
905.0, 0.0267379998362724
906.0, 0.030450289588699924
907.0, 0.031141565496406048
908.0, 0.03382191931483445
909.0, 0.03686369713476817
910.0, 0.03980198441998286
911.0, 0.04279988832584233
912.0, 0.050009663468727525
913.0, 0.057029606557503366
914.0, 0.06750589311497071
915.0, 0.08307168464665328
916.0, 0.10286705583493541
917.0, 0.12629616705123034
918.0, 0.16070370925668956
919.0, 0.19016791876035083
920.0, 0.2030848630206687
921.0, 0.20666106028192782
922.0, 0.18652059611833424
923.0, 0.15368431227362164
924.0, 0.1202461341519568
925.0, 0.09690090940698515
926.0, 0.07396982780782818
927.0, 0.05869649108075702
928.0, 0.050437704715741626
929.0, 0.044325411908349335
930.0, 0.033397759777876776
931.0, 0.033911227992434796
932.0, 0.033166655801403946
933.0, 0.030900780094763835
934.0, 0.028428266104192263
935.0, 0.02889000941326468
936.0, 0.027821195309154723
937.0, 0.027436510320643127
938.0, 0.028264504968862396
939.0, 0.029789626365438887
940.0, 0.029481934717840604
941.0, 0.03243075041745777
942.0, 0.031986304048528015
943.0, 0.03210851620776607
944.0, 0.03554240349879662
945.0, 0.03763096888635768
946.0, 0.037513456425466926
947.0, 0.042480586126989496
948.0, 0.04905066339027097
949.0, 0.05231381487857799
950.0, 0.05270052415032433
951.0, 0.05981473369882201
952.0, 0.06579842167965959
953.0, 0.07115258913582787
954.0, 0.07883992682186843
955.0, 0.08524754691319275
956.0, 0.09221396078495335
957.0, 0.10103183982544187
958.0, 0.10907987565640025
959.0, 0.11161815208759897
960.0, 0.12198539328405339
961.0, 0.12912632306979344
962.0, 0.12938801871295696
963.0, 0.12571873387849375
964.0, 0.1276440767376219
965.0, 0.11384819831971844
966.0, 0.10882472626682915
967.0, 0.10398742035608574
968.0, 0.09421139664930052
969.0, 0.0791322629623645
970.0, 0.07436756966381976
971.0, 0.06613089462503739
972.0, 0.05575203233935916
973.0, 0.04622562995079415
974.0, 0.042936697739465506
975.0, 0.0358976643554679
976.0, 0.030766038058543343
977.0, 0.027076905704164007
978.0, 0.02362382674294495
979.0, 0.018646855245548762
980.0, 0.01706817748788518
981.0, 0.014990599114207932
982.0, 0.011997753794694376
983.0, 0.009255652809264376
984.0, 0.012445540577371204
985.0, 0.007718040882646713
986.0, 0.006190315968952437
987.0, 0.007488789876752836
988.0, 0.00865385350526828
989.0, 0.004934733518364633
990.0, 0.006082437664769899
991.0, 0.005115780645421323
992.0, 0.0035845247418094164
993.0, 0.004237849100232446
994.0, 0.0037864400889131298
995.0, 0.001767916027271253
996.0, 0.002575070278509018
997.0, 0.004118616453350494
998.0, 0.0031921179133218487
999.0, 0.004269288201851153
1000.0, 0.00521358260132497
1001.0, 0.005116187395541833
1002.0, 0.006141032050145965
1003.0, 0.010469507557531963
1004.0, 0.009484969310970119
1005.0, 0.007526664493435837
1006.0, 0.006163432164835144
1007.0, 0.0048245239430648925
1008.0, 0.002588578402052572
1009.0, 0.004367668428006304
1010.0, 0.003159163162425512
1011.0, 0.001688732661430388
1012.0, 0.0014718193076901779
1013.0, 0.0031048889659001833
1014.0, 0.001935085165417721
1015.0, 0.0006118165693566452
1016.0, 0.001241073959251489
1017.0, 0.002250251907824575
1018.0, 0.0010585397339836285
1019.0, 0.004186203659648856
1020.0, 0.004053232840014774
1021.0, 0.0022235094272171235
1022.0, 0.0019401435731977823
1023.0, 0.006207037096260734
1024.0, 0.00493892944018206
1025.0, 0.0030060870966062327
1026.0, 0.0021912392983844003
1027.0, 0.0021938157932103707
1028.0, 0.0019546055155483734
1029.0, 0.0026146724929552753
1030.0, 0.003407721091355955
1031.0, 0.0020803470243628613
1032.0, 0.0011431670053222035
1033.0, 0.003803615964647985
1034.0, 0.0009317720249794202
1035.0, 0.0008040890024374889
1036.0, 0.0017986684983919826
1037.0, 0.00219898806037619
1038.0, 0.0009706616782055987
1039.0, 0.0031317456079953373
1040.0, 0.0025638526387675165
1041.0, 0.0016738713971299797
1042.0, 0.001880694418463752
1043.0, 0.003379050783629094
1044.0, 0.0004268613033007057
1045.0, 0.0025067496262099055
1046.0, 0.0024683379817056258
1047.0, 0.0012243661551984255
1048.0, 0.0013937172237802186
1049.0, 0.003319092839636663
1050.0, 0.0024459200652341916
1051.0, 0.003479454225230265
1052.0, 0.004586016814816021
1053.0, 0.0035947268149026743
1054.0, 0.002349418772727796
1055.0, 0.0022855640827620927
1056.0, 0.002537494918277178
1057.0, 0.00211503053042174
1058.0, 0.0009629405698518874
1059.0, 0.001820492946004016
1060.0, 0.001209706209512607
1061.0, 0.0007511657509175662
1062.0, 0.0005538301951001654
1063.0, 0.0005837870425390742
1064.0, 0.0008822509269719366
1065.0, 0.0013132048330699554
1066.0, 0.001901698748435732
1067.0, 0.0019499722253828449
1068.0, 0.001730572561529778
1069.0, 0.0031030176818899143
1070.0, 0.0010619223461940438
1071.0, 0.0030363335040621154
1072.0, 0.0030482684591072924
1073.0, 0.0005164409069126666
1074.0, 0.0011411824876798016
1075.0, 0.004581604152599537
1076.0, 0.0031455882610469353
1077.0, 0.0024488499399687408
1078.0, 0.003668970617329001
1079.0, 0.004445621653275588
1080.0, 0.0009526311176239791
1081.0, 0.003296052016683702
1082.0, 0.004753545652416001
1083.0, 0.004293525985306808
1084.0, 0.003918084095876486
1085.0, 0.0069998484817216005
1086.0, 0.003432644364935009
1087.0, 0.003791683529064555
1088.0, 0.005745192969224728
1089.0, 0.004282734843656991
1090.0, 0.0014901371392939703
1091.0, 0.003031359743144211
1092.0, 0.0029051677988600746
1093.0, 0.002406030612012332
1094.0, 0.0030397475365344937
1095.0, 0.0030643065954888945
1096.0, 0.0015390576461660488
1097.0, 0.0032311898466531913
1098.0, 0.0038542083913491137
1099.0, 0.0015948466659009594
1100.0, 0.00010159624578939775
1101.0, 0.0030865240617437076
1102.0, 0.0022702487888112115
1103.0, 0.0021820280239177392
1104.0, 0.003928529868951543
1105.0, 0.0048630259714585655
1106.0, 0.0016022733143983303
1107.0, 0.0027483442128854816
1108.0, 0.0031390894974124917
1109.0, 0.0023036463557638367
1110.0, 0.002278033642316633
1111.0, 0.00397201116903791
1112.0, 0.0015169265144891315
1113.0, 0.001029480353317728
1114.0, 0.0016387166097505033
1115.0, 0.001546837939884056
1116.0, 0.0036686064927312235
1117.0, 0.0038000770241383786
1118.0, 0.0017702115878666142
1119.0, 0.0003198479152927411
1120.0, 0.001237279224842039
1121.0, 0.003569970553946915
1122.0, 0.0029897882027372343
1123.0, 0.006182714762842805
1124.0, 0.007746871325154709
1125.0, 0.00571662643317601
1126.0, 0.0024550245657011124
1127.0, 0.005009287426927375
1128.0, 0.001973814509981119
1129.0, 0.00077721744719791
1130.0, 0.0031827329229789612
1131.0, 0.006720078810664108
1132.0, 0.0008340101548846178
1133.0, 0.003569116625314322
1134.0, 0.004242033391210968
1135.0, 0.0030517972974486284
1136.0, 0.0024102775316397302
1137.0, 0.0033723368701535812
1138.0, 0.0012353077252724753
1139.0, 0.0034767203764802853
1140.0, 0.005404507349074481
1141.0, 0.004075170325364344
1142.0, 0.0005655405122940932
1143.0, 0.006919216128432748
1144.0, 0.003618626757598648
1145.0, 0.002270732829519019
1146.0, 0.004307142704243401
1147.0, 0.0047211458620391245
1148.0, 0.0010295060386853907
1149.0, 0.0020653339222387493
1150.0, 0.00471240083883764
1151.0, 0.00522515596039844
1152.0, 0.00264859519824511
1153.0, 0.00495887467618878
1154.0, 0.003704169497187314
1155.0, 0.002808867784693113
1156.0, 0.003868300421742429
1157.0, 0.005431235804039654
1158.0, 0.00277141549329771
1159.0, 0.0016729917011629723
1160.0, 0.007351375771708336
1161.0, 0.007224639923155397
1162.0, 0.004379203853119187
1163.0, 0.007371454788419831
1164.0, 0.002629495252997016
1165.0, 0.0040533586146835904
1166.0, 0.005158423250855512
1167.0, 0.0047703642886970585
1168.0, 0.0037830292898395936
1169.0, 0.005139951948685252
1170.0, 0.005051278517529922
1171.0, 0.0020626454897400876
1172.0, 0.0024939690099209963
1173.0, 0.005615763454740355
1174.0, 0.004774078169242018
1175.0, 0.0042152600416235616
1176.0, 0.006268627797153039
1177.0, 0.004492204184343393
1178.0, 0.002637281963973384
1179.0, 0.004712838462249431
1180.0, 0.003166046062890439
1181.0, 0.0023561753428703756
1182.0, 0.004479975157741232
1183.0, 0.004118021736650374
1184.0, 0.001215821013883029
1185.0, 0.002958029647117495
1186.0, 0.005817142381897791
1187.0, 0.002554783884167303
1188.0, 0.0020455714331368787
1189.0, 0.003714872321446279
1190.0, 0.0034194151610012326
1191.0, 0.001712586164847994
1192.0, 0.005516334010339987
1193.0, 0.004730237579583007
1194.0, 0.0020031862899675067
1195.0, 0.0008935750784716399
1196.0, 0.0031535520593936233
1197.0, 0.003316076786036016
1198.0, 0.0029691763593311282
1199.0, 0.0032636915790665226
1200.0, 0.0029212538533114
1201.0, 0.0014279358548535325
1202.0, 0.009146556989560906
1203.0, 0.00418870973653682
1204.0, 0.004596645096459489
1205.0, 0.007914238760917635
1206.0, 0.008989828481604486
1207.0, 0.004238477645470528
1208.0, 0.006772867907581043
1209.0, 0.007717158659595632
1210.0, 0.004676893268866454
1211.0, 0.002363581344310683
1212.0, 0.006196121963220691
1213.0, 0.007143272916154874
1214.0, 0.003610481055057499
1215.0, 0.006852058835832042
1216.0, 0.008579855273618125
1217.0, 0.006103581549400932
1218.0, 0.008072520397232738
1219.0, 0.006398660153049493
1220.0, 0.005762701280525276
1221.0, 0.006531411747743334
1222.0, 0.0068646274839984575
1223.0, 0.005374297996473583
1224.0, 0.006093041723049439
1225.0, 0.008672504325788394
1226.0, 0.005860936942590637
1227.0, 0.005436823304877283
1228.0, 0.00826703097496464
1229.0, 0.006565264656612831
1230.0, 0.004436385887643037
1231.0, 0.007731176040448478
1232.0, 0.0074143392180097255
1233.0, 0.005373182402169018
1234.0, 0.006029017240467182
1235.0, 0.010548107755274167
1236.0, 0.005792145190204565
1237.0, 0.007464725437960507
1238.0, 0.00858019276184197
1239.0, 0.0071956447103852786
1240.0, 0.006568104344601994
1241.0, 0.011590224450986855
1242.0, 0.008640290264132891
1243.0, 0.005678149985180949
1244.0, 0.00641950950926217
1245.0, 0.009495659242434392
1246.0, 0.007285381003583672
1247.0, 0.008966044452034787
1248.0, 0.007959474146077864
1249.0, 0.006275046138164967
1250.0, 0.006121291551127287
1251.0, 0.008029514671642937
1252.0, 0.0067287381427463995
1253.0, 0.006605243200382393
1254.0, 0.008487842694669038
1255.0, 0.00776752099494198
1256.0, 0.005828035820355279
1257.0, 0.008501194323241475
1258.0, 0.008524967320109844
1259.0, 0.0053776798912504664
1260.0, 0.007857640003187501
1261.0, 0.00956589976091898
1262.0, 0.0061890236148238395
1263.0, 0.0032339205223421976
1264.0, 0.008097956992652408
1265.0, 0.006150343549858348
1266.0, 0.004538719068692485
1267.0, 0.00513623010957193
1268.0, 0.006176236395098627
1269.0, 0.0028545964191305294
1270.0, 0.008476876982768413
1271.0, 0.007721473423288353
1272.0, 0.00474516654209812
1273.0, 0.004662406102218575
1274.0, 0.00947700906375937
1275.0, 0.005416609160971305
1276.0, 0.005730369685814108
1277.0, 0.007034781111792419
1278.0, 0.005012837909389449
1279.0, 0.0025786469411693464
1280.0, 0.010218936313936883
1281.0, 0.008073403014097785
1282.0, 0.0031524717310518757
1283.0, 0.004688997074391755
1284.0, 0.00690508491663866
1285.0, 0.004189329659510393
1286.0, 0.001792051197279368
1287.0, 0.004800322154103249
1288.0, 0.0029397462988632085
1289.0, 0.0027529148067389187
1290.0, 0.004804175678059048
1291.0, 0.006042525887780997
1292.0, 0.0028347487232251805
1293.0, 0.005810436319165384
1294.0, 0.004158372307821368
1295.0, 0.0030381819733744575
1296.0, 0.00449193335287653
1297.0, 0.006553225994721826
1298.0, 0.0042576826436578254
1299.0, 0.005435004022672563
1300.0, 0.006177683395025913
1301.0, 0.005102977784702329
1302.0, 0.0037512009317774105
1303.0, 0.005263001621553933
1304.0, 0.0030746566999304563
1305.0, 0.001545233255265642
1306.0, 0.004943978255178515
1307.0, 0.006636693969363608
1308.0, 0.0034493149505021867
1309.0, 0.0010033287822722664
1310.0, 0.007407266249698433
1311.0, 0.004715168911153521
1312.0, 0.004638307970961208
1313.0, 0.006095156147761097
1314.0, 0.005080996237317812
1315.0, 0.0004650652870421407
1316.0, 0.006810984732231384
1317.0, 0.005400450989331316
1318.0, 0.0036987461555248627
1319.0, 0.004435888643434417
1320.0, 0.006290590085655323
1321.0, 0.003895367536630517
1322.0, 0.007253182886763087
1323.0, 0.00783991817750893
1324.0, 0.004364201147362697
1325.0, 0.002677998658921134
1326.0, 0.006670211050058693
1327.0, 0.004463375731707741
1328.0, 0.0011787363630298016
1329.0, 0.0030501209323518467
1330.0, 0.0031488701318087204
1331.0, 0.0015241636586266877
1332.0, 0.002025073292740277
1333.0, 0.005133109746151851
1334.0, 0.002265736899514275
1335.0, 0.0038566585963130786
1336.0, 0.004495685519148681
1337.0, 0.0030974405023819927
1338.0, 0.002513265959582318
1339.0, 0.006018913921367708
1340.0, 0.0018028516126143397
1341.0, 0.0002922728489255502
1342.0, 0.002077299028222051
1343.0, 0.0033960937897362688
1344.0, 0.0010053482782089597
1345.0, 0.004446602333567152
1346.0, 0.004325996394192789
1347.0, 0.0020660170708884365
1348.0, 0.002002407240535263
1349.0, 0.004512859715748922
1350.0, 0.006034541904733907
1351.0, 0.0004829943677213586
1352.0, 0.003837599395336224
1353.0, 0.0024747757428051913
1354.0, 0.0020444450830976947
1355.0, 0.003714262999890197
1356.0, 0.004035756645606385
1357.0, 0.0017262850440721515
1358.0, 0.0031508483179416027
1359.0, 0.003589214151104935
1360.0, 0.0020615297822972104
1361.0, 0.0025040815745872047
1362.0, 0.007890568567486052
1363.0, 0.003621541911455837
1364.0, 0.0038995894929724634
1365.0, 0.007233735357389841
1366.0, 0.005941641089640942
1367.0, 0.0024820465973576867
1368.0, 0.0038079595700232774
1369.0, 0.0049421178687467215
1370.0, 0.001552088574505034
1371.0, 0.003809955953788883
1372.0, 0.005537340267088646
1373.0, 0.004656039476137651
1374.0, 0.0032791299001453567
1375.0, 0.005279694996788947
1376.0, 0.0017030135294231201
1377.0, 0.0029666678212855904
1378.0, 0.00420759983697745
1379.0, 0.003381680837000731
1380.0, 0.0021400352796244497
1381.0, 0.005904914657180663
1382.0, 0.006186970557976689
1383.0, 0.00455456518134725
1384.0, 0.005660083031830251
1385.0, 0.0072739023229680694
1386.0, 0.005522590926781597
1387.0, 0.0007650405458134429
1388.0, 0.008484030391473031
1389.0, 0.005061545732024263
1390.0, 0.0036202115215518407
1391.0, 0.006787132743661154
1392.0, 0.009569527988798128
1393.0, 0.0032633329617949864
1394.0, 0.0073131058550990604
1395.0, 0.006002766870136502
1396.0, 0.0027471385044017713
1397.0, 0.0026555408119058165
1398.0, 0.005537506763623691
1399.0, 0.004492121026422128
1400.0, 0.0030046272016684733
1401.0, 0.007142155748288508
1402.0, 0.00497119323956731
1403.0, 0.0033595637628704164
1404.0, 0.005696665245253795
1405.0, 0.0072664292019568155
1406.0, 0.002103186872558143
1407.0, 0.003810628807877128
1408.0, 0.006166629275679394
1409.0, 0.004116419538942279
1410.0, 0.002302068870926601
1411.0, 0.006784798267036476
1412.0, 0.0020224883244746414
1413.0, 0.0031485356721325315
1414.0, 0.008009082955008105
1415.0, 0.005809925625334171
1416.0, 0.003015233223021668
1417.0, 0.007516689602803014
1418.0, 0.007002731634351946
1419.0, 0.0019050917719531713
1420.0, 0.003932128427173438
1421.0, 0.00564020404950739
1422.0, 0.003873148363723309
1423.0, 0.002120462092847618
1424.0, 0.008943153432189375
1425.0, 0.005239596392318902
1426.0, 0.004240101635126876
1427.0, 0.007512694173545975
1428.0, 0.0079697425093173
1429.0, 0.005034198212294657
1430.0, 0.00594452463837416
1431.0, 0.010961539197246599
1432.0, 0.003454418107130517
1433.0, 0.006017783739977356
1434.0, 0.009478151328197461
1435.0, 0.008070046473564246
1436.0, 0.004744179312232268
1437.0, 0.012181952553353031
1438.0, 0.0067862871138274095
1439.0, 0.004636941154365426
1440.0, 0.00950273698308354
1441.0, 0.011116981098107135
1442.0, 0.00653086410086455
1443.0, 0.012715404744926254
1444.0, 0.012218759719420536
1445.0, 0.011152711398537603
1446.0, 0.011779816515642999
1447.0, 0.013143583835552928
1448.0, 0.01307837280442129
1449.0, 0.010928549439701934
1450.0, 0.015283807721225135
1451.0, 0.014093860782877488
1452.0, 0.01225654554008613
1453.0, 0.01540130609882857
1454.0, 0.017724748459925197
1455.0, 0.014082592215344046
1456.0, 0.017575977351159483
1457.0, 0.014904965612174489
1458.0, 0.01185621601609783
1459.0, 0.014711007839489514
1460.0, 0.017112315036486653
1461.0, 0.014336467726217453
1462.0, 0.01086425335091651
1463.0, 0.01889577146839964
1464.0, 0.01539746982436961
1465.0, 0.012178023993616123
1466.0, 0.013483029594151381
1467.0, 0.014515209325417553
1468.0, 0.01024323495269169
1469.0, 0.012001020454324683
1470.0, 0.014801503836044585
1471.0, 0.01010091932340474
1472.0, 0.01184536187472564
1473.0, 0.014522074559646634
1474.0, 0.0114167149430519
1475.0, 0.007110839687809058
1476.0, 0.015622323605544067
1477.0, 0.008713336723898867
1478.0, 0.008082980425297679
1479.0, 0.012061175304620473
1480.0, 0.012903306855331443
1481.0, 0.0072652006161057076
1482.0, 0.008714160351413276
1483.0, 0.01420074505586979
1484.0, 0.008229942598588226
1485.0, 0.007668305600559018
1486.0, 0.011927553078907619
1487.0, 0.012108604936630468
1488.0, 0.002835229054987209
1489.0, 0.012235967088343909
1490.0, 0.007993514280237956
1491.0, 0.005640581474582334
1492.0, 0.00838096451270709
1493.0, 0.009563488567974714
1494.0, 0.004007401081159591
1495.0, 0.0033835626792986014
1496.0, 0.00856087019937506
1497.0, 0.0037078227993349554
1498.0, 0.0043553363158408305
1499.0, 0.007933963246333815
1500.0, 0.007516844853928161
1501.0, 0.0018225601366247952
1502.0, 0.007711757113031801
1503.0, 0.008755765164380872
1504.0, 0.004623670826436237
1505.0, 0.006042033331398132
1506.0, 0.008256562030610714
1507.0, 0.0045187850664368066
1508.0, 0.0009570002565328119
1509.0, 0.009856337249016264
1510.0, 0.005881171926105816
1511.0, 0.004195040707373317
1512.0, 0.007112405660068892
1513.0, 0.008071683451017797
1514.0, 0.0026128121113313174
1515.0, 0.006215881928690362
1516.0, 0.008818917430919067
1517.0, 0.002796248525325562
1518.0, 0.005522507340462026
1519.0, 0.009059956616294019
1520.0, 0.005774116121382119
1521, 0.0
1522, 0.0
1523, 0.0
1524, 0.0
1525, 0.0
1526, 0.0
1527, 0.0
1528, 0.0
1529, 0.0
1530, 0.0
1531, 0.0
1532, 0.0
1533, 0.0
1534, 0.0
1535, 0.0
1536, 0.0
1537, 0.0
1538, 0.0
1539, 0.0
1540, 0.0
1541, 0.0
1542, 0.0
1543, 0.0
1544, 0.0
1545, 0.0
1546, 0.0
1547, 0.0
1548, 0.0
1549, 0.0
1550, 0.0
1551, 0.0
1552, 0.0
1553, 0.0
1554, 0.0
1555, 0.0
1556, 0.0
1557, 0.0
1558, 0.0
1559, 0.0
1560, 0.0
1561, 0.0
1562, 0.0
1563, 0.0
1564, 0.0
1565, 0.0
1566, 0.0
1567, 0.0
1568, 0.0
1569, 0.0
1570, 0.0
1571, 0.0
1572, 0.0
1573, 0.0
1574, 0.0
1575, 0.0
1576, 0.0
1577, 0.0
1578, 0.0
1579, 0.0
1580, 0.0
1581, 0.0
1582, 0.0
1583, 0.0
1584, 0.0
1585, 0.0
1586, 0.0
1587, 0.0
1588, 0.0
1589, 0.0
1590, 0.0
1591, 0.0
1592, 0.0
1593, 0.0
1594, 0.0
1595, 0.0
1596, 0.0
1597, 0.0
1598, 0.0
1599, 0.0
