30, 0.0
31, 0.0
32, 0.0
33, 0.0
34, 0.0
35, 0.0
36, 0.0
37, 0.0
38, 0.0
39, 0.0
40, 0.0
41, 0.0
42, 0.0
43, 0.0
44, 0.0
45, 0.0
46, 0.0
47, 0.0
48, 0.0
49, 0.0
50, 0.0
51, 0.0
52, 0.0
53, 0.0
54, 0.0
55, 0.0
56, 0.0
57, 0.0
58, 0.0
59, 0.0
60, 0.0
61, 0.0
62, 0.0
63, 0.0
64, 0.0
65, 0.0
66, 0.0
67, 0.0
68, 0.0
69, 0.0
70, 0.0
71, 0.0
72, 0.0
73, 0.0
74, 0.0
75, 0.0
76, 0.0
77, 0.0
78, 0.0
79, 0.0
80, 0.0
81, 0.0
82, 0.0
83, 0.0
84, 0.0
85, 0.0
86, 0.0
87, 0.0
88, 0.0
89, 0.0
90, 0.0
91, 0.0
92, 0.0
93, 0.0
94, 0.0
95, 0.0
96, 0.0
97, 0.0
98, 0.0
99, 0.0
100, 0.0
101, 0.0
102, 0.0
103, 0.0
104, 0.0
105, 0.0
106, 0.0
107, 0.0
108, 0.0
109, 0.0
110, 0.0
111, 0.0
112, 0.0
113, 0.0
114, 0.0
115, 0.0
116, 0.0
117, 0.0
118, 0.0
119, 0.0
120, 0.0
121, 0.0
122, 0.0
123, 0.0
124, 0.0
125, 0.0
126, 0.0
127.0, 0.00013952249325339703
128.0, 0.0012553233776737463
129.0, 0.0010516384554759058
130.0, 0.0007339756157918292
131.0, 0.000697963257433911
132.0, 0.000247938016185552
133.0, 0.0010069703186110096
134.0, 0.0006664534736306436
135.0, 0.0002061448651192798
136.0, 0.000410933091185864
137.0, 0.00011861876337875049
138.0, 0.00039912565046479407
139.0, 0.0001981140478757127
140.0, 0.0009509479836554129
141.0, 0.002389337122119445
142.0, 0.0017437606213021562
143.0, 0.0015092439118195233
144.0, 0.002815779659347109
145.0, 0.003540839579205184
146.0, 0.0035330478058696606
147.0, 0.003687034483046279
148.0, 0.0043756618541179754
149.0, 0.005494082169116605
150.0, 0.006562434761179475
151.0, 0.007409383434169307
152.0, 0.008223779767162097
153.0, 0.009119283968080084
154.0, 0.009366304540394877
155.0, 0.010630241868078103
156.0, 0.011781719719785522
157.0, 0.012025317139715509
158.0, 0.011863394221870185
159.0, 0.011327992941736776
160.0, 0.011458310318115105
161.0, 0.012162826924731775
162.0, 0.01256705740849144
163.0, 0.013191865804598855
164.0, 0.013802773892374883
165.0, 0.013930392890648917
166.0, 0.013678130213677472
167.0, 0.012772340638578229
168.0, 0.013138956288275648
169.0, 0.013553725891220841
170.0, 0.013290087381440576
171.0, 0.013528531476343239
172.0, 0.01386085834006792
173.0, 0.013541520244814288
174.0, 0.013272645902824181
175.0, 0.014265638886903164
176.0, 0.013433949283903894
177.0, 0.012484014184696713
178.0, 0.012078383949822068
179.0, 0.011843843742170951
180.0, 0.011331697437024772
181.0, 0.011311811056728523
182.0, 0.011091376615707756
183.0, 0.010653562911551777
184.0, 0.011341153627198487
185.0, 0.010940592820340257
186.0, 0.010636727282136018
187.0, 0.010833026250736963
188.0, 0.011004828421329426
189.0, 0.011132148526926131
190.0, 0.011105770694589765
191.0, 0.010738033130803206
192.0, 0.01019358991920845
193.0, 0.010254180543956763
194.0, 0.010740530546504798
195.0, 0.011079059978151541
196.0, 0.011165550533293355
197.0, 0.01147457674550085
198.0, 0.011703920739504808
199.0, 0.011729267871793394
200.0, 0.011543666150916917
201.0, 0.011334293506592798
202.0, 0.011947915656926987
203.0, 0.012301449627726778
204.0, 0.012927354623803773
205.0, 0.013952364392174807
206.0, 0.014135613388515976
207.0, 0.014670581544382435
208.0, 0.015463288332086097
209.0, 0.016489974845354666
210.0, 0.017987653195701
211.0, 0.018911862985312847
212.0, 0.019934120689263493
213.0, 0.021542476048204248
214.0, 0.02356843372000215
215.0, 0.024698728172203383
216.0, 0.026230990493395667
217.0, 0.027655217393123713
218.0, 0.029014013726175267
219.0, 0.030972488755903894
220.0, 0.0319194572163976
221.0, 0.033242953141946294
222.0, 0.034337232882109735
223.0, 0.03420172892666229
224.0, 0.03335302365889882
225.0, 0.03154901850235538
226.0, 0.029290225929076503
227.0, 0.027043353150904767
228.0, 0.02506952115881953
229.0, 0.02298924473921438
230.0, 0.02071367029098453
231.0, 0.018930334365695148
232.0, 0.01802199680751806
233.0, 0.01680292771195159
234.0, 0.01586274587435609
235.0, 0.01445151801013567
236.0, 0.013146622860137876
237.0, 0.013810569196915602
238.0, 0.01201418547421172
239.0, 0.011041559158582412
240.0, 0.01015431819755817
241.0, 0.008024013583414157
242.0, 0.007657326469125643
243.0, 0.007078893827907654
244.0, 0.00561798925166403
245.0, 0.00410313763846823
246.0, 0.004211941766436071
247.0, 0.003689921648818748
248.0, 0.00347363551247374
249.0, 0.0030455877301365673
250.0, 0.002010626919464998
251.0, 0.0018608911426379066
252.0, 0.001930632872979413
253.0, 0.0013397772779499316
254.0, 0.0005810718201950232
255.0, 0.0008625725011846407
256.0, 0.0006932310410619361
257.0, 0.00018979026362702086
258.0, 0.0002923643366941803
259.0, 0.00012849350596283267
260.0, 0.0006184304656347923
261.0, 0.0002665749162523128
262.0, 0.0005337794373491591
263.0, 0.00020556810169636394
264.0, 0.0002866381707836034
265.0, 0.0006160640523464101
266.0, 0.0005476846566371426
267.0, 0.00022637491692806044
268.0, 0.0002475988779900276
269.0, 7.859254597318998e-05
270.0, 0.0006621523752731899
271.0, 0.0009060455542431257
272.0, 0.0004459338041421085
273.0, 0.00010031783393372205
274.0, 0.0002711602421393285
275.0, 0.00017446256177034645
276.0, 0.00010081540618378401
277.0, 0.00032098885522781426
278.0, 0.0004467071969148296
279.0, 0.0008179587488600496
280.0, 0.0014214923570409154
281.0, 0.0018939284580690118
282.0, 0.0022273952760211305
283.0, 0.003253875650587804
284.0, 0.0038539654000825014
285.0, 0.004679084271185553
286.0, 0.0061405518475785015
287.0, 0.007836285259061911
288.0, 0.00870208953369737
289.0, 0.010443591168974144
290.0, 0.012027290461461379
291.0, 0.013233752438603556
292.0, 0.015376448808005495
293.0, 0.01663895161255885
294.0, 0.018511436837299576
295.0, 0.021269122962221842
296.0, 0.024551696015898263
297.0, 0.028114020425150286
298.0, 0.03169489142597721
299.0, 0.03569516112998594
300.0, 0.039935113704216756
301.0, 0.043827616273569264
302.0, 0.04661225887674859
303.0, 0.04569387060882624
304.0, 0.042852731445389126
305.0, 0.03857999465344709
306.0, 0.031617282292442477
307.0, 0.02763848624314846
308.0, 0.023473156147600316
309.0, 0.019512322714682215
310.0, 0.016840315278296415
311.0, 0.014648068168456443
312.0, 0.013806959316325453
313.0, 0.013975985760812677
314.0, 0.014648415980382416
315.0, 0.015243830528576903
316.0, 0.014731306155336766
317.0, 0.014488750760685041
318.0, 0.014247050798367451
319.0, 0.013817588895111014
320.0, 0.013426472978263347
321.0, 0.013384718697752984
322.0, 0.014713626245981468
323.0, 0.0159190527446688
324.0, 0.016237606932633156
325.0, 0.01664993668261766
326.0, 0.017174932595524304
327.0, 0.016525777422053484
328.0, 0.015359961780766823
329.0, 0.014586512114540501
330.0, 0.01370101105830121
331.0, 0.012062079686990811
332.0, 0.011812737374534922
333.0, 0.012280576726155713
334.0, 0.011506185224808455
335.0, 0.011903241946185219
336.0, 0.013099404946769519
337.0, 0.013599811060775216
338.0, 0.013088290996222374
339.0, 0.012642455566267365
340.0, 0.012648220647118057
341.0, 0.011700216434533969
342.0, 0.009696716734849651
343.0, 0.00817228246338306
344.0, 0.008685044970776375
345.0, 0.00647856825747978
346.0, 0.004538230388087502
347.0, 0.003991810546369932
348.0, 0.004162896333510706
349.0, 0.0036163442986720394
350.0, 0.003321261634773757
351.0, 0.002848823197667569
352.0, 0.00266830430684109
353.0, 0.003164505599807342
354.0, 0.0034192712984315574
355.0, 0.003575378053903651
356.0, 0.00350017899503337
357.0, 0.003415089166485476
358.0, 0.0035643671770259266
359.0, 0.0036903460382183215
360.0, 0.003758191330044293
361.0, 0.003918552635475105
362.0, 0.004226197100961023
363.0, 0.004486838225576139
364.0, 0.0037926103025450204
365.0, 0.004328368940219518
366.0, 0.0049234710295982895
367.0, 0.005291229456786983
368.0, 0.006312447740213564
369.0, 0.006972551672257941
370.0, 0.00784500495065946
371.0, 0.00836196908504932
372.0, 0.008271342831879996
373.0, 0.007925513620814765
374.0, 0.006347524202699531
375.0, 0.0048268374681561576
376.0, 0.0035449717895338346
377.0, 0.002242211428872134
378.0, 0.0009005476957421883
379.0, 0.0012744475778028704
380.0, 0.0011829116234707904
381.0, 0.0007648918402136227
382.0, 0.000742203157421363
383.0, 0.0006950624578605961
384.0, 0.00015159084879764098
385.0, 0.00016623853964910348
386.0, 3.0802971365886375e-05
387.0, 0.00027790370912235537
388.0, 0.000749537259140576
389.0, 7.861658729481355e-05
390.0, 0.00012607227658629946
391.0, 0.0003650148617917976
392.0, 5.749307283992638e-05
393.0, 0.00046287166509779586
394.0, 0.00043784663706748485
395.0, 9.87915917290612e-05
396.0, 0.00018773630762735662
397.0, 0.0002700144438214036
398.0, 0.0002485002752122899
399.0, 0.0006337441560763759
400.0, 0.0015193130309936436
401.0, 0.00211272575777989
402.0, 0.002205326430820708
403.0, 0.0034422550291125175
404.0, 0.004461439992475174
405.0, 0.005188873121104636
406.0, 0.005966649827149776
407.0, 0.006679567025250875
408.0, 0.00638774587993978
409.0, 0.007555723503430947
410.0, 0.007991285829340167
411.0, 0.008047289613755162
412.0, 0.00876916245110834
413.0, 0.009339198441425707
414.0, 0.010857925845918501
415.0, 0.01153690251919875
416.0, 0.011586127553488193
417.0, 0.012056895271641601
418.0, 0.01326505877341817
419.0, 0.01293775996932027
420.0, 0.013167120513191893
421.0, 0.013942029223263036
422.0, 0.014401379672592578
423.0, 0.014575594101118009
424.0, 0.014898476482557975
425.0, 0.01640763550633762
426.0, 0.0180233380858475
427.0, 0.019119500235066596
428.0, 0.02075102906533205
429.0, 0.02221192880157394
430.0, 0.023446313831166528
431.0, 0.024583282545116394
432.0, 0.025434694736460244
433.0, 0.025306812685039003
434.0, 0.025269835155509953
435.0, 0.024621054101860915
436.0, 0.023353444042540323
437.0, 0.022200920139676738
438.0, 0.02156504361043154
439.0, 0.019294671143731727
440.0, 0.01672927097032613
441.0, 0.014077337902930769
442.0, 0.011477200240066982
443.0, 0.009376027813223622
444.0, 0.00735956735194721
445.0, 0.005831426857846719
446.0, 0.004371556674467687
447.0, 0.0035942895087491293
448.0, 0.003891342690844316
449.0, 0.0021447747119456764
450.0, 0.0019672045600490685
451.0, 0.0022648046613149807
452.0, 0.001835533877970651
453.0, 0.0008651391040470741
454.0, 0.0016603393410871488
455.0, 0.0015011025107194112
456.0, 0.000959170452829769
457.0, 0.0007041830328164328
458.0, 0.0008181868452784428
459.0, 0.0009215353040972188
460.0, 0.0012989165997127673
461.0, 0.0010688517997070495
462.0, 0.0006445955574787269
463.0, 0.0004195127720858713
464.0, 9.16428679741654e-05
465.0, 0.0003961171261402823
466.0, 0.0004901855291590285
467.0, 0.00032321317214924477
468.0, 0.00042257100507504217
469.0, 0.0011130796646866077
470.0, 0.0013778948999092172
471.0, 0.000981319121203128
472.0, 0.0005384421288197294
473.0, 0.00036242543835152173
474.0, 0.00026145957348717503
475.0, 0.0002522793641186783
476.0, 0.0007133302836093994
477.0, 0.0009305134246170624
478.0, 0.0005592204860233239
479.0, 0.0002285323885326056
480.0, 0.0011945490219578336
481.0, 0.0008181601238743093
482.0, 0.0002745936201443172
483.0, 0.000271016817939187
484.0, 0.0005754625417943828
485.0, 0.0005193565265885707
486.0, 0.0001318943853409653
487.0, 0.0003790797578856141
488.0, 0.0003064872866825558
489.0, 0.0005824540301505921
490.0, 0.00016875160056160077
491.0, 0.00022118684932417867
492.0, 0.00032213262403454305
493.0, 0.0004928682136693123
494.0, 0.0003947787330968834
495.0, 0.0003198317329636422
496.0, 0.00015002270777643683
497.0, 0.00013907408156734857
498.0, 0.0004201689214801999
499.0, 0.00040196861640915885
500.0, 0.0001435515189701835
501.0, 0.0006749550185349425
502.0, 0.000460881106506798
503.0, 0.00018518484085010102
504.0, 0.00011955739707868457
505.0, 0.0003760674763904496
506.0, 0.00012190695933850953
507.0, 0.00018448218002076186
508.0, 7.087616954920426e-05
509.0, 0.0005053166196259515
510.0, 0.0007021893015473702
511.0, 0.000638694728104067
512.0, 0.0009043763575450175
513.0, 0.0007962417454941162
514.0, 0.0008852331247803239
515.0, 0.0006443922117636981
516.0, 0.0003900563718711415
517.0, 0.0017033895327630566
518.0, 0.00134613870595622
519.0, 0.0011969253391157916
520.0, 0.0015998801574062223
521.0, 0.0019495657392109118
522.0, 0.0017644660010993356
523.0, 0.0031867782283400933
524.0, 0.003326865630464419
525.0, 0.003389756539497599
526.0, 0.003927621380890776
527.0, 0.004645637061295563
528.0, 0.005460071687059456
529.0, 0.0056885543853325855
530.0, 0.005817495911344616
531.0, 0.006479687407819755
532.0, 0.007197248746290627
533.0, 0.007221128186221396
534.0, 0.008341734549077575
535.0, 0.009850656648058712
536.0, 0.01101433964891841
537.0, 0.01259662357461941
538.0, 0.015079349554367306
539.0, 0.015910109968722407
540.0, 0.017646882536555584
541.0, 0.018787837232509284
542.0, 0.019595090156297183
543.0, 0.020192900825071948
544.0, 0.019357969816050535
545.0, 0.016352209424731555
546.0, 0.012744017206079754
547.0, 0.010110775819931398
548.0, 0.007998080704959415
549.0, 0.00574980697194058
550.0, 0.004292645088954401
551.0, 0.003289656353037637
552.0, 0.0031546914777583653
553.0, 0.0027427646472522518
554.0, 0.001719861790084337
555.0, 0.001361199244445668
556.0, 0.0015883724464767408
557.0, 0.0019186646882094472
558.0, 0.0014393505167115041
559.0, 0.0010348943482484405
560.0, 0.0014899176106778654
561.0, 0.001857438774067946
562.0, 0.0015334461973444792
563.0, 0.002262549046222612
564.0, 0.0030107741602495327
565.0, 0.0034707147713291158
566.0, 0.004295959467894675
567.0, 0.00543710721369274
568.0, 0.006401456047947053
569.0, 0.007272224244347302
570.0, 0.008507878397899097
571.0, 0.010228018022200918
572.0, 0.01199917481959898
573.0, 0.013518230106812197
574.0, 0.015824629774741163
575.0, 0.01737379487833801
576.0, 0.019406565736069425
577.0, 0.02315876936024758
578.0, 0.025550732042477712
579.0, 0.027659769577766308
580.0, 0.030595034626252564
581.0, 0.03367783296139914
582.0, 0.036303194049471264
583.0, 0.038315675540666345
584.0, 0.03917510711511303
585.0, 0.04169597350343698
586.0, 0.0418385070011709
587.0, 0.040918909000371935
588.0, 0.04074717965606052
589.0, 0.04022142186285498
590.0, 0.03915571697870048
591.0, 0.03728690695730889
592.0, 0.034786674711878955
593.0, 0.03242663986263975
594.0, 0.030278990215711038
595.0, 0.027392929036186352
596.0, 0.02628339439585295
597.0, 0.025701192795961857
598.0, 0.025307746504873083
599.0, 0.026152660370687465
600.0, 0.028191694557763165
601.0, 0.028644422431333198
602.0, 0.029426222503012887
603.0, 0.029772469420719865
604.0, 0.03036324106202753
605.0, 0.03144136103961137
606.0, 0.03208398785325927
607.0, 0.031223290873000225
608.0, 0.02993211869893998
609.0, 0.028461173540088883
610.0, 0.026207848332631394
611.0, 0.023246145966013706
612.0, 0.02058889664882623
613.0, 0.01843307979146678
614.0, 0.01626189494329803
615.0, 0.013939866081848435
616.0, 0.011655232068350778
617.0, 0.009765472277527722
618.0, 0.00860915464016597
619.0, 0.0074531061615590016
620.0, 0.006936665386906206
621.0, 0.005726085794768635
622.0, 0.00454456569800482
623.0, 0.004332906408769881
624.0, 0.00390340851286012
625.0, 0.003249945599567724
626.0, 0.003377382228173477
627.0, 0.002710544019824385
628.0, 0.0018143734127157895
629.0, 0.0017880410022355787
630.0, 0.0013543850175282072
631.0, 0.0012766581973295676
632.0, 0.0014600910955647486
633.0, 0.0012696515541361084
634.0, 0.0010417201505975007
635.0, 0.0010408668995771837
636.0, 0.00012717755680427797
637.0, 0.00042171420747638336
638.0, 0.0002708314653144811
639.0, 4.6663764979751525e-05
640.0, 0.00012540792217879173
641.0, 0.00015548006924323763
642.0, 0.0001219943304576147
643.0, 8.7581445788659e-06
644.0, 0.00011387066247645834
645.0, 0.00020049385363487014
646.0, 8.463326225650335e-05
647.0, 0.00011712366701836235
648.0, 1.1875361064934692e-05
649.0, 0.0001368505071120686
650.0, 0.0003761003406927876
651.0, 0.0005096968926430012
652.0, 0.00024795417682071437
653.0, 0.00031807145103395157
654.0, 3.27777591933545e-05
655.0, 6.853487471669153e-05
656.0, 3.864710591745427e-05
657.0, 9.852188001705612e-05
658.0, 0.0002142384640457481
659.0, 0.00033064197416597115
660.0, 0.000746698161741764
661.0, 0.0006576953001853892
662.0, 0.0005963490993489857
663.0, 0.0007680267774059437
664.0, 0.0005776456931786775
665.0, 0.0001125861413728361
666.0, 0.0006653806568559375
667.0, 0.00023617270995329056
668.0, 0.0008439561228185137
669.0, 0.0010038847557262574
670.0, 0.0006656523627519758
671.0, 0.0007157306853605375
672.0, 0.0009469880341898664
673.0, 0.0009726770113006101
674.0, 0.0007784015447147021
675.0, 0.0010891574397106647
676.0, 0.0012461762371260895
677.0, 0.0007160836368169597
678.0, 0.0005366004130589996
679.0, 0.0011619683210561805
680.0, 0.0012517558535769502
681.0, 0.0006731155515119977
682.0, 0.0005278962764628838
683.0, 0.0009744438353115427
684.0, 0.0010429396296957154
685.0, 0.0018399766096144064
686.0, 0.001973812496938175
687.0, 0.0013942139406294218
688.0, 0.0011599199623591237
689.0, 0.0016780954380881113
690.0, 0.0021111522372086085
691.0, 0.0018309803849053743
692.0, 0.0023180706002098005
693.0, 0.0017925133721602505
694.0, 0.0016468328007785554
695.0, 0.0020731285907905415
696.0, 0.0019525335820266359
697.0, 0.0017763422350737738
698.0, 0.0019453304937922283
699.0, 0.001946312600384268
700.0, 0.001978138388886434
701.0, 0.0021019892723172394
702.0, 0.0020821826063313047
703.0, 0.002088577508308348
704.0, 0.0021905438164149396
705.0, 0.00239126610150376
706.0, 0.002467306893816597
707.0, 0.00294169583448245
708.0, 0.003388445641002872
709.0, 0.0028032895741920915
710.0, 0.002553769977958378
711.0, 0.0022937309107876813
712.0, 0.0026001302570129747
713.0, 0.0027654948157211615
714.0, 0.0021850788688778672
715.0, 0.0015993935898563451
716.0, 0.0025541632054610053
717.0, 0.0019797763750194534
718.0, 0.0021851284213900966
719.0, 0.0022112283578664873
720.0, 0.0018882028870687336
721.0, 0.0022132964930322765
722.0, 0.0030326229003108203
723.0, 0.0022510244543423523
724.0, 0.002482073039406213
725.0, 0.002194998792796776
726.0, 0.002090766381118805
727.0, 0.0024018488902747275
728.0, 0.0021557281184394483
729.0, 0.0021875226147738346
730.0, 0.001990792848478722
731.0, 0.0022978291428941873
732.0, 0.0024025876802320325
733.0, 0.0017090079068230455
734.0, 0.0010599064142284124
735.0, 0.0018735630587547029
736.0, 0.0012734138347491768
737.0, 0.0008049588234664992
738.0, 0.0012156508068170721
739.0, 0.0014753289244752673
740.0, 0.0012525814193461659
741.0, 0.0012469565728054702
742.0, 0.0008938440763501654
743.0, 0.000335190449619752
744.0, 5.4671477584803036e-05
745.0, 6.120593085449248e-05
746.0, 0.00024271817894135574
747.0, 0.0004510600973917449
748.0, 0.000585980526206717
749.0, 0.0003454642159114052
750.0, 0.0004282121403527683
751.0, 0.00011547022935719234
752.0, 0.0003582019986504511
753.0, 6.938989443927499e-05
754.0, 0.00017475675564164396
755.0, 0.0004903963945531297
756.0, 0.0003747598966676003
757.0, 0.00011340020212928032
758.0, 0.00040350015254695445
759.0, 0.0006778119699917889
760.0, 0.00025483336769273454
761.0, 0.0009374272012134462
762.0, 0.001232980084073974
763.0, 0.0005649000981251617
764.0, 0.0005011297689030836
765.0, 0.0003605953535800205
766.0, 0.0002424805085051978
767.0, 0.0006665688707733701
768.0, 0.0005956559064369474
769.0, 2.749666500188105e-05
770.0, 0.000805741998253449
771.0, 0.0007465994776509163
772.0, 0.0003546349938551235
773.0, 0.0006266449812256146
774.0, 0.0005902731434694693
775.0, 0.0004658051602963484
776.0, 0.00014658304259188013
777.0, 0.00020348507561424254
778.0, 2.2165753399242524e-05
779.0, 6.886724776373503e-05
780.0, 8.321175035032086e-05
781.0, 0.0005573147701439749
782.0, 0.00037406740792920274
783.0, 0.0004738112983262584
784.0, 0.0008688244098859673
785.0, 0.0009126320654731778
786.0, 0.0009907134095969976
787.0, 0.001186947338357194
788.0, 0.001608149941086869
789.0, 0.001965087005786304
790.0, 0.002483428630872609
791.0, 0.003526999118000736
792.0, 0.004583950815310442
793.0, 0.005268533953098413
794.0, 0.005986552012468182
795.0, 0.007658372158761557
796.0, 0.008599890786292044
797.0, 0.010055799975682938
798.0, 0.011709722732231228
799.0, 0.013964670876845182
800.0, 0.016299973862183716
801.0, 0.01875452397288725
802.0, 0.02303243999620865
803.0, 0.02721082970622704
804.0, 0.031202756017281133
805.0, 0.03758837778443937
806.0, 0.04535989022343225
807.0, 0.05386899734964427
808.0, 0.06390564363735973
809.0, 0.07618447810037374
810.0, 0.09010938414541018
811.0, 0.10827583493798763
812.0, 0.12753774679971738
813.0, 0.14849455469586176
814.0, 0.17178792126363826
815.0, 0.19705156299818377
816.0, 0.2257888686644712
817.0, 0.2613689079871203
818.0, 0.300805212301242
819.0, 0.3444413577410022
820.0, 0.3916836411590452
821.0, 0.43885695174047334
822.0, 0.48038868070689533
823.0, 0.5083064924785746
824.0, 0.5171569716006823
825.0, 0.5004111839786209
826.0, 0.4588809821772958
827.0, 0.40606137516691926
828.0, 0.3509615252361298
829.0, 0.2998111827617899
830.0, 0.26024883042029034
831.0, 0.2283126968791458
832.0, 0.20514639901542572
833.0, 0.1904057411884038
834.0, 0.18026410938641024
835.0, 0.17487090345338419
836.0, 0.17475917263421187
837.0, 0.17763882239935358
838.0, 0.1856763256213634
839.0, 0.19706929007043192
840.0, 0.21334872551016856
841.0, 0.2352170405648306
842.0, 0.2615399473720067
843.0, 0.29372703075134843
844.0, 0.3326648921583832
845.0, 0.37236398821035593
846.0, 0.42064531834249075
847.0, 0.4721178904788708
848.0, 0.5305816603464715
849.0, 0.5959298901674772
850.0, 0.6671762520757434
851.0, 0.7429411537017407
852.0, 0.8181765779070973
853.0, 0.8913475299247741
854.0, 0.9542589496382962
855.0, 0.9924514891416254
856.0, 0.9960477131685685
857.0, 0.9613152422565175
858.0, 0.8903700570251758
859.0, 0.7884939367259487
860.0, 0.6804920813160987
861.0, 0.5730814095146809
862.0, 0.47651731330285035
863.0, 0.39508691990011724
864.0, 0.33007272047014774
865.0, 0.2785226342180909
866.0, 0.23584105428616178
867.0, 0.20188847289007872
868.0, 0.17439960778262054
869.0, 0.15138327256314843
870.0, 0.13449638559594665
871.0, 0.12115628954650924
872.0, 0.10944304872283687
873.0, 0.10033844884149075
874.0, 0.09507979259831421
875.0, 0.09094177918336817
876.0, 0.08888600361253303
877.0, 0.08797629049477888
878.0, 0.08870484319266841
879.0, 0.09066748196081384
880.0, 0.09292231207688402
881.0, 0.09430475649937807
882.0, 0.09232866628553103
883.0, 0.08715753264225862
884.0, 0.07647883264960986
885.0, 0.06376938598107323
886.0, 0.05077503054302634
887.0, 0.0386256254846461
888.0, 0.028353890520098266
889.0, 0.020437301908186763
890.0, 0.015255367755200448
891.0, 0.010796093788054604
892.0, 0.007693239739910375
893.0, 0.004983972605509018
894.0, 0.002770396873430963
895.0, 0.0012089864753675617
896.0, 0.0004228632364572213
897.0, 0.001770165961746805
898.0, 0.0025571688072089276
899.0, 0.001958718578937488
900.0, 0.002569147741115317
901.0, 0.0028017539698520933
902.0, 0.003199951632883752
903.0, 0.0036738991446102955
904.0, 0.002398631381725892
905.0, 0.0016551483484915014
906.0, 0.0004263640418169061
907.0, 0.0015906328137026272
908.0, 0.0030491519520021303
909.0, 0.0052825725629092445
910.0, 0.008385380208454677
911.0, 0.011481716156112355
912.0, 0.014522777044174524
913.0, 0.019534616818145275
914.0, 0.023785987870842767
915.0, 0.03028374007023658
916.0, 0.037606992774359554
917.0, 0.0449774906912202
918.0, 0.052453601793915686
919.0, 0.057653228066506475
920.0, 0.05695766344884931
921.0, 0.05103231376644299
922.0, 0.039484027304217933
923.0, 0.027088088124128523
924.0, 0.017503232486898945
925.0, 0.011153065456497375
926.0, 0.007186105894111124
927.0, 0.004517969523344651
928.0, 0.002240036321142765
929.0, 0.0021594028351721523
930.0, 0.001491665083406295
931.0, 0.0012393564946809705
932.0, 0.0020622512889563864
933.0, 0.00277176869211626
934.0, 0.0031008289745061385
935.0, 0.004283450216756719
936.0, 0.0064602527736959785
937.0, 0.007624162890174303
938.0, 0.009528467574783645
939.0, 0.012052271845700442
940.0, 0.01346046274592742
941.0, 0.015728819268523535
942.0, 0.019364777064219775
943.0, 0.02301791619327752
944.0, 0.026186220979872513
945.0, 0.030138372432014556
946.0, 0.03488106437172099
947.0, 0.039783491286725294
948.0, 0.044862566689651044
949.0, 0.05107835644309356
950.0, 0.05816773376447595
951.0, 0.06446426534499777
952.0, 0.07018633320461082
953.0, 0.07922909985896556
954.0, 0.08631780860192748
955.0, 0.09313267535700534
956.0, 0.10181591049720408
957.0, 0.10969016019772616
958.0, 0.11585657514447255
959.0, 0.12060702951697849
960.0, 0.12368131272255935
961.0, 0.12556693436194982
962.0, 0.12333676170348415
963.0, 0.12009736961932028
964.0, 0.11332047728870769
965.0, 0.10561558171591592
966.0, 0.09651768881064193
967.0, 0.08650957388725682
968.0, 0.07692833494807963
969.0, 0.06708087358763681
970.0, 0.05842483470748938
971.0, 0.05001374981862968
972.0, 0.04187155893692381
973.0, 0.03545898912101822
974.0, 0.03055473298047143
975.0, 0.025224014954973138
976.0, 0.020268157891144375
977.0, 0.017273847494512707
978.0, 0.013859740992625358
979.0, 0.011742259763354197
980.0, 0.009378922236623812
981.0, 0.007707471735374003
982.0, 0.006216147253190456
983.0, 0.004906792323730551
984.0, 0.003738511586598141
985.0, 0.0028001900212698146
986.0, 0.0026200734483474005
987.0, 0.0024680506865484638
988.0, 0.0015523497916066571
989.0, 0.0006467701388617572
990.0, 0.0003591560384176862
991.0, 0.00046250454534710317
992.0, 0.0006152330046600267
993.0, 0.0004784745504113892
994.0, 1.3366325030317569e-05
995.0, 0.00018606058793469468
996.0, 0.0001669520479821904
997.0, 0.00012170544740223967
998.0, 0.00017797501975941226
999.0, 0.0004190742830336678
1000.0, 0.000808083132749744
1001.0, 0.0008063563215563739
1002.0, 0.0006746404665679991
1003.0, 0.0008568748023551754
1004.0, 0.0001132331735987448
1005.0, 0.00012456977889404046
1006.0, 0.00023206077165528182
1007.0, 0.00031794846847072063
1008.0, 0.0004905326634927129
1009.0, 0.00025584754885442173
1010.0, 0.0002876919606559427
1011.0, 0.0004841980665427149
1012.0, 0.00014181994215808154
1013.0, 0.00015918719311772578
1014.0, 0.00019329361847442587
1015.0, 0.0007400477554478998
1016.0, 0.0003961118176725665
1017.0, 2.3184816316448804e-05
1018.0, 0.00038551018433958075
1019.0, 0.0009679117545607723
1020.0, 0.001123833281179467
1021.0, 0.0009233245182535154
1022.0, 0.0009234776993396136
1023.0, 0.0013916320523812793
1024.0, 0.0014685681324274247
1025.0, 0.002089540320767099
1026.0, 0.002301232097258293
1027.0, 0.0023383601586097658
1028.0, 0.0022676106852706707
1029.0, 0.0020155547799438687
1030.0, 0.0020845116209122264
1031.0, 0.002443430763217777
1032.0, 0.0023776189847447464
1033.0, 0.0027299007972667534
1034.0, 0.003065616821342023
1035.0, 0.0031763385380483835
1036.0, 0.0029639666113294946
1037.0, 0.0028380571871055977
1038.0, 0.0029068082047113684
1039.0, 0.0030401008732725793
1040.0, 0.0034108842113555575
1041.0, 0.003060380111878482
1042.0, 0.0032237951933032187
1043.0, 0.0028705818701735882
1044.0, 0.003285282388071771
1045.0, 0.0035688714809731046
1046.0, 0.003258207194588263
1047.0, 0.0030727339263038724
1048.0, 0.0033634972050826397
1049.0, 0.0035799797075523904
1050.0, 0.003254094490127917
1051.0, 0.0027490474116734043
1052.0, 0.0029897897303454365
1053.0, 0.002597976330852861
1054.0, 0.0031627609369317094
1055.0, 0.0033379626880570504
1056.0, 0.003056453998517885
1057.0, 0.0031999238306573505
1058.0, 0.0032452680314286287
1059.0, 0.003200226149924164
1060.0, 0.00233178452758227
1061.0, 0.0021612346087296922
1062.0, 0.002339297873991812
1063.0, 0.0022276310904635467
1064.0, 0.0015480860481935548
1065.0, 0.0009519564255037574
1066.0, 0.0006678206340051265
1067.0, 0.0008072128685713371
1068.0, 0.0014658493684102545
1069.0, 0.0012602530428979862
1070.0, 0.0010942265960042616
1071.0, 0.0006361945788805498
1072.0, 0.0008045612066444383
1073.0, 0.0008175507969322257
1074.0, 0.0005504434214966132
1075.0, 0.0009232043148249077
1076.0, 0.0009186252378865385
1077.0, 6.689017324185863e-05
1078.0, 0.00038869580537011044
1079.0, 0.0007503589064144855
1080.0, 0.0001806951734863925
1081.0, 0.0005210531303205891
1082.0, 0.0006421456105563341
1083.0, 0.00020516365636612293
1084.0, 0.00042373009650535946
1085.0, 0.00036762945057448415
1086.0, 0.00013387345783593627
1087.0, 0.00041792414455841934
1088.0, 4.240852430640321e-05
1089.0, 6.342691264028459e-05
1090.0, 0.00019916723337877674
1091.0, 0.0006683407445084477
1092.0, 0.0007576269052834238
1093.0, 0.0007475460366236965
1094.0, 0.0002761462519018541
1095.0, 0.0004915025945693591
1096.0, 0.0010185698788047206
1097.0, 0.0008571399914396247
1098.0, 0.000954503115775587
1099.0, 0.0006988162871590152
1100.0, 0.001039656739242859
1101.0, 0.0009323531067623471
1102.0, 0.0007273401674745338
1103.0, 0.0008094481767689077
1104.0, 0.0007054895235054477
1105.0, 0.0002891066171241363
1106.0, 0.00011155552536133584
1107.0, 0.00037761052015311276
1108.0, 0.0006044944403422056
1109.0, 0.0007237017004556793
1110.0, 0.0007291037429121587
1111.0, 0.00035302364218028426
1112.0, 0.0002843079840961695
1113.0, 0.0005321221354567994
1114.0, 0.0003104087455820685
1115.0, 0.000145802805001004
1116.0, 0.0006209530792342926
1117.0, 0.0008588053476600345
1118.0, 0.0002789211585790411
1119.0, 0.0003336220000642068
1120.0, 0.0009023583500163958
1121.0, 0.00042732885468315323
1122.0, 0.0001465380204892357
1123.0, 0.00040408164810563495
1124.0, 9.924181081394064e-05
1125.0, 0.0002491181325172634
1126.0, 0.00036160921754137265
1127.0, 0.000313982206276648
1128.0, 0.000696143058972816
1129.0, 0.0008041441119623117
1130.0, 0.0001179207281874434
1131.0, 0.0005596164433806059
1132.0, 0.0002819815007548543
1133.0, 0.0004987966758309173
1134.0, 0.0005784341233707724
1135.0, 0.000518389011233159
1136.0, 0.0008141008593659311
1137.0, 0.0008621715292517865
1138.0, 0.000740332480732498
1139.0, 0.0007179405245094655
1140.0, 0.00036630681755174863
1141.0, 0.0005463921539312254
1142.0, 0.0013854590991764638
1143.0, 0.0005352432035832341
1144.0, 0.000582702052594306
1145.0, 0.0008499391933113612
1146.0, 0.00043149048467621206
1147.0, 0.00025205572753172236
1148.0, 0.0005389980084903167
1149.0, 0.0009311557352012261
1150.0, 0.0011698952706227913
1151.0, 0.0010842961728987762
1152.0, 0.0011669598555765824
1153.0, 0.0016093297938508222
1154.0, 0.0019011223096649832
1155.0, 0.0007885833874768708
1156.0, 0.001492493006865537
1157.0, 0.0015433245492130385
1158.0, 0.0012491234042196586
1159.0, 0.0009125077625426535
1160.0, 0.0010889481414166824
1161.0, 0.0016427320908016278
1162.0, 0.0017025304360488728
1163.0, 0.0017276416364170619
1164.0, 0.0012382997535060713
1165.0, 0.00173102992547366
1166.0, 0.0007301412303196407
1167.0, 0.00043361932560109496
1168.0, 0.0006295253866379294
1169.0, 0.0013590222315618431
1170.0, 0.0009866200345357843
1171.0, 0.0005224930829695924
1172.0, 0.0006190761101562356
1173.0, 0.0005573358872127042
1174.0, 0.000708345191008672
1175.0, 0.0007314899721625872
1176.0, 0.0006504244372342204
1177.0, 0.0009581752227821579
1178.0, 0.0003232609756465518
1179.0, 0.0003059463288383483
1180.0, 0.00041435607569273393
1181.0, 0.0005323781064891868
1182.0, 0.0006950801343081098
1183.0, 0.0004294833773335836
1184.0, 0.00019085338686882945
1185.0, 0.00041678449165602244
1186.0, 0.0001344533984363037
1187.0, 0.00016653789132957205
1188.0, 0.000573879344018279
1189.0, 0.00037137859019614197
1190.0, 0.0001508627158150268
1191.0, 0.0006776043305726737
1192.0, 0.0011953506137623569
1193.0, 0.00109457746009048
1194.0, 0.00013628030467291227
1195.0, 2.078924519000497e-05
1196.0, 0.0007735163332430826
1197.0, 0.0009314053227678983
1198.0, 0.000660018993847851
1199.0, 0.0006753111830277042
1200.0, 0.0010940635956053592
1201.0, 0.0012062289600062244
1202.0, 0.0006504469273449192
1203.0, 0.0008306717632861702
1204.0, 0.00052023626051165
1205.0, 0.0008583813798434067
1206.0, 0.001385344215536025
1207.0, 0.0010340633216464178
1208.0, 0.0007663975624187025
1209.0, 0.0011364501018682875
1210.0, 0.0011664048305654354
1211.0, 0.0010079542095896318
1212.0, 0.0011935389544197273
1213.0, 0.0016336465344317557
1214.0, 0.0020774639536235763
1215.0, 0.002149230311399531
1216.0, 0.0012974413279917434
1217.0, 0.0017029771624892359
1218.0, 0.0023021938294696346
1219.0, 0.0015961300816716166
1220.0, 0.0011568359040504976
1221.0, 0.001533123063987965
1222.0, 0.0014317242465486243
1223.0, 0.0010991294411031242
1224.0, 0.0016884301605242507
1225.0, 0.001960664616658535
1226.0, 0.0014819728461930737
1227.0, 0.0016824290619778816
1228.0, 0.0013568994221416688
1229.0, 0.0014038059285280786
1230.0, 0.0013118580962467748
1231.0, 0.0016120111213756426
1232.0, 0.0015282590023724398
1233.0, 0.0017309160863793463
1234.0, 0.002298244638501565
1235.0, 0.0022940256106539062
1236.0, 0.002029609793690183
1237.0, 0.0017742175512209034
1238.0, 0.0014040513321128204
1239.0, 0.0010449116427469873
1240.0, 0.0015674959693759952
1241.0, 0.0013540485283617743
1242.0, 0.0013141727446202912
1243.0, 0.001031947947732119
1244.0, 0.0012752189114422104
1245.0, 0.001766319641500456
1246.0, 0.0013932449919079326
1247.0, 0.0013345776302326614
1248.0, 0.001675297143014422
1249.0, 0.0011461675357126455
1250.0, 0.0007118530269613681
1251.0, 0.001072374784117617
1252.0, 0.0009594243017891466
1253.0, 0.0014439037849340117
1254.0, 0.001055004127995751
1255.0, 0.0006049203851627347
1256.0, 0.0010942540392538276
1257.0, 0.0013109903673836417
1258.0, 0.001007619637909745
1259.0, 0.000981723797809314
1260.0, 0.0008964877914480084
1261.0, 0.0004460971965399704
1262.0, 0.00019249323142846506
1263.0, 0.00032820966385263057
1264.0, 0.00048269230072769064
1265.0, 0.0008150878083852016
1266.0, 0.001216385866015098
1267.0, 0.0008845573679714853
1268.0, 0.0006792637018557111
1269.0, 0.00010050269892538707
1270.0, 0.00010532656938254045
1271.0, 0.0004950845942589305
1272.0, 0.0006611077915611088
1273.0, 0.0001848887737395462
1274.0, 4.424677979645329e-05
1275.0, 0.0003507206335864761
1276.0, 0.0002870281173287047
1277.0, 0.0003526081602134059
1278.0, 0.0008593489870223749
1279.0, 0.0003689384764763842
1280.0, 0.0006527786701351166
1281.0, 0.0008294401854986757
1282.0, 0.00011954150051619251
1283.0, 5.9505486692243426e-05
1284.0, 0.00017484207168877875
1285.0, 0.00015131525916528646
1286.0, 0.0004604535729382869
1287.0, 0.0005675666409857142
1288.0, 0.0005968381959725933
1289.0, 0.0005837994105606294
1290.0, 0.0007820175735974324
1291.0, 0.0006285972692910222
1292.0, 3.9538140950225924e-05
1293.0, 0.00033488637427896476
1294.0, 0.0011105198318792297
1295.0, 0.0009274303080314635
1296.0, 0.0008810183454098782
1297.0, 0.0009291441192074048
1298.0, 0.0002189888197316123
1299.0, 0.0006583522036715693
1300.0, 0.00032902497408958853
1301.0, 3.640074653040468e-05
1302.0, 7.058471783131915e-06
1303.0, 4.628375192049687e-07
1304, 0.0
1305, 0.0
1306, 0.0
1307, 0.0
1308, 0.0
1309, 0.0
1310, 0.0
1311, 0.0
1312, 0.0
1313, 0.0
1314, 0.0
1315, 0.0
1316, 0.0
1317, 0.0
1318, 0.0
1319, 0.0
1320, 0.0
1321, 0.0
1322, 0.0
1323, 0.0
1324, 0.0
1325, 0.0
1326, 0.0
1327, 0.0
1328, 0.0
1329, 0.0
1330, 0.0
1331, 0.0
1332, 0.0
1333, 0.0
1334, 0.0
1335, 0.0
1336, 0.0
1337, 0.0
1338, 0.0
1339, 0.0
1340, 0.0
1341, 0.0
1342, 0.0
1343, 0.0
1344, 0.0
1345, 0.0
1346, 0.0
1347, 0.0
1348, 0.0
1349, 0.0
1350, 0.0
1351, 0.0
1352, 0.0
1353, 0.0
1354, 0.0
1355, 0.0
1356, 0.0
1357, 0.0
1358, 0.0
1359, 0.0
1360, 0.0
1361, 0.0
1362, 0.0
1363, 0.0
1364, 0.0
1365, 0.0
1366, 0.0
1367, 0.0
1368, 0.0
1369, 0.0
1370, 0.0
1371, 0.0
1372, 0.0
1373, 0.0
1374, 0.0
1375, 0.0
1376, 0.0
1377, 0.0
1378, 0.0
1379, 0.0
1380, 0.0
1381, 0.0
1382, 0.0
1383, 0.0
1384, 0.0
1385, 0.0
1386, 0.0
1387, 0.0
1388, 0.0
1389, 0.0
1390, 0.0
1391, 0.0
1392, 0.0
1393, 0.0
1394, 0.0
1395, 0.0
1396, 0.0
1397, 0.0
1398, 0.0
1399, 0.0
1400, 0.0
1401, 0.0
1402, 0.0
1403, 0.0
1404, 0.0
1405, 0.0
1406, 0.0
1407, 0.0
1408, 0.0
1409, 0.0
1410, 0.0
1411, 0.0
1412, 0.0
1413, 0.0
1414, 0.0
1415, 0.0
1416, 0.0
1417, 0.0
1418, 0.0
1419, 0.0
1420, 0.0
1421, 0.0
1422, 0.0
1423, 0.0
1424, 0.0
1425, 0.0
1426, 0.0
1427, 0.0
1428, 0.0
1429, 0.0
1430, 0.0
1431, 0.0
1432, 0.0
1433, 0.0
1434, 0.0
1435, 0.0
1436, 0.0
1437, 0.0
1438, 0.0
1439, 0.0
1440, 0.0
1441, 0.0
1442, 0.0
1443, 0.0
1444, 0.0
1445, 0.0
1446, 0.0
1447, 0.0
1448, 0.0
1449, 0.0
1450, 0.0
1451, 0.0
1452, 0.0
1453, 0.0
1454, 0.0
1455, 0.0
1456, 0.0
1457, 0.0
1458, 0.0
1459, 0.0
1460, 0.0
1461, 0.0
1462, 0.0
1463, 0.0
1464, 0.0
1465, 0.0
1466, 0.0
1467, 0.0
1468, 0.0
1469, 0.0
1470, 0.0
1471, 0.0
1472, 0.0
1473, 0.0
1474, 0.0
1475, 0.0
1476, 0.0
1477, 0.0
1478, 0.0
1479, 0.0
1480, 0.0
1481, 0.0
1482, 0.0
1483, 0.0
1484, 0.0
1485, 0.0
1486, 0.0
1487, 0.0
1488, 0.0
1489, 0.0
1490, 0.0
1491, 0.0
1492, 0.0
1493, 0.0
1494, 0.0
1495, 0.0
1496, 0.0
1497, 0.0
1498, 0.0
1499, 0.0
1500, 0.0
1501, 0.0
1502, 0.0
1503, 0.0
1504, 0.0
1505, 0.0
1506, 0.0
1507, 0.0
1508, 0.0
1509, 0.0
1510, 0.0
1511, 0.0
1512, 0.0
1513, 0.0
1514, 0.0
1515, 0.0
1516, 0.0
1517, 0.0
1518, 0.0
1519, 0.0
1520, 0.0
1521, 0.0
1522, 0.0
1523, 0.0
1524, 0.0
1525, 0.0
1526, 0.0
1527, 0.0
1528, 0.0
1529, 0.0
1530, 0.0
1531, 0.0
1532, 0.0
1533, 0.0
1534, 0.0
1535, 0.0
1536, 0.0
1537, 0.0
1538, 0.0
1539, 0.0
1540, 0.0
1541, 0.0
1542, 0.0
1543, 0.0
1544, 0.0
1545, 0.0
1546, 0.0
1547, 0.0
1548, 0.0
1549, 0.0
1550, 0.0
1551, 0.0
1552, 0.0
1553, 0.0
1554, 0.0
1555, 0.0
1556, 0.0
1557, 0.0
1558, 0.0
1559, 0.0
1560, 0.0
1561, 0.0
1562, 0.0
1563, 0.0
1564, 0.0
1565, 0.0
1566, 0.0
1567, 0.0
1568, 0.0
1569, 0.0
1570, 0.0
1571, 0.0
1572, 0.0
1573, 0.0
1574, 0.0
1575, 0.0
1576, 0.0
1577, 0.0
1578, 0.0
1579, 0.0
1580, 0.0
1581, 0.0
1582, 0.0
1583, 0.0
1584, 0.0
1585, 0.0
1586, 0.0
1587, 0.0
1588, 0.0
1589, 0.0
1590, 0.0
1591, 0.0
1592, 0.0
1593, 0.0
1594, 0.0
1595, 0.0
1596, 0.0
1597, 0.0
1598, 0.0
1599, 0.0
