30, 0.0
31, 0.0
32, 0.0
33, 0.0
34, 0.0
35, 0.0
36, 0.0
37, 0.0
38, 0.0
39, 0.0
40, 0.0
41, 0.0
42, 0.0
43, 0.0
44, 0.0
45, 0.0
46, 0.0
47, 0.0
48, 0.0
49, 0.0
50, 0.0
51, 0.0
52, 0.0
53, 0.0
54, 0.0
55, 0.0
56, 0.0
57, 0.0
58, 0.0
59, 0.0
60, 0.0
61, 0.0
62, 0.0
63, 0.0
64, 0.0
65, 0.0
66, 0.0
67, 0.0
68, 0.0
69, 0.0
70, 0.0
71, 0.0
72, 0.0
73, 0.0
74, 0.0
75, 0.0
76, 0.0
77, 0.0
78, 0.0
79, 0.0
80, 0.0
81, 0.0
82, 0.0
83, 0.0
84, 0.0
85, 0.0
86, 0.0
87, 0.0
88, 0.0
89, 0.0
90, 0.0
91, 0.0
92, 0.0
93, 0.0
94, 0.0
95, 0.0
96, 0.0
97, 0.0
98, 0.0
99, 0.0
100, 0.0
101, 0.0
102, 0.0
103, 0.0
104, 0.0
105, 0.0
106, 0.0
107, 0.0
108, 0.0
109, 0.0
110, 0.0
111, 0.0
112, 0.0
113, 0.0
114, 0.0
115, 0.0
116, 0.0
117, 0.0
118, 0.0
119, 0.0
120, 0.0
121, 0.0
122, 0.0
123, 0.0
124, 0.0
125, 0.0
126, 0.0
127, 0.0
128, 0.0
129, 0.0
130, 0.0
131, 0.0
132, 0.0
133, 0.0
134, 0.0
135, 0.0
136, 0.0
137, 0.0
138, 0.0
139, 0.0
140, 0.0
141, 0.0
142, 0.0
143, 0.0
144, 0.0
145, 0.0
146, 0.0
147, 0.0
148, 0.0
149, 0.0
150, 0.0
151, 0.0
152, 0.0
153, 0.0
154, 0.0
155, 0.0
156, 0.0
157, 0.0
158, 0.0
159, 0.0
160, 0.0
161, 0.0
162, 0.0
163, 0.0
164, 0.0
165, 0.0
166, 0.0
167, 0.0
168, 0.0
169, 0.0
170, 0.0
171, 0.0
172, 0.0
173, 0.0
174, 0.0
175, 0.0
176, 0.0
177, 0.0
178, 0.0
179, 0.0
180, 0.0
181, 0.0
182, 0.0
183, 0.0
184, 0.0
185, 0.0
186, 0.0
187, 0.0
188, 0.0
189, 0.0
190, 0.0
191, 0.0
192, 0.0
193, 0.0
194, 0.0
195, 0.0
196, 0.0
197, 0.0
198, 0.0
199, 0.0
200, 0.0
201, 0.0
202, 0.0
203, 0.0
204, 0.0
205, 0.0
206, 0.0
207, 0.0
208, 0.0
209, 0.0
210, 0.0
211, 0.0
212, 0.0
213, 0.0
214, 0.0
215, 0.0
216, 0.0
217, 0.0
218, 0.0
219, 0.0
220, 0.0
221, 0.0
222, 0.0
223, 0.0
224, 0.0
225, 0.0
226.0, 4.825352452228707e-05
227.0, 0.00018186475369353502
228.0, 0.00034402800164053755
229.0, 0.0010772123717401284
230.0, 0.0007119653269100563
231.0, 0.0009108802615851207
232.0, 0.0014919470025603753
233.0, 0.0005436811953270631
234.0, 0.002118505399223614
235.0, 0.0017092877118342498
236.0, 0.0015669112015606723
237.0, 0.0016708938741776262
238.0, 0.0017503841757174658
239.0, 0.0027244499334797946
240.0, 0.0024214254846758464
241.0, 0.0015069472819535692
242.0, 0.0012899864428464827
243.0, 0.0016078649525878771
244.0, 0.0013275025993027512
245.0, 0.0008607786108478104
246.0, 0.0006263850792691413
247.0, 0.0009872296361834105
248.0, 0.001156863952573452
249.0, 0.0006614025309511281
250.0, 6.610344483077039e-06
251.0, 0.000826511979714272
252.0, 0.0005438248869325567
253.0, 0.00023304564665567674
254.0, 0.00023545047258564881
255.0, 0.00040155512257950384
256.0, 0.0003034687617283214
257.0, 0.001195239376317233
258.0, 0.001414627560088366
259.0, 0.0014260274460814772
260.0, 0.001178286080740615
261.0, 4.705214268748678e-05
262.0, 0.0002687454032441078
263.0, 0.00021657019778740478
264.0, 0.00036685297685585573
265.0, 0.0005662025767987498
266.0, 0.0007191911288312825
267.0, 0.0012564790191169736
268.0, 0.0008211337526218873
269.0, 0.0008245046752961538
270.0, 0.0007825438493821041
271.0, 0.0010105427661781094
272.0, 0.0018885890027958787
273.0, 0.0016771919191650283
274.0, 0.0015338599669273982
275.0, 0.002024329686849978
276.0, 0.00217222478323094
277.0, 0.0019584248371082085
278.0, 0.0024841728843100603
279.0, 0.0023407143964637896
280.0, 0.0029091454778912653
281.0, 0.0037523408887460497
282.0, 0.004561914675495871
283.0, 0.005363401797516922
284.0, 0.006762112282111318
285.0, 0.0075116708285728785
286.0, 0.009847028192137662
287.0, 0.012561407403258713
288.0, 0.015476942984833932
289.0, 0.019017673043495758
290.0, 0.02357006849767003
291.0, 0.027934036873029387
292.0, 0.03431587907973335
293.0, 0.04099312415000702
294.0, 0.047211925123447504
295.0, 0.05349797546691742
296.0, 0.06016866265185947
297.0, 0.06768709865436319
298.0, 0.07424290963128692
299.0, 0.07921569635518035
300.0, 0.0824106053597983
301.0, 0.08377934190801287
302.0, 0.08035830122741472
303.0, 0.07757086623132226
304.0, 0.07261284507846752
305.0, 0.06615879229457798
306.0, 0.058870416469861575
307.0, 0.04840001016572507
308.0, 0.04215472982605719
309.0, 0.036249207834213384
310.0, 0.03116136236757607
311.0, 0.027297722693174545
312.0, 0.024484711357928197
313.0, 0.020891808293145776
314.0, 0.020295144554230114
315.0, 0.02032816711084458
316.0, 0.01948744198553847
317.0, 0.018708071870096234
318.0, 0.019910311408215524
319.0, 0.01923749758156273
320.0, 0.01896188168327176
321.0, 0.01926226654331639
322.0, 0.019392945381470402
323.0, 0.018677553952508984
324.0, 0.01708420644863444
325.0, 0.018220185988364727
326.0, 0.016160015172468803
327.0, 0.014522549477598552
328.0, 0.013316968324365802
329.0, 0.011836152159575657
330.0, 0.009750266127679128
331.0, 0.0074948759316618525
332.0, 0.00630947051683056
333.0, 0.00539815565480934
334.0, 0.004550456592804091
335.0, 0.0038909469170371946
336.0, 0.003771333984961979
337.0, 0.0037076252175039723
338.0, 0.0029495175854333797
339.0, 0.0023112660235138417
340.0, 0.0021327467314732436
341.0, 0.0022617752853389995
342.0, 0.0019453489478058216
343.0, 0.0012354172285868256
344.0, 0.0011214501571239367
345.0, 0.000978403438350461
346.0, 0.0008594417909929586
347.0, 0.0009107270074584038
348.0, 0.00014425747774195966
349.0, 0.0006310911523140939
350.0, 0.0007287312725327463
351.0, 0.0010003882598312941
352.0, 0.001223021900048166
353.0, 0.0008010185175518201
354.0, 0.00017982023813231906
355.0, 0.000537127760728471
356.0, 0.0004716088891774175
357.0, 0.00028775942715595786
358.0, 0.00040041104234361227
359.0, 0.0008480648792107281
360.0, 0.0001299254257681162
361.0, 0.000645896208736142
362.0, 0.0005247342128450899
363.0, 0.00021125978847607145
364.0, 0.00014188138729275045
365.0, 0.000347703550191912
366.0, 0.00010060610713748578
367.0, 0.00017818662859493497
368.0, 0.00011843503750551806
369.0, 9.251932931543648e-05
370.0, 0.00013392926424121352
371.0, 0.00011724577229459879
372.0, 0.0002472248270255957
373.0, 0.0001970891242640676
374.0, 7.614008173013507e-05
375.0, 0.00015208366373502648
376.0, 0.000272734798985074
377.0, 2.7704397886256133e-05
378.0, 6.878496366770427e-05
379.0, 0.0004230551703032037
380.0, 0.00045703411926446006
381.0, 0.0005831127522927516
382.0, 0.0008359179751611683
383.0, 0.0008320628494798442
384.0, 0.00090306686799858
385.0, 0.0007466208324771087
386.0, 0.0008990986056558338
387.0, 0.0008897134748165581
388.0, 0.0006901631985561409
389.0, 0.0007699233797736759
390.0, 0.0011766819887006224
391.0, 0.0010328486607845753
392.0, 0.001291039350975627
393.0, 0.0017145625843219623
394.0, 0.0017237367407169895
395.0, 0.0010093573321179976
396.0, 0.0013357840831932414
397.0, 0.0014936973681877953
398.0, 0.0022291371107959826
399.0, 0.0027060092884381957
400.0, 0.0030204223991024
401.0, 0.0038675549825247573
402.0, 0.004331950411305721
403.0, 0.005446644694892995
404.0, 0.006881449031268906
405.0, 0.0077583443650426406
406.0, 0.008823025206475321
407.0, 0.011255194852415839
408.0, 0.013187166373202308
409.0, 0.015397874553849
410.0, 0.017158505797842963
411.0, 0.018669498915893576
412.0, 0.02008180812398699
413.0, 0.021368659247960862
414.0, 0.02221874739018916
415.0, 0.021803220052336106
416.0, 0.021051250369037888
417.0, 0.020404240794290537
418.0, 0.019625831637038633
419.0, 0.018254238115501815
420.0, 0.016191870808790036
421.0, 0.013931740200265396
422.0, 0.01239046611681195
423.0, 0.010661130016843717
424.0, 0.009399291960350144
425.0, 0.00906432263157049
426.0, 0.00841085251109926
427.0, 0.006637858671646784
428.0, 0.006077782109202354
429.0, 0.00624794960411565
430.0, 0.006148562203331463
431.0, 0.005483780710802307
432.0, 0.005138314864819788
433.0, 0.004296990586831257
434.0, 0.0036069531005922047
435.0, 0.0030052312680223046
436.0, 0.002753004060704713
437.0, 0.0025652731137458815
438.0, 0.0017895320842954165
439.0, 0.0020366699260496684
440.0, 0.0011037281213129456
441.0, 0.001485486709242269
442.0, 0.0013291061452364594
443.0, 0.00047647291141609594
444.0, 0.0003873203098070959
445.0, 0.000651593147850216
446.0, 0.0008601279088568339
447.0, 0.0005501715911858359
448.0, 0.0005333718210281676
449.0, 0.0007365481615046144
450.0, 0.0007095030695249858
451.0, 0.0006952125766346051
452.0, 0.00022225061743087984
453.0, 0.00015215701295749785
454.0, 0.00021508865884093775
455.0, 0.00018076171155411162
456.0, 7.799570701905412e-05
457.0, 0.00027355124244742414
458.0, 0.0001856071481886659
459.0, 0.0004278437574791806
460.0, 0.00046865485310358516
461.0, 0.000543664972688073
462.0, 0.0008094826220384081
463.0, 0.000990651869907276
464.0, 0.00023350422658529414
465.0, 0.00022106091457801955
466.0, 0.000299331112776429
467.0, 0.000496695855335761
468.0, 0.0006282212125635868
469.0, 0.00047478638012783675
470.0, 0.0005279897773162865
471.0, 0.0004316104497804347
472.0, 0.00045714846911753556
473.0, 0.0004964471300350651
474.0, 0.0006224584274400665
475.0, 0.0008679023063228685
476.0, 0.0009984626784464638
477.0, 0.001230237755699989
478.0, 0.0013849924282913575
479.0, 0.0013584756552881471
480.0, 0.0012986654883746773
481.0, 0.0011139114521230315
482.0, 0.0005612088675398192
483.0, 0.001070170787161002
484.0, 0.001223365152636373
485.0, 0.0016937860451044229
486.0, 0.002644898905718884
487.0, 0.0027308637998812693
488.0, 0.001040342071022601
489.0, 0.001228765144444833
490.0, 0.0005153543772775941
491.0, 0.001881759153960978
492.0, 0.0020583280057859476
493.0, 0.0018698797669915923
494.0, 0.002346499108547835
495.0, 0.001733093978392686
496.0, 0.0008034571020584125
497.0, 0.0013204358901085693
498.0, 0.0017853445584425872
499.0, 0.001512993886133678
500.0, 0.0010291817223731729
501.0, 0.0012818895750503028
502.0, 0.0008218610818061145
503.0, 0.0017319026206251728
504.0, 0.0013032278509982364
505.0, 0.0010200258070411175
506.0, 0.0012756298481087019
507.0, 0.001602232848724574
508.0, 0.0014790309121574788
509.0, 0.0015548772734324395
510.0, 0.0016708878592198869
511.0, 0.001079806897341704
512.0, 0.0009227050453686736
513.0, 0.001352375271884976
514.0, 0.001304245431964229
515.0, 0.0015860098987432536
516.0, 0.0019575366406309248
517.0, 0.0021212080641381686
518.0, 0.0017529062597088825
519.0, 0.0016096183875338437
520.0, 0.0021943700355095317
521.0, 0.0022939441083734734
522.0, 0.0013544796682935015
523.0, 0.0006589625448915152
524.0, 0.0007432651304799739
525.0, 0.0013478704644206056
526.0, 0.001740300881925427
527.0, 0.0014607078730711764
528.0, 0.002226907407337577
529.0, 0.0014413630450243078
530.0, 0.0012495643383884701
531.0, 0.0009694030066290159
532.0, 0.0011765253599369517
533.0, 0.00201202019544335
534.0, 0.0017671887928505758
535.0, 0.0022195276295268094
536.0, 0.002606936756469344
537.0, 0.0024324849708401626
538.0, 0.002950831070616586
539.0, 0.0037845961707144364
540.0, 0.003658842814607783
541.0, 0.004149785133641303
542.0, 0.00347743296996171
543.0, 0.004104300288795953
544.0, 0.0044648911612365175
545.0, 0.004452195195583211
546.0, 0.004303186797067252
547.0, 0.003960851478849269
548.0, 0.004602260254670267
549.0, 0.004609945081305074
550.0, 0.004310529892289558
551.0, 0.004000863643916428
552.0, 0.0036572015915668546
553.0, 0.0035652510887598968
554.0, 0.004946462401107538
555.0, 0.004250967065206614
556.0, 0.005166368476522778
557.0, 0.006068762415721205
558.0, 0.006185274369172755
559.0, 0.00583770074970709
560.0, 0.005905446817959672
561.0, 0.006207870981212297
562.0, 0.005977040346154221
563.0, 0.005995749528408273
564.0, 0.006289972953803086
565.0, 0.006741270584324838
566.0, 0.007441691449482233
567.0, 0.008548578036661853
568.0, 0.008256047991861016
569.0, 0.008384333651662055
570.0, 0.008917846082282832
571.0, 0.00909599213617852
572.0, 0.009398887006446198
573.0, 0.010533753027196611
574.0, 0.01201050710176708
575.0, 0.012250972721889283
576.0, 0.013467835923381643
577.0, 0.013739122720846549
578.0, 0.013996146533361398
579.0, 0.015230920819309763
580.0, 0.01728910485717136
581.0, 0.018284735416221453
582.0, 0.018142595801405405
583.0, 0.02040523880283728
584.0, 0.02266630684303639
585.0, 0.02430835264551197
586.0, 0.02627747520683345
587.0, 0.029753915095289064
588.0, 0.0331805946664111
589.0, 0.035476587972890494
590.0, 0.0395653615434213
591.0, 0.04583886618289699
592.0, 0.052880360030577264
593.0, 0.060067473024988834
594.0, 0.06826449249610442
595.0, 0.07661622135936413
596.0, 0.08655002094351955
597.0, 0.09579800222778433
598.0, 0.10663329861940694
599.0, 0.11656379676091536
600.0, 0.12513473742745612
601.0, 0.1365782762776414
602.0, 0.14304527994935223
603.0, 0.14676435054149553
604.0, 0.14666986361433254
605.0, 0.14570133507727157
606.0, 0.1422459688010554
607.0, 0.13455542124372152
608.0, 0.12540090489438074
609.0, 0.11797702561613535
610.0, 0.1053477028179985
611.0, 0.09157222168373323
612.0, 0.08090704848904443
613.0, 0.072298778407632
614.0, 0.06309273981445518
615.0, 0.05403232463052723
616.0, 0.04705942362834267
617.0, 0.04098334049626827
618.0, 0.03571797440623777
619.0, 0.03178466710006583
620.0, 0.028823143509981487
621.0, 0.025963847574795054
622.0, 0.022745414622674282
623.0, 0.02030493700462215
624.0, 0.019133668062669095
625.0, 0.017050131481753796
626.0, 0.015088007321901924
627.0, 0.013527970300867914
628.0, 0.012131961846757522
629.0, 0.011241840402191942
630.0, 0.009698699868290594
631.0, 0.008884976683081268
632.0, 0.008159451685658708
633.0, 0.0074541063334459465
634.0, 0.007173858197708826
635.0, 0.007095808829504595
636.0, 0.0057567499977603555
637.0, 0.005825896874517581
638.0, 0.004834955391680929
639.0, 0.004717069718394847
640.0, 0.0047307461786004
641.0, 0.004704184755114008
642.0, 0.004792029082410281
643.0, 0.00459881646868073
644.0, 0.003433684995008258
645.0, 0.0038191796260899254
646.0, 0.0033595390824447333
647.0, 0.003416842650093372
648.0, 0.003755910917971928
649.0, 0.0034816372186432156
650.0, 0.002725510390049754
651.0, 0.0024384170883880517
652.0, 0.002241463701026098
653.0, 0.00236098053519185
654.0, 0.0023423784927891415
655.0, 0.0019883898238970818
656.0, 0.0017722639877870482
657.0, 0.0023145699334197246
658.0, 0.001447802323477996
659.0, 0.0015363631499294016
660.0, 0.0011607592517649855
661.0, 0.0011463082659325936
662.0, 0.0008985694254120069
663.0, 0.0002758630774219597
664.0, 0.00014126061371383646
665.0, 9.057583264596528e-05
666.0, 0.00023618481059348514
667.0, 0.0003517898463677786
668.0, 0.0004473705716338316
669.0, 0.000355576212599497
670.0, 0.00035226678457218603
671.0, 0.0007038298089974377
672.0, 0.0003493341191549272
673.0, 0.000620099395561479
674.0, 0.00020119414138660346
675.0, 0.0003151582599519443
676.0, 0.0010106525880127597
677.0, 0.0014007522391940685
678.0, 0.0010092594546511082
679.0, 0.0010797714631236106
680.0, 0.0008122656565229992
681.0, 0.0007805974537924576
682.0, 0.0006106993654788941
683.0, 0.000595287073896412
684.0, 0.0004655119708213534
685.0, 0.0004235029774439663
686.0, 0.001508600756211634
687.0, 0.0018254361929963842
688.0, 0.00042505117660774174
689.0, 0.0010359632399257403
690.0, 0.000861819209263068
691.0, 0.00027897258416593806
692.0, 0.000523862124908444
693.0, 0.0013115698372078326
694.0, 0.00015284864916973568
695.0, 0.0009942673594185458
696.0, 0.0004261878859311573
697.0, 0.0009995006661768602
698.0, 0.0011192765758584237
699.0, 0.0005081431916837513
700.0, 0.00029121394084839487
701.0, 0.00016582671808009665
702.0, 0.00013748478788169026
703.0, 0.0005176011708464357
704.0, 0.000387307652624937
705.0, 0.0002714091711582295
706.0, 0.00037694356725981743
707.0, 0.0006165693078841061
708.0, 0.0008465339182815748
709.0, 0.0005854144011280725
710.0, 0.00014809368309745045
711.0, 0.0003469053126803164
712.0, 0.0007295720537957389
713.0, 0.000713513731851101
714.0, 0.0009662329788293759
715.0, 0.001969598607188389
716.0, 0.0010973902075522663
717.0, 0.0022661744803871503
718.0, 0.0024133072503194635
719.0, 0.0022563468701925107
720.0, 0.0017191655936493265
721.0, 0.0017223201750933884
722.0, 0.0026737551951901846
723.0, 0.0033542427163996864
724.0, 0.003556817038261279
725.0, 0.0028425845252243397
726.0, 0.003921701212126116
727.0, 0.004040044667594216
728.0, 0.0034773693311443738
729.0, 0.0032803564492689757
730.0, 0.0039374425499594185
731.0, 0.005383797458529832
732.0, 0.004882074724718068
733.0, 0.004906778838011709
734.0, 0.004838973332031534
735.0, 0.004768827836335516
736.0, 0.0053333799397238665
737.0, 0.006144346945350123
738.0, 0.005896707549784165
739.0, 0.006565877979106068
740.0, 0.006155179946659254
741.0, 0.005955192843204188
742.0, 0.007093173193801439
743.0, 0.007703162772708655
744.0, 0.007992187915365658
745.0, 0.008581030271617973
746.0, 0.007290542555080974
747.0, 0.009336357355471312
748.0, 0.01020697730234198
749.0, 0.009597920989523103
750.0, 0.008909361591654877
751.0, 0.008833956091548184
752.0, 0.009546852455517606
753.0, 0.010539655589991063
754.0, 0.01007086398561617
755.0, 0.009854154846403767
756.0, 0.010486588114735532
757.0, 0.010588815633638659
758.0, 0.011027757970748788
759.0, 0.011319095351488546
760.0, 0.010785682682117338
761.0, 0.010067082265608032
762.0, 0.010619677094706974
763.0, 0.01086968850971516
764.0, 0.012246163897158546
765.0, 0.012551469316944295
766.0, 0.012971649687281728
767.0, 0.013757294374255774
768.0, 0.014557616533373107
769.0, 0.01584129787943919
770.0, 0.016518212032517462
771.0, 0.016387652772444073
772.0, 0.018594073386785613
773.0, 0.020431872084554065
774.0, 0.021157827030400624
775.0, 0.0216921618729333
776.0, 0.02292734207235831
777.0, 0.0242377138065105
778.0, 0.025383092888844556
779.0, 0.02633698093030544
780.0, 0.02659525303127314
781.0, 0.026272605888387097
782.0, 0.025641253665270102
783.0, 0.025093012792609566
784.0, 0.02505759747013909
785.0, 0.025747881240877835
786.0, 0.02606415253559325
787.0, 0.02669098665224021
788.0, 0.027398556925480325
789.0, 0.028341232891165663
790.0, 0.029172933158264292
791.0, 0.029993600473422956
792.0, 0.031197302843928163
793.0, 0.0324493920738025
794.0, 0.034762490962400604
795.0, 0.037282182085715834
796.0, 0.040137936352661906
797.0, 0.042925674511566946
798.0, 0.04585910310890866
799.0, 0.05030541029795776
800.0, 0.05635191428360773
801.0, 0.05990083824622167
802.0, 0.06590123438841301
803.0, 0.07367451949230985
804.0, 0.08206939160129989
805.0, 0.0898411092260428
806.0, 0.10092171362385029
807.0, 0.11623844972131726
808.0, 0.13316336665271475
809.0, 0.15266386732903317
810.0, 0.1752669241910896
811.0, 0.20679676984664577
812.0, 0.24620300226893915
813.0, 0.2958380329189407
814.0, 0.35512540137517795
815.0, 0.4249375167399653
816.0, 0.5053927183419225
817.0, 0.5902141034259752
818.0, 0.6769382648652643
819.0, 0.7557752811752297
820.0, 0.8237109068025582
821.0, 0.8749402323619064
822.0, 0.8957169269017887
823.0, 0.885591560600185
824.0, 0.8500713889520729
825.0, 0.7845829209419628
826.0, 0.703293519209851
827.0, 0.6143905108639297
828.0, 0.5300267772640874
829.0, 0.45237038249269146
830.0, 0.38983107664615635
831.0, 0.34070636173855545
832.0, 0.2999615878245247
833.0, 0.26935357917792974
834.0, 0.24594690384785292
835.0, 0.23584794961404804
836.0, 0.22403126996210387
837.0, 0.2197325303055559
838.0, 0.21952744069737037
839.0, 0.22396931177486595
840.0, 0.23321097314500264
841.0, 0.24517747095813475
842.0, 0.2664442407910895
843.0, 0.29733968443109215
844.0, 0.33421101703233314
845.0, 0.38272737664285955
846.0, 0.44176086874819626
847.0, 0.5143160903953345
848.0, 0.5967286347972968
849.0, 0.680720217845334
850.0, 0.7667566033566621
851.0, 0.8550492680950968
852.0, 0.9245894492313472
853.0, 0.9753919022896489
854.0, 0.9960561847992186
855.0, 0.9871549291067274
856.0, 0.9522483594525643
857.0, 0.8917380822191951
858.0, 0.8055595954154668
859.0, 0.7070826532936662
860.0, 0.6098087124605006
861.0, 0.5201627925031874
862.0, 0.43979805179083686
863.0, 0.36855882483742064
864.0, 0.3112692540987837
865.0, 0.265155485366438
866.0, 0.2229878543044685
867.0, 0.19223145974877776
868.0, 0.16457916314270307
869.0, 0.14411824853491345
870.0, 0.12402165231438608
871.0, 0.10831843383088555
872.0, 0.09669321038163213
873.0, 0.08717676528500674
874.0, 0.07861094501498478
875.0, 0.07086127911455817
876.0, 0.06300694007081292
877.0, 0.05792950810616512
878.0, 0.05480762917617711
879.0, 0.05026163120070439
880.0, 0.046303047884382005
881.0, 0.04366398181291545
882.0, 0.041001933722447655
883.0, 0.03728342623300522
884.0, 0.034112294433005445
885.0, 0.03173406755125781
886.0, 0.027168288304271145
887.0, 0.024684445696512874
888.0, 0.021154454761483733
889.0, 0.019391465052456675
890.0, 0.018172749738245182
891.0, 0.016137336041041107
892.0, 0.015138647044978375
893.0, 0.01389918670298638
894.0, 0.012775429778270703
895.0, 0.01074715283464005
896.0, 0.009072181910243894
897.0, 0.008585199444172622
898.0, 0.008185316794464225
899.0, 0.007520176171481255
900.0, 0.006715042990165917
901.0, 0.00549740336159081
902.0, 0.0053894323656348535
903.0, 0.0059571341649651685
904.0, 0.004953623318224546
905.0, 0.0057367593210596686
906.0, 0.005278708542189638
907.0, 0.004464468485493006
908.0, 0.004349744431259217
909.0, 0.004421680974292578
910.0, 0.004291365654378025
911.0, 0.003874285245093992
912.0, 0.0035791802582762567
913.0, 0.0030086001262803024
914.0, 0.0037754045713982902
915.0, 0.003980612515660799
916.0, 0.003972625174753578
917.0, 0.0038139247953412033
918.0, 0.0032099842269728823
919.0, 0.003443098294337822
920.0, 0.003018529592825574
921.0, 0.00262627348845281
922.0, 0.002956762137047166
923.0, 0.0026549534537574394
924.0, 0.001909426742268702
925.0, 0.0016481077707207726
926.0, 0.0022754840673173847
927.0, 0.002780921371331785
928.0, 0.0018639915824171544
929.0, 0.003018983843345348
930.0, 0.0025795254777835537
931.0, 0.003620182436194203
932.0, 0.003984724069322287
933.0, 0.004112872371358105
934.0, 0.004283015923457413
935.0, 0.004591960466105225
936.0, 0.005452441771075435
937.0, 0.007092436179687923
938.0, 0.007412890483226192
939.0, 0.00857703815405631
940.0, 0.009297606160913829
941.0, 0.010343694152063009
942.0, 0.012643040438554768
943.0, 0.015256258500269716
944.0, 0.017343422518283417
945.0, 0.019319619544704594
946.0, 0.022042108195399278
947.0, 0.025153203120031407
948.0, 0.029820187450446352
949.0, 0.03495681415031735
950.0, 0.039486273012633605
951.0, 0.04702586792302003
952.0, 0.05567956210181962
953.0, 0.06435855561052826
954.0, 0.07486109429457746
955.0, 0.08752780280699346
956.0, 0.09696792973081592
957.0, 0.10929923350703992
958.0, 0.11878502075842158
959.0, 0.1271872297828384
960.0, 0.1346303239390497
961.0, 0.13892752064976668
962.0, 0.1403919463513056
963.0, 0.13886642781059136
964.0, 0.1336388845743555
965.0, 0.12771807286146888
966.0, 0.11890809780404013
967.0, 0.10945049847158297
968.0, 0.09929021759239358
969.0, 0.08932504563974254
970.0, 0.07891229462027397
971.0, 0.06933189272199967
972.0, 0.06089893774865103
973.0, 0.05317204478872631
974.0, 0.04681477066082839
975.0, 0.040799953662531925
976.0, 0.036427871767027574
977.0, 0.03322239015683777
978.0, 0.028905938532346534
979.0, 0.02557517917010481
980.0, 0.022781403510102972
981.0, 0.020434471505649515
982.0, 0.01852019996020191
983.0, 0.01668465145161029
984.0, 0.0155156760472851
985.0, 0.013762941911048482
986.0, 0.012993163186844223
987.0, 0.012439519961535809
988.0, 0.011321664856916571
989.0, 0.010080047878027389
990.0, 0.00890086062888166
991.0, 0.008884403057229658
992.0, 0.009452377899901995
993.0, 0.008244584758200876
994.0, 0.008703950503855432
995.0, 0.007698800664258599
996.0, 0.008158478313004574
997.0, 0.008252384780311428
998.0, 0.0072012137538833825
999.0, 0.0067384824140037545
1000.0, 0.006702595725014989
1001.0, 0.006686168376568455
1002.0, 0.0070099348166790965
1003.0, 0.0073532181625567345
1004.0, 0.007300849621591708
1005.0, 0.0066912021344021294
1006.0, 0.006328873860956278
1007.0, 0.005092875117463992
1008.0, 0.0046909257805271345
1009.0, 0.004136203428168005
1010.0, 0.003386277759619611
1011.0, 0.0028332217153796725
1012.0, 0.002407532672353328
1013.0, 0.002264772797752457
1014.0, 0.0014609279856063397
1015.0, 0.0015987891190355837
1016.0, 0.00240474649586628
1017.0, 0.002091153514621551
1018.0, 0.0022795124709103437
1019.0, 0.002849894534725129
1020.0, 0.002806388344400706
1021.0, 0.0027025890386809725
1022.0, 0.0034754898564929165
1023.0, 0.003428506394578696
1024.0, 0.002859712568300337
1025.0, 0.002230840877319763
1026.0, 0.0031862525063753575
1027.0, 0.002537527518223815
1028.0, 0.002357936283819067
1029.0, 0.0021479634292264605
1030.0, 0.0018473662089481266
1031.0, 0.0019448728069544961
1032.0, 0.0024338015210575016
1033.0, 0.0028148418377804706
1034.0, 0.0019007072914118029
1035.0, 0.00204653717579106
1036.0, 0.0022121527927592647
1037.0, 0.0010255061564211003
1038.0, 0.0016220673833038815
1039.0, 0.0019385967681381595
1040.0, 0.0014128514584152076
1041.0, 0.0008483174243525386
1042.0, 0.0008390008389094043
1043.0, 0.001605322844897106
1044.0, 0.001388714101559173
1045.0, 0.0002542906640845171
1046.0, 0.0017064933301498774
1047.0, 0.0016077878828818918
1048.0, 0.00082089746381815
1049.0, 0.0011076655546465336
1050.0, 0.0008176017689029855
1051.0, 0.00038298357205061704
1052.0, 0.0007524019293602181
1053.0, 0.0004429173433883582
1054.0, 0.0011629195219150967
1055.0, 0.0007030098441171404
1056.0, 0.0004741742668759977
1057.0, 0.00041503915528508787
1058.0, 0.000421089634266476
1059.0, 0.0007925625754291269
1060.0, 0.0012750885165625778
1061.0, 0.0012520228224346644
1062.0, 0.0009269061361154254
1063.0, 0.0010349693399676497
1064.0, 0.0012034895641767091
1065.0, 0.0008059317869769247
1066.0, 0.0007072309381028496
1067.0, 0.0010089667919646118
1068.0, 0.0012432680187457862
1069.0, 0.0013407907301956363
1070.0, 0.001242701913530837
1071.0, 0.0012628000463280168
1072.0, 0.0011003716570795752
1073.0, 0.0004858678488252478
1074.0, 0.00010201733231153827
1075.0, 0.0003797692385980059
1076.0, 0.0010535418824136867
1077.0, 0.0010265105834235215
1078.0, 0.000666978933124371
1079.0, 0.0006548446171763364
1080.0, 0.00043958291211372374
1081.0, 0.000491193163592916
1082.0, 0.0009534759332567102
1083.0, 0.001055424621001406
1084.0, 0.0006631501631865418
1085.0, 0.00078335611052818
1086.0, 0.0004310318782839851
1087.0, 0.0005651392276486161
1088.0, 0.00018738078069268003
1089.0, 0.00017892160464033172
1090.0, 0.00035810750162707276
1091.0, 0.00029759124042557815
1092.0, 0.0004881139599793958
1093.0, 0.00047107382532540645
1094.0, 0.0005138506695997447
1095.0, 0.0009472800945037412
1096.0, 0.00037269994247229356
1097.0, 0.00030829848593767734
1098.0, 0.0003512785076375019
1099.0, 0.0009002214479601284
1100.0, 0.001285226300134008
1101.0, 0.001548707889354029
1102.0, 0.0011572929172402582
1103.0, 0.0014363379689160383
1104.0, 0.0014639704524115284
1105.0, 0.0006571796628855334
1106.0, 0.000416901039261615
1107.0, 0.000925615008938075
1108.0, 0.0006561515329547857
1109.0, 0.0021393151971212084
1110.0, 0.0018037762850803948
1111.0, 0.0016019151577356793
1112.0, 0.0010905541049257967
1113.0, 0.0007101644796646876
1114.0, 0.0016549534415528173
1115.0, 0.0022123787153639357
1116.0, 0.0021175134185066327
1117.0, 0.0019372245592271385
1118.0, 0.0008408113847701364
1119.0, 0.00204387084833971
1120.0, 0.0019872816972123057
1121.0, 0.0013527832691076214
1122.0, 0.0029490909841634063
1123.0, 0.002656594761546875
1124.0, 0.0029453752762253187
1125.0, 0.0024373336275576446
1126.0, 0.0021052153206726726
1127.0, 0.001957345583469162
1128.0, 0.001532585038763977
1129.0, 0.0014714370033461995
1130.0, 0.001045586953000762
1131.0, 0.001732359331645564
1132.0, 0.001668835047604362
1133.0, 0.0015016432650140831
1134.0, 0.002210645589873243
1135.0, 0.0019033250534323436
1136.0, 0.002154256320337164
1137.0, 0.0024607915465920693
1138.0, 0.0016993053397500297
1139.0, 0.0008543467475892399
1140.0, 0.0013560217459070286
1141.0, 0.002088678808751342
1142.0, 0.0017963336423304518
1143.0, 0.0027879850272470048
1144.0, 0.0024676308135999155
1145.0, 0.002267436245334672
1146.0, 0.0022551128659764534
1147.0, 0.002355116435492945
1148.0, 0.002028253459913427
1149.0, 0.0017286197460796952
1150.0, 0.0024474740636794678
1151.0, 0.0032864617465617318
1152.0, 0.0031277282931135306
1153.0, 0.003147631786982234
1154.0, 0.0021644330323670716
1155.0, 0.0042810386185860964
1156.0, 0.0029999526401798004
1157.0, 0.0023328797049804516
1158.0, 0.0035172936369824398
1159.0, 0.002896630070801709
1160.0, 0.003357448685085961
1161.0, 0.0034317833031701672
1162.0, 0.0028455619569824333
1163.0, 0.0027074090894652495
1164.0, 0.0026859910584409352
1165.0, 0.002706892298237734
1166.0, 0.002724224973559187
1167.0, 0.003188769551972279
1168.0, 0.0020529707113191966
1169.0, 0.0038349867439273254
1170.0, 0.0036634199666614182
1171.0, 0.003459297215374968
1172.0, 0.0025262392546704484
1173.0, 0.0025384039763344792
1174.0, 0.0025283197205895665
1175.0, 0.002388935580858042
1176.0, 0.0028271637383609
1177.0, 0.0020754073738906594
1178.0, 0.0028322149502816264
1179.0, 0.002523561196667823
1180.0, 0.0029660001490678612
1181.0, 0.0030581580920556657
1182.0, 0.002873308770529604
1183.0, 0.002510958743846905
1184.0, 0.0025560806275148912
1185.0, 0.0026274506094086545
1186.0, 0.0027900002537038456
1187.0, 0.0028611872282685536
1188.0, 0.002978131433111125
1189.0, 0.0035399441755728
1190.0, 0.003247909179987034
1191.0, 0.0025044218837185343
1192.0, 0.0032909218738419728
1193.0, 0.002348781315274027
1194.0, 0.0025279937923847516
1195.0, 0.002517525393291512
1196.0, 0.0026799846261749824
1197.0, 0.002065803285285969
1198.0, 0.0023682801033294934
1199.0, 0.0031546650445212028
1200.0, 0.0029794020513715437
1201.0, 0.0022128283564133095
1202.0, 0.0017797029839635317
1203.0, 0.0018826006011578834
1204.0, 0.0020819755826336603
1205.0, 0.0028756846605021264
1206.0, 0.003314381565284242
1207.0, 0.0029698514469563135
1208.0, 0.0032937653803545726
1209.0, 0.0033470680258809024
1210.0, 0.003228655287629445
1211.0, 0.0032650524726135534
1212.0, 0.0028284021326870396
1213.0, 0.0023224493248014053
1214.0, 0.003228270731866416
1215.0, 0.004445701505559459
1216.0, 0.0029374503121688852
1217.0, 0.0027969583853010094
1218.0, 0.0042113556665992775
1219.0, 0.0034588606490149627
1220.0, 0.0035103851778679586
1221.0, 0.0034686478937902164
1222.0, 0.004896860696625
1223.0, 0.004418663148791555
1224.0, 0.0039435048773853905
1225.0, 0.004258898957343198
1226.0, 0.003539489951216675
1227.0, 0.0024837539558528435
1228.0, 0.0033743728023308737
1229.0, 0.004183774743068882
1230.0, 0.00395297527096447
1231.0, 0.004416326035428242
1232.0, 0.0029635430949138124
1233.0, 0.004585823133976166
1234.0, 0.004179395295377459
1235.0, 0.0035508466874959754
1236.0, 0.003839178313559047
1237.0, 0.0035861997178475184
1238.0, 0.002961549907860384
1239.0, 0.002804195646502401
1240.0, 0.0031809190550225247
1241.0, 0.0036248377255465427
1242.0, 0.0034675686136108174
1243.0, 0.0029551195779042327
1244.0, 0.00282030449867223
1245.0, 0.0031090160662388005
1246.0, 0.0031835649913685387
1247.0, 0.002151808619029616
1248.0, 0.0033778541586934234
1249.0, 0.0027071794499919162
1250.0, 0.0028073552343001154
1251.0, 0.002856641618960023
1252.0, 0.002457046972258114
1253.0, 0.0020105457806838816
1254.0, 0.0017882697138575348
1255.0, 0.0017543981184436628
1256.0, 0.0013661954756579665
1257.0, 0.0026933927179362193
1258.0, 0.003301317084222416
1259.0, 0.0009329335047453663
1260.0, 0.0017385541449991303
1261.0, 0.0010220209694361932
1262.0, 0.0020377883117946314
1263.0, 0.002115916771802787
1264.0, 0.0018738379420949508
1265.0, 0.001957653730259328
1266.0, 0.002107794569408534
1267.0, 0.0018477449983045119
1268.0, 0.001413024339164291
1269.0, 0.0015527410447147621
1270.0, 0.002081423004536492
1271.0, 0.0018326619726772868
1272.0, 0.0014310231787591902
1273.0, 0.001488709423896516
1274.0, 0.0022972646810025476
1275.0, 0.0005051403747572481
1276.0, 0.0015283799683845605
1277.0, 0.001740624598490446
1278.0, 0.0013566353013423395
1279.0, 0.001584940671294837
1280.0, 0.001240000612595113
1281.0, 0.0010598549047022543
1282.0, 0.0012867942012740024
1283.0, 0.0012894712054129268
1284.0, 0.001878194714837179
1285.0, 0.002068243869121925
1286.0, 0.0009139026583312132
1287.0, 0.00011592873951091242
1288.0, 0.0014871410019385114
1289.0, 0.0015850460400471623
1290.0, 0.0005081338133206446
1291.0, 0.0010577522530020264
1292.0, 0.001290323242204745
1293.0, 0.0008639302213382519
1294.0, 0.0006194866678949406
1295.0, 0.0006097978319462402
1296.0, 0.0005582977385944433
1297.0, 0.0006230479992215586
1298.0, 0.0007582590787389351
1299.0, 0.0006959484749677213
1300.0, 0.0008032763317347581
1301.0, 0.0007971316933291396
1302.0, 0.0007151672266700131
1303.0, 0.0005424455206068311
1304.0, 0.0005268040000856962
1305.0, 0.0009224705772330066
1306.0, 0.0007693758012184075
1307.0, 0.0010814400019998477
1308.0, 0.0008947921531717778
1309.0, 0.0012467380392515543
1310.0, 0.001669026177116774
1311.0, 0.0014388428684140363
1312.0, 0.0008343889071137454
1313.0, 0.000833649070046757
1314.0, 0.0013292580835690185
1315.0, 0.000984111998413662
1316.0, 0.0007449207978631697
1317.0, 0.0014801986772689651
1318.0, 0.0006078902363671158
1319.0, 0.0012900604319434543
1320.0, 0.001409563915962288
1321.0, 0.0008591793733181209
1322.0, 0.000313284243699893
1323.0, 0.0006419009865229731
1324.0, 0.0006556198516593131
1325.0, 0.0013627679241714108
1326.0, 0.001864262832338126
1327.0, 0.001604783529879549
1328.0, 0.001230733496348781
1329.0, 0.0008601292324925164
1330.0, 0.00034551002571292093
1331.0, 0.00047012700320897934
1332.0, 0.0013805200134004202
1333.0, 0.001254912203165032
1334.0, 0.0005311668477416874
1335.0, 0.001244587479621877
1336.0, 0.0001868240305187048
1337.0, 0.0009212936969873289
1338.0, 0.0012817544091368346
1339.0, 0.0013989532759298014
1340.0, 0.0009827991684564865
1341.0, 0.0006602302143074938
1342.0, 0.00045055309169018633
1343.0, 0.00029448823084837636
1344.0, 0.000176977252709606
1345.0, 0.00014768905728077556
1346.0, 0.0002691818163071943
1347.0, 0.00039209043763062607
1348.0, 0.000426681689647531
1349.0, 0.0005773744282996853
1350.0, 0.0008900437179354202
1351.0, 0.0008539491222637006
1352.0, 0.0004064350852163861
1353.0, 0.0007234394231372873
1354.0, 0.0004479510452174526
1355.0, 0.00080171409465983
1356.0, 0.0012164669855592265
1357.0, 0.0008822034441270376
1358.0, 0.00027296158619087764
1359.0, 0.000587412067365778
1360.0, 0.0004946043174947678
1361.0, 0.0002641961494665106
1362.0, 0.000300709242955842
1363.0, 6.233723487887396e-05
1364.0, 0.0002802518141734317
1365.0, 0.0007309727245832963
1366.0, 0.0005004433859715964
1367.0, 0.0013506908071163996
1368.0, 0.0007872066407304647
1369.0, 0.001049745702551507
1370.0, 0.00011795178122489173
1371.0, 0.0014895481263747182
1372.0, 0.0013309335032652945
1373.0, 0.0014806196088355571
1374.0, 0.0017418473228644803
1375.0, 0.0014084508512479696
1376.0, 0.0015779672673418956
1377.0, 0.0011465545248396305
1378.0, 0.0006910666615738549
1379.0, 0.0005271171306999205
1380.0, 0.0002778382158111943
1381.0, 0.0006982894396139576
1382.0, 0.00112277245811793
1383.0, 0.00020686520495750787
1384.0, 0.0009626118585766307
1385.0, 0.0018982418474246697
1386.0, 0.0009538885333860204
1387.0, 0.001280679869461725
1388.0, 0.0009631193534899128
1389.0, 0.002056341140158587
1390.0, 0.0014314664764577898
1391.0, 0.0011739127510609322
1392.0, 0.0006281155495853982
1393.0, 0.0005892138188044328
1394.0, 0.0004929302937457033
1395.0, 0.0008261619508877165
1396.0, 0.00152917743653286
1397.0, 0.0013283589241131844
1398.0, 0.000981427470098822
1399.0, 0.000811650024380019
1400.0, 0.0005343766870887984
1401.0, 0.0010073225281236138
1402.0, 0.0008561452413781823
1403.0, 0.0005428221158563868
1404.0, 0.0004150183236948025
1405.0, 0.00036701024504295215
1406.0, 0.00035628417890858137
1407.0, 0.0002555592976192958
1408.0, 0.0002464035841318663
1409.0, 0.00012456342435661518
1410.0, 0.00039546238990834315
1411.0, 0.00017128545662426387
1412.0, 0.0006466222629271442
1413.0, 0.001231574708451357
1414.0, 0.0010105077952440953
1415.0, 0.0005890245656330641
1416.0, 0.0012323817790142462
1417.0, 0.001143876428599897
1418.0, 0.0012323785289166912
1419.0, 0.0024718840163936
1420.0, 0.002109072650805825
1421.0, 0.0009625649726413092
1422.0, 0.0012072306770178737
1423.0, 0.001161420768678013
1424.0, 0.00012980628656628437
1425.0, 0.0003539316672637711
1426.0, 0.0015012991062444494
1427.0, 0.001357655443296502
1428.0, 0.001169864279453923
1429.0, 0.0009832222353815287
1430.0, 0.000674947024335112
1431.0, 0.001152010848479762
1432.0, 0.0020651543548881354
1433.0, 0.0016069266271999997
1434.0, 0.0015523472774339978
1435.0, 0.001767445845579838
1436.0, 0.001705987495717341
1437.0, 0.0012846226956310508
1438.0, 0.0009701647205680406
1439.0, 0.001934994963314843
1440.0, 0.0025734088868848144
1441.0, 0.001875316613101116
1442.0, 0.0025391309765912095
1443.0, 0.0028963135768674333
1444.0, 0.0024489316797637927
1445.0, 0.0020185645678072292
1446.0, 0.003274561667857511
1447.0, 0.0032337644361995336
1448.0, 0.004276963373121856
1449.0, 0.0027386863474083345
1450.0, 0.004302355238591366
1451.0, 0.00343768331262652
1452.0, 0.0035315331174750136
1453.0, 0.004611581276843308
1454.0, 0.0038492780051888856
1455.0, 0.003978694543499008
1456.0, 0.0040801054460717625
1457.0, 0.003945404606623412
1458.0, 0.003611206570634317
1459.0, 0.0036513543089223355
1460.0, 0.0034530141951774978
1461.0, 0.0027858013295916956
1462.0, 0.0028451961524699424
1463.0, 0.003103180337028037
1464.0, 0.002324814172642783
1465.0, 0.0017012342184874899
1466.0, 0.0017579581994367221
1467.0, 0.002149928785982839
1468.0, 0.002342033351691969
1469.0, 0.0027384900186104033
1470.0, 0.0022357071534365304
1471.0, 0.0027516960224078534
1472.0, 0.002879158294542981
1473.0, 0.0025451205401315334
1474.0, 0.002898190974388386
1475.0, 0.0026106309632203195
1476.0, 0.001350351454363483
1477.0, 0.0020988146404671065
1478.0, 0.001295847543479731
1479.0, 0.002271613616386798
1480.0, 0.002471426024255509
1481.0, 0.001913332234196448
1482.0, 0.0020229454419923632
1483.0, 0.0019130880825574106
1484.0, 0.0012125687328167418
1485.0, 0.0011574449513205764
1486.0, 0.001330477913328365
1487.0, 0.0011831642876048393
1488.0, 0.0013728351460996718
1489.0, 0.0011137409359117348
1490.0, 0.0012940189916512503
1491.0, 0.0016673628276238877
1492.0, 0.0008442544303953276
1493.0, 0.001372506029819229
1494.0, 0.0019336985376951126
1495.0, 0.0005998044555505086
1496.0, 0.00013715675908112872
1497.0, 0.0006272881035520615
1498.0, 0.0022143981864443094
1499.0, 0.0012510122129809514
1500.0, 0.0008771965017872008
1501.0, 0.0008300436136982765
1502.0, 0.0006724206709504311
1503.0, 0.0013336306173266014
1504.0, 0.002151982538120308
1505.0, 0.0017194201825144395
1506.0, 0.0013060383431307521
1507.0, 0.0004988175949577113
1508.0, 0.001334154088948281
1509.0, 0.0015007817660244419
1510.0, 0.0011569961898405855
1511.0, 0.0010680238136422044
1512.0, 0.0012298116195517104
1513.0, 0.0014918348839632208
1514.0, 0.00043927953652294716
1515.0, 0.0007278547299108386
1516.0, 0.0016408429306984504
1517.0, 0.0009444414577860149
1518.0, 0.0009798793071502535
1519.0, 0.0008926565929629355
1520.0, 0.0009302182171062797
1521.0, 0.0007827116481117422
1522.0, 0.00014740422685005045
1523.0, 0.0001226563543576005
1524.0, 0.0016686147001433184
1525.0, 0.0015698522801231786
1526.0, 0.0011868924988628392
1527.0, 0.0002280734626033975
1528.0, 0.0011828292198905897
1529.0, 0.0007647410916269168
1530.0, 0.0005211920755036529
1531.0, 0.000896736725297971
1532.0, 0.0017176780931183052
1533.0, 0.0020276345455568314
1534.0, 0.001158994358591133
1535.0, 0.0013172560553293986
1536.0, 0.0011112832634709274
1537.0, 0.0006471863411354889
1538.0, 0.000912896908234393
1539.0, 0.001284098483657031
1540.0, 0.0017232686258927008
1541.0, 0.0020781359629574556
1542.0, 0.0020092257946223487
1543.0, 0.0020276699914867
1544.0, 0.0017379668997771478
1545.0, 0.0012415866726376524
1546.0, 0.001298205469807062
1547.0, 0.0006951554091422481
1548.0, 0.0008595315342338637
1549.0, 0.0009095358176182732
1550.0, 0.0009286306720467291
1551.0, 0.0016618015752495811
1552.0, 0.0009955444220510852
1553.0, 0.0006359369416220709
1554.0, 0.0010738457017179753
1555.0, 0.0015395058610208428
1556.0, 0.0011423042398880675
1557.0, 0.0014665921498152887
1558.0, 0.0007962219084418832
1559.0, 0.00021297189205746281
1560.0, 0.0010937992807960029
1561.0, 0.0012128689481310584
1562.0, 0.0013098615383194563
1563.0, 0.00029887494839884294
1564.0, 0.0012873072843909833
1565.0, 0.0004692032575983177
1566, 0.0
1567, 0.0
1568, 0.0
1569, 0.0
1570, 0.0
1571, 0.0
1572, 0.0
1573, 0.0
1574, 0.0
1575, 0.0
1576, 0.0
1577, 0.0
1578, 0.0
1579, 0.0
1580, 0.0
1581, 0.0
1582, 0.0
1583, 0.0
1584, 0.0
1585, 0.0
1586, 0.0
1587, 0.0
1588, 0.0
1589, 0.0
1590, 0.0
1591, 0.0
1592, 0.0
1593, 0.0
1594, 0.0
1595, 0.0
1596, 0.0
1597, 0.0
1598, 0.0
1599, 0.0
