30, 0.0
31, 0.0
32, 0.0
33, 0.0
34, 0.0
35, 0.0
36, 0.0
37, 0.0
38, 0.0
39, 0.0
40, 0.0
41, 0.0
42, 0.0
43, 0.0
44, 0.0
45, 0.0
46, 0.0
47, 0.0
48, 0.0
49, 0.0
50, 0.0
51, 0.0
52, 0.0
53, 0.0
54, 0.0
55, 0.0
56, 0.0
57, 0.0
58, 0.0
59, 0.0
60, 0.0
61, 0.0
62, 0.0
63, 0.0
64, 0.0
65, 0.0
66, 0.0
67, 0.0
68, 0.0
69, 0.0
70, 0.0
71, 0.0
72, 0.0
73, 0.0
74, 0.0
75, 0.0
76, 0.0
77, 0.0
78, 0.0
79, 0.0
80, 0.0
81, 0.0
82, 0.0
83, 0.0
84, 0.0
85, 0.0
86, 0.0
87, 0.0
88, 0.0
89, 0.0
90, 0.0
91, 0.0
92, 0.0
93, 0.0
94, 0.0
95, 0.0
96, 0.0
97, 0.0
98, 0.0
99, 0.0
100, 0.0
101, 0.0
102, 0.0
103, 0.0
104, 0.0
105, 0.0
106, 0.0
107, 0.0
108, 0.0
109, 0.0
110, 0.0
111, 0.0
112, 0.0
113, 0.0
114, 0.0
115, 0.0
116, 0.0
117, 0.0
118, 0.0
119, 0.0
120, 0.0
121, 0.0
122, 0.0
123, 0.0
124, 0.0
125, 0.0
126, 0.0
127, 0.0
128, 0.0
129, 0.0
130, 0.0
131, 0.0
132, 0.0
133, 0.0
134, 0.0
135, 0.0
136, 0.0
137, 0.0
138, 0.0
139, 0.0
140, 0.0
141.0, 0.0020504955027436374
142.0, 0.003675300588120315
143.0, 0.0021282503236871716
144.0, 0.00010375462967194106
145.0, 0.0011227475839967543
146.0, 0.002213118142464282
147.0, 0.00106970216202291
148.0, 0.0006703786981737375
149.0, 0.0021715322260931315
150.0, 0.000164750007098415
151.0, 0.0023511758761668154
152.0, 0.003898505805190001
153.0, 0.0014479887869328911
154.0, 0.0026345923561068916
155.0, 0.002729846005447389
156.0, 0.0020066384936656186
157.0, 0.0019539617846765743
158.0, 0.00259468785557063
159.0, 0.002410042275502005
160.0, 0.0027111368030219253
161.0, 0.0028507337450838326
162.0, 0.0019258626389027336
163.0, 0.0012640272432923338
164.0, 0.0025460048006546577
165.0, 0.0053953225300628765
166.0, 0.007164705286252544
167.0, 0.00836282796245458
168.0, 0.0037413704971799087
169.0, 0.002247288371140847
170.0, 0.0048349033204151915
171.0, 0.003938225900125564
172.0, 0.0044618957293509455
173.0, 0.004981738827615444
174.0, 0.005257273907016812
175.0, 0.005958791967047725
176.0, 0.005886614357562999
177.0, 0.005337650565575807
178.0, 0.0042390205133876705
179.0, 0.0030098908407197923
180.0, 0.0030108177642106464
181.0, 0.0019970780894175305
182.0, 0.00197173381950613
183.0, 0.002589181968305603
184.0, 0.0010167690375298291
185.0, 0.0015882307689556703
186.0, 0.0015914163653285107
187.0, 0.0007790513254918219
188.0, 0.00029285826515417814
189.0, 0.0014061324323928225
190.0, 0.0005424044530091044
191.0, 0.0013125608596156464
192.0, 0.00047024964990954724
193.0, 0.0018376187317232337
194.0, 0.0007829288459416076
195.0, 0.002064629614342252
196.0, 0.002343565094269348
197.0, 0.0022956196230128094
198.0, 0.005195035887921699
199.0, 0.003638168244362031
200.0, 0.0018179660598878992
201.0, 0.004240609482324731
202.0, 0.004801419566948033
203.0, 0.006542436102456431
204.0, 0.006717532088707189
205.0, 0.005357540420447643
206.0, 0.006278537190275362
207.0, 0.007853975434737944
208.0, 0.008953432959615325
209.0, 0.009619800838733223
210.0, 0.010522022462467457
211.0, 0.01248541401687572
212.0, 0.015586877410152961
213.0, 0.016990247487253692
214.0, 0.017554767725941972
215.0, 0.022097982571173708
216.0, 0.0241244246455825
217.0, 0.023988094440826557
218.0, 0.02484905992639575
219.0, 0.028206610509408155
220.0, 0.029513805637600792
221.0, 0.029027258731686295
222.0, 0.030426649940344632
223.0, 0.03358789628998867
224.0, 0.03316312124591728
225.0, 0.03184879820360365
226.0, 0.02945241893802773
227.0, 0.02766828331640531
228.0, 0.029781711534095857
229.0, 0.026114116632113066
230.0, 0.024888428848530934
231.0, 0.025257073936490362
232.0, 0.025252856644363452
233.0, 0.02713039557160745
234.0, 0.02554947595620589
235.0, 0.024004798934857356
236.0, 0.023697926749553712
237.0, 0.023214282664802938
238.0, 0.02525707187314619
239.0, 0.023768695350401055
240.0, 0.021627445396448085
241.0, 0.02042716456908545
242.0, 0.016534926042533295
243.0, 0.017284269152612233
244.0, 0.016400883189609018
245.0, 0.012927212611897627
246.0, 0.009700882266638837
247.0, 0.008101287870939056
248.0, 0.009494150603591335
249.0, 0.010155698394646678
250.0, 0.008311837031664474
251.0, 0.0063339705122118705
252.0, 0.004432221819432801
253.0, 0.003966358743122341
254.0, 0.003925926558215506
255.0, 0.0031070235254011965
256.0, 0.002801550428868475
257.0, 0.002235706185717933
258.0, 0.0006922260772923955
259.0, 0.0012832934566412801
260.0, 0.0004041079822359883
261.0, 0.0018979675277427585
262.0, 0.002588592381888335
263.0, 0.0011491663842648514
264.0, 0.000853123154473213
265.0, 0.002275476434860417
266.0, 0.001022563256827919
267.0, 0.0006984800632505873
268.0, 0.0006212881662042236
269.0, 0.0009934373634715595
270.0, 0.0016732512311472016
271.0, 0.0003712037134252463
272.0, 0.0008526329896452174
273.0, 0.0008732816423525728
274.0, 0.00046812007162902263
275.0, 0.0004453259800327355
276.0, 0.00030742159322476954
277.0, 0.00031535229967254153
278.0, 0.0008721608829955603
279.0, 0.0013054361708228841
280.0, 0.002503120808078068
281.0, 0.0034593362164868765
282.0, 0.0037074067238339324
283.0, 0.0043227166705670055
284.0, 0.008983883342371808
285.0, 0.009227168280018384
286.0, 0.009606003451563356
287.0, 0.01243429027934522
288.0, 0.014187735064685889
289.0, 0.012806120179371697
290.0, 0.015768819964479232
291.0, 0.01959934217624548
292.0, 0.020772141684640335
293.0, 0.02500115165887168
294.0, 0.029397132626405857
295.0, 0.033798464933872056
296.0, 0.038781254603123344
297.0, 0.045466895273351814
298.0, 0.05680261857934042
299.0, 0.06567566583754814
300.0, 0.07318363002118812
301.0, 0.08066733058990007
302.0, 0.08500601001539394
303.0, 0.0820795196673081
304.0, 0.07426890627478983
305.0, 0.06611970540123675
306.0, 0.05810597000726748
307.0, 0.04726043972291114
308.0, 0.04058740381592218
309.0, 0.035384593548786265
310.0, 0.03158389131395749
311.0, 0.029660585406346956
312.0, 0.02769923303966795
313.0, 0.026905503896439913
314.0, 0.02948398964605726
315.0, 0.03219964279368827
316.0, 0.03111215230715778
317.0, 0.02772614575192998
318.0, 0.026131168789230705
319.0, 0.02496674835506493
320.0, 0.023567967964772726
321.0, 0.022722673925339283
322.0, 0.022999862871709385
323.0, 0.025052288603226603
324.0, 0.026061383070372812
325.0, 0.025074283544127784
326.0, 0.02606116053430869
327.0, 0.026149763268672955
328.0, 0.022137031835105632
329.0, 0.018609381201355833
330.0, 0.017946907388297833
331.0, 0.014120511260231899
332.0, 0.013173252799990178
333.0, 0.014322144899794633
334.0, 0.015393924071054657
335.0, 0.015035119768466595
336.0, 0.01359254931213595
337.0, 0.01510830019119537
338.0, 0.016187825887324085
339.0, 0.014848752925297254
340.0, 0.011863685772080787
341.0, 0.01083002703760479
342.0, 0.010124180702690406
343.0, 0.00853925866013954
344.0, 0.007700592408848911
345.0, 0.008858508578526159
346.0, 0.007484252161181429
347.0, 0.005206258688481768
348.0, 0.006119772658464375
349.0, 0.008365550630415249
350.0, 0.006301378114307682
351.0, 0.005068269576693279
352.0, 0.005514025840982137
353.0, 0.005878100068582982
354.0, 0.005685102043984289
355.0, 0.006409119398963572
356.0, 0.007521837442646981
357.0, 0.007486754386119982
358.0, 0.0074618757713714335
359.0, 0.007573791087715212
360.0, 0.006803058771721401
361.0, 0.0071094452676734865
362.0, 0.00600380728014119
363.0, 0.0053551548875240265
364.0, 0.005537035087682199
365.0, 0.0049037534467943995
366.0, 0.005542128608419723
367.0, 0.005760288129033522
368.0, 0.005718963396047256
369.0, 0.006289220732699923
370.0, 0.007683860888524057
371.0, 0.008270578223993085
372.0, 0.007682511230564395
373.0, 0.006419521491273626
374.0, 0.004473427586997163
375.0, 0.0019780497719369037
376.0, 0.003044333394004757
377.0, 0.0028582576904603143
378.0, 0.0012478140760826695
379.0, 0.0005843618192407374
380.0, 0.0022673793190669217
381.0, 0.0005000173456299934
382.0, 0.00040002890548669287
383.0, 0.0011961262996911307
384.0, 0.0008782246470036492
385.0, 0.0003563861073639231
386.0, 0.0009819118433531339
387.0, 0.00029543249139274083
388.0, 0.0009229395669990863
389.0, 0.0030060344225971147
390.0, 0.0008633573047244906
391.0, 0.000387610403571258
392.0, 0.0009651284700451937
393.0, 0.0008170860655722283
394.0, 0.0018906698812589068
395.0, 0.0007068660928839297
396.0, 0.0017549707711442993
397.0, 0.0030372788618129145
398.0, 0.003162467251486472
399.0, 0.002333200772699673
400.0, 0.002713974580499397
401.0, 0.004404947497390502
402.0, 0.005318344827014734
403.0, 0.005649548822668315
404.0, 0.006309253231084538
405.0, 0.007537411801657152
406.0, 0.008701969726351198
407.0, 0.011246962925671558
408.0, 0.010219628570964267
409.0, 0.01019961421501695
410.0, 0.014131968851502912
411.0, 0.014445652877702355
412.0, 0.017371804085301094
413.0, 0.020555296668205433
414.0, 0.023422239812863614
415.0, 0.02624056202925984
416.0, 0.0276820850051992
417.0, 0.027280073408735225
418.0, 0.029178421486377046
419.0, 0.030409195852070435
420.0, 0.030295058011081052
421.0, 0.0327348510020076
422.0, 0.03440568529134248
423.0, 0.037808136005829975
424.0, 0.04038322334714576
425.0, 0.04320157999179213
426.0, 0.04963502334946203
427.0, 0.05351318819061471
428.0, 0.05974566024274324
429.0, 0.06474987868944136
430.0, 0.0676601659772112
431.0, 0.07076882317365503
432.0, 0.074203732935704
433.0, 0.0727904720836051
434.0, 0.07043905032051288
435.0, 0.06890439286860013
436.0, 0.06663403033661432
437.0, 0.06257786958175081
438.0, 0.05762477974621299
439.0, 0.05115819086402442
440.0, 0.043682282623306756
441.0, 0.03620758533517842
442.0, 0.029342124993945062
443.0, 0.024180246960349414
444.0, 0.020057175997733434
445.0, 0.016008151399019146
446.0, 0.012235577531591602
447.0, 0.00972625576008283
448.0, 0.009933233288537065
449.0, 0.008148670078764082
450.0, 0.006418917320945542
451.0, 0.005726368524574731
452.0, 0.004616167778207597
453.0, 0.0035616651455246473
454.0, 0.00465088908756196
455.0, 0.005920838234184797
456.0, 0.004532191144601745
457.0, 0.00210451938081142
458.0, 0.0027274271058126912
459.0, 0.002972988881569492
460.0, 0.002921569611898452
461.0, 0.0023619899219460188
462.0, 0.001812320252869739
463.0, 0.0017237697357805732
464.0, 0.000827756726653853
465.0, 0.0005323760959611225
466.0, 0.001395816020356589
467.0, 0.0009648095399982213
468.0, 0.0009491890399097077
469.0, 0.0011266597527378173
470.0, 0.002573817666604262
471.0, 0.002486087910577885
472.0, 0.0019583800510713442
473.0, 0.0008982738568819486
474.0, 0.0010653100484005924
475.0, 0.0004878578484676509
476.0, 0.0027970658584821418
477.0, 0.0028516581288512
478.0, 0.0008836176446065828
479.0, 0.000601016939227433
480.0, 0.0022778520608747184
481.0, 0.002148369935268642
482.0, 0.0008580349430483609
483.0, 0.001267891006150704
484.0, 0.0029178433987534897
485.0, 0.001068913377293521
486.0, 0.0008164095827678507
487.0, 0.0008036737685707332
488.0, 0.0016111376169919863
489.0, 0.002378640046578783
490.0, 0.0015981095073597034
491.0, 0.00024737672490887056
492.0, 0.0005057854226432224
493.0, 0.00016905209626119413
494.0, 0.0015408661325041137
495.0, 0.002461369923292083
496.0, 0.0006978869584834157
497.0, 0.00019193977414443022
498.0, 1.500459933530678e-05
499.0, 0.0006774780901713611
500.0, 0.0017648737553432653
501.0, 0.002065404609753741
502.0, 0.0006743354269718719
503.0, 0.0010946645408911639
504.0, 0.00047582850896811096
505.0, 0.0005669978359993062
506.0, 0.0013274621376893117
507.0, 0.00017630332152541713
508.0, 0.0012549153835233085
509.0, 0.0012756859131972363
510.0, 0.00122141676871457
511.0, 0.0014142840194004281
512.0, 0.001452788592165572
513.0, 0.0013085463000014886
514.0, 0.00171459869885404
515.0, 0.0008449000676062339
516.0, 0.0012430910839404204
517.0, 0.001842123998943163
518.0, 0.0002413221043147256
519.0, 0.00017284313310853092
520.0, 0.0004941204300852149
521.0, 0.00061460066120561
522.0, 0.0017521628708136007
523.0, 0.003394906337271142
524.0, 0.0036038414499451324
525.0, 0.0035935621780881725
526.0, 0.0026179173458772084
527.0, 0.004346569249681984
528.0, 0.005448504038019619
529.0, 0.004707806518596263
530.0, 0.006284096155664669
531.0, 0.006905434998792036
532.0, 0.0028317175869609626
533.0, 0.0040265446756561855
534.0, 0.008631648356746601
535.0, 0.010676018594607276
536.0, 0.014293162248260948
537.0, 0.017105464729970234
538.0, 0.019605697290338887
539.0, 0.02238174369622876
540.0, 0.02479465464520686
541.0, 0.026460606074872238
542.0, 0.028336837284837147
543.0, 0.030337909196939225
544.0, 0.027888063802339547
545.0, 0.02174808025693745
546.0, 0.016842696566146415
547.0, 0.01575030982140649
548.0, 0.013705293424342279
549.0, 0.0086498937083293
550.0, 0.0057177181554426285
551.0, 0.006618274653492203
552.0, 0.007272588616264546
553.0, 0.004486491182842082
554.0, 0.00317840084929907
555.0, 0.004048592306643985
556.0, 0.004950112313837079
557.0, 0.004538415068310906
558.0, 0.0036527669614993294
559.0, 0.004193733712938033
560.0, 0.005932293014805021
561.0, 0.005861229752716856
562.0, 0.006210498072517347
563.0, 0.007711597763279433
564.0, 0.008621060785088704
565.0, 0.008642032126952668
566.0, 0.012575489877135585
567.0, 0.014573405743923993
568.0, 0.014860332566626805
569.0, 0.015834797392345022
570.0, 0.018813727485448645
571.0, 0.023001074195730917
572.0, 0.02492535773140811
573.0, 0.02927142502943172
574.0, 0.031404974686836895
575.0, 0.035745039927223735
576.0, 0.04346310721383095
577.0, 0.046994690826644966
578.0, 0.05250737317179615
579.0, 0.05839165084344164
580.0, 0.06437756824199826
581.0, 0.07220703798053558
582.0, 0.07911072759322318
583.0, 0.08079588021703385
584.0, 0.0860005128619463
585.0, 0.08379441292995665
586.0, 0.08196788627688137
587.0, 0.08068868282168783
588.0, 0.07692241690598343
589.0, 0.0722215281782407
590.0, 0.06765460119912381
591.0, 0.0632601162485275
592.0, 0.06137432253283431
593.0, 0.058162550918050705
594.0, 0.05465409826552119
595.0, 0.05514488167236942
596.0, 0.054095361155942386
597.0, 0.054114489412313255
598.0, 0.05797623072154449
599.0, 0.06270184373438993
600.0, 0.06582044535552509
601.0, 0.06821062614441263
602.0, 0.07155532313507865
603.0, 0.0746585540277965
604.0, 0.07698733246451342
605.0, 0.07805775506777526
606.0, 0.07756126305934694
607.0, 0.07601293621848469
608.0, 0.07433253597263448
609.0, 0.06889035559991102
610.0, 0.05956988321555756
611.0, 0.0534144986838368
612.0, 0.049482630158095835
613.0, 0.043165990573298216
614.0, 0.036844549855664085
615.0, 0.0322428492394227
616.0, 0.026508385148146022
617.0, 0.02318063951692793
618.0, 0.02126609612471489
619.0, 0.01814778567029742
620.0, 0.014986061938714918
621.0, 0.014295696474154178
622.0, 0.011548297261909014
623.0, 0.010581060292266962
624.0, 0.010494369777886557
625.0, 0.008397382493164159
626.0, 0.005625470171452909
627.0, 0.006548822701780318
628.0, 0.005111765182138244
629.0, 0.00472647082325767
630.0, 0.005333445208591794
631.0, 0.004655630861753097
632.0, 0.0033964779485175906
633.0, 0.00416487442065293
634.0, 0.0029763722870973417
635.0, 0.003136320612361763
636.0, 0.002571072533477415
637.0, 0.0013986224537478576
638.0, 0.00167432706362766
639.0, 0.002356036153212984
640.0, 0.0007049163840311581
641.0, 0.0005081804846216576
642.0, 0.000666712022143638
643.0, 0.0002022185730246124
644.0, 0.0004343063822062034
645.0, 0.0017873360805342824
646.0, 0.00044634634098594285
647.0, 0.00024310237382429715
648.0, 0.00020545129022441776
649.0, 0.00011978807692838357
650.0, 0.0003810735939051136
651.0, 0.0011596690534293164
652.0, 0.0004908922452755173
653.0, 0.0004017458999571605
654.0, 0.0005576491724018641
655.0, 0.0011215285368781412
656.0, 0.0004007968312307529
657.0, 0.0007892401546722666
658.0, 0.0034745829327502875
659.0, 0.002296761628783974
660.0, 0.002167049117655093
661.0, 0.0014986334273810748
662.0, 0.0005034301183498821
663.0, 0.000791735773649483
664.0, 0.0017801333769738596
665.0, 0.0009594106654610629
666.0, 0.003836453431057892
667.0, 0.0027578058558680994
668.0, 0.0022570239809171226
669.0, 0.0025603450537290072
670.0, 0.002674045978371359
671.0, 0.002661079391924817
672.0, 0.000626006014663459
673.0, 0.0019693986673858807
674.0, 0.000885909178141158
675.0, 0.0010533374923517125
676.0, 0.002894105169685354
677.0, 0.003203454295727312
678.0, 0.0013482827955539874
679.0, 0.001749204144465295
680.0, 0.0013139138758041808
681.0, 0.0014816333487721706
682.0, 0.002114685811073949
683.0, 0.002887456806466221
684.0, 0.002509729072129432
685.0, 5.993527407091478e-05
686.0, 0.0034376548527270145
687.0, 0.0019788198168274487
688.0, 0.002873938496310216
689.0, 0.0038007491997559617
690.0, 0.0020291014079046534
691.0, 0.0005582255134741387
692.0, 0.002768459924846711
693.0, 0.0022505740016825885
694.0, 0.00162801529115204
695.0, 0.0028411635175416734
696.0, 0.0029005164150772006
697.0, 0.0019061859494190888
698.0, 0.0020732614376370844
699.0, 0.002642186815517554
700.0, 0.0036374211848375095
701.0, 0.00357760013980736
702.0, 0.0038026746095221257
703.0, 0.004254078632448821
704.0, 0.004663470920314074
705.0, 0.004468509506769756
706.0, 0.0032257807378690065
707.0, 0.002803995800270517
708.0, 0.0025652558599994005
709.0, 0.0034484408758762085
710.0, 0.0036316237272839475
711.0, 0.001819080721608221
712.0, 0.00026166552610712326
713.0, 0.0015551155349660321
714.0, 9.230492151487319e-05
715.0, 0.0019298946303857678
716.0, 0.003568767372468187
717.0, 0.003018793895300963
718.0, 0.0026705319011838284
719.0, 0.004265280593970081
720.0, 0.0033285636036360427
721.0, 0.0028063406188092383
722.0, 0.00231337748943505
723.0, 0.0030380193695093306
724.0, 0.003770939834566088
725.0, 0.0033963248515186165
726.0, 0.002534225603454358
727.0, 0.0019001232819555905
728.0, 0.002840287264419415
729.0, 0.004395080808048426
730.0, 0.003488866794960591
731.0, 0.002466107910378059
732.0, 0.0024702598204728228
733.0, 0.002469512917976255
734.0, 0.0035356056255308192
735.0, 0.003708358991993069
736.0, 0.0018404076142789784
737.0, 0.0010068578228262526
738.0, 0.0015185412285666266
739.0, 0.0017582820755292405
740.0, 0.0012475822721252012
741.0, 0.0013571479627212553
742.0, 0.0007179976272839796
743.0, 6.127116550901576e-05
744.0, 0.00028461087338364744
745.0, 0.0006904709242641986
746.0, 0.0010256722380620276
747.0, 0.0011177706593411582
748.0, 0.00032124615397655234
749.0, 0.0011935977859908878
750.0, 0.000815929810573155
751.0, 0.00031956063001602696
752.0, 0.0005677505822673228
753.0, 0.0001813642618175082
754.0, 0.0005977155951209007
755.0, 0.00028813376177720505
756.0, 0.0009169271180675266
757.0, 0.0021460192594597743
758.0, 0.0022260849191450623
759.0, 0.0004924569644848219
760.0, 0.0007699588189842608
761.0, 0.0005240315219033469
762.0, 0.0004999388086564159
763.0, 0.0014604276855130572
764.0, 0.00020040853924310073
765.0, 0.0002526102581904389
766.0, 0.0024308038533320934
767.0, 0.0012535498043942945
768.0, 0.0006755698921328928
769.0, 0.000325703253819482
770.0, 0.00026905961822094393
771.0, 0.0005704363442695625
772.0, 0.00011066598386435479
773.0, 0.00030998762946115015
774.0, 0.00046875403818990983
775.0, 0.0010739969087977916
776.0, 0.0009759185804335125
777.0, 0.0006076836699875761
778.0, 3.271772720729458e-05
779.0, 0.0008274011771581473
780.0, 0.00031057186768910486
781.0, 0.0005784065133466706
782.0, 0.0016355485677838914
783.0, 0.0005368170507566428
784.0, 0.001408504091790623
785.0, 0.0018248820518701808
786.0, 0.0006414939597116572
787.0, 0.0009982624705086236
788.0, 0.0047770599402455404
789.0, 0.0034058111340317253
790.0, 0.0043670660988372415
791.0, 0.005533243068954728
792.0, 0.005460615673646278
793.0, 0.008942883056243332
794.0, 0.009537711522069276
795.0, 0.01115620984733477
796.0, 0.012110434278927256
797.0, 0.015046140580165039
798.0, 0.017819731152932068
799.0, 0.020054779463733897
800.0, 0.02378250349774847
801.0, 0.02903852840963503
802.0, 0.035388083785838506
803.0, 0.03917178154968568
804.0, 0.04292254290981438
805.0, 0.0515775603084473
806.0, 0.06289408560743387
807.0, 0.07413385448042124
808.0, 0.08696623704456957
809.0, 0.10453192672666575
810.0, 0.12368729041125476
811.0, 0.1369931407833847
812.0, 0.16043728093113707
813.0, 0.18535113212474558
814.0, 0.21225424396073872
815.0, 0.24521573602253416
816.0, 0.2879603149297207
817.0, 0.34017413979344924
818.0, 0.39412515440796114
819.0, 0.45714216020060455
820.0, 0.5256463871985383
821.0, 0.5986174972055752
822.0, 0.6588685184574676
823.0, 0.6958721668793882
824.0, 0.7014506943886686
825.0, 0.6651740611415522
826.0, 0.6001436979156225
827.0, 0.5202690799918794
828.0, 0.44249238356009346
829.0, 0.3791706285152023
830.0, 0.32575522861478307
831.0, 0.2820861346070902
832.0, 0.2504622305126291
833.0, 0.2279843617067265
834.0, 0.21252648013329398
835.0, 0.20129499905855666
836.0, 0.1972152729587333
837.0, 0.19846518103617833
838.0, 0.20353306036241486
839.0, 0.2086683284984129
840.0, 0.21604032633358233
841.0, 0.22927209819600042
842.0, 0.24629262836106514
843.0, 0.2706805822799773
844.0, 0.29979652927161105
845.0, 0.32903794567291333
846.0, 0.36922556793170563
847.0, 0.4142527277517352
848.0, 0.4686580386025331
849.0, 0.5377092894547989
850.0, 0.6123758592424612
851.0, 0.6938075125757144
852.0, 0.7836879746375197
853.0, 0.8683914810367946
854.0, 0.9412305153260732
855.0, 0.9886254209821813
856.0, 0.996226552454569
857.0, 0.9600080901503434
858.0, 0.8857262592871848
859.0, 0.783910861464899
860.0, 0.6768841763539779
861.0, 0.5734733582948418
862.0, 0.48002602297885333
863.0, 0.40495407670952394
864.0, 0.3457636334723547
865.0, 0.2965040303381649
866.0, 0.25295362430942897
867.0, 0.21548178188816414
868.0, 0.18888186730139606
869.0, 0.16622786910632664
870.0, 0.14875524497109274
871.0, 0.13555853334090046
872.0, 0.12411754307415633
873.0, 0.11903234077090634
874.0, 0.11569632385784512
875.0, 0.11255456763584702
876.0, 0.1199709809523738
877.0, 0.12048378702174027
878.0, 0.12715325845384834
879.0, 0.14008446088838658
880.0, 0.15216120564729732
881.0, 0.1608053923486188
882.0, 0.16129169536088694
883.0, 0.15352446046176688
884.0, 0.1388568853019094
885.0, 0.11519804967433214
886.0, 0.09217613082815287
887.0, 0.07033813760038657
888.0, 0.04989308994037417
889.0, 0.0358775929611293
890.0, 0.0270276788000354
891.0, 0.019689520707243578
892.0, 0.015471383728231123
893.0, 0.012586555430104188
894.0, 0.005280891920028341
895.0, 0.004937200438943305
896.0, 0.0017603238415141605
897.0, 0.0006235173499770034
898.0, 0.001389858669704483
899.0, 0.001207959587387152
900.0, 0.001535914570924957
901.0, 0.0023219202052276707
902.0, 0.002134213382175907
903.0, 0.003122458537402259
904.0, 0.000508036132888922
905.0, 0.00036799008539087266
906.0, 0.0012095445212575984
907.0, 0.0015133406840517796
908.0, 0.0013999094070534029
909.0, 0.0036955406591966944
910.0, 0.003488389746874054
911.0, 0.005885463376525614
912.0, 0.010022567189728758
913.0, 0.012668349645051952
914.0, 0.018034999894568207
915.0, 0.024083254223960408
916.0, 0.032200224572632094
917.0, 0.03792484056692838
918.0, 0.04498774451254485
919.0, 0.05184642240673039
920.0, 0.050840133180459206
921.0, 0.04169651106623252
922.0, 0.03264664292475405
923.0, 0.021357754113275073
924.0, 0.0123464328808616
925.0, 0.006127787779467361
926.0, 0.0038704587804634333
927.0, 0.001140436376534425
928.0, 0.001588903951692698
929.0, 0.0003494939164674296
930.0, 0.0024002359886981907
931.0, 0.002778012891055359
932.0, 0.0006069075899935336
933.0, 0.001692865626958284
934.0, 0.0005559815637365446
935.0, 0.0015004377825274288
936.0, 0.0008475984561244453
937.0, 0.0013050070050498077
938.0, 0.0025834521212980102
939.0, 0.004076330287831032
940.0, 0.0059401224425808
941.0, 0.007120287511288057
942.0, 0.012181328097058769
943.0, 0.015301272677414423
944.0, 0.016897887411962912
945.0, 0.01985535836689931
946.0, 0.025091700524122143
947.0, 0.02755703635985821
948.0, 0.03053284645651675
949.0, 0.0364641967283075
950.0, 0.04158177251857752
951.0, 0.045136061609328676
952.0, 0.0523020749086955
953.0, 0.059751552112925654
954.0, 0.06738267246770518
955.0, 0.07869521768082566
956.0, 0.08176424770912359
957.0, 0.08816929189957565
958.0, 0.0983345410662588
959.0, 0.10665817394916811
960.0, 0.11229450296183657
961.0, 0.11444651640904716
962.0, 0.11474186040820453
963.0, 0.11149169789078685
964.0, 0.10760866644143947
965.0, 0.10109905553846837
966.0, 0.09516794867021658
967.0, 0.08768244694114671
968.0, 0.07761493213253134
969.0, 0.06603609858097322
970.0, 0.056724155350323914
971.0, 0.050500275994971915
972.0, 0.042909965553915436
973.0, 0.035398158067660064
974.0, 0.033079801547254824
975.0, 0.027664533929375706
976.0, 0.022010153349113343
977.0, 0.018920643452596905
978.0, 0.01717350715085457
979.0, 0.014806479195686123
980.0, 0.011676002391467306
981.0, 0.009187932879958591
982.0, 0.008455180354338733
983.0, 0.008320873398059894
984.0, 0.007043236428420101
985.0, 0.004623476469779517
986.0, 0.005063257393374981
987.0, 0.005413392185432497
988.0, 0.0027450634249307874
989.0, 0.002212275574053349
990.0, 0.0024578323855613464
991.0, 0.0010528865323647767
992.0, 0.0012023332280046196
993.0, 0.0013397367093402482
994.0, 0.0005147434916037508
995.0, 0.0003496227931181138
996.0, 0.0014673725149325864
997.0, 0.0005322171969629221
998.0, 0.00035176314720566655
999.0, 0.000941453825979657
1000.0, 0.0009678941130025441
1001.0, 0.0001362520052812153
1002.0, 0.0012330994017342059
1003.0, 0.0009576425808745413
1004.0, 0.0016976728767438842
1005.0, 0.0008009653444698605
1006.0, 0.0019930139450168665
1007.0, 0.0002650444923553609
1008.0, 0.0006426548126960765
1009.0, 0.0013548101082723125
1010.0, 0.0017022272590705054
1011.0, 0.002376977017216139
1012.0, 0.0012617755774364232
1013.0, 0.0002473057119519096
1014.0, 0.0004239049133314074
1015.0, 0.0005023207582634672
1016.0, 0.0023550211981889675
1017.0, 0.00365274575565497
1018.0, 0.00331552832244657
1019.0, 0.0019463533512562258
1020.0, 0.0004492618925583332
1021.0, 0.0014570564910754607
1022.0, 0.0024423453360650454
1023.0, 0.0023590557688750267
1024.0, 0.0028201103326747903
1025.0, 0.0032336305780669918
1026.0, 0.00267899370828286
1027.0, 0.0020340092470640973
1028.0, 0.0026732133926492267
1029.0, 0.003788705029380814
1030.0, 0.005266061443228057
1031.0, 0.002857278506166896
1032.0, 0.0025459643501007908
1033.0, 0.0015105304543632137
1034.0, 0.0025317742890943527
1035.0, 0.0024837088961069194
1036.0, 0.0028549308462184723
1037.0, 0.0034850100992699184
1038.0, 0.0029044988685008677
1039.0, 0.004008061415724178
1040.0, 0.0020332425302484244
1041.0, 0.0017753053516524455
1042.0, 0.003103100158704286
1043.0, 0.0013628540656750157
1044.0, 0.0037133186218859747
1045.0, 0.0032458987726528793
1046.0, 0.003372609830192948
1047.0, 0.004525684370446328
1048.0, 0.004342920004527594
1049.0, 0.004171069850477952
1050.0, 0.0032330741530782947
1051.0, 0.0019777533235170726
1052.0, 0.005249629851593919
1053.0, 0.0035301753850096023
1054.0, 0.002051154390327418
1055.0, 0.0020425931974177736
1056.0, 0.0007095943586132442
1057.0, 0.002235880843100119
1058.0, 0.004233355751116458
1059.0, 0.004552628941897472
1060.0, 0.003315816228989093
1061.0, 0.00298376629964465
1062.0, 0.003148170810062286
1063.0, 0.00225059349114131
1064.0, 0.002379993005167833
1065.0, 0.002717793127059668
1066.0, 0.0005546872903977001
1067.0, 0.0008541370039687514
1068.0, 0.0018131702845468165
1069.0, 0.0011146064389989103
1070.0, 0.0013617944071083804
1071.0, 0.0011886323701760671
1072.0, 0.0013320578647861617
1073.0, 0.001714526013585871
1074.0, 0.0012421141657571145
1075.0, 0.0016705050556002617
1076.0, 0.0017377948320513592
1077.0, 0.0004029920699115473
1078.0, 0.0002678227775869829
1079.0, 0.00212501311603159
1080.0, 0.0020230410426882884
1081.0, 0.001902000696528604
1082.0, 0.0003764706760664918
1083.0, 0.0002873740526609997
1084.0, 0.0008273556349639767
1085.0, 0.0011274337072170462
1086.0, 0.001813791395885331
1087.0, 0.002642431282895015
1088.0, 0.0020734994594651082
1089.0, 0.0012983749350072525
1090.0, 0.0006637791630367143
1091.0, 0.00030503942278124947
1092.0, 0.0011622969726611317
1093.0, 0.0016520803551461581
1094.0, 0.0012786636449073257
1095.0, 0.0017362914842871046
1096.0, 0.0006957011020332153
1097.0, 0.002081977794448635
1098.0, 0.002253282799913892
1099.0, 0.0010687019019181418
1100.0, 0.0008457531503921914
1101.0, 0.0017045968599294437
1102.0, 0.0018624564841374788
1103.0, 0.001005172519841251
1104.0, 0.0014255602615009812
1105.0, 0.0029934740598978136
1106.0, 0.0028293485792950782
1107.0, 0.0015445789843984783
1108.0, 0.0035894494673433582
1109.0, 0.003978335328114582
1110.0, 0.0012851195349374421
1111.0, 0.0034808713354827843
1112.0, 0.000716123533504898
1113.0, 0.00017469826352177416
1114.0, 0.0007130628800307306
1115.0, 0.0019695875255318126
1116.0, 0.002464170868916309
1117.0, 0.0014350535343454675
1118.0, 0.0008241789764586232
1119.0, 0.0019065950576419243
1120.0, 0.0033243717592642726
1121.0, 0.003458058276982744
1122.0, 0.0012560889261154392
1123.0, 0.002496185646998959
1124.0, 0.0008780426050734349
1125.0, 0.001954400367659865
1126.0, 0.002008547170001359
1127.0, 0.0005172820108381776
1128.0, 0.0009657950277755757
1129.0, 0.0032199327714415773
1130.0, 0.0020735578257835728
1131.0, 0.0020665625914578012
1132.0, 0.0031605529531499037
1133.0, 0.00175639415739872
1134.0, 0.0005057975438300177
1135.0, 0.0007608335396332889
1136.0, 0.0017520812649508748
1137.0, 0.0011310044199552855
1138.0, 0.0005590976406989621
1139.0, 0.0014045189195212868
1140.0, 0.003553780006647234
1141.0, 0.0024505260482789093
1142.0, 0.0005283016807415251
1143.0, 0.0025052303197174992
1144.0, 0.0028452114861291728
1145.0, 0.0017968672701451423
1146.0, 0.001309757798974783
1147.0, 0.0016018213427842595
1148.0, 0.002036578580140401
1149.0, 0.0027265865850936554
1150.0, 0.0034458725109625687
1151.0, 0.0023453839242036237
1152.0, 0.0003294589389111106
1153.0, 0.00019018867547576093
1154.0, 0.0004810299103324176
1155.0, 0.0018111004699538761
1156.0, 0.003759608414257697
1157.0, 0.00225973032879615
1158.0, 0.0015771326948815496
1159.0, 0.0012206624631890713
1160.0, 0.003550565440342742
1161.0, 0.002667127692109846
1162.0, 0.0027965519049581965
1163.0, 0.0025290950241885672
1164.0, 0.0014508897752534622
1165.0, 0.002404978710970423
1166.0, 0.0034655560991268515
1167.0, 0.0034265022573455864
1168.0, 0.00425316618615961
1169.0, 0.003958231754639028
1170.0, 0.001998661863200567
1171.0, 0.0005161229407159413
1172.0, 0.003660447067713926
1173.0, 0.0036769524411236843
1174.0, 0.000624216593669086
1175.0, 0.0007646974018167339
1176.0, 0.002352108052791939
1177.0, 0.004793187949025317
1178.0, 0.004413380017623504
1179.0, 0.004067251415494645
1180.0, 0.0013223917441854667
1181.0, 0.0015354968678992485
1182.0, 0.003898491113265313
1183.0, 0.003411247580983084
1184.0, 0.0016530811054273299
1185.0, 0.0019108945757500034
1186.0, 0.003279432325040994
1187.0, 0.0034017971933859394
1188.0, 0.0022207139089425276
1189.0, 0.002377961696435962
1190.0, 0.002411366343789366
1191.0, 0.0027956310466898623
1192.0, 0.004292019745015295
1193.0, 0.0023793746954476626
1194.0, 0.0006631112414691008
1195.0, 0.0008969645905837087
1196.0, 0.000730230549878334
1197.0, 0.0011021098010718952
1198.0, 0.0021930725356398583
1199.0, 0.002716847205925704
1200.0, 0.00225497971518244
1201.0, 0.000702968104108448
1202.0, 0.0001613781697216499
1203.0, 0.0024397351194673624
1204.0, 0.0026458631756354303
1205.0, 0.0014843932047821952
1206.0, 0.001900802971941183
1207.0, 0.000729840989448376
1208.0, 0.0015091232402754196
1209.0, 0.0036199484475666153
1210.0, 0.0021690057256616648
1211.0, 0.0021505416801722585
1212.0, 0.0036359133577811738
1213.0, 0.0017524546537933947
1214.0, 0.0006374063108694702
1215.0, 0.0024122316329866556
1216.0, 0.004423330636245878
1217.0, 0.0036088299304706853
1218.0, 0.0036122267068588484
1219.0, 0.005114031265458442
1220.0, 0.0034809366512131503
1221.0, 0.0024294538447910607
1222.0, 0.0025511822308079382
1223.0, 0.002478626060914262
1224.0, 0.0026468333987988086
1225.0, 0.002347461990676688
1226.0, 0.0025375148311377648
1227.0, 0.0031927140928405466
1228.0, 0.00299419009082646
1229.0, 0.003270882223174619
1230.0, 0.0031755606976967255
1231.0, 0.0025031948894159712
1232.0, 0.003613444860094853
1233.0, 0.002204702848540834
1234.0, 0.00172511054486349
1235.0, 0.001690098533499958
1236.0, 0.002189260962403565
1237.0, 0.004112047687688008
1238.0, 0.004100732999318024
1239.0, 0.00023652101855490033
1240.0, 0.0028337049208652645
1241.0, 0.004121219870011758
1242.0, 0.0028530746189599273
1243.0, 0.002609647969785886
1244.0, 0.0032028676119757638
1245.0, 0.0024439190351121776
1246.0, 0.002313935632459412
1247.0, 0.0017591990799096487
1248.0, 0.0008746861964640764
1249.0, 0.0021499897701159104
1250.0, 0.002842824979405304
1251.0, 0.002504720049313563
1252.0, 0.0029027376252801435
1253.0, 0.002106051531686914
1254.0, 0.001571460131374356
1255.0, 0.00276740002671302
1256.0, 0.002802793198022604
1257.0, 0.002603331393742265
1258.0, 0.0008633797349267238
1259.0, 0.0012675734849084757
1260.0, 0.0027339188309318026
1261.0, 0.002821705699115262
1262.0, 0.0010085939356987374
1263.0, 0.0005639950748442562
1264.0, 0.0031775301697749246
1265.0, 0.00313379751185748
1266.0, 0.00016168887734260528
1267.0, 0.00031365939901773605
1268.0, 0.001972497493430264
1269.0, 0.003490513098176337
1270.0, 0.003976573031555115
1271.0, 0.0016584092413952224
1272.0, 0.0016921239505288792
1273.0, 0.0021625637737916143
1274.0, 0.0004001909828946536
1275.0, 0.0009282082986340626
1276.0, 0.003819213166218936
1277.0, 0.004399136870102986
1278.0, 0.003971049110111097
1279.0, 0.0034384546951299424
1280.0, 0.0022276792826506544
1281.0, 0.0018865449946380182
1282.0, 0.0036496600986023584
1283.0, 0.002851362834572432
1284.0, 0.0009371259238648367
1285.0, 0.00018729122272795145
1286, 0.0
1287, 0.0
1288, 0.0
1289, 0.0
1290, 0.0
1291, 0.0
1292, 0.0
1293, 0.0
1294, 0.0
1295, 0.0
1296, 0.0
1297, 0.0
1298, 0.0
1299, 0.0
1300, 0.0
1301, 0.0
1302, 0.0
1303, 0.0
1304, 0.0
1305, 0.0
1306, 0.0
1307, 0.0
1308, 0.0
1309, 0.0
1310, 0.0
1311, 0.0
1312, 0.0
1313, 0.0
1314, 0.0
1315, 0.0
1316, 0.0
1317, 0.0
1318, 0.0
1319, 0.0
1320, 0.0
1321, 0.0
1322, 0.0
1323, 0.0
1324, 0.0
1325, 0.0
1326, 0.0
1327, 0.0
1328, 0.0
1329, 0.0
1330, 0.0
1331, 0.0
1332, 0.0
1333, 0.0
1334, 0.0
1335, 0.0
1336, 0.0
1337, 0.0
1338, 0.0
1339, 0.0
1340, 0.0
1341, 0.0
1342, 0.0
1343, 0.0
1344, 0.0
1345, 0.0
1346, 0.0
1347, 0.0
1348, 0.0
1349, 0.0
1350, 0.0
1351, 0.0
1352, 0.0
1353, 0.0
1354, 0.0
1355, 0.0
1356, 0.0
1357, 0.0
1358, 0.0
1359, 0.0
1360, 0.0
1361, 0.0
1362, 0.0
1363, 0.0
1364, 0.0
1365, 0.0
1366, 0.0
1367, 0.0
1368, 0.0
1369, 0.0
1370, 0.0
1371, 0.0
1372, 0.0
1373, 0.0
1374, 0.0
1375, 0.0
1376, 0.0
1377, 0.0
1378, 0.0
1379, 0.0
1380, 0.0
1381, 0.0
1382, 0.0
1383, 0.0
1384, 0.0
1385, 0.0
1386, 0.0
1387, 0.0
1388, 0.0
1389, 0.0
1390, 0.0
1391, 0.0
1392, 0.0
1393, 0.0
1394, 0.0
1395, 0.0
1396, 0.0
1397, 0.0
1398, 0.0
1399, 0.0
1400, 0.0
1401, 0.0
1402, 0.0
1403, 0.0
1404, 0.0
1405, 0.0
1406, 0.0
1407, 0.0
1408, 0.0
1409, 0.0
1410, 0.0
1411, 0.0
1412, 0.0
1413, 0.0
1414, 0.0
1415, 0.0
1416, 0.0
1417, 0.0
1418, 0.0
1419, 0.0
1420, 0.0
1421, 0.0
1422, 0.0
1423, 0.0
1424, 0.0
1425, 0.0
1426, 0.0
1427, 0.0
1428, 0.0
1429, 0.0
1430, 0.0
1431, 0.0
1432, 0.0
1433, 0.0
1434, 0.0
1435, 0.0
1436, 0.0
1437, 0.0
1438, 0.0
1439, 0.0
1440, 0.0
1441, 0.0
1442, 0.0
1443, 0.0
1444, 0.0
1445, 0.0
1446, 0.0
1447, 0.0
1448, 0.0
1449, 0.0
1450, 0.0
1451, 0.0
1452, 0.0
1453, 0.0
1454, 0.0
1455, 0.0
1456, 0.0
1457, 0.0
1458, 0.0
1459, 0.0
1460, 0.0
1461, 0.0
1462, 0.0
1463, 0.0
1464, 0.0
1465, 0.0
1466, 0.0
1467, 0.0
1468, 0.0
1469, 0.0
1470, 0.0
1471, 0.0
1472, 0.0
1473, 0.0
1474, 0.0
1475, 0.0
1476, 0.0
1477, 0.0
1478, 0.0
1479, 0.0
1480, 0.0
1481, 0.0
1482, 0.0
1483, 0.0
1484, 0.0
1485, 0.0
1486, 0.0
1487, 0.0
1488, 0.0
1489, 0.0
1490, 0.0
1491, 0.0
1492, 0.0
1493, 0.0
1494, 0.0
1495, 0.0
1496, 0.0
1497, 0.0
1498, 0.0
1499, 0.0
1500, 0.0
1501, 0.0
1502, 0.0
1503, 0.0
1504, 0.0
1505, 0.0
1506, 0.0
1507, 0.0
1508, 0.0
1509, 0.0
1510, 0.0
1511, 0.0
1512, 0.0
1513, 0.0
1514, 0.0
1515, 0.0
1516, 0.0
1517, 0.0
1518, 0.0
1519, 0.0
1520, 0.0
1521, 0.0
1522, 0.0
1523, 0.0
1524, 0.0
1525, 0.0
1526, 0.0
1527, 0.0
1528, 0.0
1529, 0.0
1530, 0.0
1531, 0.0
1532, 0.0
1533, 0.0
1534, 0.0
1535, 0.0
1536, 0.0
1537, 0.0
1538, 0.0
1539, 0.0
1540, 0.0
1541, 0.0
1542, 0.0
1543, 0.0
1544, 0.0
1545, 0.0
1546, 0.0
1547, 0.0
1548, 0.0
1549, 0.0
1550, 0.0
1551, 0.0
1552, 0.0
1553, 0.0
1554, 0.0
1555, 0.0
1556, 0.0
1557, 0.0
1558, 0.0
1559, 0.0
1560, 0.0
1561, 0.0
1562, 0.0
1563, 0.0
1564, 0.0
1565, 0.0
1566, 0.0
1567, 0.0
1568, 0.0
1569, 0.0
1570, 0.0
1571, 0.0
1572, 0.0
1573, 0.0
1574, 0.0
1575, 0.0
1576, 0.0
1577, 0.0
1578, 0.0
1579, 0.0
1580, 0.0
1581, 0.0
1582, 0.0
1583, 0.0
1584, 0.0
1585, 0.0
1586, 0.0
1587, 0.0
1588, 0.0
1589, 0.0
1590, 0.0
1591, 0.0
1592, 0.0
1593, 0.0
1594, 0.0
1595, 0.0
1596, 0.0
1597, 0.0
1598, 0.0
1599, 0.0
