30, 0.0
31, 0.0
32, 0.0
33, 0.0
34, 0.0
35, 0.0
36, 0.0
37, 0.0
38, 0.0
39, 0.0
40, 0.0
41, 0.0
42, 0.0
43, 0.0
44, 0.0
45, 0.0
46, 0.0
47, 0.0
48, 0.0
49, 0.0
50, 0.0
51, 0.0
52, 0.0
53, 0.0
54, 0.0
55, 0.0
56, 0.0
57, 0.0
58, 0.0
59, 0.0
60, 0.0
61, 0.0
62, 0.0
63, 0.0
64, 0.0
65, 0.0
66, 0.0
67, 0.0
68, 0.0
69, 0.0
70, 0.0
71, 0.0
72, 0.0
73, 0.0
74, 0.0
75, 0.0
76, 0.0
77, 0.0
78, 0.0
79, 0.0
80, 0.0
81, 0.0
82, 0.0
83, 0.0
84, 0.0
85, 0.0
86, 0.0
87, 0.0
88, 0.0
89, 0.0
90, 0.0
91, 0.0
92, 0.0
93, 0.0
94, 0.0
95, 0.0
96, 0.0
97, 0.0
98, 0.0
99.0, 1.7846519106307485e-06
100.0, 3.545732946970317e-05
101.0, 0.00010046198328351352
102.0, 0.0003837065697865458
103.0, 0.0012189534970320996
104.0, 0.0019320842635076165
105.0, 0.002451777041804826
106.0, 0.002671163151182412
107.0, 0.001780143155376245
108.0, 0.0015173690996558205
109.0, 0.0015051701185270878
110.0, 0.0014512133019856353
111.0, 0.0019282681460602914
112.0, 0.0025209611774199016
113.0, 0.0033988181993462566
114.0, 0.005699397620112205
115.0, 0.007416541913683693
116.0, 0.008699623239726749
117.0, 0.009556844236726822
118.0, 0.007875335741519295
119.0, 0.005738516986253415
120.0, 0.003971867065911398
121.0, 0.004985732207845503
122.0, 0.004537947925473665
123.0, 0.00361460784818002
124.0, 0.0025663850788867045
125.0, 0.002806602137116495
126.0, 0.0036810834292493387
127.0, 0.0044630890330728005
128.0, 0.003793666944278304
129.0, 0.0042320219631300175
130.0, 0.004625778249741035
131.0, 0.0046797899614973845
132.0, 0.003887259125590496
133.0, 0.003969706473097162
134.0, 0.004112639217028458
135.0, 0.0034982470341623374
136.0, 0.004538281619036224
137.0, 0.004996133806639438
138.0, 0.004884670042991692
139.0, 0.005251166302317852
140.0, 0.004886171530200837
141.0, 0.004669014870758433
142.0, 0.005103396775060816
143.0, 0.005085891147564585
144.0, 0.005007214779646436
145.0, 0.005027540944935412
146.0, 0.005546796567079883
147.0, 0.004613429501576219
148.0, 0.004082284343237096
149.0, 0.004405115671289537
150.0, 0.004221927834741299
151.0, 0.00449662774661775
152.0, 0.004553444229248105
153.0, 0.0035268743234506163
154.0, 0.0044668391781981995
155.0, 0.00470231666053049
156.0, 0.0041203792542411155
157.0, 0.003700033395922582
158.0, 0.004372935664742481
159.0, 0.0048055840329071535
160.0, 0.004218547576421412
161.0, 0.003983366690114551
162.0, 0.004545998638166687
163.0, 0.005287919364596761
164.0, 0.004828762607619925
165.0, 0.004539388429290521
166.0, 0.004642296400372725
167.0, 0.0051287178191798555
168.0, 0.00504446830628039
169.0, 0.004982440117158851
170.0, 0.004767274403100672
171.0, 0.004190931032587234
172.0, 0.005612177225236922
173.0, 0.005804680957683092
174.0, 0.005066340315780553
175.0, 0.0053588265145415315
176.0, 0.005895151553121231
177.0, 0.0060397153645304
178.0, 0.005550365170379995
179.0, 0.006402416405736388
180.0, 0.006206103578428608
181.0, 0.005497141465760577
182.0, 0.004958823972630175
183.0, 0.004803699657126938
184.0, 0.004516403602475741
185.0, 0.004201677752459128
186.0, 0.004902256408111888
187.0, 0.004303374858758406
188.0, 0.003383417430805015
189.0, 0.002658233457124718
190.0, 0.0026553334032626617
191.0, 0.003427407558029518
192.0, 0.00415016279182486
193.0, 0.00313164997697433
194.0, 0.003334735660495136
195.0, 0.0029983606143915817
196.0, 0.0020448704903302814
197.0, 0.00274761351892866
198.0, 0.00288959876107465
199.0, 0.003277989560001507
200.0, 0.004526545946725507
201.0, 0.003428073546040149
202.0, 0.003431747549483669
203.0, 0.00398345730616934
204.0, 0.003638817220666205
205.0, 0.0036739848706835044
206.0, 0.003746553292180374
207.0, 0.0037398846860068375
208.0, 0.0033294090698151677
209.0, 0.0032475121392852445
210.0, 0.0032007959119583983
211.0, 0.0029681320214006153
212.0, 0.002585967418942116
213.0, 0.003032404530702015
214.0, 0.0040180850118601945
215.0, 0.0048573729319251165
216.0, 0.005396996283902138
217.0, 0.0066272575130760895
218.0, 0.008592099455914522
219.0, 0.009402954243155211
220.0, 0.010113968803759378
221.0, 0.010862640773252137
222.0, 0.011756245615802156
223.0, 0.011938833722100235
224.0, 0.012331449119518735
225.0, 0.012698295115598822
226.0, 0.012455795632992846
227.0, 0.012401462055800424
228.0, 0.012490481250085323
229.0, 0.012709201259501328
230.0, 0.013011403317046097
231.0, 0.012866620474315242
232.0, 0.012484499261028036
233.0, 0.01196755626949474
234.0, 0.01158777021798046
235.0, 0.011139505338325471
236.0, 0.01059917465907962
237.0, 0.009910057971278736
238.0, 0.008642339271827483
239.0, 0.008042848394330913
240.0, 0.00816049010236103
241.0, 0.008278258824350135
242.0, 0.007533800583729265
243.0, 0.006430592169446293
244.0, 0.005215025086125866
245.0, 0.005224402368719715
246.0, 0.0045343065368553615
247.0, 0.0036745206310434737
248.0, 0.0032792261121330196
249.0, 0.003860056395446225
250.0, 0.0035691386994664382
251.0, 0.0027610726308563566
252.0, 0.003098558452860492
253.0, 0.002698938658417551
254.0, 0.0023273014725441092
255.0, 0.0022293286685883375
256.0, 0.0025050057647419163
257.0, 0.0019710916274894344
258.0, 0.0015791177941267775
259.0, 0.0020893498818608577
260.0, 0.0019445081616486005
261.0, 0.0022684697099628094
262.0, 0.002541104648431973
263.0, 0.001677812687481825
264.0, 0.002000604654716207
265.0, 0.002515813083394783
266.0, 0.002907767066655078
267.0, 0.0024205327079464024
268.0, 0.002468785844242615
269.0, 0.0022690124145996276
270.0, 0.0015601119854744211
271.0, 0.0023770009613561724
272.0, 0.003077955709773818
273.0, 0.0032109105916015824
274.0, 0.002217467536283407
275.0, 0.0023814931222323897
276.0, 0.0030113713378865426
277.0, 0.0035446379653271457
278.0, 0.002711239549271405
279.0, 0.0029738039875675717
280.0, 0.0034778734748425345
281.0, 0.004071991071497672
282.0, 0.004899864260613312
283.0, 0.004474475702505999
284.0, 0.003990961425253434
285.0, 0.004042357576465509
286.0, 0.005060414887454733
287.0, 0.0064266489417545165
288.0, 0.007777817492028093
289.0, 0.008718905580729465
290.0, 0.011202571899520194
291.0, 0.013966167961134516
292.0, 0.017299102910664457
293.0, 0.022143999656023802
294.0, 0.027499012017496664
295.0, 0.034787098285517806
296.0, 0.04397282860606905
297.0, 0.05336487595623121
298.0, 0.06304895939500305
299.0, 0.0725704114794674
300.0, 0.0815286257444651
301.0, 0.08668042540864468
302.0, 0.08708916701469915
303.0, 0.0837882359571456
304.0, 0.07727084349177313
305.0, 0.06823054643456364
306.0, 0.05938722211160623
307.0, 0.050578735829366554
308.0, 0.0413568407080567
309.0, 0.034855088738360414
310.0, 0.029389409191488577
311.0, 0.024862178243825313
312.0, 0.02184907789020312
313.0, 0.018969411051298228
314.0, 0.017184752914435827
315.0, 0.016705740522876333
316.0, 0.01651124361604364
317.0, 0.01575983044269139
318.0, 0.015265614858251456
319.0, 0.0155050666901227
320.0, 0.015364217385732975
321.0, 0.015542838940788468
322.0, 0.01624492839577977
323.0, 0.01776373741834664
324.0, 0.017940591023004798
325.0, 0.016518948162516024
326.0, 0.01452190155459868
327.0, 0.014076209759072979
328.0, 0.011806773762364857
329.0, 0.009695890737565526
330.0, 0.00837026182423193
331.0, 0.009105401483575023
332.0, 0.0072657291221342405
333.0, 0.005143674119048254
334.0, 0.0036507814545583797
335.0, 0.004389046540742019
336.0, 0.003806067694325209
337.0, 0.0028818144880594903
338.0, 0.0021613557553905333
339.0, 0.002063284744816561
340.0, 0.0019225656488394097
341.0, 0.0019300432385746828
342.0, 0.002290590751008774
343.0, 0.001305918125983404
344.0, 0.0008477208841779233
345.0, 0.0008171342529953423
346.0, 0.0009878253510745977
347.0, 0.0006731367042223288
348.0, 0.0003904321588903648
349.0, 0.00019089135719465626
350.0, 6.0311879116481596e-05
351.0, 0.0003669445636818389
352.0, 0.000562302014688738
353.0, 0.0005320839731285059
354.0, 0.00031165669982644197
355.0, 0.0009800056452693054
356.0, 0.0012958658957040736
357.0, 0.0009256788491995924
358.0, 0.001335406823447711
359.0, 0.0007498436170967953
360.0, 0.000546160221559741
361.0, 0.0014847665759994012
362.0, 0.00048426509762317213
363.0, 0.0002629902349223278
364.0, 0.0003470073829210422
365.0, 0.0003017658886260682
366.0, 0.0013213871077843464
367.0, 0.0010257829734741186
368.0, 0.0007223891340129692
369.0, 0.002478065781067927
370.0, 0.00130386868624981
371.0, 0.00046566395091161145
372.0, 0.00014583502066964325
373.0, 0.0001764613172118297
374.0, 0.00026622870086872647
375.0, 0.0005474257483439658
376.0, 0.000898186489970854
377.0, 0.0008198225277206569
378.0, 0.0010070407686440604
379.0, 0.0012498674248776925
380.0, 0.0014726964435536644
381.0, 0.0015551944479273742
382.0, 0.0016358266724362796
383.0, 0.001985955987856636
384.0, 0.002619777864745544
385.0, 0.0026048016408488396
386.0, 0.003012941013552363
387.0, 0.003680812861732178
388.0, 0.004439161599002263
389.0, 0.0035710998141098437
390.0, 0.0036451466313839817
391.0, 0.003206287778679342
392.0, 0.0011198302950667976
393.0, 0.001722270750467571
394.0, 0.0012980179683687323
395.0, 0.0006568119179730697
396.0, 0.0006888541184728524
397.0, 0.0020430235674025895
398.0, 0.0019745868281285175
399.0, 0.0017510433502095396
400.0, 0.003417143803645191
401.0, 0.0024333531510958807
402.0, 0.0027705947432012995
403.0, 0.00404740641793094
404.0, 0.004952306167997804
405.0, 0.005014930743077321
406.0, 0.005361104371378379
407.0, 0.0062284413342766284
408.0, 0.00791102453685753
409.0, 0.00924976177614577
410.0, 0.011763328666918229
411.0, 0.015065533336570514
412.0, 0.0168271741958558
413.0, 0.018987849768875614
414.0, 0.02050493991135891
415.0, 0.02119126422872971
416.0, 0.021393059128837693
417.0, 0.020926114934798346
418.0, 0.02030165422623704
419.0, 0.01950730976736874
420.0, 0.01747026260434813
421.0, 0.01581762375373362
422.0, 0.013346989795724282
423.0, 0.010021962138331921
424.0, 0.009844905849190523
425.0, 0.009259235679072638
426.0, 0.008837441957726882
427.0, 0.008831813140009855
428.0, 0.008781987215032169
429.0, 0.008860287088631057
430.0, 0.00876307635216362
431.0, 0.008314113223112261
432.0, 0.007766096798096653
433.0, 0.00735706027514889
434.0, 0.0070163198711677205
435.0, 0.006691148637550406
436.0, 0.006227028365712064
437.0, 0.005388177629222022
438.0, 0.004557388065356862
439.0, 0.004056007701120036
440.0, 0.0040166898609881084
441.0, 0.0032287165165885167
442.0, 0.0025485134901996487
443.0, 0.002801056648344239
444.0, 0.0030056314426205
445.0, 0.0022025853460150464
446.0, 0.001452607128612066
447.0, 0.0019281391647419737
448.0, 0.0015418224609314933
449.0, 0.001417589150434185
450.0, 0.0011963635155738564
451.0, 0.0004109532723608236
452.0, 0.0002911671570346644
453.0, 0.0006970633144645261
454.0, 0.0012683584064062889
455.0, 0.0015365410411221905
456.0, 0.0004642197220749058
457.0, 0.0004592515149324916
458.0, 0.0010524959751889913
459.0, 0.0014411263404714191
460.0, 0.0006912510643668734
461.0, 0.0006295227294830818
462.0, 0.0007724337268114947
463.0, 0.000236016221314912
464.0, 0.00015258810521673067
465.0, 0.0005440283934275363
466.0, 0.0008981314688105981
467.0, 0.00039119079020961695
468.0, 0.0002516475574363326
469.0, 0.0006465217662889478
470.0, 0.001108949862458329
471.0, 0.0008527859462517865
472.0, 0.0009296010149831382
473.0, 0.0016584270664021586
474.0, 0.0021567915531519595
475.0, 0.0008983841151658566
476.0, 0.00029487041545281226
477.0, 0.00031837634593711835
478.0, 0.0005489440801703717
479.0, 0.0002974868228521066
480.0, 0.00021065099708976256
481.0, 0.00035709116061147293
482.0, 0.0006756187273084977
483.0, 0.0010638589989851546
484.0, 0.0008294191284341228
485.0, 0.00039799399736982504
486.0, 0.0001487980289224418
487.0, 0.0006471235142724769
488.0, 0.0005321224119397926
489.0, 0.000926644382326761
490.0, 0.0013857561156515718
491.0, 0.0011161080105763423
492.0, 0.0007937226171642829
493.0, 0.0006525224237177602
494.0, 0.0005569144863130306
495.0, 0.0002928139043889618
496.0, 0.0005408718519654048
497.0, 0.00046671814502409893
498.0, 0.0007123219227426787
499.0, 0.0022009101246540114
500.0, 0.0012236409647939021
501.0, 0.0004956285601797292
502.0, 0.0005091608488301241
503.0, 0.0017612712455815044
504.0, 0.0012916591138105197
505.0, 0.0012292553716669646
506.0, 0.0010846678605766747
507.0, 0.00026771387856249103
508.0, 0.000754604891522763
509.0, 0.0011572574207222837
510.0, 0.001160710954203588
511.0, 0.0004808519095812711
512.0, 0.000842560818951854
513.0, 0.0009229446719447995
514.0, 0.0009069291340762177
515.0, 0.0009673950142039455
516.0, 0.0014572576486464996
517.0, 0.0017027389577294178
518.0, 0.001956430214041535
519.0, 0.0023383924252584234
520.0, 0.0014431286710818996
521.0, 0.0011388103505428722
522.0, 0.0011650368926748862
523.0, 0.0013810900376384583
524.0, 0.002073974743336342
525.0, 0.002271643894763564
526.0, 0.0019353396554371162
527.0, 0.0012080847173603867
528.0, 0.001650401256279147
529.0, 0.0018231215725025727
530.0, 0.001813677712554256
531.0, 0.0017276583061796545
532.0, 0.0020253913345302673
533.0, 0.002029333076582617
534.0, 0.001963764562707421
535.0, 0.0019394979025065082
536.0, 0.0021085925972025893
537.0, 0.0016279378570362077
538.0, 0.002088099815952828
539.0, 0.003195629116976755
540.0, 0.002051864988328417
541.0, 0.0034418240452362484
542.0, 0.00490617632661893
543.0, 0.005392956471304205
544.0, 0.003365092657964866
545.0, 0.003833750106130714
546.0, 0.004583432375012033
547.0, 0.00454973664359142
548.0, 0.0021153896330374155
549.0, 0.0032473394911930998
550.0, 0.003826697420689793
551.0, 0.0038001500799709547
552.0, 0.0038206665189732167
553.0, 0.004367297715683043
554.0, 0.004583215094248101
555.0, 0.004536245178817913
556.0, 0.004382145720831633
557.0, 0.004732298360171532
558.0, 0.004497198502119597
559.0, 0.003989930318146433
560.0, 0.003555211421434341
561.0, 0.0038015143679694624
562.0, 0.004284935610421534
563.0, 0.004887423852125799
564.0, 0.005461528087686283
565.0, 0.005155612308819583
566.0, 0.005991474964385701
567.0, 0.006206887951356258
568.0, 0.005389435381139403
569.0, 0.007525700856599406
570.0, 0.00738543776010559
571.0, 0.006957660450839588
572.0, 0.007111609064684245
573.0, 0.008421879286363936
574.0, 0.011466377876712617
575.0, 0.012759988041411315
576.0, 0.012513566529100219
577.0, 0.014196408409326604
578.0, 0.01498482798422314
579.0, 0.01571989685048233
580.0, 0.017201842540747338
581.0, 0.02084575612312715
582.0, 0.01913702942853855
583.0, 0.01996541958596055
584.0, 0.021641230136926735
585.0, 0.020746557987459297
586.0, 0.023632045369404536
587.0, 0.024720308084628568
588.0, 0.02524233917882396
589.0, 0.026634928586971064
590.0, 0.03086342691393271
591.0, 0.03273688926631075
592.0, 0.034933285333857436
593.0, 0.03920811167633169
594.0, 0.04506183653666819
595.0, 0.05249615308728379
596.0, 0.06028578501966119
597.0, 0.0681161734748707
598.0, 0.07715670926191431
599.0, 0.08860293386635995
600.0, 0.10037626323805961
601.0, 0.1114656146826137
602.0, 0.12048909769654201
603.0, 0.13136552675266414
604.0, 0.13781957460410807
605.0, 0.1399812788711778
606.0, 0.1399740462392384
607.0, 0.13374188667389386
608.0, 0.12488394340615304
609.0, 0.11551902915649634
610.0, 0.10791092520705092
611.0, 0.09354023155859455
612.0, 0.08287836732664527
613.0, 0.07279718750808914
614.0, 0.0613503016973445
615.0, 0.0554781657579094
616.0, 0.04884865777319248
617.0, 0.04223367823840377
618.0, 0.03615682057917344
619.0, 0.03146639239651929
620.0, 0.029226349087532195
621.0, 0.02557011387016469
622.0, 0.02098624410846443
623.0, 0.020211427317037137
624.0, 0.016906384886819142
625.0, 0.014781379209619968
626.0, 0.013309172619282657
627.0, 0.010655038620652126
628.0, 0.011126888965499135
629.0, 0.01006219288216747
630.0, 0.008041603933495524
631.0, 0.006049231581275355
632.0, 0.008270614579114897
633.0, 0.007106606937445374
634.0, 0.006204457645020282
635.0, 0.00717935958637503
636.0, 0.004998374855563273
637.0, 0.004370190273059822
638.0, 0.004164223726966049
639.0, 0.003970712671851279
640.0, 0.0037289535182886916
641.0, 0.0033754708652468123
642.0, 0.0026531078712241658
643.0, 0.001966994299756003
644.0, 0.002181034355736425
645.0, 0.0011093919138093732
646.0, 0.0004712762493427986
647.0, 0.0006878365702436321
648.0, 0.001964577934781726
649.0, 0.00046268294120057295
650.0, 0.000458769556519314
651.0, 0.0006886786761028873
652.0, 0.0005103156959906767
653.0, 0.0009241644513753827
654.0, 0.0006872584495295487
655.0, 0.0007480448055109255
656.0, 0.0012250469903153356
657.0, 0.0015189748701218697
658.0, 0.0005017887095798554
659.0, 0.0004945978315330522
660.0, 0.000994870238485795
661.0, 0.0006175961421656662
662.0, 0.0015294712545769395
663.0, 0.00110084295252703
664.0, 0.0006497534681380906
665.0, 0.0013000796556788654
666.0, 0.0011810222304141013
667.0, 0.0006418978399205893
668.0, 0.0006244496821314954
669.0, 0.0012437283551276648
670.0, 0.0009668281885870591
671.0, 0.0013253621666557919
672.0, 0.0017346727434723577
673.0, 0.0019796198438563656
674.0, 0.0018770322019150015
675.0, 0.0012886513004051242
676.0, 0.001202408394476825
677.0, 0.0014417883224181695
678.0, 0.001685419433725973
679.0, 0.0009014328401263957
680.0, 0.0007006074133682728
681.0, 0.0008545282754244678
682.0, 0.0011430127093314281
683.0, 0.0010859630098412232
684.0, 0.0010299823771032575
685.0, 0.0007643169845486817
686.0, 0.00046551583566306024
687.0, 0.0007156573052083509
688.0, 0.0011151438163093193
689.0, 0.0012839592879015714
690.0, 0.0015533226470494405
691.0, 0.0023068537477310613
692.0, 0.0013420082946537077
693.0, 0.0006004358079658093
694.0, 0.0013737427405561907
695.0, 0.00355568382055072
696.0, 0.0018838605504998868
697.0, 0.0015365820905491397
698.0, 0.0011627912225577715
699.0, 0.0006649731212279935
700.0, 0.0007011760496946948
701.0, 0.0006610801888016053
702.0, 0.0010803614615451601
703.0, 0.0012509466189081287
704.0, 0.0003853063044283048
705.0, 0.00013847861820187997
706.0, 0.0010807518948629327
707.0, 0.001629226908224144
708.0, 0.0011356994702934695
709.0, 0.0007243593103546049
710.0, 0.0009692827920138925
711.0, 0.0009665888759456151
712.0, 0.0009146116597183809
713.0, 0.00164150009880425
714.0, 0.0010142223132706752
715.0, 0.001136766576655342
716.0, 0.001099836612999039
717.0, 8.938093192423386e-05
718.0, 0.00012117736124361896
719.0, 0.0016993646538663852
720.0, 0.0022952564705284667
721.0, 0.0013752708139777284
722.0, 0.0009157534145403978
723.0, 0.0014154689709218503
724.0, 0.0021982978853771584
725.0, 0.002430482486407466
726.0, 0.0010634976286401005
727.0, 0.0023782739185464023
728.0, 0.0019253052988621566
729.0, 0.0023690421333171134
730.0, 0.004859049356832941
731.0, 0.004794896440321521
732.0, 0.003660250522801349
733.0, 0.0029284334663485833
734.0, 0.002695816524543285
735.0, 0.0022355388344784226
736.0, 0.0024275522684362254
737.0, 0.003483994139691206
738.0, 0.0044487445715286735
739.0, 0.004442432364156779
740.0, 0.004559894940182009
741.0, 0.003990651680978408
742.0, 0.004179510275876104
743.0, 0.004956360268733065
744.0, 0.0037030454775623754
745.0, 0.0038527916526626595
746.0, 0.004616965104179721
747.0, 0.005008090251469385
748.0, 0.003948959714416023
749.0, 0.004347830436738102
750.0, 0.005144401337144354
751.0, 0.006110549141467197
752.0, 0.006713185235639169
753.0, 0.005044636311557231
754.0, 0.005630313675685526
755.0, 0.006216969220871961
756.0, 0.006540053640084413
757.0, 0.006922988446995327
758.0, 0.007452939052956193
759.0, 0.006946838518286979
760.0, 0.0075971645524588495
761.0, 0.009872907589690207
762.0, 0.006912495905059861
763.0, 0.00885776559413784
764.0, 0.0094612168291198
765.0, 0.008453472951850722
766.0, 0.008572849550934906
767.0, 0.011038454723431021
768.0, 0.010003064713592772
769.0, 0.009381765434307656
770.0, 0.011785772049407853
771.0, 0.010845288727466929
772.0, 0.012152432741989063
773.0, 0.013094679278841137
774.0, 0.013118823214663271
775.0, 0.01277623385457894
776.0, 0.013851736616106324
777.0, 0.013858727488519375
778.0, 0.014370242758250527
779.0, 0.016353331521734637
780.0, 0.014999448707155359
781.0, 0.016073863239242307
782.0, 0.016468173647851574
783.0, 0.016225590345843918
784.0, 0.017793025784503407
785.0, 0.019173262362166505
786.0, 0.020377828579375444
787.0, 0.020626270258239092
788.0, 0.019831745618904693
789.0, 0.02317824111570772
790.0, 0.023717351653760644
791.0, 0.024770567471531994
792.0, 0.026933889867321942
793.0, 0.02913676345547671
794.0, 0.028349657851862164
795.0, 0.03075369693466377
796.0, 0.034576228649925066
797.0, 0.03786041011851269
798.0, 0.03979983504931821
799.0, 0.04123579065420791
800.0, 0.044214679903532804
801.0, 0.04899434773600632
802.0, 0.054824298997560306
803.0, 0.05856548481829048
804.0, 0.06582899856008419
805.0, 0.07311617234362702
806.0, 0.07879905512822807
807.0, 0.09056986747499479
808.0, 0.10147101618391448
809.0, 0.11488566857646157
810.0, 0.13044529658840195
811.0, 0.14598862899186352
812.0, 0.1694104645987245
813.0, 0.19876679391059765
814.0, 0.23511100573173954
815.0, 0.2798855683468081
816.0, 0.337971524223547
817.0, 0.4105982946101653
818.0, 0.502355331128979
819.0, 0.612205541259584
820.0, 0.7352950620948353
821.0, 0.8320020739043739
822.0, 0.8982725304155403
823.0, 0.9242168958256388
824.0, 0.9032064511023543
825.0, 0.827003728919043
826.0, 0.7306461967997466
827.0, 0.6339330469936256
828.0, 0.5427621306720971
829.0, 0.4614109762432391
830.0, 0.398043384856535
831.0, 0.346766591589981
832.0, 0.30259616415755947
833.0, 0.26544923107980234
834.0, 0.2390068119969487
835.0, 0.22270682522531005
836.0, 0.21090246548347946
837.0, 0.20243157139725323
838.0, 0.196649798617231
839.0, 0.19483129188429102
840.0, 0.19529457197841413
841.0, 0.20247442342660937
842.0, 0.21380874422348703
843.0, 0.2239090724454272
844.0, 0.24381565104359035
845.0, 0.2746947975466693
846.0, 0.31236300831391933
847.0, 0.3577423965133442
848.0, 0.4216896913236664
849.0, 0.4949904915597419
850.0, 0.588198225645114
851.0, 0.6942995188366646
852.0, 0.8021509058521097
853.0, 0.8897785753603861
854.0, 0.9619455913479154
855.0, 0.9963828281804363
856.0, 0.9869867935365542
857.0, 0.9371277649409698
858.0, 0.8363788520171438
859.0, 0.7319900576215552
860.0, 0.6319770530169354
861.0, 0.5400787224493516
862.0, 0.4530680765037924
863.0, 0.3780901764694385
864.0, 0.32174300451916293
865.0, 0.27611918541938596
866.0, 0.2317515170482279
867.0, 0.202005833017227
868.0, 0.1747624079302055
869.0, 0.15391825382607827
870.0, 0.13763740286441153
871.0, 0.119427560483993
872.0, 0.10891412399258274
873.0, 0.09847478843300982
874.0, 0.09043719768287956
875.0, 0.08561680216260004
876.0, 0.08113328659568055
877.0, 0.07967221706672006
878.0, 0.08008915397545288
879.0, 0.08046563639787938
880.0, 0.07921032364374535
881.0, 0.0798125073575505
882.0, 0.0758426517267356
883.0, 0.07133484262177817
884.0, 0.06562875052651088
885.0, 0.05533475412408331
886.0, 0.05057269952245435
887.0, 0.04367378527514938
888.0, 0.03825024373626761
889.0, 0.034770671116629626
890.0, 0.027864168181652865
891.0, 0.026905360498629904
892.0, 0.02466530308239833
893.0, 0.021927700992370968
894.0, 0.020085081765826268
895.0, 0.018976091035204822
896.0, 0.015970003671200814
897.0, 0.014543794241720568
898.0, 0.01421863414505267
899.0, 0.013086968426694537
900.0, 0.011321998801297086
901.0, 0.009827852146119427
902.0, 0.008989596246274208
903.0, 0.009119516871146776
904.0, 0.010554287555880866
905.0, 0.007417382133245048
906.0, 0.007016000132820976
907.0, 0.007803793531800629
908.0, 0.00804561077069069
909.0, 0.005910853763561973
910.0, 0.005924358574503753
911.0, 0.0054300714142418915
912.0, 0.005663667797119533
913.0, 0.007602377552533249
914.0, 0.00671454576003717
915.0, 0.007429629556793792
916.0, 0.007007922581653715
917.0, 0.005362257862069994
918.0, 0.003601431372556729
919.0, 0.005721293470068233
920.0, 0.006247087205032722
921.0, 0.006212656163943846
922.0, 0.005870660732058766
923.0, 0.004848435408483674
924.0, 0.00547935346235199
925.0, 0.005783702878263966
926.0, 0.004917517916604023
927.0, 0.0033705384290211526
928.0, 0.004316840134908875
929.0, 0.0032038887388551383
930.0, 0.0038742963955028455
931.0, 0.005442750314903285
932.0, 0.006505348616820792
933.0, 0.0054003488245089265
934.0, 0.0051332189517833944
935.0, 0.006551561472681205
936.0, 0.007665590254616976
937.0, 0.006502285844812701
938.0, 0.007783162062691427
939.0, 0.009007395099097155
940.0, 0.009381493464646624
941.0, 0.00941602980215791
942.0, 0.010226971212010898
943.0, 0.011300181528101033
944.0, 0.011643245075029238
945.0, 0.013468476046736177
946.0, 0.016721012114039747
947.0, 0.019410791027437313
948.0, 0.023954254035120182
949.0, 0.026839593722154133
950.0, 0.03024632033735072
951.0, 0.03512427265850678
952.0, 0.04070121157788713
953.0, 0.04731558181074314
954.0, 0.0534991061540177
955.0, 0.06260296329057363
956.0, 0.07542024625995704
957.0, 0.08604601738151449
958.0, 0.09804076805426376
959.0, 0.10712330079881663
960.0, 0.1146734290353421
961.0, 0.12177076118060254
962.0, 0.12500997861754376
963.0, 0.12552990903060804
964.0, 0.12336245748014514
965.0, 0.11846262703897745
966.0, 0.1113814133865546
967.0, 0.10559429685824753
968.0, 0.09607552105739617
969.0, 0.08563311126692627
970.0, 0.076485064780154
971.0, 0.0699595005296919
972.0, 0.05886602753201004
973.0, 0.0518206175554564
974.0, 0.045466886097366786
975.0, 0.039693789613697274
976.0, 0.03567021562483994
977.0, 0.03128992650817888
978.0, 0.026835245012577908
979.0, 0.024111125811479263
980.0, 0.022668501720204806
981.0, 0.020522594153911274
982.0, 0.01703021129937303
983.0, 0.01748224397657832
984.0, 0.016475223230595717
985.0, 0.013992376281249741
986.0, 0.014675657858809277
987.0, 0.01312004328394029
988.0, 0.011081617250961413
989.0, 0.010037800408336026
990.0, 0.010176861095753074
991.0, 0.010256010906910548
992.0, 0.00952923166099484
993.0, 0.00962281682526228
994.0, 0.009453131015052192
995.0, 0.00882162237719359
996.0, 0.00879622857966848
997.0, 0.00791504316350646
998.0, 0.008479938663755383
999.0, 0.00861461213976891
1000.0, 0.008033160718071504
1001.0, 0.009227605928018657
1002.0, 0.006944809504097736
1003.0, 0.006303603569952368
1004.0, 0.006047797541498005
1005.0, 0.00537528405149445
1006.0, 0.0048404804448126905
1007.0, 0.00463673527025813
1008.0, 0.0036839923016566364
1009.0, 0.003190346251559669
1010.0, 0.0035218582337989343
1011.0, 0.003162057923982792
1012.0, 0.0024975210127546046
1013.0, 0.003333193998067083
1014.0, 0.003863475151663388
1015.0, 0.0032850620673822127
1016.0, 0.003300990487826443
1017.0, 0.0034264139092669526
1018.0, 0.0033701836828142658
1019.0, 0.002976091001302425
1020.0, 0.0025866025381289775
1021.0, 0.003590075953853474
1022.0, 0.0039039482375380482
1023.0, 0.0021929529155777176
1024.0, 0.0020876541013473146
1025.0, 0.00411207341221899
1026.0, 0.0018897234864471586
1027.0, 0.003362038504974631
1028.0, 0.0029253381979399045
1029.0, 0.0030757693982989146
1030.0, 0.004476562858925257
1031.0, 0.00333577871735735
1032.0, 0.0020915699097449275
1033.0, 0.0020041536014546862
1034.0, 0.0029271582474415274
1035.0, 0.0037127785067434535
1036.0, 0.001588483244026533
1037.0, 0.0022104427250448206
1038.0, 0.0027661695305106772
1039.0, 0.0029687339727182908
1040.0, 0.0031615911331343343
1041.0, 0.004465885916645004
1042.0, 0.0033027596411580075
1043.0, 0.0021456988182976017
1044.0, 0.0023637037940701213
1045.0, 0.0033034780723244744
1046.0, 0.0018293341493320209
1047.0, 0.0018660908825533958
1048.0, 0.0017907175764491317
1049.0, 0.00203681223411337
1050.0, 0.002174163518445812
1051.0, 0.0009042462922205605
1052.0, 0.002018982724735142
1053.0, 0.002257318392840467
1054.0, 0.001654251993244595
1055.0, 0.0007456459158089219
1056.0, 0.0005251612054488412
1057.0, 0.0033007750461647614
1058.0, 0.001880360997871569
1059.0, 0.0010126568311071935
1060.0, 0.0015584876853094985
1061.0, 0.0019231871894364386
1062.0, 0.000583519373694488
1063.0, 0.0008733766467446526
1064.0, 0.0006969325527647699
1065.0, 0.00014447010276259163
1066.0, 0.00019483511267629543
1067.0, 0.000646381334329683
1068.0, 0.0010128334895516925
1069.0, 0.0009276710810354981
1070.0, 0.0010972442786749868
1071.0, 0.002010341702981218
1072.0, 0.0008649915494673561
1073.0, 0.0005183119154884034
1074.0, 0.0007443576563114133
1075.0, 0.0008531086640479444
1076.0, 0.00041244182695916975
1077.0, 0.0003360396713814377
1078.0, 0.0005970160906817553
1079.0, 0.0017960382115238841
1080.0, 0.0023090445690516024
1081.0, 0.0012575816819068734
1082.0, 0.00022079600464092186
1083.0, 0.001482753180662778
1084.0, 0.001139426739201926
1085.0, 0.00045350058048134405
1086.0, 0.0002403148919764934
1087.0, 3.0201368858199753e-05
1088.0, 0.0008150992126935402
1089.0, 0.0005689349395891473
1090.0, 0.0005753213985991493
1091.0, 0.0010000942962932675
1092.0, 0.0008828117702941927
1093.0, 0.00046303822003390937
1094.0, 0.001164176681327693
1095.0, 0.0010883358447084308
1096.0, 0.0003729191202270906
1097.0, 0.0002770860874005684
1098.0, 0.0009514266461302539
1099.0, 0.0013009926908791266
1100.0, 0.0017604654558729625
1101.0, 0.001868985347440267
1102.0, 0.0012114918066780888
1103.0, 0.0011026854642952793
1104.0, 0.0006073860895124836
1105.0, 0.0013928324385809384
1106.0, 0.0019057855949731846
1107.0, 0.0012620475616336147
1108.0, 0.001960615240075351
1109.0, 0.001994950618424503
1110.0, 0.001742630044652384
1111.0, 0.001619241342788494
1112.0, 0.0016711684360319922
1113.0, 0.0014104573153085563
1114.0, 0.0017181641535910716
1115.0, 0.0012016440167718413
1116.0, 0.0006784280187287712
1117.0, 0.0003998169280176085
1118.0, 0.00015101538912453845
1119.0, 0.00011593776578835237
1120.0, 0.00019677850323018077
1121.0, 0.0026431366644035087
1122.0, 0.005734183837054111
1123.0, 0.006671641838556775
1124.0, 0.005951258789738885
1125.0, 0.005621744764320791
1126.0, 0.003001355367191322
1127.0, 0.0009314211974196883
1128.0, 0.0014319007998671366
1129.0, 0.0017098438659464289
1130.0, 0.0007068723349670633
1131.0, 0.0007658675924498359
1132.0, 0.0011233843902858274
1133.0, 0.0011836148012652568
1134.0, 0.0008803273098726057
1135.0, 0.001160523038445374
1136.0, 0.003337626146683927
1137.0, 0.003202927454541455
1138.0, 0.0014548148847716743
1139.0, 0.0012010651224069503
1140.0, 0.0006297090327078432
1141.0, 0.0009813728559621595
1142.0, 0.0009917778977401473
1143.0, 0.0007190642939740974
1144.0, 0.000697202506646258
1145.0, 0.0018379305570109788
1146.0, 0.0016899496605634304
1147.0, 0.001357618189233657
1148.0, 0.001444925155794204
1149.0, 0.0019158248128245837
1150.0, 0.0019485681621470212
1151.0, 0.0014289225126498924
1152.0, 0.0006864487279613751
1153.0, 0.0022040886380731875
1154.0, 0.0036656722629527143
1155.0, 0.0012814938722828845
1156.0, 0.0028377402937433474
1157.0, 0.0015113015907092624
1158.0, 0.0013303386695893912
1159.0, 0.00175063226966468
1160.0, 0.0018363553571646124
1161.0, 0.0027620007514326363
1162.0, 0.002170812309331761
1163.0, 0.0019739607605273116
1164.0, 0.0023649183407825907
1165.0, 0.0032548855184522485
1166.0, 0.004272752360263555
1167.0, 0.0021048496607504966
1168.0, 0.006792227280985498
1169.0, 0.010439145875569069
1170.0, 0.008875483130298893
1171.0, 0.002280013313973421
1172.0, 0.002690614443942032
1173.0, 0.002824140277997861
1174.0, 0.002756359954193955
1175.0, 0.003739828024847677
1176.0, 0.005458304998491505
1177.0, 0.004680827781518425
1178.0, 0.0013345954132516912
1179.0, 0.002265605668626261
1180.0, 0.0023379011664131696
1181.0, 0.0008512883619122263
1182.0, 0.000389785489175001
1183.0, 0.0036362328941940973
1184.0, 0.003389024293194307
1185.0, 0.00268479832872034
1186.0, 0.0026020574448808163
1187.0, 0.0031164588711724422
1188.0, 0.0027405903764060866
1189.0, 0.0033594487515899384
1190.0, 0.00338428408076254
1191.0, 0.003684102710532624
1192.0, 0.004245167746558577
1193.0, 0.004217268627661649
1194.0, 0.002919487059684386
1195.0, 0.003648446211520106
1196.0, 0.003973091368186352
1197.0, 0.004731939151391702
1198.0, 0.006100074968371509
1199.0, 0.003881327056013679
1200.0, 0.005378706424476578
1201.0, 0.004997467694743874
1202.0, 0.005647646793743653
1203.0, 0.007220830688679508
1204.0, 0.006794551202903922
1205.0, 0.007022588843218151
1206.0, 0.006407117438387354
1207.0, 0.00580413479845145
1208.0, 0.004898631541322061
1209.0, 0.0036787181167748854
1210.0, 0.00386576495123813
1211.0, 0.0038873619918645924
1212.0, 0.004224270533375698
1213.0, 0.004724718096697425
1214.0, 0.0054385455020230684
1215.0, 0.0065187346663384705
1216.0, 0.00707783375470461
1217.0, 0.005997636211686872
1218.0, 0.006517133896887131
1219.0, 0.0074527296431618735
1220.0, 0.00740638774012711
1221.0, 0.007266696055376242
1222.0, 0.008369862485308457
1223.0, 0.008362919403629947
1224.0, 0.008544364881687784
1225.0, 0.00866800363160196
1226.0, 0.007683448165721457
1227.0, 0.007387013846400966
1228.0, 0.006394756738968864
1229.0, 0.005857449254521699
1230.0, 0.00549000592405495
1231.0, 0.005091136911414975
1232.0, 0.005081098757759338
1233.0, 0.0050364382530044514
1234.0, 0.004942322808703592
1235.0, 0.005816546965046091
1236.0, 0.006615992351797334
1237.0, 0.006163395884549938
1238.0, 0.007173843733131275
1239.0, 0.007442808142729475
1240.0, 0.005637195330158976
1241.0, 0.005918563282376535
1242.0, 0.007796277451028703
1243.0, 0.005768393661675523
1244.0, 0.0068365507612997345
1245.0, 0.005768210377823483
1246.0, 0.006489313394932836
1247.0, 0.0077525707181865825
1248.0, 0.007170894437105022
1249.0, 0.0037023623104352962
1250.0, 0.006877319152351558
1251.0, 0.005650538020467848
1252.0, 0.004955590694609077
1253.0, 0.0054540858155064775
1254.0, 0.005519599609833605
1255.0, 0.009377083536573606
1256.0, 0.008560050623298556
1257.0, 0.007095282624666689
1258.0, 0.0066919738143976035
1259.0, 0.006492110678383595
1260.0, 0.0034122405529643375
1261.0, 0.0027992295296111673
1262.0, 0.0035886229063528834
1263.0, 0.0035950955625637018
1264.0, 0.0037979293938034263
1265.0, 0.004698927661725672
1266.0, 0.00324979099562532
1267.0, 0.004900938336742685
1268.0, 0.003884027393714383
1269.0, 0.003498155185841948
1270.0, 0.003337585173845048
1271.0, 0.0019395370049497046
1272.0, 0.004511046468413505
1273.0, 0.0028241609813548316
1274.0, 0.0029589370119471724
1275.0, 0.0032444885683775774
1276.0, 0.0025410230800957984
1277.0, 0.0014951056705970614
1278.0, 0.0027720009063348407
1279.0, 0.004676085559536745
1280.0, 0.003870367526343277
1281.0, 0.0027253247239778645
1282.0, 0.0031479327675495907
1283.0, 0.00381836829137442
1284.0, 0.0031942783501917203
1285.0, 0.003277426474217724
1286.0, 0.002563090871953034
1287.0, 0.0018944893372654552
1288.0, 0.0025315099055448565
1289.0, 0.004189965778741384
1290.0, 0.002734573657188631
1291.0, 0.003091103404352015
1292.0, 0.002299848225032884
1293.0, 0.0013239417386096952
1294.0, 0.002429159939504717
1295.0, 0.0018102197787374418
1296.0, 0.0019112540811311862
1297.0, 0.0008929742386927786
1298.0, 0.00024191317521641572
1299.0, 0.00031002160772180745
1300.0, 0.00021297516007154338
1301.0, 0.00024883115358039767
1302.0, 0.000635380934915493
1303.0, 0.0005745861979735658
1304.0, 0.0010924798587450988
1305.0, 0.0019073708725240491
1306.0, 0.0011205612738178724
1307.0, 0.001769636359174905
1308.0, 0.002264542660858082
1309.0, 0.0015453816338367615
1310.0, 0.0011915782208379783
1311.0, 0.001678009628123803
1312.0, 0.0006992792144176369
1313.0, 0.0016943471882994966
1314.0, 0.0008403596053911707
1315.0, 0.0018611948578024526
1316.0, 0.002787283551421513
1317.0, 0.0015216186571252125
1318.0, 0.00020960469668170924
1319.0, 0.00034703286380337637
1320.0, 0.0003608447487954023
1321.0, 0.0013497843637928744
1322.0, 0.001732072610292187
1323.0, 0.0005702479717632772
1324.0, 0.0018246834687045033
1325.0, 0.0007644434985806918
1326.0, 0.0026132240255269806
1327.0, 0.0027516261204447584
1328.0, 0.0013338667836679256
1329.0, 0.0007161123673671398
1330.0, 0.0006649700862568614
1331.0, 0.0011313993269359483
1332.0, 0.0014759233925343148
1333.0, 0.0012021860979476932
1334.0, 0.001630675107321019
1335.0, 0.0036745910450345577
1336.0, 0.0025693643081997385
1337.0, 0.0009621904847151738
1338.0, 0.002926600777619885
1339.0, 0.0025028516112930973
1340.0, 0.0013095910957196155
1341.0, 0.0038670473327869466
1342.0, 0.0016769473997981887
1343.0, 0.0015980185397670866
1344.0, 0.0011002147991793628
1345.0, 0.001956145803365683
1346.0, 0.0029397555782873833
1347.0, 0.0016853884292787127
1348.0, 0.0019268720185206204
1349.0, 0.0008263354704002661
1350.0, 0.0014077770527045428
1351.0, 0.0022662401866236875
1352.0, 0.002861363679222093
1353.0, 0.0034495116589713477
1354.0, 0.003046303954509916
1355.0, 0.0020466152573916443
1356.0, 0.0013154658026907388
1357.0, 0.002933951610057322
1358.0, 0.004669376587571923
1359.0, 0.002962951139499966
1360.0, 0.002951773720260174
1361.0, 0.0037065708441956467
1362.0, 0.002821746926832683
1363.0, 0.0016388523605333656
1364.0, 0.0021600907503275275
1365.0, 0.004874737200649239
1366.0, 0.003937027534703842
1367.0, 0.005101253055888534
1368.0, 0.0036241582177204343
1369.0, 0.003611641389956055
1370.0, 0.004130930790036319
1371.0, 0.002458854872982183
1372.0, 0.0034261047711078773
1373.0, 0.003215919000663215
1374.0, 0.002396535336364861
1375.0, 0.0022655606759649795
1376.0, 0.0023179752565516114
1377.0, 0.0017022881979092506
1378.0, 0.001899668384179101
1379.0, 0.0004784485187762942
1380.0, 0.0023095665430097724
1381.0, 0.004284452426541546
1382.0, 0.004674339404266977
1383.0, 0.0038743433503881626
1384.0, 0.004862480874594315
1385.0, 0.004890119398485001
1386.0, 0.0042558094491779745
1387.0, 0.0034013573139215054
1388.0, 0.0038283493014982586
1389.0, 0.005504627398384262
1390.0, 0.004904443985004036
1391.0, 0.004426109659359936
1392.0, 0.0031322645485280807
1393.0, 0.0026836749575836136
1394.0, 0.0034259168203323483
1395.0, 0.004458396553317871
1396.0, 0.0040057565209566
1397.0, 0.003214305614549693
1398.0, 0.0025182473153014776
1399.0, 0.0032383888305165865
1400.0, 0.004343817043599803
1401.0, 0.005066894666696973
1402.0, 0.005488257879662142
1403.0, 0.0037092831018191385
1404.0, 0.004184615652694813
1405.0, 0.004022008372557275
1406.0, 0.003847601753221212
1407.0, 0.003786307033372114
1408.0, 0.0032734852737777887
1409.0, 0.0031033181115234024
1410.0, 0.0032605831600571234
1411.0, 0.0033414205847882754
1412.0, 0.003259616712766999
1413.0, 0.0029478611899975103
1414.0, 0.0023743034970586598
1415.0, 0.0016060517071440615
1416.0, 0.0053719055143626815
1417.0, 0.004071973874809402
1418.0, 0.0021272424010173874
1419.0, 0.0026291521807292025
1420.0, 0.005112531220479947
1421.0, 0.004663198197414843
1422.0, 0.0055249170351593865
1423.0, 0.003425652948582094
1424.0, 0.003385087014147881
1425.0, 0.004225512114725832
1426.0, 0.003945251047498213
1427.0, 0.0026095349117791307
1428.0, 0.004786714967937401
1429.0, 0.0036801923162629838
1430.0, 0.0026662777263363052
1431.0, 0.002358616039090126
1432.0, 0.0024538216529332493
1433.0, 0.0024205379093691615
1434.0, 0.002461655762603225
1435.0, 0.0023653972335275575
1436.0, 0.004650318389715468
1437.0, 0.005074740225761579
1438.0, 0.0034205165763908
1439.0, 0.0015332998159705452
1440.0, 8.14317232996878e-05
1441.0, 0.004025670787368158
1442.0, 0.003018540166213592
1443.0, 0.002325872963191516
1444.0, 0.002932078047997352
1445.0, 0.0031770943731124395
1446.0, 0.001170601065007837
1447.0, 0.004750054141823655
1448.0, 0.004910673394274946
1449.0, 0.005472260342539789
1450.0, 0.004641641871117185
1451.0, 0.003558434256602205
1452.0, 0.0046629312699683866
1453.0, 0.004446322443688648
1454.0, 0.003019348319849888
1455.0, 0.005048449544758004
1456.0, 0.00611372440315744
1457.0, 0.004862602395369779
1458.0, 0.0035679162460247817
1459.0, 0.006666421852736785
1460.0, 0.004205074620408868
1461.0, 0.0062322643530139015
1462.0, 0.005304910277196845
1463.0, 0.0032431688750856873
1464.0, 0.0036306924228647927
1465.0, 0.007001190314094389
1466.0, 0.0031050021191870634
1467.0, 0.008040898682305465
1468.0, 0.006211374294615348
1469.0, 0.0037208819864610627
1470.0, 0.004271824177546698
1471.0, 0.006916030465454475
1472.0, 0.006562121240702894
1473.0, 0.0031718256585035187
1474.0, 0.0038794284904321128
1475.0, 0.005064454863605374
1476.0, 0.005272216302742158
1477.0, 0.004468381353369096
1478.0, 0.003623582969110722
1479.0, 0.004214522274800126
1480.0, 0.004874511149783905
1481.0, 0.0067415076220074055
1482.0, 0.004625659621235521
1483.0, 0.002258748352185234
1484.0, 0.003286429496249444
1485.0, 0.0015538745702421714
1486.0, 0.0030852962585234877
1487.0, 0.003525529997857299
1488.0, 0.00435950880285306
1489.0, 0.003969495690260054
1490.0, 0.0022708303488449635
1491.0, 0.0012065429083854195
1492.0, 0.0018175273356564785
1493.0, 0.004713105648841014
1494.0, 0.00405010862582994
1495.0, 0.0021203986516394424
1496.0, 0.0024813386813293033
1497.0, 0.004246782568277782
1498.0, 0.0006527974297842695
1499.0, 0.002994001644116882
1500.0, 0.0015915973852200908
1501.0, 0.0007781946977658175
1502.0, 0.0006775248730481601
1503.0, 0.0010253073847042962
1504.0, 0.0016272571087000776
1505.0, 0.001784832231719631
1506.0, 0.0019085045969374195
1507.0, 0.0006581041881414811
1508.0, 0.00023364264464356823
1509.0, 0.00026498930121654556
1510.0, 0.00032473576353144655
1511.0, 0.0007645815255518467
1512.0, 0.00048806382405111506
1513.0, 0.001274760144195122
1514.0, 0.0016606116840872172
1515.0, 0.001992642301048101
1516.0, 0.0020390214889737636
1517.0, 0.0016642526234149798
1518.0, 0.0015003983247046152
1519.0, 0.0009476565995447365
1520.0, 0.000791325696646287
1521.0, 0.00040936020563491534
1522.0, 9.816797651847905e-05
1523, 0.0
1524, 0.0
1525, 0.0
1526, 0.0
1527, 0.0
1528, 0.0
1529, 0.0
1530, 0.0
1531, 0.0
1532, 0.0
1533, 0.0
1534, 0.0
1535, 0.0
1536, 0.0
1537, 0.0
1538, 0.0
1539, 0.0
1540, 0.0
1541, 0.0
1542, 0.0
1543, 0.0
1544, 0.0
1545, 0.0
1546, 0.0
1547, 0.0
1548, 0.0
1549, 0.0
1550, 0.0
1551, 0.0
1552, 0.0
1553, 0.0
1554, 0.0
1555, 0.0
1556, 0.0
1557, 0.0
1558, 0.0
1559, 0.0
1560, 0.0
1561, 0.0
1562, 0.0
1563, 0.0
1564, 0.0
1565, 0.0
1566, 0.0
1567, 0.0
1568, 0.0
1569, 0.0
1570, 0.0
1571, 0.0
1572, 0.0
1573, 0.0
1574, 0.0
1575, 0.0
1576, 0.0
1577, 0.0
1578, 0.0
1579, 0.0
1580, 0.0
1581, 0.0
1582, 0.0
1583, 0.0
1584, 0.0
1585, 0.0
1586, 0.0
1587, 0.0
1588, 0.0
1589, 0.0
1590, 0.0
1591, 0.0
1592, 0.0
1593, 0.0
1594, 0.0
1595, 0.0
1596, 0.0
1597, 0.0
1598, 0.0
1599, 0.0
