30, 0.0
31, 0.0
32, 0.0
33, 0.0
34, 0.0
35, 0.0
36, 0.0
37, 0.0
38, 0.0
39, 0.0
40, 0.0
41, 0.0
42, 0.0
43, 0.0
44, 0.0
45, 0.0
46, 0.0
47, 0.0
48, 0.0
49, 0.0
50, 0.0
51, 0.0
52, 0.0
53, 0.0
54, 0.0
55, 0.0
56, 0.0
57, 0.0
58, 0.0
59, 0.0
60, 0.0
61, 0.0
62, 0.0
63, 0.0
64, 0.0
65, 0.0
66, 0.0
67, 0.0
68, 0.0
69, 0.0
70, 0.0
71, 0.0
72, 0.0
73, 0.0
74, 0.0
75, 0.0
76, 0.0
77, 0.0
78, 0.0
79, 0.0
80, 0.0
81, 0.0
82, 0.0
83, 0.0
84, 0.0
85, 0.0
86, 0.0
87, 0.0
88, 0.0
89, 0.0
90, 0.0
91, 0.0
92, 0.0
93, 0.0
94, 0.0
95, 0.0
96, 0.0
97, 0.0
98, 0.0
99, 0.0
100, 0.0
101.0, 0.0005830133034319437
102.0, 0.0007663402403776169
103.0, 6.214379058601437e-05
104.0, 0.0006131452196097972
105.0, 0.0007085987455331342
106.0, 0.0006540210660284421
107.0, 0.0012748870712860814
108.0, 0.001191161754892334
109.0, 0.0012067255397857544
110.0, 0.0016073053250351024
111.0, 0.001259038075261682
112.0, 0.0015151158544957385
113.0, 0.0021755728602665145
114.0, 0.0029434150216378265
115.0, 0.005023349201252582
116.0, 0.008529681819314515
117.0, 0.013765214618200926
118.0, 0.024334984008117313
119.0, 0.030736782471549446
120.0, 0.03194698222540817
121.0, 0.02454284179471381
122.0, 0.01802431658080642
123.0, 0.01239565919951297
124.0, 0.007789111861361393
125.0, 0.0053226808619657095
126.0, 0.003833863544426347
127.0, 0.0029812156679026275
128.0, 0.0025722218926230523
129.0, 0.002753089439039858
130.0, 0.002624249996723819
131.0, 0.002141019592298164
132.0, 0.0017788300761453965
133.0, 0.0027453624265919253
134.0, 0.003455117963631121
135.0, 0.002611843678121914
136.0, 0.004589976776518923
137.0, 0.004962611272758219
138.0, 0.0039341357898466656
139.0, 0.003253376976482146
140.0, 0.0033577134217451315
141.0, 0.004203185484643567
142.0, 0.00587660417706405
143.0, 0.005453489731054576
144.0, 0.004578165468948359
145.0, 0.003496802073470984
146.0, 0.0027204608895988443
147.0, 0.00242569627531714
148.0, 0.0025668785540705567
149.0, 0.0031119638112360308
150.0, 0.002961880394308607
151.0, 0.0023812180423871134
152.0, 0.0015515131486338713
153.0, 0.0006607275104166945
154.0, 0.0016653145006863793
155.0, 0.0015072316003987081
156.0, 5.9896525065471486e-05
157.0, 0.0002194703695533558
158.0, 0.0011525398501075776
159.0, 0.0018309471383647002
160.0, 0.0013642333240349285
161.0, 0.0007830227992997279
162.0, 0.001027716958507346
163.0, 0.0019098920399500845
164.0, 0.0026569036599986026
165.0, 0.0013472970413038075
166.0, 0.00029269736158615774
167.0, 0.0004924207113699004
168.0, 0.0012268389156899033
169.0, 0.001140939750242935
170.0, 0.0008051499139032397
171.0, 0.0012258503169966359
172.0, 0.0006888718450145125
173.0, 0.0004668951581392201
174.0, 0.0007408681203870851
175.0, 0.0006302873479295823
176.0, 0.000629453410059944
177.0, 0.0005387765013914603
178.0, 0.00015732267654023737
179.0, 0.00031418000706738775
180.0, 0.0004769954649417176
181.0, 0.0005815137678922128
182.0, 0.0005243009800800997
183.0, 0.0007215560635666882
184.0, 0.0012445409886362503
185.0, 0.0021682745473492297
186.0, 0.00411849124492261
187.0, 0.005515736641800224
188.0, 0.006130261795881932
189.0, 0.005378647643048349
190.0, 0.0038567120311118488
191.0, 0.0021630116060051764
192.0, 0.0006183059192232578
193.0, 0.0007974434275171395
194.0, 0.0009671970821655493
195.0, 0.0009424114631280877
196.0, 0.0005581310554280447
197.0, 0.000700668199240675
198.0, 0.0004665752251569907
199.0, 0.00012146932896106328
200.0, 0.00042853596015040316
201.0, 0.00044574436500951283
202.0, 0.000327921815085215
203.0, 0.00013512593755022508
204.0, 0.00018330729984444114
205.0, 0.0003430211902173204
206.0, 0.0006911221417840296
207.0, 0.0013492350160411953
208.0, 0.0015563016654542641
209.0, 0.0012663479052861194
210.0, 0.0006951822921737737
211.0, 0.000604142891096517
212.0, 0.0010996486166737001
213.0, 0.0015395265877136916
214.0, 0.0016432836021242642
215.0, 0.00069355436946023
216.0, 0.0008261039630733663
217.0, 0.0011468464725868058
218.0, 0.000509786550891424
219.0, 0.0009112904639753805
220.0, 0.0010817162416952133
221.0, 0.0013141781691399898
222.0, 0.0036343837768164676
223.0, 0.005751869052731508
224.0, 0.006449064947644548
225.0, 0.0051379536284760115
226.0, 0.006579786444141292
227.0, 0.011301091927726875
228.0, 0.02033510161233341
229.0, 0.036149251584962606
230.0, 0.05151721807466151
231.0, 0.05840916254785733
232.0, 0.05439692056597468
233.0, 0.03197311471985852
234.0, 0.01753719656087141
235.0, 0.008755471348107698
236.0, 0.005011436150698234
237.0, 0.0027575866406911627
238.0, 0.0014470346410339647
239.0, 0.0007658556572400514
240.0, 0.00039016196606176583
241.0, 0.00018754501143092541
242.0, 0.0004122755475975429
243.0, 0.0008550262031652163
244.0, 0.0004687660256333699
245.0, 0.0005359189139273574
246.0, 0.0005749716923125635
247.0, 0.0004036502577115955
248.0, 0.0006723189637306698
249.0, 0.00047544367384749563
250.0, 0.0002728868324765867
251.0, 0.000633028511886069
252.0, 0.0005265395444106021
253.0, 0.0004602971616028072
254.0, 0.00040321929848063595
255.0, 7.878341874220863e-05
256.0, 0.0007279630271318627
257.0, 0.0012783390398233639
258.0, 0.0014018199480287838
259.0, 0.0016103316062964662
260.0, 0.0016784419930673947
261.0, 0.0015681489084795846
262.0, 0.001214793273858016
263.0, 0.0016622313566808536
264.0, 0.001931955377922603
265.0, 0.0021264143321986046
266.0, 0.00260869702269563
267.0, 0.0028320285892539116
268.0, 0.002866266871430116
269.0, 0.0027758960314993386
270.0, 0.0029437309069326456
271.0, 0.004307498574706824
272.0, 0.004920925003480771
273.0, 0.0035522238685537495
274.0, 0.004218751562260686
275.0, 0.003762953679291732
276.0, 0.0032508641565363577
277.0, 0.004355285714703337
278.0, 0.004752534193854419
279.0, 0.0047382845916352926
280.0, 0.004344032087493016
281.0, 0.0035088462962088464
282.0, 0.003924849254215933
283.0, 0.004018146409949519
284.0, 0.0033273956347474546
285.0, 0.0034021635935162662
286.0, 0.0037434540768566497
287.0, 0.004185508377160143
288.0, 0.004600723032719402
289.0, 0.004004064886673173
290.0, 0.004261456134328951
291.0, 0.00472190474031539
292.0, 0.003961712285100449
293.0, 0.004447386128752154
294.0, 0.005127635301738062
295.0, 0.005736268813955623
296.0, 0.005838324194800569
297.0, 0.005992228146305218
298.0, 0.006321912703395127
299.0, 0.006948124558559188
300.0, 0.00886711550792733
301.0, 0.009160382403981192
302.0, 0.010370373233297153
303.0, 0.015031241593681879
304.0, 0.019954139068553704
305.0, 0.028675911402202416
306.0, 0.04073266632622808
307.0, 0.055355825078528695
308.0, 0.05887712416961625
309.0, 0.05727247092916029
310.0, 0.05067379386347344
311.0, 0.034741114112129816
312.0, 0.024032706305278675
313.0, 0.017322568970911487
314.0, 0.014126124002425133
315.0, 0.011181869386554315
316.0, 0.011846376892339954
317.0, 0.013190186846300472
318.0, 0.01290764068351446
319.0, 0.01800932293951784
320.0, 0.0218060950915981
321.0, 0.023913470314422442
322.0, 0.02366036285574282
323.0, 0.02014194339580839
324.0, 0.01659053245885223
325.0, 0.013577026071008537
326.0, 0.01172616460408878
327.0, 0.011896929284211894
328.0, 0.013481227837914469
329.0, 0.016470427622344064
330.0, 0.021799017773171253
331.0, 0.029248611001845785
332.0, 0.037012733375762726
333.0, 0.0437290579829202
334.0, 0.036791826950167056
335.0, 0.031347600333791796
336.0, 0.026831086401274462
337.0, 0.022738733950084813
338.0, 0.020679861130722822
339.0, 0.020112884150901983
340.0, 0.02118129618129635
341.0, 0.02444413944562847
342.0, 0.028608328165024847
343.0, 0.03005336307862896
344.0, 0.028605199376464684
345.0, 0.02547030650336845
346.0, 0.020459623120190173
347.0, 0.0154557537911747
348.0, 0.011265152942009148
349.0, 0.009697879864266384
350.0, 0.0077821703612766255
351.0, 0.006516756829280729
352.0, 0.006418800291335374
353.0, 0.005538506487841293
354.0, 0.005469947667882281
355.0, 0.005652398074461632
356.0, 0.0055688780527369955
357.0, 0.005413800514977568
358.0, 0.005562682704214174
359.0, 0.005606452303792586
360.0, 0.0048298293692376325
361.0, 0.0044347884331529175
362.0, 0.0043161019257125
363.0, 0.004374257984740434
364.0, 0.004381625715642928
365.0, 0.003938228104849992
366.0, 0.0038754723714633705
367.0, 0.004297216992238837
368.0, 0.0048304559324312815
369.0, 0.004854349776853607
370.0, 0.004839818028253842
371.0, 0.004903859103323398
372.0, 0.004524634052091474
373.0, 0.004519945499335856
374.0, 0.004500897720227533
375.0, 0.00425188413742345
376.0, 0.004254288782836598
377.0, 0.004323932123292185
378.0, 0.004362298932606265
379.0, 0.00427408468032668
380.0, 0.004559095905250651
381.0, 0.004605501040844626
382.0, 0.00454134900331108
383.0, 0.00456475397466314
384.0, 0.004943813308788966
385.0, 0.005270621209195066
386.0, 0.005477701431823357
387.0, 0.005475524145625476
388.0, 0.005703151731133874
389.0, 0.004948591558352978
390.0, 0.0037242240913273887
391.0, 0.004381764523087477
392.0, 0.004518752492413118
393.0, 0.004871489532502772
394.0, 0.00542553347298372
395.0, 0.005120025086428634
396.0, 0.004046635192990136
397.0, 0.003717728518732399
398.0, 0.00438015168473173
399.0, 0.0030398923830674465
400.0, 0.0028093719459901887
401.0, 0.002732663930938453
402.0, 0.002367223947366417
403.0, 0.002793911868114666
404.0, 0.0032206930886451864
405.0, 0.0034343199730029455
406.0, 0.0032659852416997938
407.0, 0.002998805466236145
408.0, 0.003147806677524233
409.0, 0.003176588202685273
410.0, 0.0025115666822634716
411.0, 0.0038799874104254953
412.0, 0.00409096182355817
413.0, 0.0036870888841382013
414.0, 0.0035197664388039534
415.0, 0.0031024145630248606
416.0, 0.00337814899426259
417.0, 0.003972217497284763
418.0, 0.004076023342779351
419.0, 0.005014162198057782
420.0, 0.005740957484255685
421.0, 0.00627228633027536
422.0, 0.0069283657633311
423.0, 0.009183658190353087
424.0, 0.010856985135961573
425.0, 0.011885897430781304
426.0, 0.013208808619982644
427.0, 0.01349069444206981
428.0, 0.012334502271451551
429.0, 0.01045836786041399
430.0, 0.011279374324374935
431.0, 0.010662599038125322
432.0, 0.011668288117292395
433.0, 0.015047927766476885
434.0, 0.01995095263611425
435.0, 0.029033263773706505
436.0, 0.04217823901797552
437.0, 0.0580961939957286
438.0, 0.06724699796897407
439.0, 0.06471179969127097
440.0, 0.05452006807956969
441.0, 0.038999995078830604
442.0, 0.02571316947427612
443.0, 0.01828153104320332
444.0, 0.013266484814806896
445.0, 0.009101361493390518
446.0, 0.007976114727442309
447.0, 0.006874250131124941
448.0, 0.00544576955560347
449.0, 0.0035766932157088893
450.0, 0.00342390936191605
451.0, 0.0030913144996850997
452.0, 0.0028739183640939265
453.0, 0.0029752799520526263
454.0, 0.0030442620140840723
455.0, 0.0029325525825677763
456.0, 0.002868234825478974
457.0, 0.0030259781090021475
458.0, 0.0027585312619458026
459.0, 0.0028777405744140386
460.0, 0.0030989132689210608
461.0, 0.003165463535632493
462.0, 0.0029532699187493467
463.0, 0.0024701952894821714
464.0, 0.002179535635176596
465.0, 0.002546905195888641
466.0, 0.0024172280943521277
467.0, 0.0018902446380212395
468.0, 0.0017808490896855157
469.0, 0.002980881899633798
470.0, 0.002111056004626457
471.0, 0.002188013999757975
472.0, 0.0026308879928400248
473.0, 0.002731460106643235
474.0, 0.002407277215078221
475.0, 0.002418358481922917
476.0, 0.0024533523772447777
477.0, 0.002120234335071932
478.0, 0.0017867101914437573
479.0, 0.002265569170267811
480.0, 0.002820420084644179
481.0, 0.002519745253917199
482.0, 0.0015047038549638565
483.0, 0.0017061044835138238
484.0, 0.0023515407463199686
485.0, 0.0024173094997521306
486.0, 0.0024180477122779653
487.0, 0.0023101617174727737
488.0, 0.0020704358798483945
489.0, 0.0016684786253695792
490.0, 0.0009084756454697245
491.0, 0.0018936336794448936
492.0, 0.002966939880100508
493.0, 0.0020298166766546727
494.0, 0.0020056300843902725
495.0, 0.002951272062451784
496.0, 0.0036359704739091277
497.0, 0.0025984495655057274
498.0, 0.0020487206849258825
499.0, 0.002139673112924087
500.0, 0.0025490609163347257
501.0, 0.002912636581090755
502.0, 0.0018542870166805279
503.0, 0.0020126969264740533
504.0, 0.0023613297457926183
505.0, 0.0017856090902141138
506.0, 0.0016760956181986898
507.0, 0.0022606614791625818
508.0, 0.002714855621855765
509.0, 0.002243781022783636
510.0, 0.002367912275640082
511.0, 0.002584309247341447
512.0, 0.002669439779884458
513.0, 0.002428359873763918
514.0, 0.0021209313253822276
515.0, 0.002463720038095648
516.0, 0.0027525153634933874
517.0, 0.0024256763918261573
518.0, 0.0016167579560963088
519.0, 0.0018509137320621206
520.0, 0.0022207538508958423
521.0, 0.0020784093493459725
522.0, 0.0013338742992673749
523.0, 0.0017335364617715476
524.0, 0.0022743572180167005
525.0, 0.002330752067472713
526.0, 0.0017865952401867652
527.0, 0.002245737717365002
528.0, 0.0022289417827851474
529.0, 0.0012483416425988392
530.0, 0.0019484659123041065
531.0, 0.002141738269365121
532.0, 0.0020179955250401874
533.0, 0.0018495470421666582
534.0, 0.0029275129735882276
535.0, 0.0030319112619184158
536.0, 0.003202395125768896
537.0, 0.003926642465298703
538.0, 0.005756447230646954
539.0, 0.005749579384695803
540.0, 0.005975110109228078
541.0, 0.007067169103826942
542.0, 0.009130951576245263
543.0, 0.010704610718861083
544.0, 0.01418749367519815
545.0, 0.020033342737176968
546.0, 0.027946805707760147
547.0, 0.037178333602569336
548.0, 0.04309890386288402
549.0, 0.04526223902177917
550.0, 0.04444515054935478
551.0, 0.03696066891107827
552.0, 0.027825978943202927
553.0, 0.019851851348903923
554.0, 0.017143561806737217
555.0, 0.012836345371223199
556.0, 0.009870062674978933
557.0, 0.008095345061931693
558.0, 0.006996350969928082
559.0, 0.0057768185352070475
560.0, 0.005036944605220132
561.0, 0.004349273552203001
562.0, 0.003244495086569089
563.0, 0.003778861149848772
564.0, 0.004174293915315882
565.0, 0.004903882824376871
566.0, 0.006244132989336162
567.0, 0.005970342024043169
568.0, 0.005181740500838164
569.0, 0.004979313824330831
570.0, 0.005786704648422002
571.0, 0.005208308170085961
572.0, 0.00494008790184307
573.0, 0.00526491325529601
574.0, 0.0061652467604388335
575.0, 0.006801516426614208
576.0, 0.0077383302966044015
577.0, 0.009094421609245828
578.0, 0.010511469722126689
579.0, 0.010506101070199185
580.0, 0.012841840937009807
581.0, 0.014663148945212935
582.0, 0.016321684105223302
583.0, 0.020168422442748735
584.0, 0.021452034726315065
585.0, 0.023014715677810223
586.0, 0.02471455907265576
587.0, 0.025722773512015795
588.0, 0.021905637488502255
589.0, 0.020827989231293753
590.0, 0.020224287692347583
591.0, 0.016977807980476968
592.0, 0.01558504485636745
593.0, 0.015585753208942638
594.0, 0.015341928755942763
595.0, 0.013718980540564559
596.0, 0.013981226887077192
597.0, 0.01306686675532433
598.0, 0.0131770356024624
599.0, 0.015035456261433563
600.0, 0.015298474312060759
601.0, 0.01617994521793564
602.0, 0.017416497034197734
603.0, 0.019164983527086416
604.0, 0.02240898571112878
605.0, 0.02732781687050003
606.0, 0.03260891763113672
607.0, 0.03847297124850507
608.0, 0.046117801209594876
609.0, 0.0563948852099459
610.0, 0.06377704878195281
611.0, 0.06846716396113005
612.0, 0.07169928718850418
613.0, 0.07604664930135763
614.0, 0.0736906880667231
615.0, 0.06666248156095504
616.0, 0.0573225168941539
617.0, 0.04700118005494683
618.0, 0.03960696296673194
619.0, 0.03362885004113542
620.0, 0.02812719385689436
621.0, 0.022993508415497688
622.0, 0.01938883032454854
623.0, 0.016368788848012183
624.0, 0.01379821922232675
625.0, 0.012493755059140653
626.0, 0.01145594071235166
627.0, 0.01070363524287914
628.0, 0.010296165534777245
629.0, 0.01035530957780199
630.0, 0.00880773088724473
631.0, 0.00811756863333754
632.0, 0.007953316322365525
633.0, 0.0075983849520732515
634.0, 0.00850721120606781
635.0, 0.008244238089108628
636.0, 0.0074002262580802405
637.0, 0.006460422113180545
638.0, 0.005365268451185814
639.0, 0.0046326007836073185
640.0, 0.004351954226335197
641.0, 0.004388168845265605
642.0, 0.0039038478889454843
643.0, 0.0032203078440733368
644.0, 0.003418236673933485
645.0, 0.003933590792865511
646.0, 0.002734511311814332
647.0, 0.0026258393200084195
648.0, 0.0027817533613333045
649.0, 0.0025597921930647517
650.0, 0.0012246177357027603
651.0, 0.0029760641375618643
652.0, 0.0023186885713998534
653.0, 0.001044603237308864
654.0, 0.0007282162475629626
655.0, 0.002799588773112707
656.0, 0.0018185246188296724
657.0, 0.000921107069383447
658.0, 0.0009840345006160629
659.0, 0.00016860029716224498
660.0, 3.094851070052028e-05
661.0, 0.00046890904126149703
662.0, 0.0008877606322941229
663.0, 9.514676755544975e-05
664.0, 2.0723994375135893e-05
665.0, 0.0003192343546286718
666.0, 0.0006185724460630746
667.0, 0.0005442111025902514
668.0, 0.000358488620269138
669.0, 0.0010815973046469213
670.0, 0.0015585044416131578
671.0, 0.0012223084614611053
672.0, 0.0008165953899651997
673.0, 0.0007203453173620306
674.0, 0.0007997732212952101
675.0, 0.001008289983483363
676.0, 0.0013235979282640853
677.0, 0.001080673426439101
678.0, 0.001154085928684008
679.0, 0.0013348965232878247
680.0, 0.0012045727852476769
681.0, 0.00042704526612491017
682.0, 0.0008000727474368033
683.0, 0.0012397743486532967
684.0, 0.0010298227859704824
685.0, 0.0006966533190293199
686.0, 0.001346217341282713
687.0, 0.0016156426297635786
688.0, 0.0012418366105028042
689.0, 0.0008403906368174908
690.0, 0.00033340082979674084
691.0, 0.0005871349508788919
692.0, 0.001081233299678893
693.0, 0.0009008273747772471
694.0, 0.001644782979987272
695.0, 0.0008752105751578846
696.0, 0.00020961354697952113
697.0, 0.0007091162058736203
698.0, 0.0013012826125975725
699.0, 0.0006223587740895478
700.0, 0.000343343741235451
701.0, 0.0006158372795552638
702.0, 0.00024716669547060466
703.0, 0.0009623752858615949
704.0, 0.0006928410206864752
705.0, 0.000166479265611105
706.0, 0.0006464717949152866
707.0, 0.00024461194168767607
708.0, 0.00042084622157320954
709.0, 0.0013699001977771244
710.0, 0.002752303582768677
711.0, 0.0017633001325098282
712.0, 0.00177973901987814
713.0, 0.0014593271222294812
714.0, 0.0006938806201954521
715.0, 0.00010044647273905756
716.0, 0.00149547341837987
717.0, 0.0013879478346020661
718.0, 0.0008415034651208124
719.0, 0.0012394166638007784
720.0, 0.001539146411126985
721.0, 0.0017096645269528029
722.0, 0.0017747828592647665
723.0, 0.0018209747116639393
724.0, 0.0021551723489887913
725.0, 0.0022638172875514553
726.0, 0.0024588501645884785
727.0, 0.0026908512397666277
728.0, 0.0027847052411235852
729.0, 0.002777035969484666
730.0, 0.002964513814255104
731.0, 0.0030277541921136172
732.0, 0.002818620182352061
733.0, 0.0030503562447390335
734.0, 0.0035330549251599047
735.0, 0.003683187196533435
736.0, 0.0035216147467730216
737.0, 0.003547069298804354
738.0, 0.0035810702036202994
739.0, 0.0039354964283185925
740.0, 0.0039823547452601206
741.0, 0.0032545909129524505
742.0, 0.005003870009746895
743.0, 0.005173227327522801
744.0, 0.00467547090170237
745.0, 0.004145873018428839
746.0, 0.00437862303737723
747.0, 0.003905807506438171
748.0, 0.004626043236244802
749.0, 0.0054707723389308405
750.0, 0.004688349763714659
751.0, 0.0049906211739473155
752.0, 0.004966877137159476
753.0, 0.004941374427212283
754.0, 0.005142335375899812
755.0, 0.005755330204526163
756.0, 0.004593528815296918
757.0, 0.004469125900567109
758.0, 0.005455310292070773
759.0, 0.006690467958099952
760.0, 0.005328051351436333
761.0, 0.006262871399294453
762.0, 0.00720712983188163
763.0, 0.006810457884009566
764.0, 0.006837628866879785
765.0, 0.007297633464672429
766.0, 0.006973394777322309
767.0, 0.006423166388326332
768.0, 0.007279837786934282
769.0, 0.008607799980589357
770.0, 0.008599630290615116
771.0, 0.007929456206285023
772.0, 0.007413421634010958
773.0, 0.008652498853156405
774.0, 0.008380788517475887
775.0, 0.00845516423053611
776.0, 0.00888907862337654
777.0, 0.00867521117363878
778.0, 0.009662225668224967
779.0, 0.01008425133810103
780.0, 0.010665433157024357
781.0, 0.011728672161543444
782.0, 0.011030105532352622
783.0, 0.011413396515313512
784.0, 0.012960908024243304
785.0, 0.01448115039553536
786.0, 0.01354050450710881
787.0, 0.013738597410825771
788.0, 0.01593766643767161
789.0, 0.017603255583836325
790.0, 0.017244059508521623
791.0, 0.01817469363580335
792.0, 0.01806976845912887
793.0, 0.019286714036177655
794.0, 0.021259198426957924
795.0, 0.021774600854786996
796.0, 0.021678274468470572
797.0, 0.02328602875885768
798.0, 0.0241313660213783
799.0, 0.023423285654716505
800.0, 0.026575979420260507
801.0, 0.029315896858029617
802.0, 0.030509467940107907
803.0, 0.03177628452159286
804.0, 0.03606620307139849
805.0, 0.03587877879063204
806.0, 0.037976090153629266
807.0, 0.0421766141976359
808.0, 0.04743733090268078
809.0, 0.0500457071489283
810.0, 0.05785841651907897
811.0, 0.06328885131248502
812.0, 0.06841777146264501
813.0, 0.07772545579563296
814.0, 0.09384023054913111
815.0, 0.10196968071367454
816.0, 0.11568604499925823
817.0, 0.1363654611837076
818.0, 0.14847477563609152
819.0, 0.1744767081708151
820.0, 0.21463667502902686
821.0, 0.2614342451403744
822.0, 0.31121396623469805
823.0, 0.41171780607686015
824.0, 0.5247379710197747
825.0, 0.6590508338710932
826.0, 0.8164344397841728
827.0, 0.9936212739693436
828.0, 0.9898837478836029
829.0, 0.9719920778157454
830.0, 0.9040642639985608
831.0, 0.7635832098327602
832.0, 0.5908302503782007
833.0, 0.4907665274316202
834.0, 0.39610046157565065
835.0, 0.3124810743720576
836.0, 0.26740417641647196
837.0, 0.23745841383507232
838.0, 0.20723400758081684
839.0, 0.19180499579306654
840.0, 0.19029287322496116
841.0, 0.17648000166651587
842.0, 0.17229298034782362
843.0, 0.1675681383208772
844.0, 0.1580932193611947
845.0, 0.14294599563660146
846.0, 0.13973428286189057
847.0, 0.13233680866006187
848.0, 0.12865965875344093
849.0, 0.13213618113333442
850.0, 0.14443299353646435
851.0, 0.15052260460534334
852.0, 0.17512452422905356
853.0, 0.20541275741714202
854.0, 0.23718132974505818
855.0, 0.2863698823233222
856.0, 0.3758363031711171
857.0, 0.46445739903502675
858.0, 0.5692446008547305
859.0, 0.7044403497400336
860.0, 0.7666341286961526
861.0, 0.7510691159160182
862.0, 0.6993538465116912
863.0, 0.6155550252786268
864.0, 0.48302943429666145
865.0, 0.4004737064873949
866.0, 0.33915905097968485
867.0, 0.28815434604431167
868.0, 0.247203804822743
869.0, 0.2425540376541896
870.0, 0.21372204453326643
871.0, 0.18697319452247593
872.0, 0.1634716425007578
873.0, 0.1402609216474186
874.0, 0.11289775615276333
875.0, 0.09879308796908808
876.0, 0.08527246711622394
877.0, 0.07154296087958746
878.0, 0.06266679801675709
879.0, 0.05867692916356963
880.0, 0.05018621520242649
881.0, 0.04411248717680354
882.0, 0.04242100123517646
883.0, 0.03951586004282411
884.0, 0.03407795853762219
885.0, 0.032769315118948796
886.0, 0.031749221541333146
887.0, 0.027917618448104156
888.0, 0.026309635458279863
889.0, 0.025361677877107365
890.0, 0.022750413332947143
891.0, 0.020956133842399166
892.0, 0.023455777624468818
893.0, 0.020234161102185302
894.0, 0.017886332359508872
895.0, 0.017045210296681136
896.0, 0.016761226707023978
897.0, 0.014486019026903163
898.0, 0.014681762369382284
899.0, 0.014611489877839353
900.0, 0.013551203046617237
901.0, 0.011902025059255373
902.0, 0.012508150699935543
903.0, 0.010360419207724925
904.0, 0.009304145183568365
905.0, 0.009023311600676235
906.0, 0.008641907241123457
907.0, 0.007139616949077499
908.0, 0.007516270825703883
909.0, 0.00693743469404313
910.0, 0.00580504972047712
911.0, 0.005512377101333892
912.0, 0.006015282504001816
913.0, 0.005518683534960891
914.0, 0.005603228067844589
915.0, 0.006087114323318378
916.0, 0.005514004960070796
917.0, 0.005311866985076123
918.0, 0.005369335781588726
919.0, 0.005031014386019804
920.0, 0.004525265999786724
921.0, 0.005522958595300749
922.0, 0.006355588262635478
923.0, 0.006029229431365573
924.0, 0.005907693770665543
925.0, 0.006331615980491948
926.0, 0.003983911232248825
927.0, 0.005089709318826934
928.0, 0.004887985605529375
929.0, 0.0038729804142100185
930.0, 0.003463450726051325
931.0, 0.00516985877019246
932.0, 0.00491093224019186
933.0, 0.00496636629354032
934.0, 0.005497239040060408
935.0, 0.0059090814967397475
936.0, 0.004828530506180655
937.0, 0.006230472541024213
938.0, 0.005745221504469547
939.0, 0.004161812928284909
940.0, 0.005308742115150395
941.0, 0.006629262842883006
942.0, 0.006718428296027159
943.0, 0.00722417640606685
944.0, 0.008116802811866273
945.0, 0.007642392990134583
946.0, 0.009238523715431731
947.0, 0.009988389682752402
948.0, 0.010261633315635512
949.0, 0.010718509741217165
950.0, 0.012502426710597573
951.0, 0.011615768633807163
952.0, 0.013284297446204234
953.0, 0.016774784993065926
954.0, 0.02023459453098375
955.0, 0.019755433046287598
956.0, 0.02211435904319777
957.0, 0.02599864191081736
958.0, 0.029759633559089844
959.0, 0.03302919672030518
960.0, 0.040657979039454395
961.0, 0.04469592347248345
962.0, 0.05237436163776188
963.0, 0.06509605055535092
964.0, 0.08162001498409725
965.0, 0.0934367159019876
966.0, 0.1205397212299462
967.0, 0.14579250766893043
968.0, 0.1651991442800672
969.0, 0.17881044807639934
970.0, 0.18967537849592622
971.0, 0.16471434055384443
972.0, 0.13828937276823025
973.0, 0.11559286908078875
974.0, 0.09216831854854811
975.0, 0.07159510977509378
976.0, 0.0631372109291575
977.0, 0.05389423689223345
978.0, 0.043536493060381515
979.0, 0.037225566967664825
980.0, 0.03461937238322977
981.0, 0.028954527147996442
982.0, 0.024733671970031245
983.0, 0.0217270316185832
984.0, 0.01718084030025739
985.0, 0.013933833631440368
986.0, 0.01300019650399771
987.0, 0.011324655284838066
988.0, 0.0091747178494417
989.0, 0.00891001695368523
990.0, 0.007260441987227427
991.0, 0.00646381763398848
992.0, 0.006305965167529231
993.0, 0.005909986488301893
994.0, 0.0039462707647210105
995.0, 0.004216842573572619
996.0, 0.004814887165204243
997.0, 0.0040440123583125745
998.0, 0.0029233696302472835
999.0, 0.004620403485793142
1000.0, 0.004037638908800365
1001.0, 0.00343534063680188
1002.0, 0.0038074430945270023
1003.0, 0.00484010970200161
1004.0, 0.005121483927283693
1005.0, 0.006212879708251831
1006.0, 0.005918285795636096
1007.0, 0.004572267281654311
1008.0, 0.003114344982239467
1009.0, 0.0030061650742143177
1010.0, 0.0037106143571472646
1011.0, 0.0025150403576698313
1012.0, 0.0016120826974324028
1013.0, 0.0015017007354852774
1014.0, 0.0013101858342262132
1015.0, 0.001070771424874998
1016.0, 0.0011365851408868773
1017.0, 0.0009239988740912986
1018.0, 0.0007218962412108268
1019.0, 0.0014056206565857265
1020.0, 0.001036860908543547
1021.0, 0.0007350018088004633
1022.0, 0.0010229840077918093
1023.0, 0.0013118519367925133
1024.0, 0.00040406638484150785
1025.0, 0.0010466011854900646
1026.0, 0.001397348525715917
1027.0, 0.0010971041350913025
1028.0, 0.0006602017218012734
1029.0, 0.0009677512362870752
1030.0, 0.0002146033018081361
1031.0, 0.0001868147253085954
1032.0, 0.0005576405086704908
1033.0, 0.000792901944758678
1034.0, 0.0004134098768427957
1035.0, 0.0008314823194702208
1036.0, 0.0008367895446684926
1037.0, 0.0005472822420287678
1038.0, 0.0002900559425819758
1039.0, 0.00044939802882628966
1040.0, 0.0011537514387077374
1041.0, 0.0010415633877157936
1042.0, 0.0005088922167066167
1043.0, 0.00017197764924161302
1044.0, 0.00047455685423839275
1045.0, 0.000516590883276035
1046.0, 0.0001869421665001785
1047.0, 0.00044427350539956613
1048.0, 0.0006403050117382953
1049.0, 0.00031583152948141415
1050.0, 0.0011087119630185944
1051.0, 0.0007489338558187162
1052.0, 0.00027944955328139035
1053.0, 0.00032609882866837565
1054.0, 0.000998779777375493
1055.0, 0.0012389566343455791
1056.0, 0.00038420435739339523
1057.0, 0.0003047022704428088
1058.0, 0.0008263274606141457
1059.0, 0.0012380072094588938
1060.0, 0.00020118352734446504
1061.0, 0.0020798188193542726
1062.0, 0.001715763283671715
1063.0, 0.0011940158058675627
1064.0, 0.0014711063801507848
1065.0, 0.0017474884100907183
1066.0, 0.0010922164167563374
1067.0, 0.0011457647982756015
1068.0, 0.0007514428453572541
1069.0, 2.490110835879921e-05
1070.0, 5.968724283121054e-05
1071.0, 0.0006764404051721243
1072.0, 0.000618813127227356
1073.0, 0.00045420090246206735
1074.0, 0.0003021080066905821
1075.0, 0.00013768168644895005
1076.0, 0.0006313421071980645
1077.0, 0.0008816027695095108
1078.0, 0.0007444969624098913
1079.0, 0.0006433250102488233
1080.0, 0.0010082506342149094
1081.0, 0.001537894021626069
1082.0, 0.0011045809541943134
1083.0, 0.0020637123602564736
1084.0, 0.0023889944230239485
1085.0, 0.0011919559756660657
1086.0, 0.0021178723332539264
1087.0, 0.0019581745164403107
1088.0, 0.001783566952603255
1089.0, 0.0015963345560745447
1090.0, 0.0014549019622939862
1091.0, 0.0015894893488361144
1092.0, 0.001293310685996238
1093.0, 0.0011956636484998036
1094.0, 0.001036281290384048
1095.0, 0.0008817714061202674
1096.0, 0.0010125449284015392
1097.0, 0.0010751726119087885
1098.0, 0.0011378002954160475
1099.0, 0.001179398950485893
1100.0, 0.0012059562593149183
1101.0, 0.0012824755413658566
1102.0, 0.001751174206140767
1103.0, 0.0007403991505613524
1104.0, 0.00044466065480086857
1105.0, 0.0004333060487324522
1106.0, 0.00044160066329718107
1107.0, 0.002054578624278966
1108.0, 0.0016295509615175592
1109.0, 0.001282438951518007
1110.0, 0.0015680132284626035
1111.0, 0.001953565147840362
1112.0, 0.0007776974862259284
1113.0, 0.0023916587856246535
1114.0, 0.0018209956797634813
1115.0, 0.0012860954563720449
1116.0, 0.0009752676151443542
1117.0, 5.635912392324713e-06
1118.0, 6.762141247713187e-05
1119.0, 0.000128303811027755
1120.0, 0.00010734497914365764
1121.0, 0.0001108115073992821
1122.0, 0.00029171221508701196
1123.0, 0.0007874206231055099
1124.0, 0.0016821742995789303
1125.0, 0.0017398358304123716
1126.0, 0.0015695294804511366
1127.0, 0.0016140851277757226
1128.0, 0.0017232064851065876
1129.0, 0.0006570942841754362
1130.0, 0.0010637689730468667
1131.0, 0.0011068939071318788
1132.0, 0.0006220140272924764
1133.0, 0.0005418864936942714
1134.0, 0.0004982886039118802
1135.0, 0.0006021224637679387
1136.0, 0.0008464006764765582
1137.0, 0.0010346962481866072
1138.0, 0.001061096228299547
1139.0, 0.001285166589042079
1140.0, 0.0008020306222572142
1141.0, 0.0007872938804311777
1142.0, 0.0006046176404076581
1143.0, 0.0002500583912573936
1144.0, 0.0006795319662472537
1145.0, 0.00014695381376222271
1146.0, 0.0004102720694848562
1147.0, 0.0008289337752697601
1148.0, 0.0009623008049156254
1149.0, 0.0006952332653084402
1150.0, 0.001086760175964731
1151.0, 0.0006645639595510423
1152.0, 0.0006025299667163443
1153.0, 0.0006697986326368692
1154.0, 0.0006170894420656761
1155.0, 0.0007342258842303599
1156.0, 0.00018177216397637357
1157.0, 0.0003478487706800261
1158.0, 0.0005338658692992821
1159.0, 0.0005722599454774482
1160.0, 0.0007544193792453922
1161.0, 0.0009100689187564728
1162.0, 0.00045402303546663263
1163.0, 0.00039523553307992115
1164.0, 0.0007017751239809606
1165.0, 0.0012383103736452992
1166.0, 0.002495748682471755
1167.0, 0.0010720494665850178
1168.0, 0.0005557349835219391
1169.0, 0.0007658813914157034
1170.0, 0.0009400710988170538
1171.0, 0.0002702032922952943
1172.0, 0.0016743924988838555
1173.0, 0.0015881008974099728
1174.0, 0.0008120786745756174
1175.0, 0.0005156207910635957
1176.0, 0.0013308796143511078
1177.0, 0.0017165064742937096
1178.0, 0.0021685879359869434
1179.0, 0.0010220638969879318
1180.0, 0.00014756547681929734
1181.0, 0.0005326150436291267
1182.0, 0.0016157543283718974
1183.0, 0.0004557782453716646
1184.0, 0.0007474150290306668
1185.0, 0.0015924279639172932
1186.0, 0.0016669988035358527
1187.0, 0.0006239201114498253
1188.0, 0.0017378653747811327
1189.0, 0.0006310870770192499
1190.0, 0.00014416233261822225
1191.0, 0.0008678114344012544
1192.0, 0.001649179367930078
1193.0, 0.0002758667208636917
1194.0, 0.0013562174473942968
1195.0, 0.0015222003487525492
1196.0, 0.0012593705725140096
1197.0, 0.0012293651506540479
1198.0, 0.0015802052392803446
1199.0, 0.0009060977688054932
1200.0, 0.000510801549699356
1201.0, 0.0012032301404474436
1202.0, 0.002035516335625414
1203.0, 0.0027037453991197156
1204.0, 0.0033817190510125462
1205.0, 0.002377637985388756
1206.0, 0.0011235554224124623
1207.0, 0.0011433609314797002
1208.0, 0.0016598939774708152
1209.0, 0.001838531036958373
1210.0, 0.0019301300046640011
1211.0, 0.00245383127417678
1212.0, 0.0018550861893573483
1213.0, 0.0019611540851111127
1214.0, 0.0028382761879087053
1215.0, 0.0032726650560640632
1216.0, 0.0013891197372194754
1217.0, 0.0026766630144357158
1218.0, 0.0032487624327642616
1219.0, 0.0032534868209573523
1220.0, 0.0032282094556861586
1221.0, 0.0033613789482723976
1222.0, 0.002536344551237691
1223.0, 0.004121319361986672
1224.0, 0.004113466605924853
1225.0, 0.002552663233043356
1226.0, 0.0014186435140498598
1227.0, 0.003634130997887299
1228.0, 0.0028235230369424817
1229.0, 0.0028999645969102713
1230.0, 0.004099221109675993
1231.0, 0.005031320293804644
1232.0, 0.003866031204711288
1233.0, 0.002306027437443906
1234.0, 0.0038126173150297596
1235.0, 0.0036923737452090174
1236.0, 0.002994932785072643
1237.0, 0.0031288382997561857
1238.0, 0.0042887032574777766
1239.0, 0.002398157287713684
1240.0, 0.004129376929010952
1241.0, 0.004063340454501897
1242.0, 0.003502429247110171
1243.0, 0.004300745208326459
1244.0, 0.003179849927999628
1245.0, 0.002805392841561612
1246.0, 0.0030788062874202117
1247.0, 0.0031199549344094676
1248.0, 0.002779540319238002
1249.0, 0.0025527715881151266
1250.0, 0.0034860727564292185
1251.0, 0.0023063140619438583
1252.0, 0.0015410132583872631
1253.0, 0.0018519215022684426
1254.0, 0.002324268355281997
1255.0, 0.001189517236112081
1256.0, 0.002456053628833472
1257.0, 0.0019240717139159642
1258.0, 0.0015202182984604114
1259.0, 0.0012382385954382133
1260.0, 0.0009370554403447714
1261.0, 0.00106832460441214
1262.0, 0.0016337518375667771
1263.0, 0.002198682626924287
1264.0, 0.0023674717634563323
1265.0, 0.0019651186252530282
1266.0, 0.0014578301654646023
1267.0, 0.0026543155644419784
1268.0, 0.001536888677282263
1269.0, 0.0015293448762775384
1270.0, 0.0017586007906752734
1271.0, 0.0016789875995663534
1272.0, 0.0012432485117009708
1273.0, 0.0009996641267522963
1274.0, 0.0019142715481959404
1275.0, 0.002031208471044072
1276.0, 0.0021739717977690776
1277.0, 0.0018910792349463197
1278.0, 7.200416187663555e-05
1279.0, 1.414364829659711e-05
1280.0, 0.00010739091587313155
1281.0, 0.00048735537104289945
1282.0, 0.0006239773726649063
1283.0, 0.0004992756410200976
1284.0, 0.0006909892202033673
1285.0, 0.00031795865146573435
1286.0, 0.0004287993214293704
1287.0, 0.0006912501829278777
1288.0, 0.0005676600046534496
1289.0, 0.00023451274513045154
1290.0, 0.0008169602913632975
1291.0, 0.00046167963804178943
1292.0, 0.0007135021588700315
1293.0, 0.0006656042700426761
1294.0, 0.0005160029342038831
1295.0, 0.0006928280378837929
1296.0, 0.00131327958268046
1297.0, 0.0009163801790367242
1298.0, 0.0005394696022038157
1299.0, 0.0005858384967246456
1300.0, 0.0010918962807669806
1301.0, 0.0015926271792764555
1302.0, 0.0009639335272877037
1303.0, 0.00046498040330517277
1304.0, 0.00017946560624447933
1305.0, 0.0005300855733744623
1306.0, 0.0012232490722065622
1307.0, 0.0014926203200929964
1308.0, 0.00031575000665214515
1309.0, 0.0015420882001142197
1310.0, 0.0012152279109126254
1311.0, 0.0011929339064308462
1312.0, 0.001717593240581975
1313.0, 0.0019174902368430616
1314.0, 0.0005903409854006247
1315.0, 0.001392894761835765
1316.0, 0.001106488995298621
1317.0, 0.0013310704645464765
1318.0, 0.00199746093235792
1319.0, 0.002003674595293753
1320.0, 0.00037853994775341134
1321.0, 0.0011188539000555194
1322.0, 0.0018541064428527546
1323.0, 0.0013608828174548043
1324.0, 0.00061314597640579
1325.0, 0.000989982151418328
1326.0, 0.0013666950547542279
1327.0, 0.0017436404761319365
1328.0, 0.0020381128138526553
1329.0, 0.0021392911036621507
1330.0, 0.0021234201856874415
1331.0, 0.002072162762302502
1332.0, 0.0017737479341531758
1333.0, 0.00159025792683476
1334.0, 0.0013232364885899294
1335.0, 0.0009022766366026551
1336.0, 0.000949822744325351
1337.0, 0.0016777196578800187
1338.0, 0.0013105190518813202
1339.0, 0.001819980870721853
1340.0, 0.0008551162659656194
1341.0, 0.0008173578131848659
1342.0, 0.0009363092240256127
1343.0, 0.00018323371118005233
1344.0, 0.0008354895897153243
1345.0, 0.001693169412197436
1346.0, 0.0014504654222592154
1347.0, 0.001786473057391576
1348.0, 0.002059864015157676
1349.0, 0.0012958868209533116
1350.0, 0.00010060774505322501
1351.0, 0.0030425668351340175
1352.0, 0.0024145671277480637
1353.0, 0.002280182175074359
1354.0, 0.0021165579472502962
1355.0, 0.0011161772052961563
1356.0, 0.0008573870867430864
1357.0, 0.0005984538156667865
1358.0, 0.0008737216685196401
1359.0, 0.0013445919863416013
1360.0, 0.001528626038910375
1361.0, 0.0016175822199758665
1362.0, 0.002455442554103476
1363.0, 0.0014501502500179158
1364.0, 0.0018114946522123723
1365.0, 0.0018654001162017309
1366.0, 0.001064718227088446
1367.0, 0.0006127759202123841
1368.0, 0.002269164696837408
1369.0, 0.001001386895459657
1370.0, 0.0004205222622858495
1371.0, 0.0004255192791449795
1372.0, 0.0005272087895403971
1373.0, 0.0009559060988114906
1374.0, 0.0018985710878472823
1375.0, 0.0005285539326430049
1376.0, 0.0018515998391158937
1377.0, 0.0014328886073963639
1378.0, 0.0013789035592197494
1379.0, 0.0021948209881470517
1380.0, 0.0028731242939294254
1381.0, 0.0022003613460119123
1382.0, 0.0005390370330054338
1383.0, 0.00114619435691663
1384.0, 0.001007463163952928
1385.0, 0.0011118183765744792
1386.0, 0.002290836963401507
1387.0, 0.0017158451329979622
1388.0, 0.0007802856455719015
1389.0, 0.0014835445145790884
1390.0, 0.0019775828517107586
1391.0, 0.0017305380943926582
1392.0, 0.0011474995116393342
1393.0, 0.0011735118295562695
1394.0, 0.001918337704505084
1395.0, 0.0005847775037975608
1396.0, 0.00032386252952633116
1397.0, 0.00042434711458937927
1398.0, 0.00041312823675610216
1399.0, 0.0005632957149963943
1400.0, 0.0009687205329584825
1401.0, 0.0005886213566256764
1402.0, 0.0016683520601131498
1403.0, 0.001562441417100059
1404.0, 0.0012562771958978338
1405.0, 0.002185251155132497
1406.0, 0.0017929629705579135
1407.0, 0.0005798880015382923
1408.0, 0.0004085217040758258
1409.0, 0.0007798321572669223
1410.0, 0.001643832959102973
1411.0, 0.0021568906661335765
1412.0, 0.0009762841672425846
1413.0, 0.0029641209805813576
1414.0, 0.0009168934035766123
1415.0, 0.0008168083551775046
1416.0, 0.0014896672289859535
1417.0, 0.0013236415689963307
1418.0, 0.0003188245810977835
1419.0, 0.0016117979860043393
1420.0, 0.001873121547275205
1421.0, 0.002187929720120924
1422.0, 0.0026607201812312285
1423.0, 0.0027739408015542014
1424.0, 0.0020759221259345107
1425.0, 0.0009318782168546385
1426.0, 0.002774631317045288
1427.0, 0.0029651557577565534
1428.0, 0.002533712858067372
1429.0, 0.002968589810304
1430.0, 0.0034418274737103246
1431.0, 0.0020408761019447847
1432.0, 0.0037326442509157
1433.0, 0.002945152511341783
1434.0, 0.002745561345309986
1435.0, 0.003948925709266107
1436.0, 0.005196566014249741
1437.0, 0.004797461487456484
1438.0, 0.0030596816712635984
1439.0, 0.005054609516502375
1440.0, 0.004842704851610603
1441.0, 0.005010948058669698
1442.0, 0.005065963805748599
1443.0, 0.0042792899399933275
1444.0, 0.003486758912021404
1445.0, 0.0077436160574279565
1446.0, 0.006875277340193865
1447.0, 0.005554014946295283
1448.0, 0.005968956776644841
1449.0, 0.006314995234948936
1450.0, 0.004882467901107267
1451.0, 0.004718907589045784
1452.0, 0.006611730869905673
1453.0, 0.007207035690473718
1454.0, 0.007987528315667356
1455.0, 0.007767257890748807
1456.0, 0.006392979988555096
1457.0, 0.005503543782476629
1458.0, 0.006707562344224732
1459.0, 0.008377403148327094
1460.0, 0.006991706874716151
1461.0, 0.006980096312876652
1462.0, 0.007470472928233373
1463.0, 0.006700776273966947
1464.0, 0.0064033019176999925
1465.0, 0.006203494406521552
1466.0, 0.006173036473342796
1467.0, 0.00576641281247418
1468.0, 0.005991999587087564
1469.0, 0.005750439167181559
1470.0, 0.004090477686169338
1471.0, 0.006085335093425704
1472.0, 0.004102821301192137
1473.0, 0.004428611536964256
1474.0, 0.004796716570091782
1475.0, 0.004690685965302215
1476.0, 0.0045706494928583604
1477.0, 0.005035688123599905
1478.0, 0.005669119627461911
1479.0, 0.005204601389018144
1480.0, 0.004232518386353071
1481.0, 0.003456188081361343
1482.0, 0.004029896277557279
1483.0, 0.005287469952197512
1484.0, 0.0036606737003445737
1485.0, 0.0047094534825541925
1486.0, 0.0036842936102725343
1487.0, 0.003590579942259362
1488.0, 0.004398344208568813
1489.0, 0.004308210944789054
1490.0, 0.002697984190700459
1491.0, 0.004199869182458358
1492.0, 0.0019123164095299627
1493.0, 0.0028579795806111166
1494.0, 0.0027779465906332935
1495.0, 0.0019283254124618716
1496.0, 0.0015867392445254509
1497.0, 0.002165184153679536
1498.0, 0.0026456811926126632
1499.0, 0.0014361159995879536
1500.0, 0.0012296134340251457
1501.0, 0.001413129423301419
1502.0, 0.0010867916551050808
1503.0, 0.0006429534333906573
1504.0, 0.001523709976929868
1505.0, 0.0006335858279042368
1506.0, 0.0010674851638673005
1507.0, 0.0017064034615076565
1508.0, 0.0010437434317337746
1509.0, 0.00042855247278691336
1510.0, 0.001269682839233716
1511.0, 0.0022542201517227215
1512.0, 0.0010294727757231901
1513.0, 0.0021810781791420206
1514.0, 0.0022109500895346693
1515.0, 0.0018480114269683254
1516.0, 0.0018998490516658542
1517.0, 0.0021315028872740064
1518.0, 0.0012335849051165195
1519.0, 0.0010980237167653789
1520.0, 0.00126706273712954
1521.0, 0.000538967625426757
1522.0, 0.0005512184552457511
1523.0, 0.0012979327830163548
1524.0, 0.001415357627096645
1525.0, 0.00041318321865711614
1526.0, 0.00046191126417134595
1527.0, 0.00012029367281999985
1528, 0.0
1529, 0.0
1530, 0.0
1531, 0.0
1532, 0.0
1533, 0.0
1534, 0.0
1535, 0.0
1536, 0.0
1537, 0.0
1538, 0.0
1539, 0.0
1540, 0.0
1541, 0.0
1542, 0.0
1543, 0.0
1544, 0.0
1545, 0.0
1546, 0.0
1547, 0.0
1548, 0.0
1549, 0.0
1550, 0.0
1551, 0.0
1552, 0.0
1553, 0.0
1554, 0.0
1555, 0.0
1556, 0.0
1557, 0.0
1558, 0.0
1559, 0.0
1560, 0.0
1561, 0.0
1562, 0.0
1563, 0.0
1564, 0.0
1565, 0.0
1566, 0.0
1567, 0.0
1568, 0.0
1569, 0.0
1570, 0.0
1571, 0.0
1572, 0.0
1573, 0.0
1574, 0.0
1575, 0.0
1576, 0.0
1577, 0.0
1578, 0.0
1579, 0.0
1580, 0.0
1581, 0.0
1582, 0.0
1583, 0.0
1584, 0.0
1585, 0.0
1586, 0.0
1587, 0.0
1588, 0.0
1589, 0.0
1590, 0.0
1591, 0.0
1592, 0.0
1593, 0.0
1594, 0.0
1595, 0.0
1596, 0.0
1597, 0.0
1598, 0.0
1599, 0.0
