30, 0.0
31, 0.0
32, 0.0
33, 0.0
34, 0.0
35, 0.0
36, 0.0
37, 0.0
38, 0.0
39, 0.0
40, 0.0
41, 0.0
42, 0.0
43, 0.0
44, 0.0
45, 0.0
46, 0.0
47, 0.0
48, 0.0
49, 0.0
50, 0.0
51, 0.0
52, 0.0
53, 0.0
54, 0.0
55, 0.0
56, 0.0
57, 0.0
58, 0.0
59, 0.0
60, 0.0
61, 0.0
62, 0.0
63, 0.0
64, 0.0
65, 0.0
66, 0.0
67, 0.0
68, 0.0
69, 0.0
70, 0.0
71, 0.0
72, 0.0
73, 0.0
74, 0.0
75, 0.0
76, 0.0
77, 0.0
78, 0.0
79, 0.0
80, 0.0
81, 0.0
82, 0.0
83, 0.0
84, 0.0
85, 0.0
86, 0.0
87, 0.0
88, 0.0
89, 0.0
90, 0.0
91.0, 0.0004992842459679799
92.0, 0.0004000562458812821
93.0, 0.00018023138136613126
94.0, 0.0018026922371754907
95.0, 0.001767741026916052
96.0, 0.002033215445250096
97.0, 0.002512449947794433
98.0, 0.002159925752679975
99.0, 0.0026707927288196903
100.0, 0.003127332049766232
101.0, 0.003578315042305846
102.0, 0.0042120238845640414
103.0, 0.004005291236960892
104.0, 0.003848174463142172
105.0, 0.004298987346259104
106.0, 0.005318889132622787
107.0, 0.005837004609822276
108.0, 0.006229223302124789
109.0, 0.007120529917963873
110.0, 0.007625021631109394
111.0, 0.008625839336234373
112.0, 0.01011370928644358
113.0, 0.01111130228235147
114.0, 0.010656179841619144
115.0, 0.008798087113920784
116.0, 0.007549008400862072
117.0, 0.006945240348048965
118.0, 0.006393332704460207
119.0, 0.0054566413190953395
120.0, 0.005117026127756733
121.0, 0.004599319909088428
122.0, 0.003949393891143321
123.0, 0.003357874522901115
124.0, 0.002610558605639463
125.0, 0.0017555366426635062
126.0, 0.0005782377112976007
127.0, 0.0005035163813703962
128.0, 0.00040447718831606184
129.0, 0.00019720998947639427
130.0, 3.0323160364044825e-05
131.0, 0.0008787341670310419
132.0, 0.0012946593456643954
133.0, 0.0008414414969067154
134.0, 0.0007799662909021565
135.0, 0.0009490793093371152
136.0, 0.00045171071875633784
137.0, 0.00027706627189560685
138.0, 0.0018708693941747146
139.0, 0.00400382641335945
140.0, 0.006180506841124157
141.0, 0.008537289446982238
142.0, 0.010538462963907853
143.0, 0.012144897321325543
144.0, 0.012986753460614179
145.0, 0.011867296717275194
146.0, 0.012476704901960609
147.0, 0.013051525972209911
148.0, 0.014230375586579212
149.0, 0.018410885983234922
150.0, 0.021702536063718882
151.0, 0.02580731928597821
152.0, 0.030447835515723984
153.0, 0.03468227841605197
154.0, 0.03898404222639737
155.0, 0.04260431611300616
156.0, 0.04568883696797674
157.0, 0.04835395803008156
158.0, 0.04989337201050668
159.0, 0.05316512156510499
160.0, 0.05763028269247496
161.0, 0.06337233359592456
162.0, 0.07115211767065564
163.0, 0.08124027093571184
164.0, 0.0920152628399193
165.0, 0.1033248964842254
166.0, 0.11665012932208474
167.0, 0.12759894552059717
168.0, 0.13271815625261962
169.0, 0.12762914753739152
170.0, 0.11273399336558074
171.0, 0.09423940001054827
172.0, 0.0805945531234003
173.0, 0.07017185253219568
174.0, 0.06340512193137061
175.0, 0.0624807335068892
176.0, 0.06127849726488941
177.0, 0.06165893950709163
178.0, 0.0635552342687477
179.0, 0.06568479011154423
180.0, 0.0677745760002051
181.0, 0.06930167169416128
182.0, 0.06885045707025242
183.0, 0.06644811385653263
184.0, 0.06429545497036043
185.0, 0.062062857083062827
186.0, 0.06177717019399108
187.0, 0.0641888820329665
188.0, 0.06896071572103855
189.0, 0.07608478660171189
190.0, 0.0848743341057731
191.0, 0.09481735362593305
192.0, 0.10522405689378875
193.0, 0.11516071863114757
194.0, 0.12188876893096484
195.0, 0.12037031026427805
196.0, 0.1102585758465985
197.0, 0.0962814709397752
198.0, 0.08032005280193144
199.0, 0.06545889453263513
200.0, 0.05340197647844491
201.0, 0.044594324574149635
202.0, 0.0379090790062784
203.0, 0.0323844423436444
204.0, 0.02875491017549432
205.0, 0.026818600379235308
206.0, 0.024417706690700862
207.0, 0.02325085779832734
208.0, 0.022047063407340924
209.0, 0.020447284482995848
210.0, 0.019087369098852506
211.0, 0.01828130525194526
212.0, 0.017805743810609214
213.0, 0.017562462050772866
214.0, 0.017616371960124125
215.0, 0.018405556084178556
216.0, 0.019303679985111427
217.0, 0.021449270790034145
218.0, 0.02469040789272851
219.0, 0.02745554578007681
220.0, 0.030272721516799304
221.0, 0.03366348322307532
222.0, 0.036154741471089345
223.0, 0.036022308095657214
224.0, 0.032982914303727
225.0, 0.02755351322087308
226.0, 0.022346463140550242
227.0, 0.01828929655495525
228.0, 0.014729335548173721
229.0, 0.013137453494338576
230.0, 0.011107132281451866
231.0, 0.009288600757975714
232.0, 0.008881881535429193
233.0, 0.00861241825471533
234.0, 0.008232077153143778
235.0, 0.007906708631388606
236.0, 0.008246243296603244
237.0, 0.010110879360131088
238.0, 0.009927195573823372
239.0, 0.009465117539396032
240.0, 0.009008818300940274
241.0, 0.008126020548993473
242.0, 0.006149881859419647
243.0, 0.00457911967934047
244.0, 0.003368485323661274
245.0, 0.0021204982170762113
246.0, 0.0005865520094804697
247.0, 0.0003409697091017661
248.0, 0.000967609825715787
249.0, 0.0011587683622368578
250.0, 0.0009268949771439684
251.0, 0.0010810698422391535
252.0, 0.0015242125083636383
253.0, 0.001633055137377967
254.0, 0.001600147050805394
255.0, 0.0019949284177599564
256.0, 0.0009576775936109141
257.0, 0.0006955394611085306
258.0, 0.0004722024151568922
259.0, 0.0013605264129026133
260.0, 0.001270412574245012
261.0, 0.0026252878179700147
262.0, 0.004469035084866819
263.0, 0.006075302031608222
264.0, 0.007591624602622601
265.0, 0.01010046666833641
266.0, 0.012872052861063955
267.0, 0.016183938034229853
268.0, 0.020264531190171003
269.0, 0.024558772369481
270.0, 0.02641938236028
271.0, 0.029225388665529657
272.0, 0.03292314624388154
273.0, 0.03511557681362427
274.0, 0.034983349808285776
275.0, 0.03350116503541384
276.0, 0.03143341774592582
277.0, 0.028911524312318863
278.0, 0.02577766632827563
279.0, 0.02355544667354517
280.0, 0.021970209405736983
281.0, 0.0204596974659984
282.0, 0.018780094420956222
283.0, 0.01728379307560796
284.0, 0.016202836246169985
285.0, 0.014861900574013598
286.0, 0.013710034206028647
287.0, 0.013527495941145603
288.0, 0.013241064366807505
289.0, 0.013513270935409955
290.0, 0.014326583932435986
291.0, 0.015337753338022782
292.0, 0.01633687091025218
293.0, 0.018161103411014713
294.0, 0.019850550080761573
295.0, 0.021212689544769483
296.0, 0.022859505110196267
297.0, 0.02602454305068241
298.0, 0.02966128298894066
299.0, 0.03163654864173679
300.0, 0.03263354601358429
301.0, 0.03427441460090797
302.0, 0.03419590672361268
303.0, 0.03285112104809662
304.0, 0.03128988163989946
305.0, 0.029426878871681682
306.0, 0.02640406678613013
307.0, 0.02410275280790771
308.0, 0.022324313910577428
309.0, 0.02061611032900717
310.0, 0.019016760526939864
311.0, 0.018206948875336745
312.0, 0.01775262189010256
313.0, 0.01773512569153657
314.0, 0.018085639538483758
315.0, 0.018430034037979083
316.0, 0.018505126482753636
317.0, 0.020085925415216574
318.0, 0.021659869837009585
319.0, 0.02282333086465171
320.0, 0.024397324899927453
321.0, 0.026916854090186865
322.0, 0.030059698945248237
323.0, 0.033367519327580565
324.0, 0.03631713278509624
325.0, 0.038680469727023235
326.0, 0.04160080144656815
327.0, 0.04551270202064142
328.0, 0.04979894956656495
329.0, 0.053955847846254464
330.0, 0.058825541848045705
331.0, 0.06380031742639432
332.0, 0.06943770054209099
333.0, 0.07491490832699263
334.0, 0.07874226600489392
335.0, 0.07892947931727273
336.0, 0.07624430453750991
337.0, 0.06986192633953618
338.0, 0.06147710928760996
339.0, 0.05481420030493145
340.0, 0.04693591471175884
341.0, 0.0411219200836835
342.0, 0.036570328096787535
343.0, 0.03223003646510381
344.0, 0.028829032371046445
345.0, 0.025868721114182015
346.0, 0.023473684350822685
347.0, 0.02180380006488224
348.0, 0.02028905591263531
349.0, 0.017501699586378892
350.0, 0.016483623049009483
351.0, 0.015427918571860976
352.0, 0.014252518667602751
353.0, 0.013215660193219965
354.0, 0.010979697300921498
355.0, 0.009886027912486467
356.0, 0.008567272853375201
357.0, 0.007240987145506239
358.0, 0.006657058247257508
359.0, 0.00533471003261325
360.0, 0.004056764134828413
361.0, 0.0026359973901304997
362.0, 0.001429947980447648
363.0, 0.001011125793587137
364.0, 0.0008663641978290342
365.0, 0.000762895692742939
366.0, 0.0002596591704509037
367.0, 0.00018450047067997914
368.0, 0.00035088784891438494
369.0, 0.0004248975320648433
370.0, 0.0007811972398963776
371.0, 0.0006954264144228072
372.0, 0.000381654091394493
373.0, 0.00027636914719093294
374.0, 0.0005815707472192778
375.0, 0.00010531213674407658
376.0, 0.00039946725143840984
377.0, 0.00029141188105922
378.0, 0.0002691158658260394
379.0, 0.0004789964675205471
380.0, 0.0002479912875990951
381.0, 0.0002887686161468028
382.0, 0.00018891263044174138
383.0, 0.0004576287587032222
384.0, 0.00014957089178393288
385.0, 9.499958361993164e-05
386.0, 0.00025875542693359823
387.0, 7.244407799883036e-05
388.0, 0.0001719167538884525
389.0, 0.0006421239824834259
390.0, 0.0007487107093372422
391.0, 0.0005501449072891434
392.0, 0.00048161830526303887
393.0, 0.0006423205802733225
394.0, 0.0001831626295323789
395.0, 0.00030143956250292843
396.0, 0.0002932345061146701
397.0, 0.0010793501112305072
398.0, 0.0012517383402844424
399.0, 0.0008137020024973534
400.0, 0.0007066705031386485
401.0, 0.001168434135002327
402.0, 0.0018377864676974152
403.0, 0.0016715956769661141
404.0, 0.001943419893450426
405.0, 0.002403111654254095
406.0, 0.0026777034476296474
407.0, 0.0027536909918290573
408.0, 0.0030824093498933573
409.0, 0.0029112248444660063
410.0, 0.0034510867423188296
411.0, 0.004573655167904627
412.0, 0.005338324012775347
413.0, 0.0052264312284318794
414.0, 0.0060084484958692974
415.0, 0.006925906919451293
416.0, 0.008064695570439208
417.0, 0.009614524684592738
418.0, 0.010790024439371512
419.0, 0.012458026719243622
420.0, 0.014666749245698153
421.0, 0.017027992488040967
422.0, 0.019301993766079974
423.0, 0.021909238705750456
424.0, 0.026417254391502082
425.0, 0.03052090084331179
426.0, 0.03381138391506242
427.0, 0.035834477418136806
428.0, 0.034955229690295846
429.0, 0.03217120864000701
430.0, 0.0283968085726429
431.0, 0.024625200582914144
432.0, 0.021436314342865668
433.0, 0.01935075287879899
434.0, 0.018720783702877074
435.0, 0.018838726716252824
436.0, 0.019415214916895355
437.0, 0.02017321163094248
438.0, 0.021172318217158145
439.0, 0.02399848283662373
440.0, 0.025363045197213163
441.0, 0.027651559852127545
442.0, 0.03184827442483249
443.0, 0.03600458698694058
444.0, 0.041139335340087596
445.0, 0.04849343228477447
446.0, 0.05691189407961337
447.0, 0.0651287089895438
448.0, 0.07195577784213543
449.0, 0.0754717728380902
450.0, 0.07483071509454271
451.0, 0.07112870073434215
452.0, 0.06473696399166187
453.0, 0.055671254762115
454.0, 0.045299701216263095
455.0, 0.03629352793933598
456.0, 0.028589945035519003
457.0, 0.02238798926094812
458.0, 0.01797331737151881
459.0, 0.014789465059682231
460.0, 0.011747645756246303
461.0, 0.00982039332812968
462.0, 0.008002252934159251
463.0, 0.00577222679738327
464.0, 0.004750402472807055
465.0, 0.004913523325711529
466.0, 0.003353651742141084
467.0, 0.0024501833872847844
468.0, 0.003003293664728835
469.0, 0.0023133148588477966
470.0, 0.0016908800607706048
471.0, 0.000961528125579171
472.0, 0.0008620527404869357
473.0, 0.0006205042266561002
474.0, 0.0010623784084686201
475.0, 0.0011306354569825914
476.0, 0.0007647673396517944
477.0, 0.001093450323633284
478.0, 0.0016727084489240427
479.0, 0.001809422431936634
480.0, 0.0021659416695418324
481.0, 0.0022265730301928256
482.0, 0.001107282285476727
483.0, 0.0004960210557435819
484.0, 0.0011985585154753403
485.0, 0.0010672069813825768
486.0, 0.001382826749503313
487.0, 0.001530624079892583
488.0, 0.001641143957788951
489.0, 0.0015377859648634832
490.0, 0.0007752811469131548
491.0, 0.001066172622576912
492.0, 0.0006262198175380874
493.0, 0.0004436562594340692
494.0, 0.00048606113857145865
495.0, 0.00038134365714284743
496.0, 0.0017995450855838124
497.0, 0.0029853471363208437
498.0, 0.004513367875767146
499.0, 0.0061214168800755595
500.0, 0.007979499625060378
501.0, 0.011689913588943968
502.0, 0.016366608786573054
503.0, 0.02149062153202091
504.0, 0.02758913546926814
505.0, 0.03515628229455004
506.0, 0.04379745200402575
507.0, 0.05122213259884318
508.0, 0.05884486238964011
509.0, 0.06831886756603174
510.0, 0.07996510356448368
511.0, 0.09412239854340403
512.0, 0.11282078075557485
513.0, 0.13573786385109246
514.0, 0.16543247538498515
515.0, 0.20534952247106192
516.0, 0.25529261988062757
517.0, 0.31115781805599796
518.0, 0.37737117298202116
519.0, 0.4442726373719994
520.0, 0.4853221931170913
521.0, 0.4722394224656137
522.0, 0.3880179997638481
523.0, 0.2792182888613322
524.0, 0.18727006716027078
525.0, 0.12450169932968927
526.0, 0.0882269572610666
527.0, 0.06855460886122058
528.0, 0.05905665115727788
529.0, 0.05491609106856376
530.0, 0.055364148130387404
531.0, 0.05971451746023449
532.0, 0.06742294100569828
533.0, 0.07813281208926487
534.0, 0.09085640293262785
535.0, 0.10045049417004517
536.0, 0.10209916133069738
537.0, 0.09426431689005897
538.0, 0.0777903020744076
539.0, 0.060114083190746494
540.0, 0.046228460878565296
541.0, 0.03612809581381077
542.0, 0.02926663396447774
543.0, 0.025118999248210132
544.0, 0.022754870115293355
545.0, 0.021534706080844356
546.0, 0.020873036399618305
547.0, 0.021180312335809515
548.0, 0.021810634228379092
549.0, 0.022361128890889672
550.0, 0.02501266135134841
551.0, 0.026987073273060484
552.0, 0.030024959568556327
553.0, 0.032292738805582165
554.0, 0.032957827211254134
555.0, 0.03363293836910261
556.0, 0.03396346340311827
557.0, 0.03410304495642789
558.0, 0.03262216021993693
559.0, 0.030483785344980602
560.0, 0.029011541179080228
561.0, 0.027826055087064688
562.0, 0.02776964610047982
563.0, 0.02851647504327157
564.0, 0.03040551808774419
565.0, 0.03362855387642772
566.0, 0.03826734988195952
567.0, 0.0448125903247267
568.0, 0.052616175692609526
569.0, 0.06179124389688914
570.0, 0.0738328304986284
571.0, 0.0889548005689259
572.0, 0.10620603303807165
573.0, 0.1284804086188061
574.0, 0.1544064283015033
575.0, 0.18299523355054514
576.0, 0.2146152840937422
577.0, 0.2501095596746218
578.0, 0.28985937844978193
579.0, 0.32801684000441667
580.0, 0.367148320606028
581.0, 0.40942473939432383
582.0, 0.45661533238688345
583.0, 0.5111869585808309
584.0, 0.5752571338952539
585.0, 0.6456322730668208
586.0, 0.7168995062720094
587.0, 0.7751548578110405
588.0, 0.8083013883257525
589.0, 0.8120417270095348
590.0, 0.7818481151365064
591.0, 0.7202369053007895
592.0, 0.6432411282038962
593.0, 0.5644044532203095
594.0, 0.495393078620483
595.0, 0.44509806967657906
596.0, 0.4147814125097237
597.0, 0.39055708868237854
598.0, 0.36109447014383755
599.0, 0.3230153514764787
600.0, 0.2794755880197776
601.0, 0.23522203726461227
602.0, 0.19636364900680597
603.0, 0.1659795515894884
604.0, 0.1434084763786673
605.0, 0.12636602429507457
606.0, 0.11315992281580699
607.0, 0.1038735328392465
608.0, 0.09589062474148684
609.0, 0.08846082335747935
610.0, 0.08101335644364197
611.0, 0.07378919663175966
612.0, 0.06770145751406832
613.0, 0.0625389509985465
614.0, 0.05672983880041696
615.0, 0.051026177367350795
616.0, 0.04552244710757432
617.0, 0.04055541268309028
618.0, 0.037594942887852985
619.0, 0.03573742152717298
620.0, 0.0337142478732912
621.0, 0.03099359519341456
622.0, 0.028034917267830913
623.0, 0.025535999319848558
624.0, 0.023568674414724308
625.0, 0.02088971235889136
626.0, 0.01819744241921619
627.0, 0.01664015870241543
628.0, 0.014830197668604926
629.0, 0.01196049993045029
630.0, 0.01109947105646265
631.0, 0.009979492645075291
632.0, 0.009456065033189045
633.0, 0.00816256559654037
634.0, 0.006458559746453409
635.0, 0.005308060709417059
636.0, 0.003463573831494405
637.0, 0.0030172322116785153
638.0, 0.001701042261949734
639.0, 0.0008131553535085212
640.0, 0.0003658678126119964
641.0, 0.0005657420684313609
642.0, 0.0008393585790910978
643.0, 0.0021675604501417427
644.0, 0.0023465476617944682
645.0, 0.002509626798964686
646.0, 0.0027281418022229715
647.0, 0.002304853404169696
648.0, 0.002654229409770568
649.0, 0.0016967284776443511
650.0, 0.0018111150135017484
651.0, 0.002034728574291281
652.0, 0.0015772507981510807
653.0, 0.0012541560742251683
654.0, 0.001611731879405613
655.0, 0.0008962620476170571
656.0, 0.0008653764764961146
657.0, 0.0013294403648544764
658.0, 0.001173554812258727
659.0, 0.00010042023107776428
660.0, 0.00035806133882649167
661.0, 0.00021239974926922723
662.0, 0.00018943415156622224
663.0, 0.0008709971682593137
664.0, 0.0015698109637732522
665.0, 0.002400322950919822
666.0, 0.002866513768746386
667.0, 0.004118466160029893
668.0, 0.005316574789599283
669.0, 0.005793505861151565
670.0, 0.006731577109084429
671.0, 0.008962306858039218
672.0, 0.010655086716572235
673.0, 0.012146117902010358
674.0, 0.013502880174867669
675.0, 0.01501638226380513
676.0, 0.016855036900459183
677.0, 0.01869101724572938
678.0, 0.019911415908065826
679.0, 0.02120767369413526
680.0, 0.021735642238839625
681.0, 0.022181287227352957
682.0, 0.021796642161266575
683.0, 0.021031323091123395
684.0, 0.021685807970122394
685.0, 0.020721918737538803
686.0, 0.0202165269234158
687.0, 0.020233895225194143
688.0, 0.02011559348671064
689.0, 0.019678779038194358
690.0, 0.01937571023821283
691.0, 0.01940746913299453
692.0, 0.01957070942075515
693.0, 0.02005787080968909
694.0, 0.020016083223637904
695.0, 0.019737331023869695
696.0, 0.02014285384888381
697.0, 0.021265767646630955
698.0, 0.018911461414294787
699.0, 0.01961507440133714
700.0, 0.01967384391508398
701.0, 0.018607607262502518
702.0, 0.018344048884294997
703.0, 0.017504452399696682
704.0, 0.017318793140601856
705.0, 0.016428397425086966
706.0, 0.01588596276208401
707.0, 0.01545951743718357
708.0, 0.01453586983688993
709.0, 0.01361554825200023
710.0, 0.013098617458916304
711.0, 0.012860643766651641
712.0, 0.011700882723999322
713.0, 0.010453457933057114
714.0, 0.009695205641285464
715.0, 0.009092950016207491
716.0, 0.00816878429363818
717.0, 0.007390354014406437
718.0, 0.005906851541385624
719.0, 0.005003377077940577
720.0, 0.004725244979346607
721.0, 0.004288758941732069
722.0, 0.0038823443894420375
723.0, 0.0033053502402217334
724.0, 0.0035595866029608306
725.0, 0.0038757260757954384
726.0, 0.0038761359293729954
727.0, 0.0035749813960739975
728.0, 0.003185777823066085
729.0, 0.0030722581132415308
730.0, 0.0037754216521688278
731.0, 0.003435223570368695
732.0, 0.0033034117030779366
733.0, 0.003803059767507605
734.0, 0.004230983117020749
735.0, 0.004730251665994977
736.0, 0.00587267639390853
737.0, 0.005554171435895363
738.0, 0.0057940449838148845
739.0, 0.005712461773333811
740.0, 0.004894905485497927
741.0, 0.00474567159203741
742.0, 0.004900654288171662
743.0, 0.005154701415978593
744.0, 0.004855263715787577
745.0, 0.004799115655046718
746.0, 0.004756543508539624
747.0, 0.004311839906515213
748.0, 0.0044450602074195865
749.0, 0.005664940729155684
750.0, 0.006661371357825443
751.0, 0.007739474428682258
752.0, 0.008636535867160771
753.0, 0.009476886772881294
754.0, 0.011157442163251744
755.0, 0.014148211694756923
756.0, 0.017119815712753957
757.0, 0.02002783001413701
758.0, 0.022949875568016156
759.0, 0.025499346228611525
760.0, 0.027384891989632693
761.0, 0.02890384752643263
762.0, 0.03046745152722659
763.0, 0.031249466102971638
764.0, 0.030352455800764726
765.0, 0.029539587718647637
766.0, 0.02836956793190095
767.0, 0.02604386006062979
768.0, 0.024795762482334126
769.0, 0.02234099379811956
770.0, 0.01943833637447767
771.0, 0.017359496631602807
772.0, 0.016244536751290117
773.0, 0.014944303171350641
774.0, 0.013010461270733744
775.0, 0.011818165314860983
776.0, 0.009952116110125489
777.0, 0.0091314268824078
778.0, 0.008644765784256004
779.0, 0.008005756796850736
780.0, 0.007391865916155315
781.0, 0.006904880015811446
782.0, 0.006345702337978309
783.0, 0.0060571582133864595
784.0, 0.005687621055752233
785.0, 0.006194793849443778
786.0, 0.006457564150213578
787.0, 0.005627543963775232
788.0, 0.005111837307043515
789.0, 0.004602596051813869
790.0, 0.004367489279432474
791.0, 0.004492354532507816
792.0, 0.004064394678868179
793.0, 0.0036579449031434058
794.0, 0.003846592339849557
795.0, 0.0034734134631378513
796.0, 0.0031784122246950068
797.0, 0.002293060083159771
798.0, 0.002008915799929659
799.0, 0.0017758256607370304
800.0, 0.001563191562726382
801.0, 0.001670083655360241
802.0, 0.0015678217594059837
803.0, 0.002645820572927385
804.0, 0.0020727784590824005
805.0, 0.001441698801291095
806.0, 0.0014315827874761895
807.0, 0.0015005656288332842
808.0, 0.0012583054175057213
809.0, 0.0013038969634783563
810.0, 0.0016058744310975203
811.0, 0.0005830271598589769
812.0, 0.00026361766276582693
813.0, 0.00013104827656927633
814.0, 0.0002721798586119652
815.0, 0.00014035136240060037
816.0, 0.00029887278776084554
817.0, 0.0002070049185300792
818.0, 0.00023471833257569252
819.0, 0.00015951343021362846
820.0, 8.055950435682658e-05
821.0, 7.801315964448222e-05
822.0, 0.00022079131564134918
823.0, 0.00010074451478572827
824.0, 3.887473532661343e-05
825.0, 0.00025576285609390815
826.0, 0.00016726558684849264
827.0, 8.44655997505231e-05
828.0, 0.00024430903608404765
829.0, 0.00028225932486409475
830.0, 3.6512185302635234e-05
831.0, 0.00014669806168685003
832.0, 0.00016031022621548129
833.0, 0.00032635637193102605
834.0, 0.0006391457496225023
835.0, 0.0004852842265669037
836.0, 0.0003893366495971829
837.0, 0.0007514363956888491
838.0, 0.00031024069769512063
839.0, 0.00039879312776060547
840.0, 0.0004794298270234198
841.0, 0.00010676146779920348
842.0, 9.555609021412518e-05
843.0, 0.00038160754188026164
844.0, 0.0008756856273148217
845.0, 0.00076812450263715
846.0, 0.0003678123323608547
847.0, 0.0010550707678130614
848.0, 0.0008626798868232036
849.0, 0.0006540398990858596
850.0, 0.0004194556557554849
851.0, 0.0003443597743562251
852.0, 0.0004401060535507178
853.0, 0.0005382892588732925
854.0, 0.0009286767915008984
855.0, 0.00043226963997422064
856.0, 9.22286134692882e-05
857.0, 0.0002857403572398582
858.0, 0.0006386800172091617
859.0, 0.0009850864919708903
860.0, 0.0017531047645105654
861.0, 0.001379315540649941
862.0, 0.0019163040308089064
863.0, 0.0027087547619817276
864.0, 0.0030150903257855502
865.0, 0.0027140311992986214
866.0, 0.002371252536527853
867.0, 0.0032895346076581423
868.0, 0.004358557703050715
869.0, 0.004937333930517392
870.0, 0.005653861766129147
871.0, 0.005730016197998902
872.0, 0.005430533501451384
873.0, 0.005960687278211688
874.0, 0.007144734620195439
875.0, 0.006852792580122672
876.0, 0.006723193381197376
877.0, 0.007885916069343066
878.0, 0.008210491152672576
879.0, 0.008300119621245322
880.0, 0.009559315172050947
881.0, 0.011018014622927438
882.0, 0.011649070995272215
883.0, 0.012925264675001276
884.0, 0.014385835239606196
885.0, 0.01653772159988853
886.0, 0.01892390015026435
887.0, 0.021419670759914532
888.0, 0.024749100700082245
889.0, 0.02921852909656873
890.0, 0.0340042255005286
891.0, 0.037166674869740304
892.0, 0.042349250197284256
893.0, 0.047210924133650994
894.0, 0.05292808447492219
895.0, 0.058352791026698596
896.0, 0.06155508899323766
897.0, 0.06658806011719413
898.0, 0.07048057081003486
899.0, 0.07211884334160108
900.0, 0.07440839658424055
901.0, 0.07576748725854687
902.0, 0.076572358264016
903.0, 0.07668062037071535
904.0, 0.0746114039207842
905.0, 0.07323799032110034
906.0, 0.07098700702794408
907.0, 0.06926768996710965
908.0, 0.06654889246120177
909.0, 0.06395234571799988
910.0, 0.06216083190938516
911.0, 0.06079225091553868
912.0, 0.059651983218280295
913.0, 0.05835973561336715
914.0, 0.05804386105689874
915.0, 0.05886294241125828
916.0, 0.05894409789309035
917.0, 0.058149925738085105
918.0, 0.05677014668868048
919.0, 0.05461442320962301
920.0, 0.05161915479966451
921.0, 0.048190345416655136
922.0, 0.04343483071420287
923.0, 0.03784771167493297
924.0, 0.03230109779107471
925.0, 0.02776038910709604
926.0, 0.024029930975127206
927.0, 0.02032214353834658
928.0, 0.016467371765717033
929.0, 0.013095488462234768
930.0, 0.011401150414481592
931.0, 0.008238742202877021
932.0, 0.006449850496269485
933.0, 0.004961223164503096
934.0, 0.0032958504594013697
935.0, 0.002440289595003801
936.0, 0.0015052865938594612
937.0, 0.0007056325406955852
938.0, 0.0001454786330816863
939.0, 0.00047454488969120133
940.0, 0.0009827237196909351
941.0, 0.001173822470455683
942.0, 0.0014945894101350112
943.0, 0.002062204477972599
944.0, 0.0023780118480247374
945.0, 0.0028880512962566078
946.0, 0.0018824835766099823
947.0, 0.0013741796009005393
948.0, 0.0010855311225990252
949.0, 0.00039607571080144653
950.0, 0.0005439679365132423
951.0, 0.0004655747908066497
952.0, 0.002539595732235173
953.0, 0.00463939984524621
954.0, 0.005298267901007124
955.0, 0.007291112708818481
956.0, 0.008654379455602894
957.0, 0.009876845540736975
958.0, 0.011885654588600426
959.0, 0.014591153115783559
960.0, 0.017336687743033624
961.0, 0.020023204336052796
962.0, 0.02392258594300375
963.0, 0.02826814498979513
964.0, 0.033735665266315565
965.0, 0.03972278545630522
966.0, 0.04704418934527349
967.0, 0.05638520110525316
968.0, 0.06843231943343321
969.0, 0.08347730820150379
970.0, 0.09788390679768237
971.0, 0.11795695762637333
972.0, 0.14092025083587406
973.0, 0.16842494957158596
974.0, 0.20052924703478137
975.0, 0.23701538844849737
976.0, 0.27518924498867925
977.0, 0.31263325392822555
978.0, 0.3524368512921258
979.0, 0.38965585143879494
980.0, 0.419486663027437
981.0, 0.44198599495779073
982.0, 0.45357142745813145
983.0, 0.4549734141872769
984.0, 0.4475000271509032
985.0, 0.43338855680928323
986.0, 0.4156428673915875
987.0, 0.3931472289126951
988.0, 0.3701027008619104
989.0, 0.34938541577902416
990.0, 0.3334074088973172
991.0, 0.3206558801468535
992.0, 0.31117300755408295
993.0, 0.3067342187479187
994.0, 0.3074514944416819
995.0, 0.3122122824789657
996.0, 0.323275848828329
997.0, 0.3376429668943643
998.0, 0.360100456114677
999.0, 0.386834390654902
1000.0, 0.4196044381702473
1001.0, 0.4611323843954331
1002.0, 0.5113814061230646
1003.0, 0.5707534421651884
1004.0, 0.6414079268028872
1005.0, 0.7234230099236126
1006.0, 0.8113912048027215
1007.0, 0.8981929347820014
1008.0, 0.9693128957365142
1009.0, 0.9997171442828428
1010.0, 0.9786406215798072
1011.0, 0.9055605106049276
1012.0, 0.7908449669081844
1013.0, 0.6643691129949583
1014.0, 0.5451325185382168
1015.0, 0.44376456173532824
1016.0, 0.36631882419634376
1017.0, 0.30606124441026916
1018.0, 0.25848939193240106
1019.0, 0.22227674957850088
1020.0, 0.19584038146742105
1021.0, 0.17614436221656932
1022.0, 0.15938720103068976
1023.0, 0.14573772498010054
1024.0, 0.13322213346393127
1025.0, 0.12477246519668152
1026.0, 0.1171655325957245
1027.0, 0.11026873232983787
1028.0, 0.10262572234613272
1029.0, 0.09473685229847335
1030.0, 0.08826327121243532
1031.0, 0.07942269831009872
1032.0, 0.07250968914659865
1033.0, 0.06633651240635657
1034.0, 0.06053799366048596
1035.0, 0.055207509277007155
1036.0, 0.04972073016247743
1037.0, 0.04434953705959848
1038.0, 0.03914742967301265
1039.0, 0.033143645595883287
1040.0, 0.026832134695890117
1041.0, 0.023536005159693986
1042.0, 0.02014899174117673
1043.0, 0.016296306824238403
1044.0, 0.013915332009802063
1045.0, 0.011995933543188697
1046.0, 0.010126811760738336
1047.0, 0.008005370094072472
1048.0, 0.0056745687133339575
1049.0, 0.0048699476884262625
1050.0, 0.005905034519739835
1051.0, 0.0049991872267228345
1052.0, 0.003399617470125018
1053.0, 0.002813218706824668
1054.0, 0.0024207035056644753
1055.0, 0.0025768283126500497
1056.0, 0.0022492164032952826
1057.0, 0.0013346329804153581
1058.0, 0.0011276992029059633
1059.0, 0.0005842147355863979
1060.0, 0.00030752831636562917
1061.0, 6.66942841637937e-05
1062.0, 0.0005393029374903623
1063.0, 0.0011407642819978323
1064.0, 0.0013233939112710013
1065.0, 0.000882081290825606
1066.0, 0.0009436053028129833
1067.0, 0.002206239419088946
1068.0, 0.003277910349973228
1069.0, 0.0030373225304210793
1070.0, 0.0023729704887128847
1071.0, 0.0006986488678704678
1072.0, 0.0011242097458123688
1073.0, 0.00019080289000141329
1074.0, 0.00030091858063467734
1075.0, 0.00021852030473644874
1076.0, 0.0019683357906196885
1077.0, 0.0030630286265181947
1078.0, 0.004904775706596163
1079.0, 0.00703642192704341
1080.0, 0.008506679196616362
1081.0, 0.01170471667638363
1082.0, 0.014688225850012566
1083.0, 0.01847737763757708
1084.0, 0.02412619691578077
1085.0, 0.030364221904305287
1086.0, 0.03577118280145503
1087.0, 0.039387378382541985
1088.0, 0.04015278807097575
1089.0, 0.037597198383254954
1090.0, 0.030945605293529663
1091.0, 0.026997264109746084
1092.0, 0.02284373909247215
1093.0, 0.019726011997427396
1094.0, 0.017561326571436615
1095.0, 0.01584230462105405
1096.0, 0.014122391664207456
1097.0, 0.01273741590346281
1098.0, 0.012360990934515401
1099.0, 0.011769369687973099
1100.0, 0.012384721407956593
1101.0, 0.012051466768992297
1102.0, 0.012552929192708078
1103.0, 0.01250015248960173
1104.0, 0.011594184811241057
1105.0, 0.011612074045141038
1106.0, 0.012533290180205025
1107.0, 0.013005869165144908
1108.0, 0.013081669710708992
1109.0, 0.013007631863074276
1110.0, 0.01365038633819483
1111.0, 0.014468108910448784
1112.0, 0.015552243338080713
1113.0, 0.016558224770302894
1114.0, 0.01856067847077297
1115.0, 0.02035969346512892
1116.0, 0.02271567128743951
1117.0, 0.027060254985693966
1118.0, 0.03264584129341121
1119.0, 0.038304628556557356
1120.0, 0.04549982891445374
1121.0, 0.05417595179235829
1122.0, 0.0634989904310632
1123.0, 0.07402933194902571
1124.0, 0.08871489323102781
1125.0, 0.10615506299258848
1126.0, 0.12696924369823911
1127.0, 0.1561873271453334
1128.0, 0.1944359701222805
1129.0, 0.23642044331336295
1130.0, 0.2784666790971837
1131.0, 0.30120355355004097
1132.0, 0.28836000447644133
1133.0, 0.24839034544469607
1134.0, 0.19591552452270478
1135.0, 0.15142430576168772
1136.0, 0.12160473132817422
1137.0, 0.10477859428282407
1138.0, 0.09792033345830257
1139.0, 0.09867187696893323
1140.0, 0.10563564558210602
1141.0, 0.11945127736025683
1142.0, 0.1386385485738361
1143.0, 0.1625673569960246
1144.0, 0.18278141716550086
1145.0, 0.18892546172905852
1146.0, 0.17373336370757023
1147.0, 0.1427846896961452
1148.0, 0.10910525346937827
1149.0, 0.08032846909866191
1150.0, 0.05895661047355356
1151.0, 0.04444975626569951
1152.0, 0.0331342309590795
1153.0, 0.02621717714694944
1154.0, 0.02199948809255365
1155.0, 0.01796649809252977
1156.0, 0.015064626367402972
1157.0, 0.012573891426797944
1158.0, 0.0110441468369342
1159.0, 0.009619699343902364
1160.0, 0.008008455538405823
1161.0, 0.0066237771494400965
1162.0, 0.005509072707345306
1163.0, 0.0051701056179224774
1164.0, 0.005543229518092038
1165.0, 0.005053854703139352
1166.0, 0.003338040989794274
1167.0, 0.0030351391238391404
1168.0, 0.0033948307459371104
1169.0, 0.003859908537682469
1170.0, 0.0032160080231192333
1171.0, 0.0020183010371645225
1172.0, 0.0019689987441442926
1173.0, 0.002543539367241984
1174.0, 0.002309814981559543
1175.0, 0.0026037618090140966
1176.0, 0.002445867836859269
1177.0, 0.0019844002808146574
1178.0, 0.0008286197526987263
1179.0, 0.0011958688927835705
1180.0, 0.0009421610534873463
1181.0, 0.0007806690483297602
1182.0, 0.0006546970037416426
1183.0, 0.0006277985127476888
1184.0, 0.0010385479362771423
1185.0, 0.001150546394745588
1186.0, 0.0003932572495650375
1187.0, 0.0013738722471786416
1188.0, 0.00016727652392771139
1189.0, 0.00022340530605433976
1190.0, 0.0012793074855885587
1191.0, 0.0006611890976630956
1192.0, 0.0005065151573538114
1193.0, 0.00035301179620352756
1194.0, 0.0005540079550703017
1195.0, 0.0010058018833127098
1196.0, 0.000711054275519796
1197.0, 0.0009041413713037945
1198.0, 0.0005137339527171938
1199.0, 0.0004287479415804675
1200.0, 0.0006081408418467941
1201.0, 0.0002686281154299081
1202.0, 0.0006984240024008242
1203.0, 0.0004558873550802353
1204.0, 0.0010860530127210434
1205.0, 0.001019669629219182
1206.0, 0.000995357238595361
1207.0, 0.0007763642343215438
1208.0, 0.0009383284647514222
1209.0, 0.0012973646194925886
1210.0, 0.0009314283745903434
1211.0, 0.001093292134374452
1212.0, 0.0016062212452967602
1213.0, 0.0013355415139175786
1214.0, 0.0014518204902902458
1215.0, 0.0017705178032864216
1216.0, 0.000889765413466187
1217.0, 0.0001805489321275161
1218.0, 0.00012068777330750152
1219.0, 0.0002973777732353945
1220.0, 0.0005618236917373943
1221.0, 0.0009261163831731182
1222.0, 0.0012701829181047015
1223.0, 0.0011979135113244972
1224.0, 4.263915128105117e-05
1225.0, 0.0003522955773858249
1226.0, 0.0013509183037388026
1227.0, 0.0014009671790880694
1228.0, 0.001442125695803079
1229.0, 0.0018691897390422886
1230.0, 0.002021161282795681
1231.0, 0.001894229971458659
1232.0, 0.002993112721449972
1233.0, 0.0025733969412409805
1234.0, 0.002041009923613325
1235.0, 0.003150222276530636
1236.0, 0.002326350714076865
1237.0, 0.0013127837671218947
1238.0, 0.0031886328150165146
1239.0, 0.0014771070086702792
1240.0, 0.0024140755113682827
1241.0, 0.0027834110358597635
1242.0, 0.002045184618954189
1243.0, 0.0013442167966041354
1244.0, 0.00099635432243968
1245.0, 0.0018245546910952
1246.0, 0.0020340987223173546
1247.0, 0.0018338278324669243
1248.0, 0.0023393604411437586
1249.0, 0.0017417348793479673
1250.0, 0.0010801614352330716
1251.0, 0.0021045297813642194
1252.0, 0.002581209405061461
1253.0, 0.0023486266292522726
1254.0, 0.00217579302423255
1255.0, 0.0012101836785875547
1256.0, 0.0006109066835607014
1257.0, 0.00046004561655822116
1258.0, 0.00145170140333429
1259.0, 0.001458649174031131
1260.0, 0.0013452578959660356
1261.0, 0.0011975939704790288
1262.0, 0.0011830958624885015
1263.0, 0.0013372276367938712
1264.0, 0.0003656476744447341
1265.0, 0.0011246612097009113
1266.0, 0.001126255872719867
1267.0, 0.0005527394019237934
1268.0, 0.0006266337925057402
1269.0, 0.0009354405050931351
1270.0, 0.0021024160542519187
1271.0, 0.001933140944791726
1272.0, 0.0018141516552266743
1273.0, 0.0007181989905406845
1274.0, 0.0002137914074178681
1275.0, 0.000561892114493618
1276.0, 0.0001376617059617543
1277.0, 0.00026690745218406025
1278.0, 0.0011629681962808795
1279.0, 0.0001672344037111867
1280.0, 0.0011012335289049269
1281.0, 0.00041615102901968696
1282.0, 0.0002717568839421688
1283.0, 0.0010035447493812026
1284.0, 0.0008440415918998448
1285.0, 0.0006686632869781785
1286.0, 0.0003004921365238905
1287.0, 0.00036955637594850393
1288.0, 0.001129781621571589
1289.0, 0.0009463107338401572
1290.0, 0.0007898671953645307
1291.0, 0.0013527822808037321
1292.0, 0.0014286530163196243
1293.0, 0.0007187222049796382
1294.0, 0.0007781226709349795
1295.0, 0.00047926815971946387
1296.0, 0.0006756748129709713
1297.0, 0.00021698477252759377
1298.0, 0.0009226393446465008
1299.0, 0.002332601045864878
1300.0, 0.000986079061435688
1301.0, 0.0008029277349146723
1302.0, 0.0006197339107462929
1303.0, 1.1248339394491269e-05
1304, 0.0
1305, 0.0
1306, 0.0
1307, 0.0
1308, 0.0
1309, 0.0
1310, 0.0
1311, 0.0
1312, 0.0
1313, 0.0
1314, 0.0
1315, 0.0
1316, 0.0
1317, 0.0
1318, 0.0
1319, 0.0
1320, 0.0
1321, 0.0
1322, 0.0
1323, 0.0
1324, 0.0
1325, 0.0
1326, 0.0
1327, 0.0
1328, 0.0
1329, 0.0
1330, 0.0
1331, 0.0
1332, 0.0
1333, 0.0
1334, 0.0
1335, 0.0
1336, 0.0
1337, 0.0
1338, 0.0
1339, 0.0
1340, 0.0
1341, 0.0
1342, 0.0
1343, 0.0
1344, 0.0
1345, 0.0
1346, 0.0
1347, 0.0
1348, 0.0
1349, 0.0
1350, 0.0
1351, 0.0
1352, 0.0
1353, 0.0
1354, 0.0
1355, 0.0
1356, 0.0
1357, 0.0
1358, 0.0
1359, 0.0
1360, 0.0
1361, 0.0
1362, 0.0
1363, 0.0
1364, 0.0
1365, 0.0
1366, 0.0
1367, 0.0
1368, 0.0
1369, 0.0
1370, 0.0
1371, 0.0
1372, 0.0
1373, 0.0
1374, 0.0
1375, 0.0
1376, 0.0
1377, 0.0
1378, 0.0
1379, 0.0
1380, 0.0
1381, 0.0
1382, 0.0
1383, 0.0
1384, 0.0
1385, 0.0
1386, 0.0
1387, 0.0
1388, 0.0
1389, 0.0
1390, 0.0
1391, 0.0
1392, 0.0
1393, 0.0
1394, 0.0
1395, 0.0
1396, 0.0
1397, 0.0
1398, 0.0
1399, 0.0
1400, 0.0
1401, 0.0
1402, 0.0
1403, 0.0
1404, 0.0
1405, 0.0
1406, 0.0
1407, 0.0
1408, 0.0
1409, 0.0
1410, 0.0
1411, 0.0
1412, 0.0
1413, 0.0
1414, 0.0
1415, 0.0
1416, 0.0
1417, 0.0
1418, 0.0
1419, 0.0
1420, 0.0
1421, 0.0
1422, 0.0
1423, 0.0
1424, 0.0
1425, 0.0
1426, 0.0
1427, 0.0
1428, 0.0
1429, 0.0
1430, 0.0
1431, 0.0
1432, 0.0
1433, 0.0
1434, 0.0
1435, 0.0
1436, 0.0
1437, 0.0
1438, 0.0
1439, 0.0
1440, 0.0
1441, 0.0
1442, 0.0
1443, 0.0
1444, 0.0
1445, 0.0
1446, 0.0
1447, 0.0
1448, 0.0
1449, 0.0
1450, 0.0
1451, 0.0
1452, 0.0
1453, 0.0
1454, 0.0
1455, 0.0
1456, 0.0
1457, 0.0
1458, 0.0
1459, 0.0
1460, 0.0
1461, 0.0
1462, 0.0
1463, 0.0
1464, 0.0
1465, 0.0
1466, 0.0
1467, 0.0
1468, 0.0
1469, 0.0
1470, 0.0
1471, 0.0
1472, 0.0
1473, 0.0
1474, 0.0
1475, 0.0
1476, 0.0
1477, 0.0
1478, 0.0
1479, 0.0
1480, 0.0
1481, 0.0
1482, 0.0
1483, 0.0
1484, 0.0
1485, 0.0
1486, 0.0
1487, 0.0
1488, 0.0
1489, 0.0
1490, 0.0
1491, 0.0
1492, 0.0
1493, 0.0
1494, 0.0
1495, 0.0
1496, 0.0
1497, 0.0
1498, 0.0
1499, 0.0
1500, 0.0
1501, 0.0
1502, 0.0
1503, 0.0
1504, 0.0
1505, 0.0
1506, 0.0
1507, 0.0
1508, 0.0
1509, 0.0
1510, 0.0
1511, 0.0
1512, 0.0
1513, 0.0
1514, 0.0
1515, 0.0
1516, 0.0
1517, 0.0
1518, 0.0
1519, 0.0
1520, 0.0
1521, 0.0
1522, 0.0
1523, 0.0
1524, 0.0
1525, 0.0
1526, 0.0
1527, 0.0
1528, 0.0
1529, 0.0
1530, 0.0
1531, 0.0
1532, 0.0
1533, 0.0
1534, 0.0
1535, 0.0
1536, 0.0
1537, 0.0
1538, 0.0
1539, 0.0
1540, 0.0
1541, 0.0
1542, 0.0
1543, 0.0
1544, 0.0
1545, 0.0
1546, 0.0
1547, 0.0
1548, 0.0
1549, 0.0
1550, 0.0
1551, 0.0
1552, 0.0
1553, 0.0
1554, 0.0
1555, 0.0
1556, 0.0
1557, 0.0
1558, 0.0
1559, 0.0
1560, 0.0
1561, 0.0
1562, 0.0
1563, 0.0
1564, 0.0
1565, 0.0
1566, 0.0
1567, 0.0
1568, 0.0
1569, 0.0
1570, 0.0
1571, 0.0
1572, 0.0
1573, 0.0
1574, 0.0
1575, 0.0
1576, 0.0
1577, 0.0
1578, 0.0
1579, 0.0
1580, 0.0
1581, 0.0
1582, 0.0
1583, 0.0
1584, 0.0
1585, 0.0
1586, 0.0
1587, 0.0
1588, 0.0
1589, 0.0
1590, 0.0
1591, 0.0
1592, 0.0
1593, 0.0
1594, 0.0
1595, 0.0
1596, 0.0
1597, 0.0
1598, 0.0
1599, 0.0
