30, 0.0
31, 0.0
32, 0.0
33, 0.0
34, 0.0
35, 0.0
36, 0.0
37, 0.0
38, 0.0
39, 0.0
40, 0.0
41, 0.0
42, 0.0
43, 0.0
44, 0.0
45, 0.0
46, 0.0
47, 0.0
48, 0.0
49, 0.0
50, 0.0
51, 0.0
52, 0.0
53, 0.0
54, 0.0
55, 0.0
56, 0.0
57, 0.0
58, 0.0
59, 0.0
60, 0.0
61, 0.0
62, 0.0
63, 0.0
64, 0.0
65, 0.0
66, 0.0
67, 0.0
68, 0.0
69, 0.0
70, 0.0
71, 0.0
72, 0.0
73, 0.0
74, 0.0
75, 0.0
76, 0.0
77, 0.0
78, 0.0
79, 0.0
80, 0.0
81, 0.0
82, 0.0
83, 0.0
84, 0.0
85, 0.0
86, 0.0
87, 0.0
88, 0.0
89, 0.0
90, 0.0
91, 0.0
92, 0.0
93, 0.0
94, 0.0
95, 0.0
96, 0.0
97, 0.0
98, 0.0
99, 0.0
100, 0.0
101, 0.0
102, 0.0
103, 0.0
104, 0.0
105, 0.0
106, 0.0
107, 0.0
108, 0.0
109, 0.0
110, 0.0
111, 0.0
112, 0.0
113, 0.0
114, 0.0
115.0, 0.0017328241558732943
116.0, 0.035709768388681715
117.0, 0.03232108745370872
118.0, 0.024356988034300354
119.0, 0.055634851109728205
120.0, 0.05070855692722615
121.0, 0.05641428380897169
122.0, 0.07469047495962473
123.0, 0.06286423536039645
124.0, 0.0728084441381429
125.0, 0.088344607280101
126.0, 0.09738327999610279
127.0, 0.10050663590989344
128.0, 0.11833270496466225
129.0, 0.1426889585135745
130.0, 0.1359393901771611
131.0, 0.16032048536982144
132.0, 0.18317892961715637
133.0, 0.18891851962901351
134.0, 0.19962197776621124
135.0, 0.20547821097011856
136.0, 0.20696685090421785
137.0, 0.20406875681539816
138.0, 0.2160615559481415
139.0, 0.22998279297886878
140.0, 0.24321581043778548
141.0, 0.26425912295698134
142.0, 0.28183904994984554
143.0, 0.29441014112483554
144.0, 0.29880351982514086
145.0, 0.32941830969344177
146.0, 0.3493919579333937
147.0, 0.3584563969419406
148.0, 0.37664917587124563
149.0, 0.38424109669145495
150.0, 0.40248028900135513
151.0, 0.4453903462310139
152.0, 0.4283820859436135
153.0, 0.432697123044539
154.0, 0.4437312335620166
155.0, 0.42332552064331536
156.0, 0.4146839144054686
157.0, 0.41322989451500836
158.0, 0.41534966801807327
159.0, 0.38107857854296034
160.0, 0.3707775311174019
161.0, 0.36628704019404046
162.0, 0.34847695853429317
163.0, 0.32627014057404186
164.0, 0.30825594600209794
165.0, 0.2936282228454547
166.0, 0.2748937170059842
167.0, 0.2512171994791325
168.0, 0.22532674907101394
169.0, 0.19832527527125884
170.0, 0.17625616237380756
171.0, 0.16212263604311142
172.0, 0.1506323363608112
173.0, 0.13207167815422952
174.0, 0.13886253179176036
175.0, 0.13904012721151482
176.0, 0.12641572768085194
177.0, 0.10483929688682546
178.0, 0.08170355164116393
179.0, 0.07026892940248708
180.0, 0.083180226900209
181.0, 0.07455883671510866
182.0, 0.05898488905518503
183.0, 0.04599851066008859
184.0, 0.061446914269491934
185.0, 0.05423769841883234
186.0, 0.04505557165663944
187.0, 0.039005309383310253
188.0, 0.01966108874206688
189.0, 0.01935516352297972
190.0, 0.020298135023338458
191.0, 0.0035156304198954522
192.0, 0.02037299478421529
193.0, 0.03308696682181896
194.0, 0.0366868802660876
195.0, 0.023725185613925653
196.0, 0.019894304990745352
197.0, 0.019936556044824607
198.0, 0.02230511420462488
199.0, 0.03141303596427334
200.0, 0.03466686220250602
201.0, 0.0349286270228955
202.0, 0.03525039881436862
203.0, 0.04246655483492992
204.0, 0.040058707329601415
205.0, 0.0292638246704424
206.0, 0.022722844940249228
207.0, 0.019725222420302845
208.0, 0.020059498445471058
209.0, 0.023587645045599605
210.0, 0.018339423924211718
211.0, 0.019148132393693916
212.0, 0.021018836733007838
213.0, 0.017288541516574284
214.0, 0.017844556520683442
215.0, 0.02199452607458728
216.0, 0.027122684474323467
217.0, 0.022236244108048
218.0, 0.012735916949338243
219.0, 0.012523677119487252
220.0, 0.026657485660555234
221.0, 0.0071843467029577834
222.0, 0.0054120692836960235
223.0, 0.011014167549752717
224.0, 0.012160138878010332
225.0, 0.01641981341874102
226.0, 0.015894878783357942
227.0, 0.010764819273037136
228.0, 0.004264943551705056
229.0, 0.012659875444324141
230.0, 0.01812766005036778
231.0, 0.014588819608298586
232.0, 0.01457209089648499
233.0, 0.010686957916089384
234.0, 0.008599953852472347
235.0, 0.014642948759033665
236.0, 0.013299506467500596
237.0, 0.011766271013207721
238.0, 0.010935153282204893
239.0, 0.012031235938989769
240.0, 0.007418519113388952
241.0, 0.00515359243240398
242.0, 0.006873125255322649
243.0, 0.005558776599566087
244.0, 0.01103159590494707
245.0, 0.016759879694300275
246.0, 0.017811643778621114
247.0, 0.010744366816480045
248.0, 0.007789784833396589
249.0, 0.006798011370050712
250.0, 0.0030810929954334662
251.0, 0.0014219376823679359
252.0, 0.007198578301368375
253.0, 0.017730424472390607
254.0, 0.012366819667479878
255.0, 0.004943925932026413
256.0, 0.005634737550392435
257.0, 0.019282345308261246
258.0, 0.016704678965382403
259.0, 0.014040612770083264
260.0, 0.012186154421173184
261.0, 0.01240263695507413
262.0, 0.0064223873332391445
263.0, 0.0027712825638907083
264.0, 0.0015880326336636206
265.0, 0.0013513069585288245
266.0, 0.011718917590867545
267.0, 0.017454731149714676
268.0, 0.014501880298970087
269.0, 0.005910598408039562
270.0, 0.015555386360009799
271.0, 0.021026703117712525
272.0, 0.006989219090511317
273.0, 0.009597068392626616
274.0, 0.013023417387904202
275.0, 0.015309553548232947
276.0, 0.01323648071576019
277.0, 0.008428655118834977
278.0, 0.01364063368191105
279.0, 0.023496076270974293
280.0, 0.01286975574302857
281.0, 0.005019059780839683
282.0, 0.007862662794051916
283.0, 0.0219352433881558
284.0, 0.02083803876865811
285.0, 0.028750652586767823
286.0, 0.03015893721496666
287.0, 0.013208219763059893
288.0, 0.01635957542241234
289.0, 0.01743617263242739
290.0, 0.016620894066727704
291.0, 0.014274874835075975
292.0, 0.028627403341654152
293.0, 0.024366931692166627
294.0, 0.007209512872729772
295.0, 0.010309837031250869
296.0, 0.007811386862733891
297.0, 0.005347668407850131
298.0, 0.005216516759544852
299.0, 0.012659245573980075
300.0, 0.019521519760765264
301.0, 0.019174808726519093
302.0, 0.00742744329851559
303.0, 0.025632801365295395
304.0, 0.03056866888615263
305.0, 0.025633215134314456
306.0, 0.013902977156780955
307.0, 0.031150425684029592
308.0, 0.0498478761505567
309.0, 0.06548489236547665
310.0, 0.07168665192939014
311.0, 0.07072914177808716
312.0, 0.062030998913712825
313.0, 0.053109419679258286
314.0, 0.08563221485069752
315.0, 0.07446176415851952
316.0, 0.0741597086494231
317.0, 0.10357348690053061
318.0, 0.08334793736501757
319.0, 0.08580144873012403
320.0, 0.0983355348924835
321.0, 0.11164958356736572
322.0, 0.0930598548675663
323.0, 0.08000297677925901
324.0, 0.0757090424158822
325.0, 0.08539719227715066
326.0, 0.09945981631735457
327.0, 0.09722358800597837
328.0, 0.0838531817844316
329.0, 0.07910751128305044
330.0, 0.0763791539700924
331.0, 0.07636152009424257
332.0, 0.07879484802855793
333.0, 0.08121588065122394
334.0, 0.08362301132299067
335.0, 0.08450317190302195
336.0, 0.08297514031943404
337.0, 0.07693503050524261
338.0, 0.08197225912554514
339.0, 0.08384774557168209
340.0, 0.07177481304853109
341.0, 0.07649515424324527
342.0, 0.07887987337710227
343.0, 0.0733126509575167
344.0, 0.051567993235020655
345.0, 0.09634848136072899
346.0, 0.09214418051171061
347.0, 0.06436052157341703
348.0, 0.08466818265320249
349.0, 0.0933677727427913
350.0, 0.09034942547502083
351.0, 0.07919032882786149
352.0, 0.07299980664360241
353.0, 0.07664684224081353
354.0, 0.08247242289927886
355.0, 0.08760579719053434
356.0, 0.08739786911007327
357.0, 0.07892653609697592
358.0, 0.07770695663631294
359.0, 0.08977885187385498
360.0, 0.08662826588108997
361.0, 0.08244811760811648
362.0, 0.08493130382417378
363.0, 0.10025709329562822
364.0, 0.10487610375507246
365.0, 0.12821749681063307
366.0, 0.14989432052978396
367.0, 0.14472929301117554
368.0, 0.16115403036040427
369.0, 0.1803715302588335
370.0, 0.1948853878090604
371.0, 0.19209331158296794
372.0, 0.20670624973695434
373.0, 0.22120886179310717
374.0, 0.23238284686105565
375.0, 0.2368653539548913
376.0, 0.24880829327726808
377.0, 0.2568283664199418
378.0, 0.2613099109657812
379.0, 0.2742143470901595
380.0, 0.28227772042239363
381.0, 0.287486446417675
382.0, 0.29070180689498176
383.0, 0.29397586965138506
384.0, 0.3219495203276525
385.0, 0.34156268471831963
386.0, 0.3393141495585609
387.0, 0.3450984116866103
388.0, 0.3690766180747601
389.0, 0.38067377832565424
390.0, 0.3610259164244286
391.0, 0.3868744679524412
392.0, 0.4109391952314372
393.0, 0.4280468987158116
394.0, 0.432948399113167
395.0, 0.4720226528371225
396.0, 0.4949001092879307
397.0, 0.5187984309774796
398.0, 0.5671564038872843
399.0, 0.5599048243155854
400.0, 0.5864568346980245
401.0, 0.6335065614260699
402.0, 0.6710413366668234
403.0, 0.7066688296906248
404.0, 0.7603039204621452
405.0, 0.8229535469360013
406.0, 0.8696908883809525
407.0, 0.9015761309333034
408.0, 0.9333292001115799
409.0, 0.9638971889700928
410.0, 0.9829240050973447
411.0, 0.9947792759237537
412.0, 0.9923318897575771
413.0, 0.9789839582568787
414.0, 0.9746920798209737
415.0, 0.9446963941454123
416.0, 0.9069899745778901
417.0, 0.8665645685283836
418.0, 0.8234579381361241
419.0, 0.7920541397124297
420.0, 0.7627659606348175
421.0, 0.7289012957325594
422.0, 0.6669727447063719
423.0, 0.6329410963004873
424.0, 0.597378399784139
425.0, 0.5512142104066766
426.0, 0.5370608416676861
427.0, 0.49685127232721177
428.0, 0.4540882763961825
429.0, 0.4229266301841117
430.0, 0.4224404807503325
431.0, 0.39296924469265726
432.0, 0.3605730679719978
433.0, 0.34213137403951865
434.0, 0.3350105360438417
435.0, 0.32655514715304823
436.0, 0.31981151709618144
437.0, 0.3160393618457057
438.0, 0.26487571750074523
439.0, 0.2714319986359751
440.0, 0.2798308700286462
441.0, 0.24030773218695037
442.0, 0.2256631264176831
443.0, 0.22509100658566286
444.0, 0.22727392428987225
445.0, 0.2206021886272628
446.0, 0.2007782782089678
447.0, 0.20089751005737325
448.0, 0.1980245794836235
449.0, 0.16494544550700702
450.0, 0.19224550761965906
451.0, 0.17981589619899932
452.0, 0.1638431275834991
453.0, 0.1937134398305998
454.0, 0.16764983343155918
455.0, 0.15599363033887192
456.0, 0.16310954774912334
457.0, 0.19215445304978987
458.0, 0.17765500446156332
459.0, 0.1723867356448856
460.0, 0.17410529059269303
461.0, 0.1759303367847717
462.0, 0.15354705566833038
463.0, 0.14985240355920085
464.0, 0.1498295406448638
465.0, 0.12610482369552858
466.0, 0.15629233356166022
467.0, 0.16615016599823546
468.0, 0.16029567061708375
469.0, 0.15364637528780975
470.0, 0.15271410309282848
471.0, 0.1418626107617551
472.0, 0.12882175177321256
473.0, 0.12826569299985557
474.0, 0.12884724722186366
475.0, 0.12955893574042707
476.0, 0.13250274341316662
477.0, 0.1414510520794162
478.0, 0.1496423666568869
479.0, 0.15988595222222304
480.0, 0.17250864884262423
481.0, 0.18781485436938028
482.0, 0.19624124588534178
483.0, 0.20346833853638238
484.0, 0.21451996030020798
485.0, 0.2371006126503772
486.0, 0.27702549954700806
487.0, 0.2994021472304598
488.0, 0.32436954025088466
489.0, 0.3873613392776286
490.0, 0.4353093407052042
491.0, 0.49743938198759535
492.0, 0.5724573465187287
493.0, 0.656229047531677
494.0, 0.6840716702347238
495.0, 0.7487618555615011
496.0, 0.827073476332616
497.0, 0.8803007554534861
498.0, 0.8876069368206521
499.0, 0.8698770309988937
500.0, 0.8397441921925665
501.0, 0.8121850288556952
502.0, 0.7381241998293061
503.0, 0.6659265459772515
504.0, 0.5943084974898024
505.0, 0.5201599345295326
506.0, 0.4399270624665085
507.0, 0.3951065614824501
508.0, 0.3614705544180541
509.0, 0.31301006659779584
510.0, 0.25964881579409227
511.0, 0.23268343398994312
512.0, 0.20928170098090967
513.0, 0.16871312608351585
514.0, 0.15089070022565532
515.0, 0.15343236362349622
516.0, 0.14416173215647693
517.0, 0.09992053104802706
518.0, 0.10422465916209221
519.0, 0.10265997085368596
520.0, 0.10182947835195046
521.0, 0.10427488896430334
522.0, 0.07659109829399485
523.0, 0.049017085019255245
524.0, 0.04970321040970878
525.0, 0.08625414756708605
526.0, 0.05558387159691521
527.0, 0.041582840140322076
528.0, 0.04545837695174624
529.0, 0.06234767132810684
530.0, 0.04814821144186438
531.0, 0.047326044999217616
532.0, 0.04754734808732294
533.0, 0.0421781073664339
534.0, 0.021675857339827194
535.0, 0.032928559808513794
536.0, 0.03429574327564236
537.0, 0.024984835459650485
538.0, 0.061215208950920405
539.0, 0.03491386700142926
540.0, 0.018708943295050164
541.0, 0.023273541446070883
542.0, 0.023186553902319388
543.0, 0.029994774153792887
544.0, 0.03932599810341558
545.0, 0.04226647004326495
546.0, 0.0177567057830327
547.0, 0.03919319888470276
548.0, 0.03402429122860047
549.0, 0.017456068722796196
550.0, 0.03802134378116695
551.0, 0.018529423645144837
552.0, 0.006572511687256487
553.0, 0.008715599972216773
554.0, 0.028931823696468562
555.0, 0.01822904968072809
556.0, 0.013034194019206021
557.0, 0.021711958116385176
558.0, 0.051674404548100406
559.0, 0.0262758758709639
560.0, 0.03976087433416033
561.0, 0.053861758230729896
562.0, 0.03772619298675194
563.0, 0.036000492440008545
564.0, 0.03320577557744691
565.0, 0.026134506171415363
566.0, 0.015567437421398501
567.0, 0.029634278993077034
568.0, 0.03144255874113522
569.0, 0.021387683828521117
570.0, 0.007436247914443644
571.0, 0.03632711543173442
572.0, 0.03528454176760483
573.0, 0.03799641094964907
574.0, 0.05100826048673106
575.0, 0.058899320900204125
576.0, 0.033153890069224826
577.0, 0.03863575320343382
578.0, 0.0569604719177998
579.0, 0.0063840141016276025
580.0, 0.025533338855521122
581.0, 0.04273882437358135
582.0, 0.04419251960376696
583.0, 0.02118609664428133
584.0, 0.04751488081420735
585.0, 0.05135036002359954
586.0, 0.04069892794496695
587.0, 0.030053749952553565
588.0, 0.03176824475381566
589.0, 0.043657744604105916
590.0, 0.04374518803180035
591.0, 0.017574149288353217
592.0, 0.023004520023900507
593.0, 0.05587862652380674
594.0, 0.06957782397909605
595.0, 0.04568016387774232
596.0, 0.03501958446822699
597.0, 0.04304261578781411
598.0, 0.048776874785522784
599.0, 0.05151076486308989
600.0, 0.07801098384239619
601.0, 0.062294179888979326
602.0, 0.05523925590983598
603.0, 0.064699150762462
604.0, 0.08378640663666585
605.0, 0.08480131540955563
606.0, 0.08627868297376076
607.0, 0.09066784309089163
608.0, 0.0986044500663912
609.0, 0.10292921082532513
610.0, 0.10061300373055769
611.0, 0.0974969066940866
612.0, 0.09976228827700792
613.0, 0.11640181682773357
614.0, 0.11779084506828948
615.0, 0.12557625994433202
616.0, 0.14684697861444707
617.0, 0.13121637712419232
618.0, 0.13515359063634677
619.0, 0.13606293524346322
620.0, 0.13076557295589525
621.0, 0.13996411991311905
622.0, 0.14810042988219216
623.0, 0.15200376201141483
624.0, 0.15716172826767275
625.0, 0.17754758228375112
626.0, 0.1784143327310676
627.0, 0.17996293196648924
628.0, 0.18370452422602088
629.0, 0.18917475738065878
630.0, 0.16868975035294254
631.0, 0.15145450466735935
632.0, 0.12877139112614194
633.0, 0.09786335623404127
634.0, 0.11452273972824954
635.0, 0.11609931097070661
636.0, 0.11453489695617558
637.0, 0.11625335561696645
638.0, 0.1254538350860718
639.0, 0.13568951945151256
640.0, 0.13691299157017514
641.0, 0.1303932286811839
642.0, 0.1260328277250256
643.0, 0.11248990229022147
644.0, 0.11452568252418872
645.0, 0.11680633375749394
646.0, 0.09362313887633796
647.0, 0.13568682573059657
648.0, 0.13010429878198054
649.0, 0.10332957918438314
650.0, 0.08240343414655643
651.0, 0.10905177332750647
652.0, 0.10241438365203691
653.0, 0.08828512047674357
654.0, 0.08073817793048471
655.0, 0.09117944502495696
656.0, 0.0847618775465941
657.0, 0.07727188829921046
658.0, 0.07208856387588877
659.0, 0.06881253397961895
660.0, 0.05910377914315669
661.0, 0.053591537461654126
662.0, 0.04633557211820408
663.0, 0.02990804623888488
664.0, 0.04161213227503037
665.0, 0.0355391436751189
666.0, 0.029406746451316013
667.0, 0.03414559497353384
668.0, 0.04334958037900611
669.0, 0.018535556669491204
670.0, 0.013264805789837505
671.0, 0.027687127835714566
672.0, 0.006910423055889514
673.0, 0.0340485792615589
674.0, 0.02871278944498922
675.0, 0.005300778484946291
676.0, 0.003333442713187879
677.0, 0.02336310880532909
678.0, 0.026750310409236328
679.0, 0.01745447099434261
680.0, 0.003362416113320627
681.0, 0.02382589544313797
682.0, 0.01745430821567109
683.0, 0.010460470692974542
684.0, 0.009728723638173911
685.0, 0.0017782179742333896
686.0, 0.013240098546827908
687.0, 0.021015820546682648
688.0, 0.020883998009605345
689.0, 0.012563142717608396
690.0, 0.016592385541833222
691.0, 0.015639882893017272
692.0, 0.016756972846077176
693.0, 0.02441833001529899
694.0, 0.014966899520720585
695.0, 0.017586321528281372
696.0, 0.013515615681020747
697.0, 0.0018259266974793094
698.0, 0.007761521238152403
699.0, 0.017112788224227553
700.0, 0.012090191029546442
701.0, 0.002820896098591235
702.0, 0.010724496049386797
703.0, 0.007445816199255175
704.0, 0.0068832202556348655
705.0, 0.006261645917339529
706.0, 0.0037824731795132864
707.0, 0.005913393963258253
708.0, 0.005629656534969838
709.0, 0.01739728384449803
710.0, 0.03798366829846893
711.0, 0.04085482300627251
712.0, 0.034606535733296105
713.0, 0.02510902548627888
714.0, 0.020655890569967063
715.0, 0.03078895861663899
716.0, 0.009081367794446134
717.0, 0.02411178557147257
718.0, 0.028836858111982607
719.0, 0.006479255156593183
720.0, 0.04402473338205297
721.0, 0.02007400271593639
722.0, 0.01662244503344332
723.0, 0.036226214107327355
724.0, 0.034048373757204924
725.0, 0.012726552486789233
726.0, 0.03337982159672476
727.0, 0.05218207545519287
728.0, 0.02486809256185038
729.0, 0.01890465695404367
730.0, 0.04169976917911347
731.0, 0.046664661613635826
732.0, 0.028199907410032088
733.0, 0.0429688640301774
734.0, 0.04722209068895691
735.0, 0.037992158842648636
736.0, 0.029332558264138678
737.0, 0.042194841138468414
738.0, 0.03495377107082927
739.0, 0.03303995164429574
740.0, 0.035425280769257037
741.0, 0.03874542440557917
742.0, 0.027717421426016145
743.0, 0.03345613357951943
744.0, 0.034418750196320284
745.0, 0.03593223022906778
746.0, 0.06019797832166379
747.0, 0.048220751071855326
748.0, 0.0556148705185913
749.0, 0.05940027524914255
750.0, 0.04333207422034821
751.0, 0.0688561733093721
752.0, 0.08138133537879887
753.0, 0.07848097907065212
754.0, 0.06631921370068353
755.0, 0.06410062874473038
756.0, 0.08165935249731113
757.0, 0.0825486378662519
758.0, 0.07966478159616515
759.0, 0.08772931374295313
760.0, 0.0539618248356656
761.0, 0.07991306680435237
762.0, 0.10047048214775503
763.0, 0.09001883621868205
764.0, 0.060011869994959596
765.0, 0.09906605171338013
766.0, 0.10386862812484772
767.0, 0.08061686570805764
768.0, 0.05871434030276664
769.0, 0.13231368006277697
770.0, 0.11761956305899975
771.0, 0.09602920429728301
772.0, 0.10923352339276107
773.0, 0.1550629918251211
774.0, 0.1217777047477014
775.0, 0.12363447007647946
776.0, 0.14400109758508503
777.0, 0.13602991333778486
778.0, 0.15684167866321663
779.0, 0.15240809957169207
780.0, 0.1387785704405131
781.0, 0.13615337767667263
782.0, 0.19087485817715233
783.0, 0.19243323294784484
784.0, 0.20950829213194938
785.0, 0.22199139312907554
786.0, 0.1879769755739028
787.0, 0.21740393903494795
788.0, 0.21711740651758882
789.0, 0.21451994131097984
790.0, 0.22262953099600655
791.0, 0.23186142514676025
792.0, 0.245420614713104
793.0, 0.25058864608698933
794.0, 0.2551121892887375
795.0, 0.2717829310763291
796.0, 0.2847493171271208
797.0, 0.28299189698272825
798.0, 0.26991380513999047
799.0, 0.25556296853457555
800.0, 0.26980730754340343
801.0, 0.2670755226461566
802.0, 0.269242190620276
803.0, 0.26594678172010605
804.0, 0.24354679925682354
805.0, 0.25272195490715343
806.0, 0.23389186420775063
807.0, 0.22021548335222646
808.0, 0.22052700274308648
809.0, 0.21573081370523453
810.0, 0.18770209091038847
811.0, 0.1816272213827823
812.0, 0.18551981464600875
813.0, 0.1795812306631986
814.0, 0.1415895021143445
815.0, 0.1368066150546788
816.0, 0.1441364385996412
817.0, 0.15217953567004414
818.0, 0.1520397569517939
819.0, 0.07884029983993796
820.0, 0.07958916654939761
821.0, 0.09522396964051742
822.0, 0.07271433807742335
823.0, 0.05010908599918688
824.0, 0.07787769900325094
825.0, 0.07653233940134191
826.0, 0.05643414407073828
827.0, 0.0744451776593396
828.0, 0.08350708510882424
829.0, 0.06365130754047335
830.0, 0.048938482175454844
831.0, 0.05366459598364795
832.0, 0.04289280022191617
833.0, 0.037338137287021185
834.0, 0.055643129843692817
835.0, 0.0658237176756303
836.0, 0.027880460912414744
837.0, 0.049106570163005216
838.0, 0.04692652994543723
839.0, 0.06625720614436344
840.0, 0.10245363993756539
841.0, 0.0874395063901007
842.0, 0.06411270180673312
843.0, 0.07608051056845638
844.0, 0.09307157613076723
845.0, 0.08376032598299629
846.0, 0.04320407113599517
847.0, 0.060463650020255943
848.0, 0.052106968106422374
849.0, 0.022275551025669815
850.0, 0.017479899874264855
851.0, 0.06727787798789246
852.0, 0.060523514015775874
853.0, 0.06154021095496514
854.0, 0.08468550884681149
855.0, 0.04009960101319855
856.0, 0.06791875548488664
857.0, 0.07446452323606602
858.0, 0.07705800919758243
859.0, 0.10435436006236339
860.0, 0.11833658792846313
861.0, 0.09143245495457171
862.0, 0.08326998153903113
863.0, 0.10050234348811203
864.0, 0.11613880640380736
865.0, 0.06411931308419208
866.0, 0.07639473896404529
867.0, 0.09055695645881982
868.0, 0.07394858191047099
869.0, 0.06914219959718257
870.0, 0.075429888565131
871.0, 0.05886559243206646
872.0, 0.04822774112829763
873.0, 0.07340826961042332
874.0, 0.04300896889285278
875.0, 0.06766632877397734
876.0, 0.07110311170993733
877.0, 0.04588331024294014
878.0, 0.028271067871130023
879.0, 0.09607012610472028
880.0, 0.06119586293753058
881.0, 0.030630099531020884
882.0, 0.0518985362809886
883.0, 0.04453171195557411
884.0, 0.05912002134017863
885.0, 0.05095863531601973
886.0, 0.040633708670913544
887.0, 0.049579705477941806
888.0, 0.02938540151434458
889.0, 0.03027778204555548
890.0, 0.03715588060308872
891.0, 0.05026290248569323
892.0, 0.07551574473109726
893.0, 0.046349629432283046
894.0, 0.03722513691068819
895.0, 0.04415689952663379
896.0, 0.056392515669425394
897.0, 0.05031604436643511
898.0, 0.03460939223934541
899.0, 0.045792741414275424
900.0, 0.05349385147836615
901.0, 0.04140257305744603
902.0, 0.06485823497453025
903.0, 0.08163719900903436
904.0, 0.0635399581360769
905.0, 0.04837348881589548
906.0, 0.08177853903562188
907.0, 0.07314124837157387
908.0, 0.07886458892972632
909.0, 0.06634813302950314
910.0, 0.03492453364675173
911.0, 0.004433491313684392
912.0, 0.08954731992975849
913.0, 0.06073925759075408
914.0, 0.04023094577018207
915.0, 0.06471338176425095
916.0, 0.04192552593609973
917.0, 0.010731587359485768
918.0, 0.04791900070021804
919.0, 0.07373058486595974
920.0, 0.043385305939286946
921.0, 0.07724957975234689
922.0, 0.038949728904123466
923.0, 0.03132844946769688
924.0, 0.0412543103381913
925.0, 0.037318463997630266
926.0, 0.05702447051142674
927.0, 0.038790853002707626
928.0, 0.049294979536547066
929.0, 0.0621289231347882
930.0, 0.010699822718986559
931.0, 0.05268706128740025
932.0, 0.04418955197424092
933.0, 0.0472298335962325
934.0, 0.06743216163089727
935.0, 0.05623226732511209
936.0, 0.03117805575339684
937.0, 0.03984700303574299
938.0, 0.0470447882992842
939.0, 0.035842551833645396
940.0, 0.024641779860105857
941.0, 0.03377750430008727
942.0, 0.03648458831755053
943.0, 0.03082902078212982
944.0, 0.023513949587550063
945.0, 0.04458468684803964
946.0, 0.04857892560820985
947.0, 0.04227369546591018
948.0, 0.03758568814578525
949.0, 0.04040859513872959
950.0, 0.006689916416960078
951.0, 0.059554502863305554
952.0, 0.06362177690577181
953.0, 0.041563401221355316
954.0, 0.06139112311012344
955.0, 0.02048419714561178
956.0, 0.014720779858354394
957.0, 0.029624611352681338
958.0, 0.04189926352631492
959.0, 0.022564069082566095
960.0, 0.04371119227574281
961.0, 0.04311575688977251
962.0, 0.02730750554629098
963.0, 0.018505243547501438
964.0, 0.056450774770744644
965.0, 0.037386426497214645
966.0, 0.0329625477498686
967.0, 0.02893558973476403
968.0, 0.021899169193164904
969.0, 0.025329943185515725
970.0, 0.055271816295899584
971.0, 0.031385736275136446
972.0, 0.00470237290939136
973.0, 0.004764010730154061
974.0, 0.007515319913648035
975.0, 0.0033172963441081317
976.0, 0.0020791967181970346
977.0, 0.011718359213731355
978.0, 0.030607388292613356
979.0, 0.03067016508684011
980.0, 0.019723586093499716
981.0, 0.008204554219168185
982.0, 0.015124460108140543
983.0, 0.049835042526781746
984.0, 0.08328625396945888
985.0, 0.040826672427412475
986.0, 0.018187232244042523
987.0, 0.026386549027460817
988.0, 0.04963137410871239
989.0, 0.020237362471678108
990.0, 0.04131768636313384
991.0, 0.04183999820489648
992.0, 0.02691271067265717
993.0, 0.022299355444983886
994.0, 0.06431520446063896
995.0, 0.02747267230846978
996.0, 0.024582210646957914
997.0, 0.036884377222516376
998.0, 0.019293813035795235
999.0, 0.04317953690157479
1000.0, 0.08662460360409738
1001.0, 0.09983548606681523
1002.0, 0.10753270609774414
1003.0, 0.14645629769753526
1004.0, 0.10147425818383078
1005.0, 0.09623253118914868
1006.0, 0.08742414331261396
1007.0, 0.06891939170725633
1008.0, 0.05193165661743812
1009.0, 0.07849554827158796
1010.0, 0.07842005813402522
1011.0, 0.04509253599924605
1012.0, 0.0252135288545014
1013.0, 0.07339653229677237
1014.0, 0.040122411975581355
1015.0, 0.07687584952153939
1016.0, 0.08832456243872291
1017.0, 0.06846614537339778
1018.0, 0.053316480966048
1019.0, 0.09296116117188488
1020.0, 0.06892937245078218
1021.0, 0.06282785149978327
1022.0, 0.081655542426552
1023.0, 0.0997970387298704
1024.0, 0.10834845786228554
1025.0, 0.1114642097469387
1026.0, 0.10521636605640866
1027.0, 0.1036201313190939
1028.0, 0.12239005009279992
1029.0, 0.1060391412834083
1030.0, 0.07788283353206542
1031.0, 0.07718835033203915
1032.0, 0.09866899222397493
1033.0, 0.11304137011262666
1034.0, 0.044528636173018846
1035.0, 0.07143083611084115
1036.0, 0.06437941655027284
1037.0, 0.04702442853740576
1038.0, 0.0835992303545372
1039.0, 0.11428039701460929
1040.0, 0.09322326615719922
1041.0, 0.08276141781051197
1042.0, 0.08647003480017511
1043.0, 0.08942475160261501
1044.0, 0.07842543362251574
1045.0, 0.08524421856322731
1046.0, 0.09504255576728181
1047.0, 0.09432378642968872
1048.0, 0.08039897632768987
1049.0, 0.10328147359809785
1050.0, 0.0998583461596682
1051.0, 0.12065594988040552
1052.0, 0.12623297856532506
1053.0, 0.08812399967154314
1054.0, 0.09294473250505488
1055.0, 0.13972371895974597
1056.0, 0.1369093716522897
1057.0, 0.10327240486504247
1058.0, 0.08351921130964196
1059.0, 0.14700537916146061
1060.0, 0.09513708515953237
1061.0, 0.10991137545640264
1062.0, 0.12716970510389322
1063.0, 0.10128094749058358
1064.0, 0.08494624536179735
1065.0, 0.1391539962644391
1066.0, 0.09353653103350769
1067.0, 0.049612663156419906
1068.0, 0.06686737764348494
1069.0, 0.11081919154900066
1070.0, 0.07554712759943523
1071.0, 0.10741541561998336
1072.0, 0.11750427146108158
1073.0, 0.09064473806146596
1074.0, 0.09942427045339002
1075.0, 0.1368683491378922
1076.0, 0.0929300470869147
1077.0, 0.08197767243513568
1078.0, 0.11144323050741406
1079.0, 0.10943525906170952
1080.0, 0.07576971798795341
1081.0, 0.10864560579160985
1082.0, 0.11001343893231422
1083.0, 0.09213352552173257
1084.0, 0.11256472493468321
1085.0, 0.13299869906760844
1086.0, 0.11588255247406976
1087.0, 0.13040407032582924
1088.0, 0.1424888222839356
1089.0, 0.10772883602041308
1090.0, 0.0914069569330328
1091.0, 0.1378025147352106
1092.0, 0.15684008333632607
1093.0, 0.1557583524584708
1094.0, 0.1477500311738929
1095.0, 0.10907537047421327
1096.0, 0.08506295451557094
1097.0, 0.12577196151008965
1098.0, 0.14369977004730702
1099.0, 0.10683650921493572
1100.0, 0.09575007205737007
1101.0, 0.13226412657645237
1102.0, 0.07841672557271534
1103.0, 0.07959192129887653
1104.0, 0.14492053604339666
1105.0, 0.14831441693197106
1106.0, 0.15043396380151816
1107.0, 0.15672336903146403
1108.0, 0.16142535242052433
1109.0, 0.1622928042818542
1110.0, 0.16054428138803217
1111.0, 0.1697481245920318
1112.0, 0.16182337489154222
1113.0, 0.1564216510468968
1114.0, 0.15961582999957652
1115.0, 0.1635677987985884
1116.0, 0.12093822471523762
1117.0, 0.18558074464397892
1118.0, 0.16310554755463777
1119.0, 0.1265917546154791
1120.0, 0.1427132434051747
1121.0, 0.1883562509435155
1122.0, 0.16646601086756313
1123.0, 0.20681613209666377
1124.0, 0.2198364360235034
1125.0, 0.17798307183976547
1126.0, 0.13086392885111334
1127.0, 0.20030763153209502
1128.0, 0.15034169653034787
1129.0, 0.16296543673229025
1130.0, 0.20839162709169104
1131.0, 0.16971388873416615
1132.0, 0.10679009703037308
1133.0, 0.18669459888461268
1134.0, 0.20978256232303258
1135.0, 0.17804789669166168
1136.0, 0.15484118687112106
1137.0, 0.23632129261054102
1138.0, 0.14503798516391736
1139.0, 0.1621275747941737
1140.0, 0.18817857948875735
1141.0, 0.16251935569804157
1142.0, 0.12458865153803142
1143.0, 0.20543927028940018
1144.0, 0.1533181798485487
1145.0, 0.15731888817194803
1146.0, 0.21364635586957523
1147.0, 0.201596020121302
1148.0, 0.07547206201679119
1149.0, 0.13900551982870826
1150.0, 0.1659671588102442
1151.0, 0.13749929702442737
1152.0, 0.10857570405814954
1153.0, 0.18454173065671525
1154.0, 0.11760854725048418
1155.0, 0.11313289013941749
1156.0, 0.14050001863947992
1157.0, 0.15012998825868532
1158.0, 0.10163484050960887
1159.0, 0.10659382848371904
1160.0, 0.1427204808081937
1161.0, 0.12218888541383349
1162.0, 0.09359265202911443
1163.0, 0.13937901671912215
1164.0, 0.06626050791928166
1165.0, 0.0926581606228516
1166.0, 0.11126258889165308
1167.0, 0.09652964121098613
1168.0, 0.06961599864248345
1169.0, 0.1156514518287945
1170.0, 0.11185251232700925
1171.0, 0.04849326664707261
1172.0, 0.05986962784014262
1173.0, 0.11477237648173891
1174.0, 0.05176702020221292
1175.0, 0.05258635277921016
1176.0, 0.08004862874978054
1177.0, 0.05811613599783941
1178.0, 0.03549467840503351
1179.0, 0.06405360395980551
1180.0, 0.05432887395406108
1181.0, 0.0323079484137547
1182.0, 0.05867755611239426
1183.0, 0.061826779914420815
1184.0, 0.03158127782047351
1185.0, 0.04736346433195084
1186.0, 0.07220907050658025
1187.0, 0.03209432249348493
1188.0, 0.04564170569471049
1189.0, 0.07293043546146659
1190.0, 0.033453057471406256
1191.0, 0.008546058963841658
1192.0, 0.05803084728799769
1193.0, 0.04083025399288722
1194.0, 0.01954759135693122
1195.0, 0.03512268223082229
1196.0, 0.05069744130069112
1197.0, 0.06495927525946146
1198.0, 0.03837294744196326
1199.0, 0.037516168894896625
1200.0, 0.042904404721333195
1201.0, 0.021526253405963862
1202.0, 0.11949092968981521
1203.0, 0.04581353637541858
1204.0, 0.03930482535516181
1205.0, 0.06829909756828895
1206.0, 0.07509272214054302
1207.0, 0.03503114980735564
1208.0, 0.06032058799419928
1209.0, 0.04760777044908444
1210.0, 0.025366699647717834
1211.0, 0.04418233155375317
1212.0, 0.11950444696785638
1213.0, 0.051136070904638654
1214.0, 0.0370544609909995
1215.0, 0.0825027708198701
1216.0, 0.1003970885609734
1217.0, 0.06647077770213293
1218.0, 0.060644842608250135
1219.0, 0.04700065435157675
1220.0, 0.03551416635954988
1221.0, 0.04946898306566257
1222.0, 0.06763636841816455
1223.0, 0.06551663491997585
1224.0, 0.0839533558110885
1225.0, 0.06900796153003455
1226.0, 0.05612392115830129
1227.0, 0.08169759609616671
1228.0, 0.10783799964841975
1229.0, 0.03500376824203777
1230.0, 0.028135256734341696
1231.0, 0.09808533515409226
1232.0, 0.09302947908180109
1233.0, 0.04888087692835104
1234.0, 0.045033030450528755
1235.0, 0.10366582755117049
1236.0, 0.049120196484502575
1237.0, 0.11067947180244878
1238.0, 0.12170059312322577
1239.0, 0.06853618182510937
1240.0, 0.06456000852412296
1241.0, 0.15275177900166448
1242.0, 0.09050601947386308
1243.0, 0.057877047632610625
1244.0, 0.07367710614760185
1245.0, 0.09654660112564946
1246.0, 0.04920486918938679
1247.0, 0.07450316453088017
1248.0, 0.08249628672209718
1249.0, 0.08158919744495048
1250.0, 0.08679372817371193
1251.0, 0.09915711415610426
1252.0, 0.0615423796349883
1253.0, 0.08672640670529619
1254.0, 0.0967498571581994
1255.0, 0.09322299598248479
1256.0, 0.10387251994872182
1257.0, 0.152490068089564
1258.0, 0.08245233250474676
1259.0, 0.05096598498934352
1260.0, 0.09976170256473854
1261.0, 0.11890329364555029
1262.0, 0.052898370971359174
1263.0, 0.0022709057805502114
1264.0, 0.14048194080799148
1265.0, 0.08925065196175692
1266.0, 0.08051606978932535
1267.0, 0.10543648968197744
1268.0, 0.08030245774148707
1269.0, 0.057445675272602
1270.0, 0.13898454710005034
1271.0, 0.1026965998978719
1272.0, 0.06783981190375454
1273.0, 0.08586954245143076
1274.0, 0.11504039379849271
1275.0, 0.021031547826401646
1276.0, 0.1121811219114988
1277.0, 0.10980188890656978
1278.0, 0.053283067147104894
1279.0, 0.046378217980580366
1280.0, 0.16992694160962096
1281.0, 0.09059964865555367
1282.0, 0.05510682270909939
1283.0, 0.07947343376148668
1284.0, 0.08846684340600919
1285.0, 0.04905134749724033
1286.0, 0.07603884039536417
1287.0, 0.07897254467479793
1288.0, 0.033269532793771706
1289.0, 0.050786312138239295
1290.0, 0.09138103566433359
1291.0, 0.07400612555042321
1292.0, 0.05664131700420873
1293.0, 0.09766993872408786
1294.0, 0.06657435545729037
1295.0, 0.058999093348246594
1296.0, 0.1009210043076146
1297.0, 0.1349223133564396
1298.0, 0.021855008788269153
1299.0, 0.06896045145688087
1300.0, 0.06592733302783288
1301.0, 0.05105861688401312
1302.0, 0.07496654038227152
1303.0, 0.14025160770920025
1304.0, 0.05853509653063117
1305.0, 0.04248964608670391
1306.0, 0.08454612154187689
1307.0, 0.09584873475855327
1308.0, 0.047181128375554035
1309.0, 0.02393466237128604
1310.0, 0.14163943345082786
1311.0, 0.05094588832512405
1312.0, 0.056787790769751725
1313.0, 0.1035507123950091
1314.0, 0.08545370546870641
1315.0, 0.030584924775782833
1316.0, 0.12882441721895865
1317.0, 0.08882821862902247
1318.0, 0.05115870670443878
1319.0, 0.058418822929246716
1320.0, 0.07618148952130477
1321.0, 0.001093782431514187
1322.0, 3.45761365707833e-05
1323, 0.0
1324, 0.0
1325, 0.0
1326, 0.0
1327, 0.0
1328, 0.0
1329, 0.0
1330, 0.0
1331, 0.0
1332, 0.0
1333, 0.0
1334, 0.0
1335, 0.0
1336, 0.0
1337, 0.0
1338, 0.0
1339, 0.0
1340, 0.0
1341, 0.0
1342, 0.0
1343, 0.0
1344, 0.0
1345, 0.0
1346, 0.0
1347, 0.0
1348, 0.0
1349, 0.0
1350, 0.0
1351, 0.0
1352, 0.0
1353, 0.0
1354, 0.0
1355, 0.0
1356, 0.0
1357, 0.0
1358, 0.0
1359, 0.0
1360, 0.0
1361, 0.0
1362, 0.0
1363, 0.0
1364, 0.0
1365, 0.0
1366, 0.0
1367, 0.0
1368, 0.0
1369, 0.0
1370, 0.0
1371, 0.0
1372, 0.0
1373, 0.0
1374, 0.0
1375, 0.0
1376, 0.0
1377, 0.0
1378, 0.0
1379, 0.0
1380, 0.0
1381, 0.0
1382, 0.0
1383, 0.0
1384, 0.0
1385, 0.0
1386, 0.0
1387, 0.0
1388, 0.0
1389, 0.0
1390, 0.0
1391, 0.0
1392, 0.0
1393, 0.0
1394, 0.0
1395, 0.0
1396, 0.0
1397, 0.0
1398, 0.0
1399, 0.0
1400, 0.0
1401, 0.0
1402, 0.0
1403, 0.0
1404, 0.0
1405, 0.0
1406, 0.0
1407, 0.0
1408, 0.0
1409, 0.0
1410, 0.0
1411, 0.0
1412, 0.0
1413, 0.0
1414, 0.0
1415, 0.0
1416, 0.0
1417, 0.0
1418, 0.0
1419, 0.0
1420, 0.0
1421, 0.0
1422, 0.0
1423, 0.0
1424, 0.0
1425, 0.0
1426, 0.0
1427, 0.0
1428, 0.0
1429, 0.0
1430, 0.0
1431, 0.0
1432, 0.0
1433, 0.0
1434, 0.0
1435, 0.0
1436, 0.0
1437, 0.0
1438, 0.0
1439, 0.0
1440, 0.0
1441, 0.0
1442, 0.0
1443, 0.0
1444, 0.0
1445, 0.0
1446, 0.0
1447, 0.0
1448, 0.0
1449, 0.0
1450, 0.0
1451, 0.0
1452, 0.0
1453, 0.0
1454, 0.0
1455, 0.0
1456, 0.0
1457, 0.0
1458, 0.0
1459, 0.0
1460, 0.0
1461, 0.0
1462, 0.0
1463, 0.0
1464, 0.0
1465, 0.0
1466, 0.0
1467, 0.0
1468, 0.0
1469, 0.0
1470, 0.0
1471, 0.0
1472, 0.0
1473, 0.0
1474, 0.0
1475, 0.0
1476, 0.0
1477, 0.0
1478, 0.0
1479, 0.0
1480, 0.0
1481, 0.0
1482, 0.0
1483, 0.0
1484, 0.0
1485, 0.0
1486, 0.0
1487, 0.0
1488, 0.0
1489, 0.0
1490, 0.0
1491, 0.0
1492, 0.0
1493, 0.0
1494, 0.0
1495, 0.0
1496, 0.0
1497, 0.0
1498, 0.0
1499, 0.0
1500, 0.0
1501, 0.0
1502, 0.0
1503, 0.0
1504, 0.0
1505, 0.0
1506, 0.0
1507, 0.0
1508, 0.0
1509, 0.0
1510, 0.0
1511, 0.0
1512, 0.0
1513, 0.0
1514, 0.0
1515, 0.0
1516, 0.0
1517, 0.0
1518, 0.0
1519, 0.0
1520, 0.0
1521, 0.0
1522, 0.0
1523, 0.0
1524, 0.0
1525, 0.0
1526, 0.0
1527, 0.0
1528, 0.0
1529, 0.0
1530, 0.0
1531, 0.0
1532, 0.0
1533, 0.0
1534, 0.0
1535, 0.0
1536, 0.0
1537, 0.0
1538, 0.0
1539, 0.0
1540, 0.0
1541, 0.0
1542, 0.0
1543, 0.0
1544, 0.0
1545, 0.0
1546, 0.0
1547, 0.0
1548, 0.0
1549, 0.0
1550, 0.0
1551, 0.0
1552, 0.0
1553, 0.0
1554, 0.0
1555, 0.0
1556, 0.0
1557, 0.0
1558, 0.0
1559, 0.0
1560, 0.0
1561, 0.0
1562, 0.0
1563, 0.0
1564, 0.0
1565, 0.0
1566, 0.0
1567, 0.0
1568, 0.0
1569, 0.0
1570, 0.0
1571, 0.0
1572, 0.0
1573, 0.0
1574, 0.0
1575, 0.0
1576, 0.0
1577, 0.0
1578, 0.0
1579, 0.0
1580, 0.0
1581, 0.0
1582, 0.0
1583, 0.0
1584, 0.0
1585, 0.0
1586, 0.0
1587, 0.0
1588, 0.0
1589, 0.0
1590, 0.0
1591, 0.0
1592, 0.0
1593, 0.0
1594, 0.0
1595, 0.0
1596, 0.0
1597, 0.0
1598, 0.0
1599, 0.0
