30, 0.0
31, 0.0
32, 0.0
33, 0.0
34, 0.0
35, 0.0
36, 0.0
37, 0.0
38, 0.0
39, 0.0
40, 0.0
41, 0.0
42, 0.0
43, 0.0
44, 0.0
45, 0.0
46, 0.0
47, 0.0
48, 0.0
49, 0.0
50, 0.0
51, 0.0
52, 0.0
53, 0.0
54, 0.0
55, 0.0
56, 0.0
57, 0.0
58, 0.0
59, 0.0
60, 0.0
61, 0.0
62, 0.0
63, 0.0
64, 0.0
65, 0.0
66, 0.0
67, 0.0
68, 0.0
69, 0.0
70, 0.0
71, 0.0
72, 0.0
73, 0.0
74, 0.0
75, 0.0
76, 0.0
77, 0.0
78, 0.0
79, 0.0
80, 0.0
81, 0.0
82, 0.0
83, 0.0
84, 0.0
85, 0.0
86, 0.0
87, 0.0
88, 0.0
89, 0.0
90, 0.0
91, 0.0
92, 0.0
93, 0.0
94, 0.0
95, 0.0
96, 0.0
97, 0.0
98, 0.0
99, 0.0
100, 0.0
101, 0.0
102, 0.0
103, 0.0
104, 0.0
105, 0.0
106, 0.0
107, 0.0
108, 0.0
109, 0.0
110, 0.0
111, 0.0
112, 0.0
113, 0.0
114, 0.0
115, 0.0
116, 0.0
117, 0.0
118, 0.0
119, 0.0
120, 0.0
121, 0.0
122, 0.0
123, 0.0
124, 0.0
125, 0.0
126, 0.0
127, 0.0
128, 0.0
129, 0.0
130, 0.0
131, 0.0
132, 0.0
133, 0.0
134, 0.0
135, 0.0
136, 0.0
137, 0.0
138, 0.0
139, 0.0
140, 0.0
141, 0.0
142, 0.0
143, 0.0
144, 0.0
145, 0.0
146, 0.0
147, 0.0
148, 0.0
149, 0.0
150, 0.0
151, 0.0
152.0, 0.0038014067082142704
153.0, 0.02268200677581119
154.0, 0.0512172211798406
155.0, 0.08492374246928787
156.0, 0.12180060442534833
157.0, 0.15095831901004694
158.0, 0.15977301023142257
159.0, 0.14117138790012076
160.0, 0.10375468388109108
161.0, 0.06455889374251894
162.0, 0.034370452466183365
163.0, 0.015274584824510804
164.0, 0.004877660685295748
165.0, 0.00037101440735123225
166.0, 0.0006478243563414138
167.0, 8.77341187955786e-05
168.0, 0.00010552606858951983
169.0, 0.0002242610607756673
170.0, 0.0006064004010261876
171.0, 0.000798061597604727
172.0, 0.002309425820741691
173.0, 0.004075537651247516
174.0, 0.004548610519951565
175.0, 0.0036693672408474364
176.0, 0.0019905197239483917
177.0, 0.0006409432992792041
178.0, 0.0007129423182526925
179.0, 0.0017909289784364597
180.0, 0.0023466088853996547
181.0, 0.0027775759110868696
182.0, 0.0023773407887222927
183.0, 0.00172652598952872
184.0, 0.0010283869912737903
185.0, 0.0005548100094943701
186.0, 0.0027039981891178767
187.0, 0.005290869776924217
188.0, 0.008421535778196959
189.0, 0.012720582855363
190.0, 0.01865223837927733
191.0, 0.025697020951326324
192.0, 0.031994363011716334
193.0, 0.034714581205059776
194.0, 0.029983397896938158
195.0, 0.020038176247507457
196.0, 0.010352517708593247
197.0, 0.00415726997870032
198.0, 0.0016554235285165951
199.0, 0.0015757373765971103
200.0, 0.0024604112845715833
201.0, 0.003659694805766557
202.0, 0.005037764778818775
203.0, 0.007817160998121384
204.0, 0.010790980820946703
205.0, 0.013880117963062289
206.0, 0.017373734674350688
207.0, 0.02175289103280012
208.0, 0.025904582842192898
209.0, 0.03034666310613838
210.0, 0.035659985807683314
211.0, 0.0413239811481982
212.0, 0.04796610036587053
213.0, 0.05483150092596198
214.0, 0.06155724557150998
215.0, 0.06756594900326995
216.0, 0.07160117525425408
217.0, 0.0722415621939214
218.0, 0.06950717930559397
219.0, 0.06377718314648771
220.0, 0.05586171159249066
221.0, 0.0481121958206094
222.0, 0.04205830724731587
223.0, 0.03770366072169999
224.0, 0.03473785019716161
225.0, 0.033226316455620235
226.0, 0.03317665633915357
227.0, 0.03389059070239761
228.0, 0.03582500035918694
229.0, 0.04004007855654163
230.0, 0.04687161664195399
231.0, 0.054877572618750724
232.0, 0.06392605950411472
233.0, 0.07215269604264299
234.0, 0.07516261379492727
235.0, 0.07103634396080309
236.0, 0.06166648882098413
237.0, 0.05065499095325206
238.0, 0.04075232140354574
239.0, 0.03307296794130257
240.0, 0.02801293679385246
241.0, 0.02522057116113586
242.0, 0.024491582930409445
243.0, 0.026238182861351753
244.0, 0.02856097657806069
245.0, 0.03045309407214233
246.0, 0.031047109092484246
247.0, 0.029264600292722234
248.0, 0.02476835196003027
249.0, 0.019296649505663
250.0, 0.013520123809035601
251.0, 0.008734154324131927
252.0, 0.00671569700296674
253.0, 0.00577273511578006
254.0, 0.0058127679370446736
255.0, 0.006825476908995351
256.0, 0.008925387433719826
257.0, 0.01283591339545296
258.0, 0.018637118946744885
259.0, 0.027002307561123092
260.0, 0.0378924299301434
261.0, 0.04849887789747336
262.0, 0.04684039935057286
263.0, 0.03391863869395607
264.0, 0.019394646409689027
265.0, 0.01002149707816365
266.0, 0.005619864064725757
267.0, 0.002958552451331399
268.0, 0.0016846883659242804
269.0, 0.0011465019062165084
270.0, 0.000502357791855314
271.0, 5.4421236624503946e-05
272.0, 2.174042010325828e-05
273.0, 0.00018233450791785283
274.0, 0.0005427640258970379
275.0, 0.0005547822388749633
276.0, 0.0003078757420611659
277.0, 0.00029256149653927166
278.0, 0.0003853650889837485
279.0, 0.00034985615231332466
280.0, 0.000375704392455649
281.0, 0.0004438303335861572
282.0, 0.00045010203159453593
283.0, 0.0004156341114550635
284.0, 0.0003498244258671806
285.0, 3.246288997795177e-05
286.0, 3.6108881316392885e-05
287.0, 0.00021011912979003987
288.0, 0.0005546705549031024
289.0, 0.00047174965588611407
290.0, 0.0008427192875377793
291.0, 0.0010740850648318003
292.0, 0.0011992456018433007
293.0, 0.001375639249000375
294.0, 0.0014263564930210725
295.0, 0.001403240867686201
296.0, 0.0012662901685958703
297.0, 0.001509332132622351
298.0, 0.0022250130669617587
299.0, 0.0019577765354426894
300.0, 0.0020138028343663615
301.0, 0.0024071183837483107
302.0, 0.002805164191973061
303.0, 0.003018463131844183
304.0, 0.003226983237684859
305.0, 0.0036324837576303787
306.0, 0.00369673383392756
307.0, 0.003545705319613872
308.0, 0.003902044629103248
309.0, 0.003551877612381376
310.0, 0.0033854884046216668
311.0, 0.003216470216295872
312.0, 0.0027823011268915472
313.0, 0.002497755786649863
314.0, 0.0022979250598606274
315.0, 0.0024355495685967955
316.0, 0.002583125872496479
317.0, 0.0024041321161823812
318.0, 0.002384217144147196
319.0, 0.0025873630653177318
320.0, 0.0027030306880247513
321.0, 0.002722038625166898
322.0, 0.0028055412150440415
323.0, 0.0028347774635972666
324.0, 0.0034852496072244146
325.0, 0.0037131496608576327
326.0, 0.0036355909768002754
327.0, 0.0041513983742083906
328.0, 0.004466862297566787
329.0, 0.004394550768100784
330.0, 0.004781130993270344
331.0, 0.005464950152467465
332.0, 0.0055472594109645295
333.0, 0.0063737418869480224
334.0, 0.0071146009449727585
335.0, 0.008107019708785615
336.0, 0.009558671352896888
337.0, 0.01089411305986445
338.0, 0.011777712310058953
339.0, 0.012099725378604764
340.0, 0.012305028006038774
341.0, 0.012602001717703594
342.0, 0.012602259292418788
343.0, 0.01292091117868342
344.0, 0.012902046269031997
345.0, 0.012224121666094122
346.0, 0.011092893000604708
347.0, 0.00999138039466033
348.0, 0.008815054244742295
349.0, 0.008327042869080136
350.0, 0.008158472839837654
351.0, 0.007610778456119795
352.0, 0.0066431090976197165
353.0, 0.006544108273014281
354.0, 0.00639389483334038
355.0, 0.0059923253367821045
356.0, 0.005650300281236749
357.0, 0.005267530321490318
358.0, 0.005277393416816325
359.0, 0.005398675888795998
360.0, 0.005229632387027418
361.0, 0.004892711701576725
362.0, 0.00501537788514122
363.0, 0.004970688208381295
364.0, 0.004593951492199684
365.0, 0.004243735445489632
366.0, 0.0042158736375613095
367.0, 0.004336950787944411
368.0, 0.004297674471612598
369.0, 0.0038843469791592497
370.0, 0.0036225498885304156
371.0, 0.0038525543250425747
372.0, 0.0036952435044774264
373.0, 0.003964438972163045
374.0, 0.0037859981971305806
375.0, 0.003377732109183194
376.0, 0.0033569252975848628
377.0, 0.0032859231569340066
378.0, 0.002979800472871973
379.0, 0.0030831273511619027
380.0, 0.00320695850590699
381.0, 0.0026561136281645116
382.0, 0.0026162252551652342
383.0, 0.003018599970443853
384.0, 0.003042834487695317
385.0, 0.002806109597226816
386.0, 0.0028667123948912555
387.0, 0.0028324128699693664
388.0, 0.0027358583827843566
389.0, 0.0027979329394627462
390.0, 0.0027911228892293317
391.0, 0.0024969125472032424
392.0, 0.002138217267432596
393.0, 0.002120006886010375
394.0, 0.0020437663707725427
395.0, 0.0017771693585368641
396.0, 0.0016232307745525374
397.0, 0.001979649549322474
398.0, 0.0015868419207959268
399.0, 0.0016854557085115292
400.0, 0.0017416955092823313
401.0, 0.0013698082217718747
402.0, 0.0012855741136112101
403.0, 0.000992533635086133
404.0, 0.0008353404002581912
405.0, 0.0008322464267597039
406.0, 0.0007631959816306175
407.0, 0.0004806244328407617
408.0, 0.0007621996061588525
409.0, 0.0007373794642549021
410.0, 0.00047902907006376193
411.0, 0.0002857047390654317
412.0, 0.00021216826824566848
413.0, 5.8051546048648366e-05
414.0, 6.256599883743129e-06
415.0, 0.000277438539162987
416.0, 0.00038169593317723
417.0, 0.00017561577209326276
418.0, 0.0002896710754968664
419.0, 0.0001930228410297479
420.0, 3.221927468899775e-05
421.0, 6.66417061069206e-05
422.0, 0.00013453280295245556
423.0, 0.00011806108635589304
424.0, 0.00010645211901818413
425.0, 0.00017667020574543233
426.0, 0.00034175069504958943
427.0, 0.00010335095827317829
428.0, 0.0003290544845064909
429.0, 0.0003808937568950303
430.0, 0.00016036773754084612
431.0, 9.567263313545142e-05
432.0, 9.009694461568207e-05
433.0, 0.00021623889769143011
434.0, 0.00017927714994884472
435.0, 0.00018048407594313951
436.0, 7.540524477796966e-05
437.0, 7.307786706399304e-05
438.0, 0.00019096543713554133
439.0, 0.00012905271667221024
440.0, 1.8464040804970136e-05
441.0, 6.804179377977041e-06
442.0, 5.037872529715177e-05
443.0, 6.929385109074424e-05
444.0, 6.0497164253378734e-05
445.0, 9.762389475241814e-05
446.0, 9.177337019825821e-05
447.0, 6.223202356273294e-05
448.0, 0.0001401897183901842
449.0, 0.0005340422458011943
450.0, 0.0002455758380060134
451.0, 3.5882708390954016e-05
452.0, 9.105268265290741e-05
453.0, 0.00022294382496010419
454.0, 0.00026196477787261333
455.0, 7.801929341772978e-05
456.0, 5.0954141004606185e-05
457.0, 1.6945001707236404e-05
458.0, 1.4157823744136393e-05
459.0, 9.466220011738728e-05
460.0, 0.0003714059906142067
461.0, 0.0003056651769532669
462.0, 0.00038843036221851846
463.0, 0.0005475090998023226
464.0, 0.0005265786583000628
465.0, 0.0002843047051848777
466.0, 0.00025332875336465515
467.0, 0.0005947572999288444
468.0, 0.000690473240997649
469.0, 0.000510686664382592
470.0, 0.000471150604630734
471.0, 0.000655506804171012
472.0, 0.0009665984064703611
473.0, 0.0009031659196985735
474.0, 0.0005769693708585277
475.0, 0.0004285044114322029
476.0, 0.0006620324032059525
477.0, 0.00045065252843687093
478.0, 0.0006240861775464788
479.0, 0.0008534999098537156
480.0, 0.000798252871221603
481.0, 0.0007141301000929445
482.0, 0.0007667213529740105
483.0, 0.0008254416903158993
484.0, 0.0008124155164016774
485.0, 0.0008378561382834993
486.0, 0.0008927033127203692
487.0, 0.0008731191225961934
488.0, 0.0008089505554114951
489.0, 0.0006481286478494133
490.0, 0.0004810969586054694
491.0, 0.0005161419688398072
492.0, 0.0006725888066872126
493.0, 0.00037571235353047047
494.0, 0.0006336241019091202
495.0, 0.0006628330418288171
496.0, 0.0005768860069010551
497.0, 0.0007935767155942228
498.0, 0.0010022014903263666
499.0, 0.0005323271368662416
500.0, 0.00039671466717327794
501.0, 0.0005117269395155995
502.0, 0.0006218274304193915
503.0, 0.0006209371538821762
504.0, 0.0004432574072938717
505.0, 0.00041249862362185215
506.0, 0.0006222787222485354
507.0, 0.0007108245813907556
508.0, 0.000638508140656012
509.0, 0.0007700950200617336
510.0, 0.0010234142496071013
511.0, 0.0006925669797131707
512.0, 0.0006155236066819052
513.0, 0.0007059821742159726
514.0, 0.0006482822599973916
515.0, 0.0005921773490803902
516.0, 0.0002265839816489538
517.0, 0.00024679452412933715
518.0, 0.0002479147712856091
519.0, 0.00024435538146544276
520.0, 0.00032426402895980704
521.0, 0.0001506130220334927
522.0, 0.00016300248710263414
523.0, 9.00023580093164e-05
524.0, 0.00034696167705276483
525.0, 0.0005140560706123543
526.0, 0.00048103675646841363
527.0, 0.0004137346771968592
528.0, 0.0004334674832077247
529.0, 0.0003393932205626287
530.0, 0.00035341616916842857
531.0, 0.00048510111182423205
532.0, 0.00036015503543205244
533.0, 4.588356870806911e-05
534.0, 0.00016232696319068847
535.0, 0.00031317954966787146
536.0, 0.00029986790958838816
537.0, 0.00022017265708556953
538.0, 7.634835261432676e-05
539.0, 7.275276333999446e-05
540.0, 0.00036000185233775906
541.0, 0.0006146580460248184
542.0, 0.0004989994852840898
543.0, 0.00012406073748633898
544.0, 0.00032187635513519005
545.0, 0.00039348458209764124
546.0, 0.0003657421320634607
547.0, 0.00037043387194726356
548.0, 0.0003511529697126262
549.0, 0.0002709480118495838
550.0, 0.0005249346099622051
551.0, 0.0004972377735150659
552.0, 0.00046166114240163203
553.0, 0.0005694350024856547
554.0, 0.0006968986709436173
555.0, 0.0005476260002724268
556.0, 0.0001992159463649749
557.0, 0.0003456641784807351
558.0, 0.0003829770249978962
559.0, 0.00028961193941302437
560.0, 0.0003268681267822994
561.0, 0.000496829277939526
562.0, 0.000756485259395312
563.0, 0.00037910655607592867
564.0, 0.00041364296415467557
565.0, 0.0005975077830361415
566.0, 0.00044962915049248897
567.0, 0.00027953408788169683
568.0, 0.0006486333274730696
569.0, 0.0009334963925203612
570.0, 0.0007170138773678151
571.0, 0.0006181333314996262
572.0, 0.0007145110483692165
573.0, 0.00013336081862683183
574.0, 0.00037339839260676106
575.0, 0.00040230833948632136
576.0, 0.0005525483257697145
577.0, 0.0005748887429436392
578.0, 0.00029277606050541797
579.0, 0.00016167520382037715
580.0, 0.00023667471475872373
581.0, 0.0004963105592010238
582.0, 0.0003665295977898252
583.0, 0.00019424971668820858
584.0, 0.0002580029753327844
585.0, 0.00011013762999952657
586.0, 0.0003755504448148898
587.0, 0.0002249126789350606
588.0, 0.00024670592409943717
589.0, 0.0003958471110844054
590.0, 0.0003714041432203335
591.0, 0.0001848798764288408
592.0, 0.00015663405742767175
593.0, 0.00015312652601681437
594.0, 0.0003675888431199548
595.0, 0.00031444120195773205
596.0, 0.0002552770463957279
597.0, 0.00037566985865550024
598.0, 0.00019816147799449484
599.0, 9.078652038554186e-05
600.0, 0.00012834945871199852
601.0, 0.00028375170929071
602.0, 0.00011798178320907857
603.0, 1.3227704983425994e-05
604.0, 2.2244530301841406e-05
605.0, 1.6303902282784698e-05
606.0, 8.425461106177309e-05
607.0, 7.552397926484408e-05
608.0, 5.584815652503373e-05
609.0, 0.00017095266648873187
610.0, 1.5015979719829789e-05
611.0, 0.00019927691159836322
612.0, 0.00027500731208734036
613.0, 0.00022739174651752116
614.0, 0.00013866181631829206
615.0, 8.068660690737156e-05
616.0, 0.00016563223319102912
617.0, 0.0001503822156523005
618.0, 0.00021320940559283632
619.0, 3.2245159829504e-05
620.0, 8.254306534439008e-05
621.0, 0.00022367031819722582
622.0, 0.00021431884522439738
623.0, 0.00012303193455342326
624.0, 0.00035144670890096847
625.0, 0.00021571081699002466
626.0, 6.910236374557284e-05
627.0, 0.00020900362081623875
628.0, 9.034990101007589e-05
629.0, 3.526800153922915e-05
630.0, 0.00018858166130651527
631.0, 0.0002317954663767123
632.0, 0.00014647749696632947
633.0, 0.0002656180641834354
634.0, 0.0005494893342523708
635.0, 0.0002824137669209118
636.0, 0.0004258936987692964
637.0, 0.00045809816411352853
638.0, 0.00039797442088592485
639.0, 0.00017863183086272574
640.0, 0.00016034967830660344
641.0, 0.0006156774467795809
642.0, 0.00021102684057372261
643.0, 0.00012215116892106434
644.0, 0.000306220761568893
645.0, 0.0003281918718461464
646.0, 0.00013534234222857742
647.0, 0.00045793027264203075
648.0, 0.000294515673812849
649.0, 0.000469970622579304
650.0, 0.00045424589965894206
651.0, 0.00047138724124291283
652.0, 0.0004924456165250676
653.0, 0.0004220942163488132
654.0, 0.00035457011160230977
655.0, 0.0002713390081341817
656.0, 0.0001585243867827263
657.0, 0.00013564358688854743
658.0, 0.00031972497509034784
659.0, 0.0004338336787609775
660.0, 0.000325851799094145
661.0, 0.00033356180650636675
662.0, 0.0003849414070199796
663.0, 0.00041138883457435797
664.0, 0.00035461700748278945
665.0, 0.00036729374413839737
666.0, 0.0004238687950322955
667.0, 0.0004001062140285852
668.0, 0.0006457210005740183
669.0, 0.0001765695695850236
670.0, 0.00038382098947245123
671.0, 0.0005470407164729782
672.0, 0.00043123099326011267
673.0, 0.0005877153040943588
674.0, 0.0006974657659227011
675.0, 0.00044994427505554515
676.0, 0.0006686423954619036
677.0, 0.0007226794985159299
678.0, 0.0004669639991761556
679.0, 0.0002774778085253629
680.0, 0.00038380865969853145
681.0, 0.00044535566337901544
682.0, 0.0007303130078168748
683.0, 0.0005155806162507855
684.0, 0.0006248738507012441
685.0, 0.0006512001918257969
686.0, 0.00037653677075472845
687.0, 0.0005343136440376559
688.0, 0.0003502302451178098
689.0, 0.00031720986779755684
690.0, 0.0006516109489037574
691.0, 0.0009685215419967291
692.0, 0.001063852573222939
693.0, 0.0009735208896647921
694.0, 0.0008200088385774402
695.0, 0.000855821927465869
696.0, 0.0008071964117525146
697.0, 0.0011289675399258486
698.0, 0.0014831335057685884
699.0, 0.001931144624125828
700.0, 0.002550329719954064
701.0, 0.0029152522275825753
702.0, 0.004259974611310876
703.0, 0.006190177865357192
704.0, 0.008835285719307803
705.0, 0.009588665806180797
706.0, 0.007557545149499622
707.0, 0.004571731361969744
708.0, 0.0024772037644553895
709.0, 0.00158747928944903
710.0, 0.0014119107280515595
711.0, 0.0010951295315863162
712.0, 0.0006365656070701095
713.0, 0.0006235477092993277
714.0, 0.0008803358047146427
715.0, 0.00051715764892071
716.0, 0.0009040759869375326
717.0, 0.0008380296799096905
718.0, 0.0008139012126219579
719.0, 0.0008279945466940231
720.0, 0.0007602065849323026
721.0, 0.0006027126015855197
722.0, 0.00038847174474130794
723.0, 0.0005440730068977756
724.0, 0.0005391254916457928
725.0, 0.0005956501970493873
726.0, 0.00040333120042249223
727.0, 0.0001784055969089856
728.0, 0.00023280318843224503
729.0, 0.00023393289921375414
730.0, 0.00032855121204996093
731.0, 0.0006713917373742517
732.0, 0.0007033843011776897
733.0, 0.00036927448151147354
734.0, 0.0002428821080098622
735.0, 0.0005040719552957317
736.0, 0.0004101217463676988
737.0, 0.0001302018392495563
738.0, 0.00017103049004736057
739.0, 5.91385968259491e-05
740.0, 4.715195766588763e-05
741.0, 6.550944839724968e-05
742.0, 0.00010456815556036286
743.0, 0.00018981468872183494
744.0, 8.990497322312707e-05
745.0, 5.383811962215678e-05
746.0, 0.00018878471872170856
747.0, 0.00025694098364043943
748.0, 0.0001222386151016501
749.0, 0.0002492037230613904
750.0, 6.645039187996102e-05
751.0, 0.00019404520644728313
752.0, 6.50737011963055e-05
753.0, 1.6853860579221494e-05
754.0, 9.78954080188152e-06
755.0, 7.59401163192967e-05
756.0, 0.00012676065036032857
757.0, 3.605910895670006e-05
758.0, 0.00012541846743154822
759.0, 0.000430676179311728
760.0, 0.00015881252739707456
761.0, 1.9182470120845946e-05
762.0, 2.920782072324082e-05
763.0, 0.00014461772715988858
764.0, 0.0002618253905861734
765.0, 0.0004510336002427956
766.0, 0.0007582642502032628
767.0, 0.0006748326813042816
768.0, 0.0007273938089473748
769.0, 0.0013151987342361548
770.0, 0.0021965788070035437
771.0, 0.003188641166840111
772.0, 0.00425306023276302
773.0, 0.00510829447675454
774.0, 0.005777487700870028
775.0, 0.007312372358508188
776.0, 0.009885525140926317
777.0, 0.013816686074246402
778.0, 0.02021726037006603
779.0, 0.02889346954928453
780.0, 0.03892383049146419
781.0, 0.051567111524696056
782.0, 0.07261940064120884
783.0, 0.11941901544825076
784.0, 0.17895094087824373
785.0, 0.17551005828270713
786.0, 0.10918606647759894
787.0, 0.050459876695881895
788.0, 0.026780517039405285
789.0, 0.01894645421717546
790.0, 0.01538502350953946
791.0, 0.013362395951428619
792.0, 0.012510935672417406
793.0, 0.011596576862679318
794.0, 0.010634656712491534
795.0, 0.01036314108643788
796.0, 0.010245081006595371
797.0, 0.00989144225699665
798.0, 0.00915392066350799
799.0, 0.0080265943418395
800.0, 0.00707151154479842
801.0, 0.006264069794712653
802.0, 0.0056530839518876925
803.0, 0.005473813229614424
804.0, 0.005151308834414812
805.0, 0.004875503663604831
806.0, 0.004735563212254256
807.0, 0.004223904486431968
808.0, 0.003622924871537316
809.0, 0.0026817742259555855
810.0, 0.0015625605412308563
811.0, 0.0011136173363827768
812.0, 0.0009258735706840815
813.0, 0.00019670596404215926
814.0, 0.00016455161209084015
815.0, 9.550393368762851e-05
816.0, 0.0001002571032410808
817.0, 0.00011713169432011151
818.0, 4.992278130609136e-05
819.0, 4.737586614856815e-05
820.0, 0.00024468365360619937
821.0, 0.00037874129873029797
822.0, 0.0003167489464889385
823.0, 0.00032069906494019355
824.0, 0.0005201504802063927
825.0, 0.00044238294746255075
826.0, 0.0002351347023504085
827.0, 0.00036462654992798434
828.0, 0.00045200812747680613
829.0, 0.0003055493491025452
830.0, 0.00015971031897449157
831.0, 0.0003048174652291241
832.0, 0.0002563187309521002
833.0, 0.0001708022259768835
834.0, 0.00020357799917096987
835.0, 0.00020772073115342068
836.0, 0.0003950950689146994
837.0, 0.00015876777932492903
838.0, 8.325282444468171e-05
839.0, 0.00017805787095659834
840.0, 0.00013222890776682267
841.0, 0.0004012312830843085
842.0, 0.0002382143324945425
843.0, 0.00011540959122370144
844.0, 0.00011666931683807119
845.0, 0.00010421412235774784
846.0, 0.0002487472573822533
847.0, 4.5096224340776685e-05
848.0, 0.0003528336508954235
849.0, 0.0003046016195314948
850.0, 0.0004420686950920218
851.0, 0.0009424311023001124
852.0, 0.0012877246078365995
853.0, 0.0018927976648502511
854.0, 0.0031421882812662488
855.0, 0.003352087979522704
856.0, 0.002518817693287375
857.0, 0.0013169206744953563
858.0, 0.0007078718373058034
859.0, 0.0007739493959073463
860.0, 0.0009784046533534193
861.0, 0.0012394804351827827
862.0, 0.0012491502670873794
863.0, 0.0011810379062055765
864.0, 0.001465899077082033
865.0, 0.0014936897167960785
866.0, 0.001399961575853832
867.0, 0.0017822544159179614
868.0, 0.0025041036683224006
869.0, 0.0030348610257697533
870.0, 0.003663169269930932
871.0, 0.004285117854418543
872.0, 0.0052807178810933735
873.0, 0.006925359824810377
874.0, 0.009423097666002805
875.0, 0.012788483020121501
876.0, 0.016524738948958628
877.0, 0.021221121128360772
878.0, 0.028956573888307673
879.0, 0.041878924744755054
880.0, 0.06155957487988593
881.0, 0.09021338509963786
882.0, 0.1314569658140081
883.0, 0.1960662134264568
884.0, 0.3152958791191661
885.0, 0.5857040679933769
886.0, 0.9096061130761997
887.0, 0.9511118107409928
888.0, 0.5199604958674591
889.0, 0.1933718406671603
890.0, 0.0742663980851078
891.0, 0.036611772328880486
892.0, 0.02209943762683595
893.0, 0.014476986082014373
894.0, 0.009933854487360528
895.0, 0.007584196845440707
896.0, 0.0061366498744960815
897.0, 0.004558259119623782
898.0, 0.003530006415788581
899.0, 0.0027541882770066826
900.0, 0.0023179726841679074
901.0, 0.002185509189367123
902.0, 0.0018408055537478948
903.0, 0.0011959837863869695
904.0, 0.0008786922133417731
905.0, 0.001344777084879986
906.0, 0.0010210401439397796
907.0, 0.0007778408219898736
908.0, 0.0005772063935506451
909.0, 0.0004949420826589751
910.0, 0.0004385908711934702
911.0, 0.000621921193463996
912.0, 0.0005718046000090551
913.0, 0.0002500346201337921
914.0, 0.0001793220861549168
915.0, 0.00010253241332393396
916.0, 4.083096440957857e-05
917.0, 0.00012481359580625252
918.0, 0.00023502897550578634
919.0, 0.0002472875761862074
920.0, 0.0002955082340283769
921.0, 0.00028905495522623764
922.0, 0.00011515575976888458
923.0, 0.0001847742839435116
924.0, 0.0001221999855126612
925.0, 5.5269438979516415e-05
926.0, 0.00021372994515181943
927.0, 0.00015787858744803555
928.0, 0.00014205392342636278
929.0, 0.00010815536078823118
930.0, 0.00011247856548371627
931.0, 8.04383094983505e-05
932.0, 4.6701345846067996e-05
933.0, 0.0002552190591635003
934.0, 0.000191097483537109
935.0, 0.0002057112575287891
936.0, 8.903581591707715e-05
937.0, 0.00015628755144642386
938.0, 0.000308054830603666
939.0, 0.0003713473677975374
940.0, 0.0003695522638201154
941.0, 0.0004291899286550334
942.0, 0.000533326706917302
943.0, 0.00046761565560084315
944.0, 0.00030488078948274344
945.0, 0.00037495582996555576
946.0, 0.0005390978238458771
947.0, 0.000594508628881239
948.0, 0.00046967098158050876
949.0, 0.0005602214626910587
950.0, 0.0004707614894604176
951.0, 0.0002792141242065342
952.0, 0.0003594108555039352
953.0, 0.0006165099701569443
954.0, 0.0009447812784061837
955.0, 0.0006637279748634869
956.0, 0.0008939812042235767
957.0, 0.0008665048168145272
958.0, 0.0007616534281270531
959.0, 0.0006990198008178566
960.0, 0.0008240034238496276
961.0, 0.0011352014468494816
962.0, 0.0014498216607195316
963.0, 0.0016661773037117953
964.0, 0.0017884850461673545
965.0, 0.0019111274945004704
966.0, 0.0013895865566273698
967.0, 0.0014196866912914888
968.0, 0.0014460355537459766
969.0, 0.0014497230129204373
970.0, 0.0014423580742104361
971.0, 0.0013409140914523176
972.0, 0.0011952399349740225
973.0, 0.0009110765739112271
974.0, 0.0005018055378847937
975.0, 0.0008028412451897631
976.0, 0.0008493938013785964
977.0, 0.0006177860474063176
978.0, 0.0001520511148404389
979.0, 0.00030529990928366717
980.0, 0.0008109233298718564
981.0, 0.0009438318137666911
982.0, 0.0008456260253061939
983.0, 0.0006989826972818698
984.0, 0.00042673555671528013
985.0, 0.0004566983632941857
986.0, 0.00024632054130197765
987.0, 0.00028625451193347424
988.0, 0.0003035447232915938
989.0, 0.0003192105801135071
990.0, 0.0002646955663936499
991.0, 0.00016289005782784476
992.0, 0.00015675415278371642
993.0, 4.3956544111183915e-05
994.0, 0.0001340809309415645
995.0, 0.0003978472817250683
996.0, 4.4687910694452996e-05
997.0, 0.00035311850762072554
998.0, 0.0003352167369408877
999.0, 0.00017144147063708907
1000.0, 0.00012354372558993391
1001.0, 0.00026574538117592607
1002.0, 0.0003394677734300335
1003.0, 0.00025444756783362516
1004.0, 0.0002643646662634796
1005.0, 0.00020002616011027596
1006.0, 0.00011176260408334763
1007.0, 0.00020037011460010502
1008.0, 2.075760750480516e-05
1009.0, 4.510141025861952e-05
1010.0, 0.00040605068855954443
1011.0, 6.352786241487015e-05
1012.0, 5.480313562890521e-05
1013.0, 0.00024082692516936451
1014.0, 0.0004433424548466374
1015.0, 0.000365472084412126
1016.0, 0.00022992330473702597
1017.0, 0.00043175310551084637
1018.0, 0.00010114259154639324
1019.0, 0.00016201392706890441
1020.0, 0.00031465017573321875
1021.0, 0.00022387074851638964
1022.0, 0.00029328001066620136
1023.0, 0.0004519559859421219
1024.0, 0.0005078882014849265
1025.0, 0.0004973517215463994
1026.0, 0.000278391600075728
1027.0, 0.00017974916414793406
1028.0, 0.000497031339431998
1029.0, 0.00037586913816122137
1030.0, 0.0004047242235854128
1031.0, 0.0004029921307276601
1032.0, 0.0005963609109369089
1033.0, 0.0004558988743531158
1034.0, 0.000433995455734298
1035.0, 0.0003308850182344755
1036.0, 0.0004317311929361896
1037.0, 0.000469779199948422
1038.0, 0.000260465962192409
1039.0, 0.00024103168921489078
1040.0, 0.00037430939728115006
1041.0, 7.666226301698306e-05
1042.0, 4.5061548172072426e-05
1043.0, 0.0002534347547457883
1044.0, 0.00028060527040605704
1045.0, 0.00028721216779700563
1046.0, 0.0004010368974586938
1047.0, 0.0005308789490001267
1048.0, 0.0006049096634824758
1049.0, 0.00023329502059245584
1050.0, 0.00022822336239977035
1051.0, 0.000369128161540355
1052.0, 5.7573342769600436e-05
1053.0, 0.00012232013085616936
1054.0, 0.00010739470425216465
1055.0, 0.00014343189775681723
1056.0, 0.00010592168693122217
1057.0, 0.000297491292934483
1058.0, 0.0004864319964474948
1059.0, 0.00043315423643742454
1060.0, 0.000276991734656083
1061.0, 0.00036140383641854916
1062.0, 0.00018807042702588306
1063.0, 0.00011361826247155906
1064.0, 0.0006899230326661114
1065.0, 0.0008910897004476776
1066.0, 0.00015430095221997118
1067.0, 4.3610787546121644e-05
1068.0, 0.0002589255345176926
1069.0, 0.0001438137383262172
1070.0, 7.6643663290694e-05
1071.0, 2.4639569165009732e-05
1072.0, 1.0426435676825659e-05
1073.0, 0.00012316365213955937
1074.0, 0.00011051953208854333
1075.0, 6.719761436387748e-05
1076.0, 7.238358341855174e-05
1077.0, 0.000287141179656529
1078.0, 0.00028003417353098604
1079.0, 0.00021669560278145302
1080.0, 0.00013165199855655295
1081.0, 0.00035087830879167647
1082.0, 2.5739459161711415e-05
1083.0, 5.618176958077829e-05
1084.0, 3.331091097443327e-05
1085.0, 9.219167654500392e-05
1086.0, 9.31945993895294e-05
1087.0, 0.000342474710194838
1088.0, 0.0006895180853658428
1089.0, 0.0006886206849696119
1090.0, 0.0005063919751985262
1091.0, 0.0006643725458767203
1092.0, 0.0008539279636546044
1093.0, 0.0011591889683697368
1094.0, 0.0007808193273690603
1095.0, 0.0005942000915829723
1096.0, 0.0005148755622223217
1097.0, 0.0005084442394714281
1098.0, 0.0004785689511782883
1099.0, 0.0006915473712670701
1100.0, 0.0007013414538061458
1101.0, 0.0010061416603243192
1102.0, 0.0010981716912320798
1103.0, 0.0011777164815537288
1104.0, 0.0014857874901739838
1105.0, 0.0017612079294285436
1106.0, 0.002536014539288977
1107.0, 0.0037632906481169784
1108.0, 0.0051841449755313405
1109.0, 0.0070044975656818696
1110.0, 0.009855335374033375
1111.0, 0.014084363594973861
1112.0, 0.02179840191912039
1113.0, 0.03280988720020645
1114.0, 0.04774049148054254
1115.0, 0.07154584822155874
1116.0, 0.11305169289451274
1117.0, 0.15669313619207295
1118.0, 0.15529404291208762
1119.0, 0.10288271889632515
1120.0, 0.047900893997564184
1121.0, 0.02093262766333702
1122.0, 0.010514367574595765
1123.0, 0.006148583611873997
1124.0, 0.003867490598874784
1125.0, 0.0024651151299224937
1126.0, 0.001990381829492458
1127.0, 0.0014027882479677749
1128.0, 0.00112998431134854
1129.0, 0.0010399810262189412
1130.0, 0.0010236732116472923
1131.0, 0.0005466638662531909
1132.0, 0.00048255504955391497
1133.0, 0.000716328875763802
1134.0, 0.0004025794305497449
1135.0, 0.00021253163914486625
1136.0, 0.00024331365232285854
1137.0, 0.000297307847791703
1138.0, 0.00019255436354027666
1139.0, 8.477873145086196e-05
1140.0, 0.0002284948257693491
1141.0, 0.00026936270210193463
1142.0, 0.0001963638964835175
1143.0, 5.199162785545103e-05
1144.0, 0.00020675854832947254
1145.0, 3.78997141155902e-05
1146.0, 0.00016309126298051703
1147.0, 0.0003175859288989043
1148.0, 0.0003033342265798702
1149.0, 0.0001291817328144417
1150.0, 6.837351353370103e-05
1151.0, 0.00015164540854285333
1152.0, 0.00020260649602985885
1153.0, 0.0003109058314037783
1154.0, 0.00033942743463432354
1155.0, 0.00041679591851874394
1156.0, 7.867792994388761e-05
1157.0, 0.00011401375205300033
1158.0, 0.00025812271782125145
1159.0, 0.00034854939075148767
1160.0, 0.0004023494534376873
1161.0, 0.00048238745609591
1162.0, 0.0006555621191637513
1163.0, 0.0006773671983981244
1164.0, 0.0005808369191644211
1165.0, 0.0005664693247235829
1166.0, 0.0007488566018563018
1167.0, 0.0008160787519399573
1168.0, 0.0008472495093015879
1169.0, 0.0011814495171038472
1170.0, 0.0008357914825847556
1171.0, 0.0007181870434255202
1172.0, 0.0005986703816110578
1173.0, 0.0008451380581772505
1174.0, 0.0010740585250411834
1175.0, 0.000994084825561826
1176.0, 0.0008312435571438629
1177.0, 0.0010792773070660497
1178.0, 0.0011483850420842196
1179.0, 0.001009266788322689
1180.0, 0.0010103403321805532
1181.0, 0.0010830064007348369
1182.0, 0.0009419219961190573
1183.0, 0.0008955601329968028
1184.0, 0.0008764653803887526
1185.0, 0.0006548039817352614
1186.0, 0.0007756764874462513
1187.0, 0.0011089617505745672
1188.0, 0.0008836125298395944
1189.0, 0.0009170529764454728
1190.0, 0.0008872279358633939
1191.0, 0.001025976745144636
1192.0, 0.0009413590747238249
1193.0, 0.0007107209173013616
1194.0, 0.0007470356421262251
1195.0, 0.0008777498374465562
1196.0, 0.00065036000128422
1197.0, 0.0007684340121206061
1198.0, 0.0008396051767678795
1199.0, 0.000598659518911925
1200.0, 0.0006245359007569292
1201.0, 0.0006608890936526254
1202.0, 0.0005976856527586623
1203.0, 0.0006702538336662765
1204.0, 0.0005081839586733704
1205.0, 0.00045932136533797363
1206.0, 0.0007704146405938127
1207.0, 0.0005709799283806521
1208.0, 0.0004207379199613507
1209.0, 0.0003615924632860581
1210.0, 0.00037020353904952696
1211.0, 0.00041079923210925634
1212.0, 0.0001647933649770375
1213.0, 0.00021225604977569636
1214.0, 0.00034082000080836513
1215.0, 0.0003877425241111702
1216.0, 7.843720899535844e-05
1217.0, 2.6809313049412524e-05
1218.0, 0.00010185664990214761
1219.0, 0.00017810242655068436
1220.0, 0.00015870750374141654
1221.0, 5.1245125290990136e-05
1222.0, 5.4344092277075866e-05
1223.0, 2.912352363285933e-05
1224.0, 4.064711377364188e-05
1225.0, 7.639575828605293e-05
1226.0, 2.19856756688159e-05
1227.0, 0.00018636114106340465
1228.0, 2.5502602583373228e-05
1229.0, 2.36310837606971e-05
1230.0, 0.00016246170719406432
1231.0, 0.00010868247983106003
1232.0, 9.879268222156464e-05
1233.0, 0.0003428143758032967
1234.0, 6.32555772803366e-05
1235.0, 0.00016773804095637383
1236.0, 0.0004453599636333883
1237.0, 0.00016986285126981907
1238.0, 0.00011938118801396121
1239.0, 5.694521138239658e-05
1240.0, 8.037619054557525e-05
1241.0, 0.00016307577066539185
1242.0, 0.00023064229630760576
1243.0, 0.000289612930637819
1244.0, 0.000516002818497421
1245.0, 0.0007121169476403576
1246.0, 0.0005993738531741122
1247.0, 0.00042800848881339906
1248.0, 0.000438895015552625
1249.0, 0.000489682619130117
1250.0, 0.0005702112615287292
1251.0, 0.0004887114388033509
1252.0, 0.00042301949853294963
1253.0, 0.000797436706808707
1254.0, 0.0004574460031358798
1255.0, 0.0004534897922485258
1256.0, 0.0007373607572378141
1257.0, 0.0006716807270415171
1258.0, 0.000814648033045612
1259.0, 0.0007955794934971543
1260.0, 0.0007190228476418828
1261.0, 0.000761535838928021
1262.0, 0.0007507658858862428
1263.0, 0.00029512882280939004
1264.0, 0.0005454491837415313
1265.0, 0.0005941891824039607
1266.0, 0.0003293978562905643
1267.0, 0.0005327913778756477
1268.0, 0.0005192990319013953
1269.0, 0.00036320475862240144
1270.0, 0.00019351745922183844
1271.0, 0.0002157157429191283
1272.0, 0.0003626508834894404
1273.0, 0.0002718649864488778
1274.0, 0.0003817944084444533
1275.0, 0.00042784336160202135
1276.0, 0.0002839326973760033
1277.0, 0.0002587142615872513
1278.0, 0.00027540794899325185
1279.0, 5.474466535192044e-05
1280.0, 0.00012149696636785438
1281.0, 0.00027906379295621075
1282.0, 0.0005336229439832942
1283.0, 0.0002251897464700396
1284.0, 0.0007559470630851711
1285.0, 0.00011240819187088074
1286, 0.0
1287, 0.0
1288, 0.0
1289, 0.0
1290, 0.0
1291, 0.0
1292, 0.0
1293, 0.0
1294, 0.0
1295, 0.0
1296, 0.0
1297, 0.0
1298, 0.0
1299, 0.0
1300, 0.0
1301, 0.0
1302, 0.0
1303, 0.0
1304, 0.0
1305, 0.0
1306, 0.0
1307, 0.0
1308, 0.0
1309, 0.0
1310, 0.0
1311, 0.0
1312, 0.0
1313, 0.0
1314, 0.0
1315, 0.0
1316, 0.0
1317, 0.0
1318, 0.0
1319, 0.0
1320, 0.0
1321, 0.0
1322, 0.0
1323, 0.0
1324, 0.0
1325, 0.0
1326, 0.0
1327, 0.0
1328, 0.0
1329, 0.0
1330, 0.0
1331, 0.0
1332, 0.0
1333, 0.0
1334, 0.0
1335, 0.0
1336, 0.0
1337, 0.0
1338, 0.0
1339, 0.0
1340, 0.0
1341, 0.0
1342, 0.0
1343, 0.0
1344, 0.0
1345, 0.0
1346, 0.0
1347, 0.0
1348, 0.0
1349, 0.0
1350, 0.0
1351, 0.0
1352, 0.0
1353, 0.0
1354, 0.0
1355, 0.0
1356, 0.0
1357, 0.0
1358, 0.0
1359, 0.0
1360, 0.0
1361, 0.0
1362, 0.0
1363, 0.0
1364, 0.0
1365, 0.0
1366, 0.0
1367, 0.0
1368, 0.0
1369, 0.0
1370, 0.0
1371, 0.0
1372, 0.0
1373, 0.0
1374, 0.0
1375, 0.0
1376, 0.0
1377, 0.0
1378, 0.0
1379, 0.0
1380, 0.0
1381, 0.0
1382, 0.0
1383, 0.0
1384, 0.0
1385, 0.0
1386, 0.0
1387, 0.0
1388, 0.0
1389, 0.0
1390, 0.0
1391, 0.0
1392, 0.0
1393, 0.0
1394, 0.0
1395, 0.0
1396, 0.0
1397, 0.0
1398, 0.0
1399, 0.0
1400, 0.0
1401, 0.0
1402, 0.0
1403, 0.0
1404, 0.0
1405, 0.0
1406, 0.0
1407, 0.0
1408, 0.0
1409, 0.0
1410, 0.0
1411, 0.0
1412, 0.0
1413, 0.0
1414, 0.0
1415, 0.0
1416, 0.0
1417, 0.0
1418, 0.0
1419, 0.0
1420, 0.0
1421, 0.0
1422, 0.0
1423, 0.0
1424, 0.0
1425, 0.0
1426, 0.0
1427, 0.0
1428, 0.0
1429, 0.0
1430, 0.0
1431, 0.0
1432, 0.0
1433, 0.0
1434, 0.0
1435, 0.0
1436, 0.0
1437, 0.0
1438, 0.0
1439, 0.0
1440, 0.0
1441, 0.0
1442, 0.0
1443, 0.0
1444, 0.0
1445, 0.0
1446, 0.0
1447, 0.0
1448, 0.0
1449, 0.0
1450, 0.0
1451, 0.0
1452, 0.0
1453, 0.0
1454, 0.0
1455, 0.0
1456, 0.0
1457, 0.0
1458, 0.0
1459, 0.0
1460, 0.0
1461, 0.0
1462, 0.0
1463, 0.0
1464, 0.0
1465, 0.0
1466, 0.0
1467, 0.0
1468, 0.0
1469, 0.0
1470, 0.0
1471, 0.0
1472, 0.0
1473, 0.0
1474, 0.0
1475, 0.0
1476, 0.0
1477, 0.0
1478, 0.0
1479, 0.0
1480, 0.0
1481, 0.0
1482, 0.0
1483, 0.0
1484, 0.0
1485, 0.0
1486, 0.0
1487, 0.0
1488, 0.0
1489, 0.0
1490, 0.0
1491, 0.0
1492, 0.0
1493, 0.0
1494, 0.0
1495, 0.0
1496, 0.0
1497, 0.0
1498, 0.0
1499, 0.0
1500, 0.0
1501, 0.0
1502, 0.0
1503, 0.0
1504, 0.0
1505, 0.0
1506, 0.0
1507, 0.0
1508, 0.0
1509, 0.0
1510, 0.0
1511, 0.0
1512, 0.0
1513, 0.0
1514, 0.0
1515, 0.0
1516, 0.0
1517, 0.0
1518, 0.0
1519, 0.0
1520, 0.0
1521, 0.0
1522, 0.0
1523, 0.0
1524, 0.0
1525, 0.0
1526, 0.0
1527, 0.0
1528, 0.0
1529, 0.0
1530, 0.0
1531, 0.0
1532, 0.0
1533, 0.0
1534, 0.0
1535, 0.0
1536, 0.0
1537, 0.0
1538, 0.0
1539, 0.0
1540, 0.0
1541, 0.0
1542, 0.0
1543, 0.0
1544, 0.0
1545, 0.0
1546, 0.0
1547, 0.0
1548, 0.0
1549, 0.0
1550, 0.0
1551, 0.0
1552, 0.0
1553, 0.0
1554, 0.0
1555, 0.0
1556, 0.0
1557, 0.0
1558, 0.0
1559, 0.0
1560, 0.0
1561, 0.0
1562, 0.0
1563, 0.0
1564, 0.0
1565, 0.0
1566, 0.0
1567, 0.0
1568, 0.0
1569, 0.0
1570, 0.0
1571, 0.0
1572, 0.0
1573, 0.0
1574, 0.0
1575, 0.0
1576, 0.0
1577, 0.0
1578, 0.0
1579, 0.0
1580, 0.0
1581, 0.0
1582, 0.0
1583, 0.0
1584, 0.0
1585, 0.0
1586, 0.0
1587, 0.0
1588, 0.0
1589, 0.0
1590, 0.0
1591, 0.0
1592, 0.0
1593, 0.0
1594, 0.0
1595, 0.0
1596, 0.0
1597, 0.0
1598, 0.0
1599, 0.0
