30, 0.0
31, 0.0
32, 0.0
33, 0.0
34, 0.0
35, 0.0
36, 0.0
37, 0.0
38, 0.0
39, 0.0
40, 0.0
41, 0.0
42, 0.0
43, 0.0
44, 0.0
45, 0.0
46, 0.0
47, 0.0
48, 0.0
49, 0.0
50, 0.0
51, 0.0
52, 0.0
53, 0.0
54, 0.0
55, 0.0
56, 0.0
57, 0.0
58, 0.0
59, 0.0
60, 0.0
61, 0.0
62, 0.0
63, 0.0
64, 0.0
65, 0.0
66, 0.0
67, 0.0
68, 0.0
69, 0.0
70, 0.0
71, 0.0
72, 0.0
73, 0.0
74, 0.0
75, 0.0
76, 0.0
77, 0.0
78, 0.0
79, 0.0
80, 0.0
81, 0.0
82, 0.0
83, 0.0
84, 0.0
85, 0.0
86, 0.0
87, 0.0
88, 0.0
89, 0.0
90, 0.0
91, 0.0
92, 0.0
93, 0.0
94, 0.0
95, 0.0
96, 0.0
97, 0.0
98, 0.0
99, 0.0
100, 0.0
101, 0.0
102, 0.0
103, 0.0
104, 0.0
105, 0.0
106, 0.0
107, 0.0
108, 0.0
109, 0.0
110, 0.0
111, 0.0
112, 0.0
113, 0.0
114, 0.0
115, 0.0
116, 0.0
117, 0.0
118, 0.0
119, 0.0
120, 0.0
121, 0.0
122, 0.0
123, 0.0
124, 0.0
125, 0.0
126, 0.0
127, 0.0
128, 0.0
129, 0.0
130, 0.0
131, 0.0
132, 0.0
133, 0.0
134, 0.0
135, 0.0
136, 0.0
137, 0.0
138, 0.0
139, 0.0
140, 0.0
141, 0.0
142, 0.0
143, 0.0
144, 0.0
145, 0.0
146, 0.0
147, 0.0
148, 0.0
149, 0.0
150, 0.0
151, 0.0
152, 0.0
153, 0.0
154, 0.0
155, 0.0
156, 0.0
157, 0.0
158, 0.0
159, 0.0
160, 0.0
161, 0.0
162, 0.0
163, 0.0
164.0, 0.00013281699099596076
165.0, 0.0017798831767464158
166.0, 0.0016803669453230412
167.0, 0.00018421959794407832
168.0, 0.002271230350384157
169.0, 0.0033693361581178622
170.0, 0.004085276000897751
171.0, 0.006690404311863348
172.0, 0.010095988516915483
173.0, 0.011885994662428057
174.0, 0.0121572915428633
175.0, 0.009855933493646565
176.0, 0.004284966081200086
177.0, 0.0048273020969510525
178.0, 0.003158499313184831
179.0, 0.002367244426794627
180.0, 0.005654767999090132
181.0, 0.0021332312071894437
182.0, 0.0010832179341394156
183.0, 0.0027230918873253937
184.0, 0.004525144024651637
185.0, 0.003930981841942899
186.0, 0.005667820516692334
187.0, 0.00444038303417435
188.0, 0.0007272972446559717
189.0, 0.0025876485203578958
190.0, 0.003623560649994429
191.0, 0.0030903181782527
192.0, 0.002533345743302934
193.0, 0.003016990428766134
194.0, 0.001500631774824566
195.0, 0.002783043536968467
196.0, 0.004368870210749386
197.0, 0.005238299735485101
198.0, 0.002940826480802781
199.0, 0.002268848919293672
200.0, 0.002253544050852539
201.0, 0.0023037671557699776
202.0, 0.0025276481802623016
203.0, 0.002491751077915373
204.0, 0.0012189493129611182
205.0, 0.0013637112899154995
206.0, 0.0033855905841278866
207.0, 0.002408294736567439
208.0, 0.0013863484999262824
209.0, 0.0004930949359912296
210.0, 0.0003611035470223483
211.0, 0.0017819680507554455
212.0, 0.003440126672839676
213.0, 0.0024724775643596626
214.0, 0.0014939563419404296
215.0, 0.002030925611248016
216.0, 0.00014981350594047647
217.0, 0.0008707548398898606
218.0, 0.002933727228444451
219.0, 0.003534324985326084
220.0, 0.0013966709392073172
221.0, 0.0019055112059987382
222.0, 0.001971109213143966
223.0, 0.0031677060870227425
224.0, 0.004752372950550857
225.0, 0.0008268137166845314
226.0, 0.0002446812448144201
227.0, 0.003680597550724467
228.0, 0.004840192767439536
229.0, 0.002261949702241131
230.0, 0.0025679574286163447
231.0, 0.0004018108089010185
232.0, 0.0025682072393385692
233.0, 0.0023081253854150066
234.0, 0.0008365015035972464
235.0, 0.0015384239503428048
236.0, 0.002357083550248116
237.0, 0.0021344191133644418
238.0, 0.0016064303220147541
239.0, 0.00435652370899152
240.0, 0.005038906356800918
241.0, 0.0037017913063938624
242.0, 0.0023096997372235735
243.0, 0.004218544505657207
244.0, 0.002406859215727136
245.0, 0.00023306504804088094
246.0, 0.0008088124067610878
247.0, 0.0022911339415096913
248.0, 0.0007732645159143358
249.0, 0.0029910279476693643
250.0, 0.0048603803903818285
251.0, 0.003070601986727377
252.0, 0.0027589969435364912
253.0, 0.003962479965411152
254.0, 0.0029387646702491044
255.0, 0.00017627037609699748
256.0, 0.0012639767144170264
257.0, 0.000673172976775284
258.0, 0.001539016668036559
259.0, 0.0012862710435296988
260.0, 0.0009589710436547121
261.0, 0.0009884676817218815
262.0, 0.00023140454129247476
263.0, 0.0002355169848181005
264.0, 0.0014004653987574076
265.0, 0.004349633043485032
266.0, 0.0006789591888944855
267.0, 0.0007964308841443956
268.0, 0.0016877815186520611
269.0, 0.0026857253480630262
270.0, 0.0013985992665228122
271.0, 0.0002094931903989636
272.0, 0.0025452237179843357
273.0, 0.004325026841524391
274.0, 0.004513948581104311
275.0, 0.007723917213828706
276.0, 0.008815008801189414
277.0, 0.008923706880832178
278.0, 0.010930911617824285
279.0, 0.01510902714142768
280.0, 0.017869053065699005
281.0, 0.022895941933881614
282.0, 0.027940857639412117
283.0, 0.034524792567402963
284.0, 0.04581994734786652
285.0, 0.05842842012896128
286.0, 0.07183928852089023
287.0, 0.0845087601300874
288.0, 0.09508827507457092
289.0, 0.10185158826511098
290.0, 0.10017639449710837
291.0, 0.08978020802877594
292.0, 0.07486953291079948
293.0, 0.05982641093788281
294.0, 0.0464926652719416
295.0, 0.037253259290178024
296.0, 0.03235098034743173
297.0, 0.028098301858462058
298.0, 0.021514891897560957
299.0, 0.015405757885378703
300.0, 0.013547552370878001
301.0, 0.014577017392686705
302.0, 0.014883857216913897
303.0, 0.012363908588127014
304.0, 0.011526754804250777
305.0, 0.013591212620082692
306.0, 0.015454560655778275
307.0, 0.015670408946526607
308.0, 0.015832149231547365
309.0, 0.021890337168661834
310.0, 0.02520280458022971
311.0, 0.027609227183316164
312.0, 0.032463398517545525
313.0, 0.03855060350467303
314.0, 0.04487472337549278
315.0, 0.0500619061515791
316.0, 0.056491329144265565
317.0, 0.06596451861401534
318.0, 0.07340578262365065
319.0, 0.07612426587107099
320.0, 0.07408012780616635
321.0, 0.07182080222896528
322.0, 0.07009987505595763
323.0, 0.055930077593209546
324.0, 0.047644546747946964
325.0, 0.0391230303110163
326.0, 0.030048469199510836
327.0, 0.02615630537436076
328.0, 0.021817225799367294
329.0, 0.017279698693494213
330.0, 0.01443454496957485
331.0, 0.01325983436575379
332.0, 0.01208316583255042
333.0, 0.010153866348436302
334.0, 0.009837163025833673
335.0, 0.009029877681364531
336.0, 0.007821431036473174
337.0, 0.010137000822207832
338.0, 0.009079580936236547
339.0, 0.008230313051829254
340.0, 0.00828925397604856
341.0, 0.009014079804782594
342.0, 0.01019461530919186
343.0, 0.00812981845514137
344.0, 0.008027892798363266
345.0, 0.010584732049968758
346.0, 0.013325267231555726
347.0, 0.014376396342027356
348.0, 0.013655603637858324
349.0, 0.016649172763279558
350.0, 0.01948962557420535
351.0, 0.018439609644862173
352.0, 0.021208613488866584
353.0, 0.023695590535817507
354.0, 0.026480413106210715
355.0, 0.030533086188135113
356.0, 0.03539377015454148
357.0, 0.03971007338013805
358.0, 0.044412221416733316
359.0, 0.051804078990469474
360.0, 0.06205772109687156
361.0, 0.07277791805823747
362.0, 0.08122638183578078
363.0, 0.09098391919255006
364.0, 0.10349688603535716
365.0, 0.11301506630362368
366.0, 0.1176451621093453
367.0, 0.12806958438938956
368.0, 0.13501586103189203
369.0, 0.14011063443347055
370.0, 0.14603935645467409
371.0, 0.15109430096393683
372.0, 0.14827126785181316
373.0, 0.14368029044883132
374.0, 0.13916829277878873
375.0, 0.13227111423703766
376.0, 0.1203019369046244
377.0, 0.1034839937041123
378.0, 0.08672862864571913
379.0, 0.07540630482457444
380.0, 0.06534272289738742
381.0, 0.0504938327814869
382.0, 0.04271922613961821
383.0, 0.03531649087730835
384.0, 0.03030452014012974
385.0, 0.026090196206767318
386.0, 0.02057027009602592
387.0, 0.018231920607297815
388.0, 0.014981813533528187
389.0, 0.01335554322877709
390.0, 0.012599697091807896
391.0, 0.011232465515591658
392.0, 0.010591232143056694
393.0, 0.007426309513843436
394.0, 0.006267751441423723
395.0, 0.00572163010785194
396.0, 0.004290709998646347
397.0, 0.004105704496934027
398.0, 0.0037235167851156193
399.0, 0.0017981066612672665
400.0, 0.0020902421125424428
401.0, 0.003995356367359576
402.0, 0.0013963537642807374
403.0, 0.002902887811362058
404.0, 0.0028257921014588844
405.0, 0.0008030514085447765
406.0, 0.0005717892127018828
407.0, 0.0011288042131110908
408.0, 0.0003354001397134561
409.0, 0.0008346846331354863
410.0, 0.0017884775912080668
411.0, 0.0008539939232356063
412.0, 0.0015003390052413875
413.0, 0.0020608605637426987
414.0, 0.0006640478891859528
415.0, 0.0009744653321373821
416.0, 6.463245508333792e-05
417.0, 0.00042957857266704276
418.0, 0.0012223431140522096
419.0, 0.0019265588646139925
420.0, 0.0023547676100544295
421.0, 0.0014962076044351695
422.0, 0.002096238984453262
423.0, 0.0003998561557624614
424.0, 0.0009134545863968987
425.0, 0.0003820108458854284
426.0, 0.0006000908360410186
427.0, 0.0012828232397869646
428.0, 0.0005735032954911443
429.0, 0.0019800429773833986
430.0, 0.0008111032224261857
431.0, 0.00029689426867804164
432.0, 0.0014623596255433175
433.0, 0.0016749558487138968
434.0, 0.0016371702025400816
435.0, 0.002377354446392034
436.0, 0.0018547020830300739
437.0, 0.0003302459688494502
438.0, 0.00022757594780261646
439.0, 0.0011018982550908825
440.0, 0.003609647691919842
441.0, 0.005839397872016968
442.0, 0.0054190450510787965
443.0, 0.002475148265866016
444.0, 0.0016232564529494308
445.0, 0.0031080200419407403
446.0, 0.004077779729150956
447.0, 0.003788524018936661
448.0, 0.0021164559785110046
449.0, 0.00012195144669910645
450.0, 0.003447589384939348
451.0, 0.004178385140310312
452.0, 0.005040861687079381
453.0, 0.006784223398369668
454.0, 0.006819583593947661
455.0, 0.005297194100793589
456.0, 0.006609754804538816
457.0, 0.007720466533979912
458.0, 0.006920079983046675
459.0, 0.00564246331957069
460.0, 0.011095006377657937
461.0, 0.011880477053660661
462.0, 0.013594783662652486
463.0, 0.01398923568552052
464.0, 0.013465554554778
465.0, 0.017647689744178224
466.0, 0.01846414627525618
467.0, 0.018782723263930576
468.0, 0.022567407324600778
469.0, 0.02751548456202158
470.0, 0.029941591021536294
471.0, 0.033632948642904
472.0, 0.03612095897463823
473.0, 0.03667402873027983
474.0, 0.038547441107669236
475.0, 0.04251714262815537
476.0, 0.04343381015025423
477.0, 0.043340527376007416
478.0, 0.04178512287295705
479.0, 0.04055436711806444
480.0, 0.03903531738306022
481.0, 0.03529480104948567
482.0, 0.03208398944357348
483.0, 0.030284761553624313
484.0, 0.02796442202792571
485.0, 0.02495267336536718
486.0, 0.022028752170596546
487.0, 0.019015095782981807
488.0, 0.017161009632796022
489.0, 0.01582841213771978
490.0, 0.014759871814790434
491.0, 0.01383572496127114
492.0, 0.012696976279750371
493.0, 0.010297839039355366
494.0, 0.007273934540836081
495.0, 0.00888594224880447
496.0, 0.010914261367472342
497.0, 0.010261050828116255
498.0, 0.010154337211357533
499.0, 0.009420365365278625
500.0, 0.004742933556323996
501.0, 0.003286115168603125
502.0, 0.0055586052407758275
503.0, 0.006660887646628649
504.0, 0.0033126087791945833
505.0, 0.004630591715447585
506.0, 0.004411479266645006
507.0, 0.0033362674656660556
508.0, 0.004652459981131616
509.0, 0.00674662020104243
510.0, 0.002942615323633862
511.0, 0.0037400322064934655
512.0, 0.0026558527405941804
513.0, 0.0029562598295931226
514.0, 0.005298050741994762
515.0, 0.002020424173438503
516.0, 0.004205434985890511
517.0, 0.0026097785240067417
518.0, 0.0005542999962321409
519.0, 0.0004270043438049809
520.0, 0.0008068013298043785
521.0, 0.0005852263738073042
522.0, 0.002364318363455356
523.0, 0.0021115670752512813
524.0, 0.001140804819828023
525.0, 0.0009079501418584137
526.0, 0.0005462520427963086
527.0, 0.0007720687514799996
528.0, 0.001040476497033549
529.0, 0.00035576533481868273
530.0, 0.0017211788133652981
531.0, 0.003698093371515646
532.0, 0.004115899197994733
533.0, 0.00070344306400173
534.0, 0.00024827716695452625
535.0, 0.0026046517503976116
536.0, 0.0054240204200351645
537.0, 0.006104157473336309
538.0, 0.004678117597201002
539.0, 0.0019162521800489942
540.0, 0.0028123709953030325
541.0, 0.003634663751691414
542.0, 0.003925350704435156
543.0, 0.004272150565508545
544.0, 0.0004613943230154809
545.0, 0.001109377531541391
546.0, 0.002109630736353525
547.0, 0.001736028354807265
548.0, 0.001753105298628212
549.0, 0.0024175015043265704
550.0, 0.002576991916528299
551.0, 0.002455590655776436
552.0, 0.0032812099058234187
553.0, 0.003358845752361053
554.0, 0.002775195202042939
555.0, 0.004635853233708884
556.0, 0.006753345653509173
557.0, 0.00538681905527552
558.0, 0.0038842394466261855
559.0, 0.003931828148742495
560.0, 0.005181761189456488
561.0, 0.006799971031069938
562.0, 0.007913980581950154
563.0, 0.006007494279537334
564.0, 0.005507685895158244
565.0, 0.005838612096731332
566.0, 0.00531198923637064
567.0, 0.005066614870387559
568.0, 0.00800777451188653
569.0, 0.006670573317935424
570.0, 0.005415882078060305
571.0, 0.006013394102694261
572.0, 0.006424154176904158
573.0, 0.005151541958689518
574.0, 0.004590793588521047
575.0, 0.003655439210485867
576.0, 0.0056373000466442644
577.0, 0.005854230603180166
578.0, 0.003455835458482725
579.0, 0.006996982407261738
580.0, 0.0035432238397410418
581.0, 0.002628662533992584
582.0, 0.002760828376911765
583.0, 0.00304631889590532
584.0, 0.0020589454380499383
585.0, 0.0017522212043561026
586.0, 0.0014424164475104516
587.0, 0.0021455442679482227
588.0, 0.002584720018734129
589.0, 0.0006614031192691489
590.0, 0.0019667710658004016
591.0, 0.0016223628522361777
592.0, 0.001486262465697067
593.0, 0.0004977726326284746
594.0, 0.0009248105402047374
595.0, 0.0017935285688741658
596.0, 0.0011615598522530047
597.0, 0.0008261721226350958
598.0, 0.0007240387796566532
599.0, 0.00015861700667656493
600.0, 0.0003184426321570458
601.0, 0.0005314767878145983
602.0, 0.0006061719417737838
603.0, 0.0023469895646117795
604.0, 0.0030824334237531227
605.0, 0.0036729830969032596
606.0, 0.004244300324285544
607.0, 0.0032297280578414476
608.0, 0.003298775601816312
609.0, 0.006856003104616169
610.0, 0.0061190338946007115
611.0, 0.007056403936236246
612.0, 0.007146205429404341
613.0, 0.008656504295119861
614.0, 0.010409924654581185
615.0, 0.011475046835003036
616.0, 0.014688879849868405
617.0, 0.011482431857179332
618.0, 0.013069735258593392
619.0, 0.016642280128975905
620.0, 0.01741442261961661
621.0, 0.01715547900419798
622.0, 0.022142698453899396
623.0, 0.02174427106777338
624.0, 0.025589749317313483
625.0, 0.024998521444002303
626.0, 0.026290840662691318
627.0, 0.03041346823176926
628.0, 0.03192350867064511
629.0, 0.03678848178056159
630.0, 0.039055364204333844
631.0, 0.043858718428466455
632.0, 0.04648857841271144
633.0, 0.05095393213549693
634.0, 0.06049633099696971
635.0, 0.06445028381366955
636.0, 0.07185456758796144
637.0, 0.07783580359827151
638.0, 0.08531596046505337
639.0, 0.09499205005265131
640.0, 0.10568519754820964
641.0, 0.11732225997429627
642.0, 0.1316110727014902
643.0, 0.150201594958871
644.0, 0.16694781737697661
645.0, 0.18629997743319826
646.0, 0.2122710737145876
647.0, 0.24358725608203927
648.0, 0.27750609970817136
649.0, 0.31809786295978465
650.0, 0.365797504984629
651.0, 0.423298327119292
652.0, 0.4879612622329335
653.0, 0.5598213176381995
654.0, 0.6431233873951016
655.0, 0.7340721772292552
656.0, 0.8251794995171277
657.0, 0.9075318183467975
658.0, 0.9669722616051937
659.0, 0.9967691078278988
660.0, 0.9926721768330256
661.0, 0.947852216887299
662.0, 0.8686145644598788
663.0, 0.7752938367792332
664.0, 0.6766284335973729
665.0, 0.5822472865338059
666.0, 0.4976983842328302
667.0, 0.42213521886662836
668.0, 0.35913832849074917
669.0, 0.3064549426664035
670.0, 0.2620342423336715
671.0, 0.22308212247563156
672.0, 0.19057464525079068
673.0, 0.1651384556698996
674.0, 0.14359590215488155
675.0, 0.1245143344298057
676.0, 0.10876388172749096
677.0, 0.09656890935242167
678.0, 0.08331198142577251
679.0, 0.07139756523943676
680.0, 0.06768920230974303
681.0, 0.06123784963667958
682.0, 0.051402561560474264
683.0, 0.044604280566918716
684.0, 0.03983659833859531
685.0, 0.03613719144028056
686.0, 0.03279908888186534
687.0, 0.028672535551665032
688.0, 0.027842130693862335
689.0, 0.0231708805442571
690.0, 0.01974025219230745
691.0, 0.017650765107311433
692.0, 0.015020367345153848
693.0, 0.011829788185233225
694.0, 0.010737226852050004
695.0, 0.012235794843399662
696.0, 0.010788810452099286
697.0, 0.00725417157288823
698.0, 0.004925507205309782
699.0, 0.00407097636592584
700.0, 0.0038994230408456974
701.0, 0.004863133850525168
702.0, 0.00259430868876892
703.0, 0.0010905208652483749
704.0, 0.0001448920981457161
705.0, 0.0008768354513464247
706.0, 0.0006712011407063276
707.0, 0.0025655018925865784
708.0, 0.0009265730412538533
709.0, 0.0008765693943998214
710.0, 0.0004487884296129135
711.0, 0.00047343191213942233
712.0, 0.0007519085679731857
713.0, 0.0020403968478969075
714.0, 0.0010276204936802947
715.0, 0.0004553549656375562
716.0, 0.0008470972983747852
717.0, 0.00138706676973325
718.0, 0.0011509970413337506
719.0, 0.0010660407654046885
720.0, 0.0012968622919243586
721.0, 0.0013360635545011414
722.0, 0.0017908374784692308
723.0, 0.0022510205818054426
724.0, 0.0009908223735275736
725.0, 0.0005442801793168451
726.0, 0.0021216364877188715
727.0, 0.0021341057718618803
728.0, 0.0005958451745751498
729.0, 0.002900635396440532
730.0, 0.0015533285952622196
731.0, 0.003432462095588681
732.0, 0.0025860142601409138
733.0, 0.0016966410729454416
734.0, 0.0017206001684785218
735.0, 0.0011001515198972845
736.0, 0.0019037450319343873
737.0, 0.0026110794906677465
738.0, 0.0022497747767412507
739.0, 0.003677324166035676
740.0, 0.002814856683791201
741.0, 0.0013691037561810334
742.0, 0.0014338812857957505
743.0, 0.0004065741067505594
744.0, 0.0013212384161819346
745.0, 0.0026731997323364664
746.0, 0.002071479522456018
747.0, 0.0016709434791279995
748.0, 0.0010396452890085155
749.0, 0.0021871749401794027
750.0, 0.005213344713499603
751.0, 0.0027759104266188153
752.0, 0.0026636145017434228
753.0, 0.002634000721451449
754.0, 0.0012736481515556414
755.0, 0.00190538955743292
756.0, 0.0023321438297434893
757.0, 0.001434527573637568
758.0, 0.0030611896268194546
759.0, 0.0018916672839881085
760.0, 0.001553715497203543
761.0, 0.0016977898041938156
762.0, 0.0014786805541314025
763.0, 0.001101429876417059
764.0, 0.0010094891457549712
765.0, 0.0018589077253574984
766.0, 0.003596345798215484
767.0, 0.000884575112224856
768.0, 0.002896301929986673
769.0, 0.0018816791746510794
770.0, 0.0008335361065075356
771.0, 0.0009372313872236325
772.0, 0.002545646057321779
773.0, 0.0007861198410065438
774.0, 0.00038878257876219367
775.0, 0.0021553423109578864
776.0, 0.0012059491416956773
777.0, 0.0011908376965462375
778.0, 0.002810377559344543
779.0, 0.0028933324941334197
780.0, 0.0016722032342646122
781.0, 0.0028936743586512894
782.0, 0.0017785513000984584
783.0, 0.0015471150173529849
784.0, 0.0008214077326219235
785.0, 0.002016883701404494
786.0, 0.0015178969034169373
787.0, 0.0020434423045072835
788.0, 0.001173503336548449
789.0, 0.0007821494348876782
790.0, 0.0005861329959910717
791.0, 0.0026341326536987756
792.0, 0.004307134350309892
793.0, 0.0025436087685389848
794.0, 0.000251720450028514
795.0, 0.0020280155914453703
796.0, 0.005369411962643605
797.0, 0.0030381586951727583
798.0, 0.003407928609686646
799.0, 0.00491378681370687
800.0, 0.003566947769375715
801.0, 0.002418799396910165
802.0, 0.003592885577980662
803.0, 0.0029636681975011405
804.0, 0.0013030868178175213
805.0, 0.0049439076217495884
806.0, 0.005799991323649155
807.0, 0.003985745328668035
808.0, 0.0034380843164504896
809.0, 0.002720710021297652
810.0, 0.00317558295745108
811.0, 0.007801657098219008
812.0, 0.0038556260903110894
813.0, 0.0032268328160721923
814.0, 0.005480567800271506
815.0, 0.006764352956381562
816.0, 0.005057892214748022
817.0, 0.003584546536080323
818.0, 0.003934945174268267
819.0, 0.0049019511875148195
820.0, 0.006879622843006649
821.0, 0.007156334795187736
822.0, 0.007205162340516443
823.0, 0.00617357841688152
824.0, 0.0043560243892431854
825.0, 0.004730410230826315
826.0, 0.005162858559245065
827.0, 0.005462447584647077
828.0, 0.007539353344777236
829.0, 0.006518603868774591
830.0, 0.0045951455548787655
831.0, 0.006679481922645547
832.0, 0.008444836866841311
833.0, 0.007555379143192549
834.0, 0.0057700112688855365
835.0, 0.004857328323872921
836.0, 0.006566912772944568
837.0, 0.006406385894125266
838.0, 0.008292950468115168
839.0, 0.006355063457445538
840.0, 0.005435793932359894
841.0, 0.007411513495702244
842.0, 0.00847035923930427
843.0, 0.007311504470493284
844.0, 0.006927818183982467
845.0, 0.007205597179145803
846.0, 0.006277065485834832
847.0, 0.0073499713286053455
848.0, 0.0063496947993140936
849.0, 0.006189559893764925
850.0, 0.006155921832317932
851.0, 0.005871934691678618
852.0, 0.006447457352792813
853.0, 0.005394568245753785
854.0, 0.005489360903697086
855.0, 0.00504211067629068
856.0, 0.006060439768629957
857.0, 0.006445570514878322
858.0, 0.006620459688311247
859.0, 0.006455865478343229
860.0, 0.0054643627277474625
861.0, 0.0057534852792610475
862.0, 0.00444119334487215
863.0, 0.006958984167219436
864.0, 0.006160597092862134
865.0, 0.007768965712757169
866.0, 0.00839290710318358
867.0, 0.007518380875113465
868.0, 0.006459112357553971
869.0, 0.0051670264636445576
870.0, 0.005733260819890195
871.0, 0.004544337938655493
872.0, 0.0042886453151572525
873.0, 0.007019817383413784
874.0, 0.006866372230026863
875.0, 0.00778740056389523
876.0, 0.008271906338170529
877.0, 0.006108108420849302
878.0, 0.005021626912446034
879.0, 0.004839636560685209
880.0, 0.004046646888017342
881.0, 0.002893833320141571
882.0, 0.006775707213902124
883.0, 0.00469040784675182
884.0, 0.0036209493940419423
885.0, 0.005507592375075124
886.0, 0.0031588693956474375
887.0, 0.001896013612340335
888.0, 0.004973045433762373
889.0, 0.003631035663744899
890.0, 0.0028322034045255955
891.0, 0.003305995835265826
892.0, 0.00532026078562565
893.0, 0.00468618483501834
894.0, 0.0031423317141091676
895.0, 0.0032032134358628596
896.0, 0.0025083885640792294
897.0, 0.0023668639346767976
898.0, 0.0025350582532580744
899.0, 0.00330006136527705
900.0, 0.0005541213686603459
901.0, 0.0014312671769648772
902.0, 0.0004281427209444355
903.0, 0.0015047447407613766
904.0, 0.0011455254673952372
905.0, 0.0023685651143263943
906.0, 0.0010334944302959764
907.0, 4.2487409724853995e-05
908.0, 0.00031100718968400854
909.0, 0.0003281645994417776
910.0, 0.0016769497372456693
911.0, 0.0029892050588607826
912.0, 0.0016867044343604094
913.0, 0.00047859370032672866
914.0, 0.000265668336962059
915.0, 0.0011141270007626438
916.0, 0.0018106784227903184
917.0, 0.0012816939423996746
918.0, 0.0012070331714848022
919.0, 0.0013089786747379159
920.0, 0.0008693533402822521
921.0, 0.0009237505700701751
922.0, 0.0019233967800924092
923.0, 0.0024492815563111176
924.0, 0.0017630407201621385
925.0, 0.0010579273038770515
926.0, 0.0002547246846719094
927.0, 0.003186175387431827
928.0, 0.0022931052762240455
929.0, 0.0011977412034094512
930.0, 5.680211647069111e-05
931.0, 0.0008078624735789542
932.0, 0.00045280778061159197
933.0, 0.00041772826640341275
934.0, 0.0029657254355328552
935.0, 0.0034741423519400044
936.0, 0.0005025545219543015
937.0, 0.0008465463612752778
938.0, 0.0012150494244212496
939.0, 0.0011972836845927047
940.0, 0.0028829410827688586
941.0, 0.0018349703868408883
942.0, 0.00043057693743314706
943.0, 0.002510154285123507
944.0, 0.0021055062475190275
945.0, 0.0045949749043297265
946.0, 0.004177031661142417
947.0, 0.002530504733371111
948.0, 0.0005125496885461493
949.0, 0.0001659327222102843
950.0, 0.0015371670651997977
951.0, 0.002041524292597259
952.0, 0.0021773334373854773
953.0, 0.003004821245568083
954.0, 0.0026101522246660567
955.0, 0.0034183342461336576
956.0, 0.002429483090182133
957.0, 0.00019863396226058201
958.0, 0.0008765157892509864
959.0, 0.002437093962429867
960.0, 0.0027434762294542537
961.0, 0.0026539927612469275
962.0, 0.00224220458849628
963.0, 0.0012018233281364328
964.0, 0.00289983024217644
965.0, 0.001966613668942248
966.0, 0.001378980183709859
967.0, 0.0019114798742406564
968.0, 0.004089065672330859
969.0, 0.0030441572918293446
970.0, 0.0019816055062576035
971.0, 0.004191098391597555
972.0, 0.0047649893301050595
973.0, 0.003213745096562122
974.0, 0.006451875212308676
975.0, 0.007166463433683607
976.0, 0.004015794137270632
977.0, 0.005398117920946665
978.0, 0.002026991791571899
979.0, 0.0016812324779589224
980.0, 0.001813647191485866
981.0, 0.0015411193338266986
982.0, 0.0016666019279466962
983.0, 0.0009231861506214989
984.0, 0.0004083115971605572
985.0, 0.000739809200058971
986.0, 0.0042625248001841925
987.0, 0.0018469127810963274
988.0, 0.00203621907788988
989.0, 0.002571373781729453
990.0, 0.002009209491133174
991.0, 0.004051508623721803
992.0, 0.004687990482100627
993.0, 0.0032950374385697385
994.0, 0.004669499897227802
995.0, 0.004713707499944626
996.0, 0.002800019112800565
997.0, 0.0006381626251617558
998.0, 0.0025639621362168368
999.0, 0.0035791900681070156
1000.0, 0.0032044021486727302
1001.0, 0.0025572087772806097
1002.0, 0.0006014100591981375
1003.0, 0.0010164877317640317
1004.0, 0.005019691646358232
1005.0, 0.00528815924821117
1006.0, 0.0007001436339049149
1007.0, 0.0020849704707978822
1008.0, 0.002663303798323443
1009.0, 0.0008346714596829547
1010.0, 0.00044305009487679794
1011.0, 0.0009135506932624378
1012.0, 0.002177118601335135
1013.0, 0.0019375995366224719
1014.0, 0.0024832917841640426
1015.0, 0.0030971166659164275
1016.0, 0.001782823923069055
1017.0, 0.00204124153833138
1018.0, 0.0013301746903709728
1019.0, 0.0027798206129626304
1020.0, 0.00389959501082205
1021.0, 0.0032610339017037798
1022.0, 0.0011238682321788804
1023.0, 0.00228167188926362
1024.0, 0.0013226000805466667
1025.0, 0.0006685666077811874
1026.0, 0.002659191407906583
1027.0, 0.004398403805500734
1028.0, 0.004210261863008236
1029.0, 0.0036188426282125685
1030.0, 0.0036720011548594233
1031.0, 0.003561685824207535
1032.0, 0.00336291819950593
1033.0, 0.002704051589307104
1034.0, 0.003527069547904032
1035.0, 0.0017497838711215896
1036.0, 0.004702291507278256
1037.0, 0.0039142259480042475
1038.0, 0.0012981807765018634
1039.0, 0.0017875496324920052
1040.0, 0.0003253651162047729
1041.0, 0.0007014675137372484
1042.0, 0.0025873910622912387
1043.0, 0.0013407571998264609
1044.0, 0.004906375701437841
1045.0, 0.002337235943597978
1046.0, 0.0046138933417950116
1047.0, 0.0011767060632399187
1048.0, 0.0012065774965242442
1049.0, 0.0024741302154970284
1050.0, 0.003355452466778761
1051.0, 0.003158103073427252
1052.0, 0.0015002503299429665
1053.0, 0.0021117265263156946
1054.0, 0.0006127221701504768
1055.0, 0.0026183250647821865
1056.0, 0.0013725675327134906
1057.0, 0.0030974428445430706
1058.0, 0.003088320948861259
1059.0, 0.0012025426146222982
1060.0, 0.002505229086406679
1061.0, 0.00230213421020862
1062.0, 0.0019190302612845322
1063.0, 0.0021269628054122938
1064.0, 0.0022819343368334437
1065.0, 0.003588805954294788
1066.0, 0.0034405914570038126
1067.0, 0.002044622613217065
1068.0, 0.001610482504020107
1069.0, 0.0014480410803417464
1070.0, 0.002189748278622584
1071.0, 0.0020529859488664305
1072.0, 0.0005714046050698617
1073.0, 0.00045804333288320564
1074.0, 0.000558806058745795
1075.0, 0.00031275095110311205
1076.0, 0.0016679412000141522
1077.0, 0.0014342933918283945
1078.0, 0.000761543641263931
1079.0, 0.0010747169849411686
1080.0, 0.0015883794058379808
1081.0, 0.001681645404813209
1082.0, 0.0023908028122562866
1083.0, 0.002163523780010159
1084.0, 0.001621582274214875
1085.0, 0.00035701373936810487
1086.0, 0.0015906773982940427
1087.0, 0.001938034273101302
1088.0, 0.0033325729384274345
1089.0, 0.00273838222291921
1090.0, 0.001009153681690968
1091.0, 0.002067401860310827
1092.0, 0.0009590335478714474
1093.0, 0.0018958983594907486
1094.0, 0.002080774771498806
1095.0, 0.0018512397471904325
1096.0, 0.0013459358201839248
1097.0, 0.0014827095186985978
1098.0, 0.000969030721601432
1099.0, 0.0018242849941979848
1100.0, 0.0011662523128547616
1101.0, 0.0023925138919727628
1102.0, 0.003630005177563715
1103.0, 0.002092539699100355
1104.0, 0.0019773118222004326
1105.0, 0.003431967751802247
1106.0, 0.0019913915946944824
1107.0, 0.0011145089179573438
1108.0, 0.0021072055527144623
1109.0, 0.0020251470432229475
1110.0, 0.001973919204300203
1111.0, 0.002454406949523055
1112.0, 0.001272249987779546
1113.0, 0.002517444503892016
1114.0, 0.0020954010188870328
1115.0, 0.0025278629181719817
1116.0, 0.003926033608031605
1117.0, 0.0039006950244102317
1118.0, 0.004706838239839642
1119.0, 0.0054873617798632725
1120.0, 0.002591130148395988
1121.0, 0.0017627636075400234
1122.0, 0.007491762331753002
1123.0, 0.0056782885490094335
1124.0, 0.005757428344272711
1125.0, 0.0053762226606514155
1126.0, 0.004818459544705202
1127.0, 0.0038918931705180164
1128.0, 0.005435073228964227
1129.0, 0.0051111292173565154
1130.0, 0.0036788181916922336
1131.0, 0.0044425538354005345
1132.0, 0.004605823911951244
1133.0, 0.005226274199482347
1134.0, 0.005976930031402984
1135.0, 0.006500905298630376
1136.0, 0.006381254673876417
1137.0, 0.003811170014670468
1138.0, 0.0027614630986173994
1139.0, 0.0021095201910818046
1140.0, 0.003851743705797218
1141.0, 0.003725909483787558
1142.0, 0.0048584646634212605
1143.0, 0.0020210789995941947
1144.0, 0.001062442789556823
1145.0, 0.0025343179973704773
1146.0, 0.004227815458540832
1147.0, 0.004167572973486411
1148.0, 0.0043195899953068105
1149.0, 0.0038776875132007426
1150.0, 0.0030337579146365538
1151.0, 0.003996066524886723
1152.0, 0.0040699150781145655
1153.0, 0.0051860031079192
1154.0, 0.003984730821272876
1155.0, 0.0007453592623049314
1156.0, 0.00017916785450703922
1157.0, 0.0004885097702292822
1158.0, 0.003694899359641728
1159.0, 0.003975718012346744
1160.0, 0.0038917512328713005
1161.0, 0.0022458823776710865
1162.0, 0.0019163845799785924
1163.0, 0.0028696057920099658
1164.0, 0.002450439596839342
1165.0, 0.0018127213025249515
1166.0, 0.0027214216990498487
1167.0, 0.004365065992917709
1168.0, 0.004631526166433457
1169.0, 0.003310185542933823
1170.0, 0.0020335102267883356
1171.0, 0.001042934248220528
1172.0, 0.0012209435174898894
1173.0, 0.0014076372276422898
1174.0, 0.0020373412804844185
1175.0, 0.003371471243671693
1176.0, 0.0033362214359236014
1177.0, 0.002467924679502773
1178.0, 0.004994370033029702
1179.0, 0.004870816491070289
1180.0, 0.0030582097711785725
1181.0, 0.0013181695361900348
1182.0, 0.0007693702846065777
1183.0, 0.0013738388379938699
1184.0, 0.0024837545157421347
1185.0, 0.0018548552162296465
1186.0, 0.00031243982258025616
1187.0, 0.0025335490325678143
1188.0, 0.0022331931101798293
1189.0, 0.003914561385640765
1190.0, 0.001551286191947754
1191.0, 0.0010178117512115122
1192.0, 0.002324140345799869
1193.0, 0.002793833449325967
1194.0, 0.0031286711734253535
1195.0, 0.0027513918908811533
1196.0, 0.003985182117115791
1197.0, 0.002059098098658484
1198.0, 0.00026350694266138563
1199.0, 0.0006124678402131188
1200.0, 0.0014559069047640587
1201.0, 0.003949305558767887
1202.0, 0.0028417839412613367
1203.0, 0.0012874195440306562
1204.0, 0.0017117717750171112
1205.0, 0.0006338077712660578
1206.0, 0.0005918554268188386
1207.0, 0.002155583958160488
1208.0, 0.0029063722719867694
1209.0, 0.0007848737835660541
1210.0, 0.0007398634240629086
1211.0, 0.00011700641644851411
1212.0, 0.0020452579310989835
1213.0, 0.00598593614832966
1214.0, 0.002183627691986119
1215.0, 0.0018689689244023714
1216.0, 0.004224551016418325
1217.0, 0.0032044700461250847
1218.0, 0.0019583324059779866
1219.0, 0.004222748783997988
1220.0, 0.006042098179889697
1221.0, 0.004600516268330944
1222.0, 0.001991858885969796
1223.0, 0.004088032134246406
1224.0, 0.005953211924463353
1225.0, 0.0034975100334815007
1226.0, 0.003969479717605703
1227.0, 0.003983626127410169
1228.0, 0.002569555804078757
1229.0, 0.0027375480235252744
1230.0, 0.00639507182083314
1231.0, 0.0053424664347213645
1232.0, 0.0037732817316520734
1233.0, 0.004226332928516157
1234.0, 0.003417141099829319
1235.0, 0.003041652131665069
1236.0, 0.004743588067559459
1237.0, 0.0032155623564388224
1238.0, 0.001696218665150458
1239.0, 0.0004804378360471515
1240.0, 0.0010301350498121706
1241.0, 0.002797126591842133
1242.0, 0.0003218402996839223
1243.0, 0.0019180444019660573
1244.0, 0.0036510318317018254
1245.0, 0.0033905539657223017
1246.0, 0.004361166505797238
1247.0, 0.004368495650308053
1248.0, 0.005421796150754975
1249.0, 0.002145951357171061
1250.0, 0.000451616856212759
1251.0, 0.0041432549442306284
1252.0, 0.002895253698195175
1253.0, 0.0016367400770109992
1254.0, 0.0026856849365276955
1255.0, 0.0053094769709858755
1256.0, 0.004704750072804971
1257.0, 0.004809741224982616
1258.0, 0.0039036019284819676
1259.0, 0.0031848620069170807
1260.0, 0.0021147816570536927
1261.0, 0.007178067837110904
1262.0, 0.005355958967373567
1263.0, 0.006675926833111904
1264.0, 0.005754745801444
1265.0, 0.004634852169234442
1266.0, 0.0043088750261569405
1267.0, 0.004584788147937309
1268.0, 0.004966113275330926
1269.0, 0.0043725756586274755
1270.0, 0.0028763396341910112
1271.0, 0.0028876769655887
1272.0, 0.004339380628672668
1273.0, 0.0043757598770351475
1274.0, 0.004669155400236901
1275.0, 0.006421204048146361
1276.0, 0.003971058534357557
1277.0, 0.004011997283704688
1278.0, 0.003653424920985083
1279.0, 0.0020638488340634755
1280.0, 0.005899106875032811
1281.0, 0.004649005929833647
1282.0, 0.004062291936225893
1283.0, 0.0006551319224022334
1284.0, 0.0002837658099325581
1285.0, 0.000709740004811694
1286, 0.0
1287, 0.0
1288, 0.0
1289, 0.0
1290, 0.0
1291, 0.0
1292, 0.0
1293, 0.0
1294, 0.0
1295, 0.0
1296, 0.0
1297, 0.0
1298, 0.0
1299, 0.0
1300, 0.0
1301, 0.0
1302, 0.0
1303, 0.0
1304, 0.0
1305, 0.0
1306, 0.0
1307, 0.0
1308, 0.0
1309, 0.0
1310, 0.0
1311, 0.0
1312, 0.0
1313, 0.0
1314, 0.0
1315, 0.0
1316, 0.0
1317, 0.0
1318, 0.0
1319, 0.0
1320, 0.0
1321, 0.0
1322, 0.0
1323, 0.0
1324, 0.0
1325, 0.0
1326, 0.0
1327, 0.0
1328, 0.0
1329, 0.0
1330, 0.0
1331, 0.0
1332, 0.0
1333, 0.0
1334, 0.0
1335, 0.0
1336, 0.0
1337, 0.0
1338, 0.0
1339, 0.0
1340, 0.0
1341, 0.0
1342, 0.0
1343, 0.0
1344, 0.0
1345, 0.0
1346, 0.0
1347, 0.0
1348, 0.0
1349, 0.0
1350, 0.0
1351, 0.0
1352, 0.0
1353, 0.0
1354, 0.0
1355, 0.0
1356, 0.0
1357, 0.0
1358, 0.0
1359, 0.0
1360, 0.0
1361, 0.0
1362, 0.0
1363, 0.0
1364, 0.0
1365, 0.0
1366, 0.0
1367, 0.0
1368, 0.0
1369, 0.0
1370, 0.0
1371, 0.0
1372, 0.0
1373, 0.0
1374, 0.0
1375, 0.0
1376, 0.0
1377, 0.0
1378, 0.0
1379, 0.0
1380, 0.0
1381, 0.0
1382, 0.0
1383, 0.0
1384, 0.0
1385, 0.0
1386, 0.0
1387, 0.0
1388, 0.0
1389, 0.0
1390, 0.0
1391, 0.0
1392, 0.0
1393, 0.0
1394, 0.0
1395, 0.0
1396, 0.0
1397, 0.0
1398, 0.0
1399, 0.0
1400, 0.0
1401, 0.0
1402, 0.0
1403, 0.0
1404, 0.0
1405, 0.0
1406, 0.0
1407, 0.0
1408, 0.0
1409, 0.0
1410, 0.0
1411, 0.0
1412, 0.0
1413, 0.0
1414, 0.0
1415, 0.0
1416, 0.0
1417, 0.0
1418, 0.0
1419, 0.0
1420, 0.0
1421, 0.0
1422, 0.0
1423, 0.0
1424, 0.0
1425, 0.0
1426, 0.0
1427, 0.0
1428, 0.0
1429, 0.0
1430, 0.0
1431, 0.0
1432, 0.0
1433, 0.0
1434, 0.0
1435, 0.0
1436, 0.0
1437, 0.0
1438, 0.0
1439, 0.0
1440, 0.0
1441, 0.0
1442, 0.0
1443, 0.0
1444, 0.0
1445, 0.0
1446, 0.0
1447, 0.0
1448, 0.0
1449, 0.0
1450, 0.0
1451, 0.0
1452, 0.0
1453, 0.0
1454, 0.0
1455, 0.0
1456, 0.0
1457, 0.0
1458, 0.0
1459, 0.0
1460, 0.0
1461, 0.0
1462, 0.0
1463, 0.0
1464, 0.0
1465, 0.0
1466, 0.0
1467, 0.0
1468, 0.0
1469, 0.0
1470, 0.0
1471, 0.0
1472, 0.0
1473, 0.0
1474, 0.0
1475, 0.0
1476, 0.0
1477, 0.0
1478, 0.0
1479, 0.0
1480, 0.0
1481, 0.0
1482, 0.0
1483, 0.0
1484, 0.0
1485, 0.0
1486, 0.0
1487, 0.0
1488, 0.0
1489, 0.0
1490, 0.0
1491, 0.0
1492, 0.0
1493, 0.0
1494, 0.0
1495, 0.0
1496, 0.0
1497, 0.0
1498, 0.0
1499, 0.0
1500, 0.0
1501, 0.0
1502, 0.0
1503, 0.0
1504, 0.0
1505, 0.0
1506, 0.0
1507, 0.0
1508, 0.0
1509, 0.0
1510, 0.0
1511, 0.0
1512, 0.0
1513, 0.0
1514, 0.0
1515, 0.0
1516, 0.0
1517, 0.0
1518, 0.0
1519, 0.0
1520, 0.0
1521, 0.0
1522, 0.0
1523, 0.0
1524, 0.0
1525, 0.0
1526, 0.0
1527, 0.0
1528, 0.0
1529, 0.0
1530, 0.0
1531, 0.0
1532, 0.0
1533, 0.0
1534, 0.0
1535, 0.0
1536, 0.0
1537, 0.0
1538, 0.0
1539, 0.0
1540, 0.0
1541, 0.0
1542, 0.0
1543, 0.0
1544, 0.0
1545, 0.0
1546, 0.0
1547, 0.0
1548, 0.0
1549, 0.0
1550, 0.0
1551, 0.0
1552, 0.0
1553, 0.0
1554, 0.0
1555, 0.0
1556, 0.0
1557, 0.0
1558, 0.0
1559, 0.0
1560, 0.0
1561, 0.0
1562, 0.0
1563, 0.0
1564, 0.0
1565, 0.0
1566, 0.0
1567, 0.0
1568, 0.0
1569, 0.0
1570, 0.0
1571, 0.0
1572, 0.0
1573, 0.0
1574, 0.0
1575, 0.0
1576, 0.0
1577, 0.0
1578, 0.0
1579, 0.0
1580, 0.0
1581, 0.0
1582, 0.0
1583, 0.0
1584, 0.0
1585, 0.0
1586, 0.0
1587, 0.0
1588, 0.0
1589, 0.0
1590, 0.0
1591, 0.0
1592, 0.0
1593, 0.0
1594, 0.0
1595, 0.0
1596, 0.0
1597, 0.0
1598, 0.0
1599, 0.0
