30, 0.0
31, 0.0
32, 0.0
33, 0.0
34, 0.0
35, 0.0
36, 0.0
37, 0.0
38, 0.0
39, 0.0
40, 0.0
41, 0.0
42, 0.0
43, 0.0
44, 0.0
45, 0.0
46, 0.0
47, 0.0
48, 0.0
49, 0.0
50, 0.0
51, 0.0
52, 0.0
53, 0.0
54, 0.0
55, 0.0
56, 0.0
57, 0.0
58, 0.0
59, 0.0
60, 0.0
61, 0.0
62, 0.0
63, 0.0
64, 0.0
65, 0.0
66, 0.0
67, 0.0
68, 0.0
69, 0.0
70, 0.0
71, 0.0
72, 0.0
73, 0.0
74, 0.0
75, 0.0
76, 0.0
77, 0.0
78, 0.0
79, 0.0
80, 0.0
81, 0.0
82, 0.0
83, 0.0
84, 0.0
85, 0.0
86, 0.0
87, 0.0
88, 0.0
89, 0.0
90, 0.0
91, 0.0
92, 0.0
93, 0.0
94, 0.0
95, 0.0
96, 0.0
97, 0.0
98, 0.0
99, 0.0
100, 0.0
101, 0.0
102, 0.0
103, 0.0
104, 0.0
105, 0.0
106, 0.0
107, 0.0
108, 0.0
109, 0.0
110, 0.0
111, 0.0
112, 0.0
113, 0.0
114, 0.0
115, 0.0
116, 0.0
117, 0.0
118, 0.0
119, 0.0
120, 0.0
121, 0.0
122, 0.0
123, 0.0
124, 0.0
125, 0.0
126, 0.0
127, 0.0
128, 0.0
129, 0.0
130, 0.0
131, 0.0
132, 0.0
133, 0.0
134, 0.0
135.0, 7.30311755441663e-06
136.0, 0.0008425186012150255
137.0, 0.004546164287410425
138.0, 0.006670632486326275
139.0, 0.008036881390739298
140.0, 0.008652263165813145
141.0, 0.006251577925100249
142.0, 0.005993709782705694
143.0, 0.006156640460113631
144.0, 0.004853939828374419
145.0, 0.004603909545329953
146.0, 0.00693126055042372
147.0, 0.010759466665917471
148.0, 0.009606234098693149
149.0, 0.00914778677706693
150.0, 0.009469551089888947
151.0, 0.010745757898299147
152.0, 0.008493778939988473
153.0, 0.008938271260981527
154.0, 0.009958585488899257
155.0, 0.006181996736267565
156.0, 0.004608773350982551
157.0, 0.0032222520937335245
158.0, 0.0016201995143713213
159.0, 0.0018415959761848466
160.0, 0.0014758931687776592
161.0, 0.0010564221001173795
162.0, 0.001174807708170448
163.0, 0.0004841306858631303
164.0, 0.0011102394873710778
165.0, 0.003265092687976319
166.0, 0.007113174365925796
167.0, 0.00773980899255977
168.0, 0.010625465895301698
169.0, 0.01872894359032411
170.0, 0.01905245001903943
171.0, 0.02540704272794442
172.0, 0.033866345886521855
173.0, 0.037257319674463954
174.0, 0.0472948512985458
175.0, 0.057738177334392744
176.0, 0.06696416423927888
177.0, 0.07189452429119868
178.0, 0.08313591220487293
179.0, 0.09470179135099416
180.0, 0.10196201461139431
181.0, 0.11182566358969238
182.0, 0.11859036158625182
183.0, 0.12345803173724051
184.0, 0.13025105703895848
185.0, 0.13037647273146205
186.0, 0.13124771841406432
187.0, 0.1348933444252553
188.0, 0.13698971534747204
189.0, 0.14074065236175204
190.0, 0.1454138081535692
191.0, 0.15042711737230033
192.0, 0.14790995544641283
193.0, 0.14708608146610927
194.0, 0.14908823525059883
195.0, 0.15553074319945429
196.0, 0.15570438114680782
197.0, 0.15614159280637396
198.0, 0.15906261008217848
199.0, 0.1558983755898281
200.0, 0.15751757067576025
201.0, 0.1588854936150564
202.0, 0.1533736035774551
203.0, 0.1508375127888624
204.0, 0.1502266797919063
205.0, 0.1510533913497007
206.0, 0.1518846293174485
207.0, 0.1518592466967772
208.0, 0.14731922588000287
209.0, 0.1366328541311436
210.0, 0.13224985591708005
211.0, 0.12837481755629562
212.0, 0.12404426163603485
213.0, 0.11782963851305998
214.0, 0.1174376126813165
215.0, 0.11352970294671287
216.0, 0.10739562711950516
217.0, 0.10936966971996971
218.0, 0.10387276930211724
219.0, 0.09965051486222253
220.0, 0.10037246391277113
221.0, 0.10098879262164598
222.0, 0.09968688055187094
223.0, 0.09867940577523218
224.0, 0.10088501162048955
225.0, 0.0979410187833982
226.0, 0.09687702161493868
227.0, 0.09675415300708523
228.0, 0.09129084220796788
229.0, 0.09334518328923272
230.0, 0.09532947599371386
231.0, 0.09476675554071907
232.0, 0.09742348538743256
233.0, 0.09892721115949528
234.0, 0.09891132837657633
235.0, 0.09670032632636597
236.0, 0.09933627543752584
237.0, 0.09968730723208992
238.0, 0.09908887621179756
239.0, 0.10283522760029223
240.0, 0.10283439336556323
241.0, 0.10111634689210255
242.0, 0.09934280081882306
243.0, 0.10901160904382712
244.0, 0.10812611415148471
245.0, 0.10551421879668207
246.0, 0.10765104222844128
247.0, 0.11246080542973852
248.0, 0.11176094705602439
249.0, 0.10886375485126229
250.0, 0.11056835304145074
251.0, 0.11235856041738933
252.0, 0.1142651577158866
253.0, 0.11561669643566562
254.0, 0.11259773627069043
255.0, 0.11482883665167641
256.0, 0.11625826077630287
257.0, 0.114071125486516
258.0, 0.11581417860476391
259.0, 0.12020398953072223
260.0, 0.12616495425148905
261.0, 0.13262945366386106
262.0, 0.14053588094492842
263.0, 0.13946484520405364
264.0, 0.13267086029529254
265.0, 0.1321087427933534
266.0, 0.13485118171042096
267.0, 0.1350979188377574
268.0, 0.1326801810576162
269.0, 0.14102234763630894
270.0, 0.14365469464345812
271.0, 0.14446556298870936
272.0, 0.14584754671335728
273.0, 0.1501880182626383
274.0, 0.15011915333230913
275.0, 0.14880740224234174
276.0, 0.15120036560700073
277.0, 0.15353080145725215
278.0, 0.15720947804183236
279.0, 0.1602254514089402
280.0, 0.15442670767901562
281.0, 0.15735748527664076
282.0, 0.15680784908625955
283.0, 0.14992227253015233
284.0, 0.1500711838207698
285.0, 0.15027559471296212
286.0, 0.14739980325301302
287.0, 0.13886310274788055
288.0, 0.13787527632189478
289.0, 0.13259223962840233
290.0, 0.12552690069034544
291.0, 0.1206762671512109
292.0, 0.11240136583630717
293.0, 0.10331777013630392
294.0, 0.09486534229456854
295.0, 0.0910233873725185
296.0, 0.08037385163812626
297.0, 0.07066032438436337
298.0, 0.06370732126412558
299.0, 0.055085167367946566
300.0, 0.0505207568383678
301.0, 0.04570964295009081
302.0, 0.03800830065644377
303.0, 0.030007245092171043
304.0, 0.027224648245503035
305.0, 0.025851302201555012
306.0, 0.021125283934469264
307.0, 0.017504933927341468
308.0, 0.015522666782620069
309.0, 0.014428505701116546
310.0, 0.012307429859857767
311.0, 0.011198270317220132
312.0, 0.008754983389446053
313.0, 0.005630428733674451
314.0, 0.008080858624366267
315.0, 0.008684940964351889
316.0, 0.007700990534229146
317.0, 0.005704148846074917
318.0, 0.011078649592360924
319.0, 0.009295809284609326
320.0, 0.00641831637047974
321.0, 0.007291648509449913
322.0, 0.005990444926631348
323.0, 0.005375010374838078
324.0, 0.005344651041714146
325.0, 0.005742652105635673
326.0, 0.004676218029537211
327.0, 0.004510540535848204
328.0, 0.004862829093418371
329.0, 0.003983019226470803
330.0, 0.004335672259907227
331.0, 0.004075852178837908
332.0, 0.0031124126971613436
333.0, 0.0033193257581680662
334.0, 0.004080687687044134
335.0, 0.004315018550604185
336.0, 0.0037517217243222436
337.0, 0.005307405093356756
338.0, 0.005093582603464484
339.0, 0.004184606784883717
340.0, 0.003328700565649873
341.0, 0.005388298760396422
342.0, 0.006451402544204746
343.0, 0.007279003793632746
344.0, 0.008859616536645139
345.0, 0.00905353748816028
346.0, 0.011574648411991973
347.0, 0.014134351960066214
348.0, 0.01108660693852331
349.0, 0.013191164167782977
350.0, 0.01829400133021166
351.0, 0.023480921116673145
352.0, 0.019053745439788397
353.0, 0.018669141701678837
354.0, 0.01759811424192359
355.0, 0.014921391151973112
356.0, 0.013905558522105356
357.0, 0.016681476995647957
358.0, 0.015684484583794477
359.0, 0.008040999252384025
360.0, 0.008941535927247255
361.0, 0.0058755677046960705
362.0, 0.0033136920307422096
363.0, 0.004655631142094981
364.0, 0.002715209284826686
365.0, 0.0011186682463762095
366.0, 0.0004655131649464703
367.0, 0.001570416465572521
368.0, 0.004715935719768774
369.0, 0.005547735635540354
370.0, 0.005131082499842089
371.0, 0.005751055393503627
372.0, 0.007079958815754208
373.0, 0.005108989368333492
374.0, 0.0016997200582522353
375.0, 0.003403695137880464
376.0, 0.004176716095100576
377.0, 0.005093001823274763
378.0, 0.005608423119714549
379.0, 0.002351290139966244
380.0, 0.000913465113088621
381.0, 0.0014440480248850947
382.0, 0.0037852939076941008
383.0, 0.006185954661270761
384.0, 0.005717361476666462
385.0, 0.007612969680301378
386.0, 0.01331574886935045
387.0, 0.008656160045830863
388.0, 0.008333693910714328
389.0, 0.011433286372875343
390.0, 0.017246599687139312
391.0, 0.015673405449861608
392.0, 0.018197537782768686
393.0, 0.020720628260048193
394.0, 0.019414522730246915
395.0, 0.025802700861957815
396.0, 0.029001511917746255
397.0, 0.02994716847337656
398.0, 0.029887846580202194
399.0, 0.03963856286162031
400.0, 0.043121628216217144
401.0, 0.044884703355848016
402.0, 0.054285856872675974
403.0, 0.05651067186846423
404.0, 0.060614587840765705
405.0, 0.06704330333361036
406.0, 0.07490553562556518
407.0, 0.07615780992617742
408.0, 0.08007322895512103
409.0, 0.08585148421419134
410.0, 0.08671270602758231
411.0, 0.08747981989751363
412.0, 0.08664490361850744
413.0, 0.08407695846283146
414.0, 0.08053341687003528
415.0, 0.08194225962250909
416.0, 0.08228674482186364
417.0, 0.08116061688919544
418.0, 0.08561446103159834
419.0, 0.08480367914849579
420.0, 0.08406555078423317
421.0, 0.08524928036796629
422.0, 0.08774542647354198
423.0, 0.08995346649549507
424.0, 0.09284555816494484
425.0, 0.09638527471454156
426.0, 0.09560378612506648
427.0, 0.09701144524058578
428.0, 0.09838778202916744
429.0, 0.09876638228730436
430.0, 0.1018428713588497
431.0, 0.10895206570847174
432.0, 0.1149449791829453
433.0, 0.11677184149447423
434.0, 0.12287559067417075
435.0, 0.12476936583904481
436.0, 0.12650592425457935
437.0, 0.13109946163167846
438.0, 0.13376972674741872
439.0, 0.13254868935963018
440.0, 0.13182214402516704
441.0, 0.13551686307076533
442.0, 0.13887670126465082
443.0, 0.1374765969956011
444.0, 0.13865046575240847
445.0, 0.15003477627394904
446.0, 0.13945404785191298
447.0, 0.1429659837671127
448.0, 0.14786171712752194
449.0, 0.1389247682844601
450.0, 0.14340462659494885
451.0, 0.14286959894811316
452.0, 0.13966796296606965
453.0, 0.137285887344523
454.0, 0.1491136792307116
455.0, 0.1494820838174992
456.0, 0.14691532769972745
457.0, 0.15450170346213432
458.0, 0.1585428123737547
459.0, 0.15868803975516696
460.0, 0.16101053234905413
461.0, 0.17466413673983497
462.0, 0.1737843770709915
463.0, 0.17988523709629653
464.0, 0.19434225950288575
465.0, 0.2177571297588497
466.0, 0.22254569742838662
467.0, 0.23396557449945776
468.0, 0.2500406385199653
469.0, 0.26500347616316033
470.0, 0.30597293284791444
471.0, 0.3365859732257689
472.0, 0.3625990620860543
473.0, 0.39776913844949663
474.0, 0.4406023291486215
475.0, 0.4750148791743235
476.0, 0.5081910954847333
477.0, 0.5541582041029576
478.0, 0.5814540353296178
479.0, 0.6040401577750784
480.0, 0.6180221870038913
481.0, 0.6147523069668993
482.0, 0.6229996592897896
483.0, 0.603946142266
484.0, 0.5678914396622873
485.0, 0.5355992125828759
486.0, 0.5072457081476198
487.0, 0.4743546674701403
488.0, 0.44001674359214293
489.0, 0.4099275328484926
490.0, 0.400005564855286
491.0, 0.3875252205029651
492.0, 0.3768501880579399
493.0, 0.37658126847318485
494.0, 0.38097586660487703
495.0, 0.39554932363465223
496.0, 0.417250059287775
497.0, 0.4416345480766094
498.0, 0.48968827898681455
499.0, 0.5438583440980068
500.0, 0.5986729623683578
501.0, 0.6480301632650199
502.0, 0.7129791157501097
503.0, 0.7702637483216954
504.0, 0.8222261755826542
505.0, 0.8723483763260287
506.0, 0.9284857460912046
507.0, 0.9592836186397289
508.0, 0.9781381069781874
509.0, 0.9995644814783735
510.0, 0.9998926793092903
511.0, 0.9856999947151645
512.0, 0.9628145597417495
513.0, 0.9360970769514935
514.0, 0.8699042749774449
515.0, 0.8099955009388955
516.0, 0.7520793674904339
517.0, 0.6928897227701762
518.0, 0.6386292022373756
519.0, 0.5827160542884404
520.0, 0.5292975503671197
521.0, 0.4824146522301529
522.0, 0.45953802692488377
523.0, 0.41238629685895495
524.0, 0.3701167156338827
525.0, 0.34790421866152327
526.0, 0.32113627319137034
527.0, 0.2934796749419881
528.0, 0.2681964044871798
529.0, 0.24627626768795338
530.0, 0.22262946948559081
531.0, 0.201079613215799
532.0, 0.18512415346584019
533.0, 0.17407024467252447
534.0, 0.1553785752023
535.0, 0.15100560853683195
536.0, 0.14134326859859545
537.0, 0.12549272702618297
538.0, 0.12762299701692728
539.0, 0.12211226391699824
540.0, 0.11632081286411643
541.0, 0.11257693657875065
542.0, 0.11251211275643803
543.0, 0.10916144920547537
544.0, 0.10925804129272736
545.0, 0.110870469435159
546.0, 0.1057532111629356
547.0, 0.10423591909729968
548.0, 0.1044802419568415
549.0, 0.10437723760811078
550.0, 0.10025961108653168
551.0, 0.10368559116288978
552.0, 0.10366617412245245
553.0, 0.10216132970957173
554.0, 0.10344896147429168
555.0, 0.10795558201300176
556.0, 0.10843319873581449
557.0, 0.10905798370582713
558.0, 0.11479262741027581
559.0, 0.11949985236974735
560.0, 0.12355353928985112
561.0, 0.12927432192399896
562.0, 0.13818685514111287
563.0, 0.14063393556096374
564.0, 0.14998306508377746
565.0, 0.15781304065038002
566.0, 0.1588824064716279
567.0, 0.1536184402929909
568.0, 0.15401435377371805
569.0, 0.1518035495830311
570.0, 0.1453704733618205
571.0, 0.14732583056325785
572.0, 0.142116202391699
573.0, 0.13289124806986752
574.0, 0.12297704502841722
575.0, 0.121437957466347
576.0, 0.11311046148272937
577.0, 0.11002021380093731
578.0, 0.11018908276251775
579.0, 0.10215290332359707
580.0, 0.10374553564677501
581.0, 0.10249002526419908
582.0, 0.09846233554473935
583.0, 0.09446285129592
584.0, 0.09502897010504333
585.0, 0.09259359333498532
586.0, 0.09093205432121587
587.0, 0.09496158381823618
588.0, 0.09061298193856614
589.0, 0.09238043224748002
590.0, 0.09674553335938128
591.0, 0.10041443049492542
592.0, 0.09829530138659631
593.0, 0.09802541139331106
594.0, 0.09883298903972491
595.0, 0.09991489417265942
596.0, 0.0985269094586454
597.0, 0.09873339155773167
598.0, 0.09836766366898195
599.0, 0.09729300117683533
600.0, 0.09802254438370937
601.0, 0.09812821891950141
602.0, 0.0975242708812863
603.0, 0.09694790541873331
604.0, 0.09825575978758463
605.0, 0.08888491606644289
606.0, 0.08587220529912167
607.0, 0.08649427534276836
608.0, 0.0837527513155357
609.0, 0.07542662566656938
610.0, 0.07235160485700702
611.0, 0.069198057542221
612.0, 0.06071588654538075
613.0, 0.0546910961380583
614.0, 0.0485823582391443
615.0, 0.04480436244621957
616.0, 0.04359823739803524
617.0, 0.034980393424281185
618.0, 0.03150497692439513
619.0, 0.028915486926191412
620.0, 0.025229083893812804
621.0, 0.018772594045613468
622.0, 0.017664546807381453
623.0, 0.015697241785581423
624.0, 0.012692361548981157
625.0, 0.011137652897991195
626.0, 0.008582618676424398
627.0, 0.0073687576271383665
628.0, 0.006438670152143479
629.0, 0.004109486337320288
630.0, 0.0026237621480321087
631.0, 0.0016029426819238188
632.0, 0.0015246052398925863
633.0, 0.002600043517689003
634.0, 0.002847879254667815
635.0, 0.0024819468496434472
636.0, 0.0023553991951348477
637.0, 0.003014494733301317
638.0, 0.005205229300007603
639.0, 0.0032399081990314785
640.0, 0.0034500213190908017
641.0, 0.005458965497035414
642.0, 0.0041364692627595
643.0, 0.004966397275412096
644.0, 0.005545643113415406
645.0, 0.004665490145399178
646.0, 0.0010300393349093853
647.0, 0.006087966028932818
648.0, 0.007448037212827138
649.0, 0.006265844697838074
650.0, 0.004035244249197318
651.0, 0.004947690844989568
652.0, 0.002512578078842674
653.0, 0.0016348625234076438
654.0, 0.003395994041464344
655.0, 0.0026432585500422217
656.0, 0.00236225147625464
657.0, 0.0017254771863079762
658.0, 0.0011828642182722356
659.0, 0.002173288722588538
660.0, 0.001029428724792757
661.0, 0.0021570282019657263
662.0, 0.0039003821280612257
663.0, 0.003908649322701779
664.0, 0.006940049606399474
665.0, 0.008950404390832244
666.0, 0.009172416679712546
667.0, 0.00787602507635321
668.0, 0.010647030871029894
669.0, 0.011960703989149482
670.0, 0.01429333812776566
671.0, 0.01709846631186521
672.0, 0.0161072209592313
673.0, 0.013822094406656327
674.0, 0.01660847120072598
675.0, 0.022429229606477134
676.0, 0.026725131237629846
677.0, 0.029006200134824345
678.0, 0.02569326886141327
679.0, 0.023811666490182133
680.0, 0.02816060224190986
681.0, 0.028597190944411495
682.0, 0.028976622167334525
683.0, 0.032069935567444204
684.0, 0.036311712302926895
685.0, 0.03179837163859148
686.0, 0.036008734265355766
687.0, 0.038696818659316304
688.0, 0.03948455724624839
689.0, 0.04072835942117179
690.0, 0.04061393023783284
691.0, 0.04166962134812957
692.0, 0.04156510391962786
693.0, 0.039331672865478826
694.0, 0.04758887633589183
695.0, 0.04638130115184469
696.0, 0.0457505997961949
697.0, 0.048215727885429195
698.0, 0.04771705906699102
699.0, 0.04745993770740663
700.0, 0.04984138659123644
701.0, 0.051731468745683164
702.0, 0.04741773988040824
703.0, 0.045182530210045826
704.0, 0.04674855782476144
705.0, 0.04919606430437273
706.0, 0.050369663386983225
707.0, 0.05284023901669618
708.0, 0.05446337932209572
709.0, 0.05479461098289847
710.0, 0.054974063913505296
711.0, 0.05906765811878128
712.0, 0.06087860669056606
713.0, 0.05805001657445593
714.0, 0.056017836598537867
715.0, 0.06233274425345525
716.0, 0.05697020248154576
717.0, 0.058331803386212265
718.0, 0.058326249153601885
719.0, 0.05363629089404676
720.0, 0.05659698616077094
721.0, 0.05464394289520324
722.0, 0.05401500861850225
723.0, 0.055594050513492324
724.0, 0.05752940431596766
725.0, 0.053961529051970145
726.0, 0.054908827671307586
727.0, 0.058124149622647774
728.0, 0.060008325675543685
729.0, 0.052245121694016634
730.0, 0.0572359234964582
731.0, 0.060345045840913734
732.0, 0.0573206348862741
733.0, 0.05681252734833464
734.0, 0.05912512419209119
735.0, 0.05965160244419279
736.0, 0.059304133167472496
737.0, 0.060497648890510416
738.0, 0.06204578175427484
739.0, 0.06320501643038844
740.0, 0.06481552160997425
741.0, 0.06717589344411747
742.0, 0.0687752244644884
743.0, 0.06998701761392533
744.0, 0.0700581436633757
745.0, 0.07013780872735756
746.0, 0.07298761913236058
747.0, 0.07189508517114464
748.0, 0.07323450245212279
749.0, 0.07526674215336986
750.0, 0.0760871285517326
751.0, 0.07492941635874631
752.0, 0.0748275015685313
753.0, 0.07606413905223376
754.0, 0.07745629256476375
755.0, 0.07550700110677751
756.0, 0.07645069466664094
757.0, 0.07756348110720394
758.0, 0.08048551757612543
759.0, 0.08652568403736292
760.0, 0.08456862194359417
761.0, 0.0817099034744794
762.0, 0.0834478033265715
763.0, 0.08902029126512076
764.0, 0.08764503925948441
765.0, 0.08732359515813515
766.0, 0.09180738303631023
767.0, 0.09497184822283845
768.0, 0.08918593253868311
769.0, 0.09181098288973857
770.0, 0.09496221116819116
771.0, 0.0946548164711722
772.0, 0.09176117924030897
773.0, 0.09756867516151622
774.0, 0.09529955562264508
775.0, 0.09471891224074018
776.0, 0.09502296231014225
777.0, 0.09297275032599693
778.0, 0.08783654230524215
779.0, 0.08826524499633284
780.0, 0.08651437010531127
781.0, 0.08103578173041412
782.0, 0.08325131747013065
783.0, 0.07954029116933486
784.0, 0.07683646006072153
785.0, 0.07598596660133325
786.0, 0.07639744509166785
787.0, 0.07541193496445006
788.0, 0.07598664086455849
789.0, 0.07708490400364176
790.0, 0.07783763410943718
791.0, 0.07709926978169312
792.0, 0.07858326631751324
793.0, 0.0799854519100976
794.0, 0.07983006330117079
795.0, 0.07679604903027609
796.0, 0.07353641201487118
797.0, 0.07150624332044998
798.0, 0.06985225180797042
799.0, 0.06799558634288852
800.0, 0.06546976723440187
801.0, 0.060648362973263384
802.0, 0.055681957360016535
803.0, 0.05241615690743061
804.0, 0.05242515078437286
805.0, 0.05099381624089358
806.0, 0.047263899543301596
807.0, 0.04162217387228777
808.0, 0.03608826561867675
809.0, 0.03632701418901372
810.0, 0.03503413172752407
811.0, 0.030967553670026224
812.0, 0.02715706519674626
813.0, 0.026680558856711018
814.0, 0.026729683914305594
815.0, 0.024908865353981163
816.0, 0.0212308860469158
817.0, 0.016851658712057422
818.0, 0.014548353517679108
819.0, 0.013674237316969293
820.0, 0.011929218197225812
821.0, 0.010412856876080682
822.0, 0.009908885296258605
823.0, 0.008555605343390166
824.0, 0.006250523259026801
825.0, 0.006260579117216267
826.0, 0.007516888255900568
827.0, 0.006512900829945013
828.0, 0.00621169383553718
829.0, 0.00465103424816025
830.0, 0.0038379480056780365
831.0, 0.0046760113984813815
832.0, 0.005445753731110972
833.0, 0.0020889407340041253
834.0, 0.0010262678484490374
835.0, 0.001494575423274488
836.0, 0.0012098608666708819
837.0, 0.004064233106052832
838.0, 0.0035186010224894314
839.0, 0.002166969723805427
840.0, 0.001235530711406398
841.0, 0.000916664688442551
842.0, 0.0016247302614814268
843.0, 0.001536125076571416
844.0, 0.0010198950954658735
845.0, 0.0008144991217739854
846.0, 0.002891827496379786
847.0, 0.00251458899619569
848.0, 0.001501313628475895
849.0, 0.0007971127142933285
850.0, 0.0011697661811036753
851.0, 0.0002713799776212771
852.0, 0.0006675396942724675
853.0, 0.0007787482243854082
854.0, 0.0001812771101736613
855.0, 0.0007986469665367164
856.0, 0.001286022626159412
857.0, 0.0016127104700050042
858.0, 0.0019636649433286114
859.0, 0.0025062963673928434
860.0, 0.002831834291159822
861.0, 0.0021418503035730814
862.0, 0.003233909046984774
863.0, 0.005032105935723927
864.0, 0.00354159367441389
865.0, 0.0016251916304909253
866.0, 0.0008268947839529791
867.0, 0.0020501870988918376
868.0, 0.004255154417458015
869.0, 0.0010104214809927956
870.0, 0.0004119785385516939
871.0, 0.0017562572469597914
872.0, 0.0032785371628301064
873.0, 0.0030933666811949548
874.0, 0.00117818245706809
875.0, 0.0017428232956972275
876.0, 0.002991326792897735
877.0, 0.003521795559821048
878.0, 0.0017994463569589942
879.0, 0.0005330843256771466
880.0, 0.0008761902281967881
881.0, 0.0016984747104136749
882.0, 0.002315908923806917
883.0, 0.0029321615029235287
884.0, 0.003833718059163033
885.0, 0.0043379859151337135
886.0, 0.005022528600144062
887.0, 0.006404281357118421
888.0, 0.007134560983637369
889.0, 0.008419227507966528
890.0, 0.008370237996306654
891.0, 0.007366869015766239
892.0, 0.007001026770721442
893.0, 0.011673420052284932
894.0, 0.014476018363268886
895.0, 0.014354983222968982
896.0, 0.013053631071600943
897.0, 0.016846973040610055
898.0, 0.015578933313238048
899.0, 0.01612040240147876
900.0, 0.018245112456376226
901.0, 0.02081457197573317
902.0, 0.021181656706103974
903.0, 0.02251740996515017
904.0, 0.023810144418224318
905.0, 0.0244921018561089
906.0, 0.024174586673293814
907.0, 0.023444832515808537
908.0, 0.02229874479144495
909.0, 0.021557724346685046
910.0, 0.02249465290101544
911.0, 0.026840045886495852
912.0, 0.02934679669941508
913.0, 0.027835087813934005
914.0, 0.02726877825112133
915.0, 0.028880294526219593
916.0, 0.02822186507413759
917.0, 0.02872313857043953
918.0, 0.028766953251947745
919.0, 0.02930774667037526
920.0, 0.030821312756994516
921.0, 0.03143952931602163
922.0, 0.03244191068342008
923.0, 0.03313143675826393
924.0, 0.03404490028738992
925.0, 0.03574096133682178
926.0, 0.036554836327390684
927.0, 0.036909205741507994
928.0, 0.036782727933479
929.0, 0.035932316121411824
930.0, 0.03421361837629713
931.0, 0.03790685651632505
932.0, 0.03728339610907019
933.0, 0.04043015535430092
934.0, 0.04536278761341051
935.0, 0.03979615687698601
936.0, 0.044639017582077105
937.0, 0.046013797726517015
938.0, 0.0472171283294109
939.0, 0.04872342251692631
940.0, 0.04463347751022511
941.0, 0.04485807614442305
942.0, 0.04536870642300583
943.0, 0.04697165066664942
944.0, 0.04967462191876044
945.0, 0.04907448675209305
946.0, 0.05251177392719467
947.0, 0.05380229056984796
948.0, 0.05435809870328751
949.0, 0.056070101355539075
950.0, 0.053705653913035334
951.0, 0.0534640023121018
952.0, 0.053002035342391014
953.0, 0.052712231503940776
954.0, 0.05371365722750622
955.0, 0.05392235243396802
956.0, 0.05458242288654384
957.0, 0.05602910410472366
958.0, 0.05862438283600742
959.0, 0.06260567835332276
960.0, 0.06257509296316856
961.0, 0.0657399463163123
962.0, 0.06629598950971928
963.0, 0.06503633295817611
964.0, 0.06898663619748825
965.0, 0.06983872310008267
966.0, 0.07109417466965111
967.0, 0.0753103634778687
968.0, 0.08026398594408206
969.0, 0.07652934883051687
970.0, 0.08161152579614164
971.0, 0.08387290763126143
972.0, 0.08651742793578848
973.0, 0.09090472385004761
974.0, 0.09322445748192174
975.0, 0.09284371797952282
976.0, 0.09761651095952151
977.0, 0.10232631597473077
978.0, 0.10323537671662449
979.0, 0.10376822956054552
980.0, 0.10185370354393528
981.0, 0.10359257419060341
982.0, 0.10657919528004806
983.0, 0.1070026975551175
984.0, 0.0997812082785239
985.0, 0.10104476877451815
986.0, 0.10081593968114835
987.0, 0.10020142791544416
988.0, 0.10088446409500444
989.0, 0.09663693434030562
990.0, 0.09575600904732968
991.0, 0.09662213304613258
992.0, 0.09673957817846887
993.0, 0.09441962271610317
994.0, 0.09495770478674946
995.0, 0.09213415904121898
996.0, 0.09271522357432087
997.0, 0.09429876498841609
998.0, 0.09280601335738327
999.0, 0.09398222947692363
1000.0, 0.0919277432579385
1001.0, 0.09114721642282914
1002.0, 0.09252761371549001
1003.0, 0.09498432105342375
1004.0, 0.09113033039494055
1005.0, 0.09226057323451145
1006.0, 0.09211145162867541
1007.0, 0.0905655165778678
1008.0, 0.08986470676811752
1009.0, 0.09110706829212815
1010.0, 0.08986825429120279
1011.0, 0.09002375219152765
1012.0, 0.09231765884527442
1013.0, 0.09563600999672038
1014.0, 0.0933007394099573
1015.0, 0.09596103715622414
1016.0, 0.09392169288961277
1017.0, 0.09099588104852527
1018.0, 0.09561154853570135
1019.0, 0.09594447082948128
1020.0, 0.09424481523901161
1021.0, 0.09398812640036518
1022.0, 0.09376823490988938
1023.0, 0.09077590313077626
1024.0, 0.09233386498489762
1025.0, 0.09784471071099106
1026.0, 0.09562035123720024
1027.0, 0.09092803160418968
1028.0, 0.09472744948057296
1029.0, 0.09595632749140938
1030.0, 0.09387630430344612
1031.0, 0.0931170361443512
1032.0, 0.09351441041850192
1033.0, 0.09286476022252028
1034.0, 0.08829994472305296
1035.0, 0.08954195763639304
1036.0, 0.08753273852641204
1037.0, 0.08473518384478468
1038.0, 0.08613564808638152
1039.0, 0.08280398563233446
1040.0, 0.08392908316268026
1041.0, 0.08425973749514236
1042.0, 0.08374469161881305
1043.0, 0.08373128919307594
1044.0, 0.08395508758566211
1045.0, 0.08390397252849993
1046.0, 0.08417597212367292
1047.0, 0.0837928835652764
1048.0, 0.08236076600944606
1049.0, 0.08454162515621719
1050.0, 0.08074819098832732
1051.0, 0.08106273659088835
1052.0, 0.08189175299749024
1053.0, 0.07943728184949296
1054.0, 0.08048003270442092
1055.0, 0.08039454562699379
1056.0, 0.08110410541754537
1057.0, 0.08222807975047979
1058.0, 0.08259164444538186
1059.0, 0.0796697740900332
1060.0, 0.07989406247630187
1061.0, 0.08023341544327715
1062.0, 0.07978884392903265
1063.0, 0.07930740116549932
1064.0, 0.08267492294313789
1065.0, 0.08500342190248894
1066.0, 0.08496580279331813
1067.0, 0.08402374057708561
1068.0, 0.08334713581991819
1069.0, 0.08331362914783891
1070.0, 0.08548035216086602
1071.0, 0.08582751968176477
1072.0, 0.08584414490166044
1073.0, 0.08617928911172794
1074.0, 0.08636149122054704
1075.0, 0.08504523340897409
1076.0, 0.0865734910121717
1077.0, 0.08745187841654488
1078.0, 0.08689833866702677
1079.0, 0.08632016117401094
1080.0, 0.0884342919215437
1081.0, 0.08692982572221168
1082.0, 0.08743582978050612
1083.0, 0.09043098771583565
1084.0, 0.09323882542873448
1085.0, 0.0884971291633544
1086.0, 0.08708495392593438
1087.0, 0.08600880374803833
1088.0, 0.08501842477043423
1089.0, 0.08490193875892157
1090.0, 0.08750053955974346
1091.0, 0.08476237923496434
1092.0, 0.08272104563001455
1093.0, 0.08265989564493897
1094.0, 0.08346966051281558
1095.0, 0.07978436792405305
1096.0, 0.07756813381414877
1097.0, 0.07804560992878584
1098.0, 0.07723236721450984
1099.0, 0.07462811246008039
1100.0, 0.07626444812716957
1101.0, 0.07454022892615575
1102.0, 0.07351857374292754
1103.0, 0.07261155887909408
1104.0, 0.07209908747179998
1105.0, 0.07296980642192044
1106.0, 0.06858636330506476
1107.0, 0.06906829208542437
1108.0, 0.06791924206842015
1109.0, 0.06595347070668016
1110.0, 0.06685705233536365
1111.0, 0.06366346353232298
1112.0, 0.06286105292165654
1113.0, 0.06213636553639045
1114.0, 0.060870565968282664
1115.0, 0.05936755427281882
1116.0, 0.05961675643624099
1117.0, 0.056494340343654366
1118.0, 0.05567439117278153
1119.0, 0.05565747828855071
1120.0, 0.05446959379825793
1121.0, 0.051275509757598745
1122.0, 0.05488805395684789
1123.0, 0.05209006589926366
1124.0, 0.04920761573065908
1125.0, 0.04885940321970655
1126.0, 0.048806773183658704
1127.0, 0.04548775931409619
1128.0, 0.04373400655234655
1129.0, 0.04301896315897741
1130.0, 0.041576397772757505
1131.0, 0.03844135733397815
1132.0, 0.04284716783701104
1133.0, 0.03679513454593911
1134.0, 0.03806233099168879
1135.0, 0.039418261478969735
1136.0, 0.0348010380532003
1137.0, 0.039575373749790095
1138.0, 0.03398750749054949
1139.0, 0.03404416692959933
1140.0, 0.035705935157346214
1141.0, 0.033843920821008934
1142.0, 0.024808088315578913
1143.0, 0.03423348713783339
1144.0, 0.031116742415807728
1145.0, 0.026577726890867206
1146.0, 0.02550135243210594
1147.0, 0.02784427178730968
1148.0, 0.028681138056019424
1149.0, 0.027690658710895256
1150.0, 0.024103271008170543
1151.0, 0.020898380047233548
1152.0, 0.02060507167358899
1153.0, 0.021276803795630253
1154.0, 0.023333192798663475
1155.0, 0.023440695475778133
1156.0, 0.02087811003170801
1157.0, 0.018289423903613423
1158.0, 0.021706790816391933
1159.0, 0.019018129185083107
1160.0, 0.016090566219828316
1161.0, 0.015037467372723531
1162.0, 0.01569004942826431
1163.0, 0.016683056060251233
1164.0, 0.01752915967799222
1165.0, 0.018411980391605243
1166.0, 0.015196369678282026
1167.0, 0.013483325935568865
1168.0, 0.015366064879497794
1169.0, 0.01044651127199175
1170.0, 0.008066531491909994
1171.0, 0.0090360189607569
1172.0, 0.009083906532885053
1173.0, 0.008742894121718135
1174.0, 0.012416387662515
1175.0, 0.014920127733948388
1176.0, 0.007795407675501533
1177.0, 0.008076954185511106
1178.0, 0.010131669882334876
1179.0, 0.00563085932850793
1180.0, 0.004725485589762703
1181.0, 0.0057279755909735545
1182.0, 0.006013309826719893
1183.0, 0.004296589298901471
1184.0, 0.003895522412224234
1185.0, 0.012371362639332747
1186.0, 0.005471643568555568
1187.0, 0.004896190810217176
1188.0, 0.005605906976993568
1189.0, 0.00453401735356248
1190.0, 0.0017067743861382129
1191.0, 0.00663491133007069
1192.0, 0.005319708976993045
1193.0, 0.003931639591892194
1194.0, 0.003823277817731529
1195.0, 0.004124501554237978
1196.0, 0.0018644340669592345
1197.0, 0.0005479698775992758
1198.0, 0.0019360316372443501
1199.0, 0.003005773498421599
1200.0, 0.0026846998438972954
1201.0, 0.0015702943147616875
1202.0, 0.0028649016054365928
1203.0, 0.00241670634452277
1204.0, 0.002101861903244143
1205.0, 0.0031404548133361953
1206.0, 0.004333447362499486
1207.0, 0.0012465217303362609
1208.0, 0.0023082359565830615
1209.0, 0.0016085861829232735
1210.0, 0.0013801587428977967
1211.0, 0.0014263417673957277
1212.0, 0.0007113299249781081
1213.0, 0.0006845640800417214
1214.0, 0.0005904986618427557
1215.0, 0.0006887059804276795
1216.0, 0.0009691766380497948
1217.0, 0.0010723617921051497
1218.0, 0.0003293271635844332
1219.0, 0.0008685863185432081
1220.0, 0.0013414338515585604
1221.0, 0.00234391620023975
1222.0, 0.002497673699188465
1223.0, 0.0006911340171126639
1224.0, 9.287310240109551e-05
1225.0, 0.004610699478370872
1226.0, 0.0030055675623042984
1227.0, 0.0014295929021703902
1228.0, 0.001892033435231932
1229.0, 0.00018450925177372198
1230.0, 0.00018301289109907902
1231.0, 0.0005829832411113563
1232.0, 0.001403195263891943
1233.0, 0.0016265366102641546
1234.0, 0.001735737731454259
1235.0, 0.006926654477364107
1236.0, 0.0034281603207056656
1237.0, 0.006484610719248238
1238.0, 0.007086785424865092
1239.0, 0.004368040540075539
1240.0, 0.0042084708548960955
1241.0, 0.007708844253371682
1242.0, 0.00435172124748132
1243.0, 0.0053400526392787485
1244.0, 0.005966886751927031
1245.0, 0.0031122755516102356
1246.0, 0.001586036735553532
1247.0, 0.01221393227440611
1248.0, 0.007756175536324048
1249.0, 0.005501178381355276
1250.0, 0.007218934031007915
1251.0, 0.007632120288685126
1252.0, 0.0039827771965160325
1253.0, 0.004513781297321222
1254.0, 0.007284984636717075
1255.0, 0.006656886284440703
1256.0, 0.0047564748746611405
1257.0, 0.008895292349936988
1258.0, 0.006628468013049674
1259.0, 0.007757876988980899
1260.0, 0.007102787983928637
1261.0, 0.0068235959827321864
1262.0, 0.008580966060346687
1263.0, 0.010181140918559142
1264.0, 0.00671121785521802
1265.0, 0.0037096644961069148
1266.0, 0.007263872574138706
1267.0, 0.010160323397531368
1268.0, 0.005178622062975896
1269.0, 0.0047465615906081785
1270.0, 0.012005047306406783
1271.0, 0.008596275020207005
1272.0, 0.006737685280622201
1273.0, 0.008608752795762883
1274.0, 0.007157559306297272
1275.0, 0.0014896891184752329
1276.0, 0.008618124494019113
1277.0, 0.006477695535177248
1278.0, 0.004823592548874199
1279.0, 0.008323358221112307
1280.0, 0.008023902754265498
1281.0, 0.006745846262112546
1282.0, 0.007345562694794371
1283.0, 0.00946511031653231
1284.0, 0.008291509859300373
1285.0, 0.004082582721897553
1286.0, 0.01004132342072734
1287.0, 0.006111207020134844
1288.0, 0.0035736544845534767
1289.0, 0.005715274206335405
1290.0, 0.007064690825776557
1291.0, 0.0024397877751898087
1292.0, 0.0025383196394701095
1293.0, 0.002350195887436898
1294.0, 0.003067494176326642
1295.0, 0.005955154740862312
1296.0, 0.007937403981008319
1297.0, 0.00493022425976171
1298.0, 0.0046298158156232875
1299.0, 0.01066935961110907
1300.0, 0.006590004052480979
1301.0, 0.004018443602244045
1302.0, 0.0068551027413952595
1303.0, 0.006713310092428313
1304.0, 0.0008077507799701829
1305.0, 0.004287580097853965
1306.0, 0.003468640528060261
1307.0, 0.0031751363903665614
1308.0, 0.00653048734451975
1309.0, 0.008185445201344949
1310.0, 0.003891606605990093
1311.0, 0.004743019407944649
1312.0, 0.004197254618362227
1313.0, 0.00253323925356447
1314.0, 0.002830867789769339
1315.0, 0.008647608783459658
1316.0, 0.008428183703165186
1317.0, 0.006573935555726254
1318.0, 0.007567706300292343
1319.0, 0.008490712974346453
1320.0, 0.005491996500401076
1321.0, 0.0001446647040483401
1322.0, 0.005780084995709242
1323.0, 0.004497687178374532
1324.0, 0.0016299465701663763
1325, 0.0
1326, 0.0
1327, 0.0
1328, 0.0
1329, 0.0
1330, 0.0
1331, 0.0
1332, 0.0
1333, 0.0
1334, 0.0
1335, 0.0
1336, 0.0
1337, 0.0
1338, 0.0
1339, 0.0
1340, 0.0
1341, 0.0
1342, 0.0
1343, 0.0
1344, 0.0
1345, 0.0
1346, 0.0
1347, 0.0
1348, 0.0
1349, 0.0
1350, 0.0
1351, 0.0
1352, 0.0
1353, 0.0
1354, 0.0
1355, 0.0
1356, 0.0
1357, 0.0
1358, 0.0
1359, 0.0
1360, 0.0
1361, 0.0
1362, 0.0
1363, 0.0
1364, 0.0
1365, 0.0
1366, 0.0
1367, 0.0
1368, 0.0
1369, 0.0
1370, 0.0
1371, 0.0
1372, 0.0
1373, 0.0
1374, 0.0
1375, 0.0
1376, 0.0
1377, 0.0
1378, 0.0
1379, 0.0
1380, 0.0
1381, 0.0
1382, 0.0
1383, 0.0
1384, 0.0
1385, 0.0
1386, 0.0
1387, 0.0
1388, 0.0
1389, 0.0
1390, 0.0
1391, 0.0
1392, 0.0
1393, 0.0
1394, 0.0
1395, 0.0
1396, 0.0
1397, 0.0
1398, 0.0
1399, 0.0
1400, 0.0
1401, 0.0
1402, 0.0
1403, 0.0
1404, 0.0
1405, 0.0
1406, 0.0
1407, 0.0
1408, 0.0
1409, 0.0
1410, 0.0
1411, 0.0
1412, 0.0
1413, 0.0
1414, 0.0
1415, 0.0
1416, 0.0
1417, 0.0
1418, 0.0
1419, 0.0
1420, 0.0
1421, 0.0
1422, 0.0
1423, 0.0
1424, 0.0
1425, 0.0
1426, 0.0
1427, 0.0
1428, 0.0
1429, 0.0
1430, 0.0
1431, 0.0
1432, 0.0
1433, 0.0
1434, 0.0
1435, 0.0
1436, 0.0
1437, 0.0
1438, 0.0
1439, 0.0
1440, 0.0
1441, 0.0
1442, 0.0
1443, 0.0
1444, 0.0
1445, 0.0
1446, 0.0
1447, 0.0
1448, 0.0
1449, 0.0
1450, 0.0
1451, 0.0
1452, 0.0
1453, 0.0
1454, 0.0
1455, 0.0
1456, 0.0
1457, 0.0
1458, 0.0
1459, 0.0
1460, 0.0
1461, 0.0
1462, 0.0
1463, 0.0
1464, 0.0
1465, 0.0
1466, 0.0
1467, 0.0
1468, 0.0
1469, 0.0
1470, 0.0
1471, 0.0
1472, 0.0
1473, 0.0
1474, 0.0
1475, 0.0
1476, 0.0
1477, 0.0
1478, 0.0
1479, 0.0
1480, 0.0
1481, 0.0
1482, 0.0
1483, 0.0
1484, 0.0
1485, 0.0
1486, 0.0
1487, 0.0
1488, 0.0
1489, 0.0
1490, 0.0
1491, 0.0
1492, 0.0
1493, 0.0
1494, 0.0
1495, 0.0
1496, 0.0
1497, 0.0
1498, 0.0
1499, 0.0
1500, 0.0
1501, 0.0
1502, 0.0
1503, 0.0
1504, 0.0
1505, 0.0
1506, 0.0
1507, 0.0
1508, 0.0
1509, 0.0
1510, 0.0
1511, 0.0
1512, 0.0
1513, 0.0
1514, 0.0
1515, 0.0
1516, 0.0
1517, 0.0
1518, 0.0
1519, 0.0
1520, 0.0
1521, 0.0
1522, 0.0
1523, 0.0
1524, 0.0
1525, 0.0
1526, 0.0
1527, 0.0
1528, 0.0
1529, 0.0
1530, 0.0
1531, 0.0
1532, 0.0
1533, 0.0
1534, 0.0
1535, 0.0
1536, 0.0
1537, 0.0
1538, 0.0
1539, 0.0
1540, 0.0
1541, 0.0
1542, 0.0
1543, 0.0
1544, 0.0
1545, 0.0
1546, 0.0
1547, 0.0
1548, 0.0
1549, 0.0
1550, 0.0
1551, 0.0
1552, 0.0
1553, 0.0
1554, 0.0
1555, 0.0
1556, 0.0
1557, 0.0
1558, 0.0
1559, 0.0
1560, 0.0
1561, 0.0
1562, 0.0
1563, 0.0
1564, 0.0
1565, 0.0
1566, 0.0
1567, 0.0
1568, 0.0
1569, 0.0
1570, 0.0
1571, 0.0
1572, 0.0
1573, 0.0
1574, 0.0
1575, 0.0
1576, 0.0
1577, 0.0
1578, 0.0
1579, 0.0
1580, 0.0
1581, 0.0
1582, 0.0
1583, 0.0
1584, 0.0
1585, 0.0
1586, 0.0
1587, 0.0
1588, 0.0
1589, 0.0
1590, 0.0
1591, 0.0
1592, 0.0
1593, 0.0
1594, 0.0
1595, 0.0
1596, 0.0
1597, 0.0
1598, 0.0
1599, 0.0
