30, 0.0
31, 0.0
32, 0.0
33, 0.0
34, 0.0
35, 0.0
36, 0.0
37, 0.0
38, 0.0
39, 0.0
40, 0.0
41, 0.0
42, 0.0
43, 0.0
44, 0.0
45, 0.0
46, 0.0
47, 0.0
48, 0.0
49, 0.0
50, 0.0
51, 0.0
52, 0.0
53, 0.0
54, 0.0
55, 0.0
56, 0.0
57, 0.0
58, 0.0
59, 0.0
60, 0.0
61, 0.0
62, 0.0
63, 0.0
64, 0.0
65, 0.0
66, 0.0
67, 0.0
68, 0.0
69, 0.0
70, 0.0
71, 0.0
72, 0.0
73, 0.0
74, 0.0
75, 0.0
76, 0.0
77, 0.0
78, 0.0
79, 0.0
80, 0.0
81, 0.0
82, 0.0
83, 0.0
84, 0.0
85, 0.0
86, 0.0
87, 0.0
88, 0.0
89, 0.0
90, 0.0
91, 0.0
92, 0.0
93, 0.0
94, 0.0
95, 0.0
96, 0.0
97, 0.0
98, 0.0
99, 0.0
100, 0.0
101, 0.0
102, 0.0
103, 0.0
104, 0.0
105, 0.0
106, 0.0
107, 0.0
108, 0.0
109, 0.0
110, 0.0
111, 0.0
112, 0.0
113, 0.0
114, 0.0
115, 0.0
116, 0.0
117, 0.0
118, 0.0
119, 0.0
120, 0.0
121.0, 0.00017491952291589515
122.0, 0.0007378126032208225
123.0, 0.003106598289827369
124.0, 0.0025574427563917605
125.0, 0.0014921074661511321
126.0, 0.001782237458121055
127.0, 0.0013458966956980479
128.0, 0.0011970938524093167
129.0, 0.0014035618134390945
130.0, 0.0020185657399801158
131.0, 0.0014772682160545964
132.0, 0.0016799191871345177
133.0, 0.003616465777093147
134.0, 0.0033954420078344725
135.0, 0.005889374964176702
136.0, 0.00981815750992001
137.0, 0.012683902458875343
138.0, 0.01729512082043012
139.0, 0.021448248845415033
140.0, 0.024457234553069307
141.0, 0.025001035622682022
142.0, 0.029905039428120422
143.0, 0.03555214095475191
144.0, 0.03794131132444664
145.0, 0.044371889566564196
146.0, 0.051439628696319614
147.0, 0.05893818449341416
148.0, 0.06790865615325103
149.0, 0.07556643923964297
150.0, 0.08412701662106901
151.0, 0.0950194482273146
152.0, 0.10566009638931609
153.0, 0.1161502304422901
154.0, 0.12728165162974392
155.0, 0.14116214683084863
156.0, 0.15665019161533417
157.0, 0.171252857225272
158.0, 0.18502798975840784
159.0, 0.20942866548871067
160.0, 0.22868716887046783
161.0, 0.24735036602079932
162.0, 0.2704272130850564
163.0, 0.29546002296224494
164.0, 0.3213717577405676
165.0, 0.3487327189437234
166.0, 0.3809515423096557
167.0, 0.40495524183331955
168.0, 0.4316466180189709
169.0, 0.46670120500365575
170.0, 0.4857981531621778
171.0, 0.515551966657781
172.0, 0.5496155993472037
173.0, 0.576604772418937
174.0, 0.5943041347703326
175.0, 0.6123678358119594
176.0, 0.6311667186536933
177.0, 0.6372527741700214
178.0, 0.6503357347412659
179.0, 0.6569179598271802
180.0, 0.6451689547196697
181.0, 0.6457881041278558
182.0, 0.6323523601511235
183.0, 0.6097780996777772
184.0, 0.5938335812741957
185.0, 0.5716276068311232
186.0, 0.5425383110001593
187.0, 0.5067931404221021
188.0, 0.4769478562380661
189.0, 0.4506639284203447
190.0, 0.4261224412440505
191.0, 0.4017524467031408
192.0, 0.3769826569933036
193.0, 0.3578841140499968
194.0, 0.3429865312124811
195.0, 0.3254236770156973
196.0, 0.3054291333170073
197.0, 0.28984630229829317
198.0, 0.28117297458719764
199.0, 0.26613506972304485
200.0, 0.2576285996459803
201.0, 0.25081149839158723
202.0, 0.23974988456554908
203.0, 0.22929564851820175
204.0, 0.22267787364030844
205.0, 0.21802817777543385
206.0, 0.20580382558249372
207.0, 0.1999670334386761
208.0, 0.19156110991450184
209.0, 0.1768561961434179
210.0, 0.1687944703625439
211.0, 0.158939653185491
212.0, 0.147902317149328
213.0, 0.13626846984486868
214.0, 0.12549314691582902
215.0, 0.11269335845614786
216.0, 0.09873712599805551
217.0, 0.0888227231672637
218.0, 0.07670396864823525
219.0, 0.0665200772297263
220.0, 0.0599641546541109
221.0, 0.05011221697895557
222.0, 0.04347982001594867
223.0, 0.03865872715294746
224.0, 0.0342005024712849
225.0, 0.026710966724995386
226.0, 0.023247554436433948
227.0, 0.02264254444951532
228.0, 0.01798985657779941
229.0, 0.016598319342153913
230.0, 0.0158253802470771
231.0, 0.014567354831624055
232.0, 0.009866513778634163
233.0, 0.011446444297178143
234.0, 0.013523312029795963
235.0, 0.010076042628409434
236.0, 0.011339339997847338
237.0, 0.011145500166838308
238.0, 0.009923456971881208
239.0, 0.010071820983253441
240.0, 0.011964287611025437
241.0, 0.013890745620114634
242.0, 0.015536480486369124
243.0, 0.018509348842152835
244.0, 0.02066112928554241
245.0, 0.023177743870426634
246.0, 0.02701143871992176
247.0, 0.03133544251948537
248.0, 0.0337937874473167
249.0, 0.03601643522760403
250.0, 0.0414116913322302
251.0, 0.04476548543628011
252.0, 0.04988438193497685
253.0, 0.056582752567339974
254.0, 0.05993514240992041
255.0, 0.06373124474553928
256.0, 0.06746830745936144
257.0, 0.07086257292775955
258.0, 0.07276953032722108
259.0, 0.08050570498511452
260.0, 0.08847981152079752
261.0, 0.08974974427796131
262.0, 0.09811922373255555
263.0, 0.10499227542776317
264.0, 0.11065530260663128
265.0, 0.11813334166366583
266.0, 0.12921228393803166
267.0, 0.13709738406923863
268.0, 0.14130970720278702
269.0, 0.15519599330686223
270.0, 0.16621487718056138
271.0, 0.17564039420640412
272.0, 0.18415146514450423
273.0, 0.2000149773526248
274.0, 0.2086483173818172
275.0, 0.21666179669813757
276.0, 0.234679504608684
277.0, 0.24366092567462744
278.0, 0.2560222797487137
279.0, 0.2701865871643061
280.0, 0.27488049136274434
281.0, 0.2876882676672711
282.0, 0.2966524118926078
283.0, 0.29843158776334905
284.0, 0.30069445315840254
285.0, 0.3068489504540337
286.0, 0.3085050444097944
287.0, 0.2991491541226411
288.0, 0.2992743128647245
289.0, 0.28974696319225696
290.0, 0.2765006185550999
291.0, 0.26891031637012014
292.0, 0.2576911208426447
293.0, 0.24245744641205375
294.0, 0.2259298298149376
295.0, 0.2175724359102024
296.0, 0.19949096240039732
297.0, 0.18385729954888208
298.0, 0.17356311158781038
299.0, 0.16156224876064101
300.0, 0.14381275351749534
301.0, 0.12769959539146827
302.0, 0.11781375461265621
303.0, 0.10584905324881695
304.0, 0.09681786728958301
305.0, 0.08914175023918469
306.0, 0.08095234534878312
307.0, 0.07358190696977639
308.0, 0.06746918510840345
309.0, 0.06217413274835127
310.0, 0.05658914611995144
311.0, 0.054028342630998046
312.0, 0.05035824310042236
313.0, 0.04534148000576628
314.0, 0.04243980223002766
315.0, 0.041033870495508315
316.0, 0.03811769391488748
317.0, 0.032807748333502265
318.0, 0.03262249757299925
319.0, 0.028182105039920944
320.0, 0.02439512790033459
321.0, 0.025336206260847254
322.0, 0.021149170478136938
323.0, 0.017904001357498794
324.0, 0.015868640166470556
325.0, 0.015462440476445221
326.0, 0.010737667254042137
327.0, 0.009617648872247362
328.0, 0.01037241449582258
329.0, 0.005865696700939055
330.0, 0.005282820917429009
331.0, 0.005040738326737003
332.0, 0.004100994679318404
333.0, 0.0012260966312099522
334.0, 0.0024996726050381906
335.0, 0.0030291422187038253
336.0, 0.001162363574955209
337.0, 0.00323745503182478
338.0, 0.0028898335501307162
339.0, 0.002736058021894707
340.0, 0.004731413128548766
341.0, 0.005728628233654786
342.0, 0.005758528749228111
343.0, 0.0056440789668601495
344.0, 0.006464882922643484
345.0, 0.008691096684293461
346.0, 0.01052156088798536
347.0, 0.011765478324506069
348.0, 0.012215523873759803
349.0, 0.013386308932136241
350.0, 0.015249119822674432
351.0, 0.01668653646665891
352.0, 0.013459234586362305
353.0, 0.014399378725377228
354.0, 0.012915295493445784
355.0, 0.008304776483015424
356.0, 0.009299445240065683
357.0, 0.009090391085742305
358.0, 0.006303981867991299
359.0, 0.0007346528644684989
360.0, 0.0015816603536246184
361.0, 0.002180371615593814
362.0, 0.0018816194248978217
363.0, 0.00015789348710442156
364.0, 0.002857559849760702
365.0, 0.005004785702495532
366.0, 0.006210615606474442
367.0, 0.005919137016182367
368.0, 0.008121478608411501
369.0, 0.00807805241835386
370.0, 0.0075137041124700875
371.0, 0.010056972350972776
372.0, 0.008303909437244917
373.0, 0.007235830972627113
374.0, 0.007779142747050221
375.0, 0.010978939879912022
376.0, 0.0072776338522785
377.0, 0.005720688500846418
378.0, 0.00693045946158246
379.0, 0.005480369754784232
380.0, 0.003678987483595156
381.0, 0.0027549211581942177
382.0, 0.002819399462110417
383.0, 0.0017678949623531432
384.0, 0.0015247340857322573
385.0, 0.0025381630458755924
386.0, 0.00475836959820639
387.0, 0.004144967684691883
388.0, 0.005585830967856331
389.0, 0.00846332081532485
390.0, 0.012249997718986274
391.0, 0.010094414642149968
392.0, 0.011600449806149648
393.0, 0.01376688362377315
394.0, 0.013830016228922251
395.0, 0.01703053518453683
396.0, 0.018677043897684605
397.0, 0.01943573122897685
398.0, 0.020194404684136653
399.0, 0.02426821734428917
400.0, 0.023934470802600204
401.0, 0.022403186508357906
402.0, 0.025935661785033603
403.0, 0.02876674603943095
404.0, 0.031032434960265948
405.0, 0.03283201633437185
406.0, 0.034324591407401746
407.0, 0.035687141659489156
408.0, 0.036240745952755164
409.0, 0.03625029848515403
410.0, 0.03682355688857799
411.0, 0.036908744984304125
412.0, 0.0356621938420091
413.0, 0.033291753532780986
414.0, 0.03136645517127903
415.0, 0.028799597985125307
416.0, 0.025556569836463167
417.0, 0.022422976731568903
418.0, 0.023743140228278555
419.0, 0.021918317137526008
420.0, 0.019125798909831706
421.0, 0.016960669160988536
422.0, 0.02138421723276836
423.0, 0.021544162759646397
424.0, 0.02181167587872829
425.0, 0.023925105209725534
426.0, 0.02547205859160176
427.0, 0.024541359877373936
428.0, 0.02585930954124257
429.0, 0.031226445324183633
430.0, 0.027809002591194593
431.0, 0.02991885625797812
432.0, 0.03371472352328028
433.0, 0.03670144388756521
434.0, 0.03797072627816551
435.0, 0.04015405651816421
436.0, 0.04263297242555246
437.0, 0.04495498121489894
438.0, 0.04772098486303794
439.0, 0.050572438594044276
440.0, 0.0534915765817876
441.0, 0.056458446488354616
442.0, 0.05803188588902683
443.0, 0.059876278276696455
444.0, 0.06321182215218424
445.0, 0.06933664881157348
446.0, 0.0648184461237037
447.0, 0.06656466047392942
448.0, 0.0697201344112296
449.0, 0.0684582978159485
450.0, 0.06900354708433457
451.0, 0.07186073142191154
452.0, 0.0737845478178656
453.0, 0.0705659990661973
454.0, 0.07939613178466068
455.0, 0.08202300330253537
456.0, 0.08232716231539239
457.0, 0.08657434100548381
458.0, 0.09117607688335315
459.0, 0.09528982355040568
460.0, 0.10145200334614482
461.0, 0.11359106995548686
462.0, 0.11920125475802036
463.0, 0.1316862002491306
464.0, 0.14754713582864612
465.0, 0.16022306137866865
466.0, 0.17824351271073618
467.0, 0.20133601970921297
468.0, 0.2252557018154815
469.0, 0.2431462881550107
470.0, 0.2768523033901997
471.0, 0.31045125850744026
472.0, 0.34361401447513684
473.0, 0.37768543483794637
474.0, 0.42232768860855985
475.0, 0.45636440862036176
476.0, 0.48612474536850686
477.0, 0.5246829941746897
478.0, 0.5456791025149345
479.0, 0.5613211194507784
480.0, 0.5694839634561938
481.0, 0.5647480646098524
482.0, 0.557563624542442
483.0, 0.5427388796166445
484.0, 0.517708897027313
485.0, 0.4784830021109913
486.0, 0.4529000701601298
487.0, 0.42441278324613535
488.0, 0.394210146622984
489.0, 0.36585665104294607
490.0, 0.36019452463500695
491.0, 0.3459467756106226
492.0, 0.33396482848865655
493.0, 0.34328994966897475
494.0, 0.35915660122760035
495.0, 0.3778997057444917
496.0, 0.4025185537736743
497.0, 0.4376369521011952
498.0, 0.4813163378936804
499.0, 0.538029132888623
500.0, 0.5997748469626437
501.0, 0.6560935149047697
502.0, 0.7198504365271421
503.0, 0.7801881490434641
504.0, 0.834629790785911
505.0, 0.880608205629499
506.0, 0.9358410538254678
507.0, 0.9639526985781484
508.0, 0.9776274635597427
509.0, 0.990741028733795
510.0, 0.9977183996955169
511.0, 0.9780951763333713
512.0, 0.9488245235866908
513.0, 0.9250074599801843
514.0, 0.859254831461808
515.0, 0.7990696345790974
516.0, 0.7409619570539203
517.0, 0.682121813674938
518.0, 0.6235818653042435
519.0, 0.5712598355080464
520.0, 0.5209961585545809
521.0, 0.4704483771895504
522.0, 0.4285188036408591
523.0, 0.38563457138525453
524.0, 0.3454132763301481
525.0, 0.31061237802597313
526.0, 0.28713168590562943
527.0, 0.25831942320126544
528.0, 0.23165989102358248
529.0, 0.21023682771236507
530.0, 0.18900694509810337
531.0, 0.1685321436710819
532.0, 0.15266490805806937
533.0, 0.14096484034041104
534.0, 0.12159238417886062
535.0, 0.11577646637214989
536.0, 0.10795028283564506
537.0, 0.0954531796173577
538.0, 0.08883755674767092
539.0, 0.08500462350637407
540.0, 0.08135233322277943
541.0, 0.0780201710769113
542.0, 0.07768151201338479
543.0, 0.07183473404542909
544.0, 0.07105155058734329
545.0, 0.07415273907598947
546.0, 0.07301806103142577
547.0, 0.06959137417099824
548.0, 0.06871816436335483
549.0, 0.06925331374718599
550.0, 0.06771491377645146
551.0, 0.07005481242706978
552.0, 0.07147922187856098
553.0, 0.06974861891289642
554.0, 0.062100362633862406
555.0, 0.06997070758710208
556.0, 0.07051373824092061
557.0, 0.06956435263251665
558.0, 0.07462936547490787
559.0, 0.07997782194204756
560.0, 0.08321899677274745
561.0, 0.09147102485981835
562.0, 0.10935757526345255
563.0, 0.10606594924603005
564.0, 0.11110231235637268
565.0, 0.11412940655632811
566.0, 0.10930592731267083
567.0, 0.10311460196304918
568.0, 0.10471778830744197
569.0, 0.10187020370896191
570.0, 0.09166246073414053
571.0, 0.08973483271207904
572.0, 0.08258369094458122
573.0, 0.07354055149820544
574.0, 0.06501147985396216
575.0, 0.06227140896420384
576.0, 0.05072805883485969
577.0, 0.04430755746472839
578.0, 0.04249756596081484
579.0, 0.036607180378081326
580.0, 0.03238744530386629
581.0, 0.029646959277210946
582.0, 0.027104075240293023
583.0, 0.022569876776546847
584.0, 0.022314526376971105
585.0, 0.019984536260909833
586.0, 0.01653593190896659
587.0, 0.013539773354127033
588.0, 0.012563008888117214
589.0, 0.010517278089595435
590.0, 0.009397027862870106
591.0, 0.010510475080980462
592.0, 0.00848607935531506
593.0, 0.007147607969256039
594.0, 0.007288837946431413
595.0, 0.008516251246041835
596.0, 0.004880960588976352
597.0, 0.005882115361428735
598.0, 0.005934622952306082
599.0, 0.003992316126847335
600.0, 0.003738283549652749
601.0, 0.003469457990196303
602.0, 0.002965445936863608
603.0, 0.0025367349418792
604.0, 0.003060901751118442
605.0, 0.0017229469833177076
606.0, 0.0010382882507898742
607.0, 0.0009039793516732718
608.0, 0.0007417823330571723
609.0, 0.0019819184112187596
610.0, 0.0022368614521102374
611.0, 0.0021160012308110115
612.0, 0.002225360442626427
613.0, 0.0006457764250520761
614.0, 0.0003867323765159359
615.0, 0.0004864670247809354
616.0, 0.0004936861791266065
617.0, 0.0015781909404084101
618.0, 0.0017333395067751186
619.0, 0.001242505056426541
620.0, 0.0006878211494040231
621.0, 0.0019934992653398986
622.0, 0.0012474487151308824
623.0, 0.0008664476462227602
624.0, 0.0010508987158293127
625.0, 0.0011299019269105776
626.0, 0.002889758276409183
627.0, 0.0022804287367970163
628.0, 0.0006600543296641212
629.0, 0.0003339017686797087
630.0, 0.0029979980225740928
631.0, 0.0026549129713280637
632.0, 0.0015969745559764577
633.0, 0.0018232410155562123
634.0, 0.004302854367319862
635.0, 0.004542038796999431
636.0, 0.006241785077113126
637.0, 0.009202390411794256
638.0, 0.003577415270865975
639.0, 0.009397496549465702
640.0, 0.009693921858799233
641.0, 0.004211899444548783
642.0, 0.003403082253298734
643.0, 0.004991634973194627
644.0, 0.004878757261784036
645.0, 0.004429225070962885
646.0, 0.006238003780708032
647.0, 0.0015680939237530788
648.0, 0.002128919908555538
649.0, 0.0039905907019573625
650.0, 0.003720180925873182
651.0, 0.0011011819680428274
652.0, 0.0020496397839381824
653.0, 0.0033578794231311376
654.0, 0.003291092703452238
655.0, 0.0004924602012782568
656.0, 0.0038662529732693147
657.0, 0.0038313968161223576
658.0, 0.0016166829711627459
659.0, 0.004897891684236129
660.0, 0.00181383126790689
661.0, 0.0005868357251230728
662.0, 0.0009230310368356444
663.0, 0.0015723699563689342
664.0, 0.0004722418022575873
665.0, 0.0008839257747175459
666.0, 0.0013906807759530532
667.0, 0.0013740605160976259
668.0, 0.0032836623370918203
669.0, 0.005237706064284534
670.0, 0.006443944191152317
671.0, 0.007197972058963276
672.0, 0.009243020197743718
673.0, 0.00987154222709433
674.0, 0.009934508539986805
675.0, 0.011088523924829643
676.0, 0.015636153502251265
677.0, 0.010328801717782764
678.0, 0.012487284101667469
679.0, 0.015443573013544959
680.0, 0.014045766060591817
681.0, 0.014348626984551105
682.0, 0.015640487814668397
683.0, 0.015060251470385314
684.0, 0.013608526627771704
685.0, 0.019236993174192682
686.0, 0.01795693169940663
687.0, 0.0159840497349618
688.0, 0.01594117446681364
689.0, 0.02043632970605086
690.0, 0.016769457360891037
691.0, 0.01611848512715436
692.0, 0.016722442202772345
693.0, 0.016819538473353414
694.0, 0.017594826434595104
695.0, 0.018419676315792614
696.0, 0.018398007253295358
697.0, 0.01771779250005079
698.0, 0.018437680070239233
699.0, 0.020327896086673226
700.0, 0.021583956583128974
701.0, 0.021931156713658796
702.0, 0.021444912739569902
703.0, 0.017962246190952377
704.0, 0.01893995328022616
705.0, 0.02194759056876511
706.0, 0.02428603988679813
707.0, 0.02092079486354946
708.0, 0.025697521719093355
709.0, 0.025894801905647222
710.0, 0.02133244702330129
711.0, 0.025922034138621434
712.0, 0.02898697241796693
713.0, 0.026482925672590446
714.0, 0.0247091501928239
715.0, 0.032661794918938614
716.0, 0.028158385265286624
717.0, 0.028452346833315656
718.0, 0.029067274350375885
719.0, 0.027558055975127234
720.0, 0.0271344707711092
721.0, 0.029770499864153064
722.0, 0.02971847262575731
723.0, 0.028183197415070027
724.0, 0.03145289196034702
725.0, 0.029917598475399834
726.0, 0.02826774859283587
727.0, 0.02959920518989272
728.0, 0.03551444301034302
729.0, 0.029071319617862162
730.0, 0.03418890667978042
731.0, 0.036667982465297115
732.0, 0.03255649868220085
733.0, 0.030865270022888774
734.0, 0.037256596665256346
735.0, 0.03838118565051105
736.0, 0.03635774827091101
737.0, 0.037464593758338056
738.0, 0.04167233608288739
739.0, 0.04118752809269179
740.0, 0.041959019027576636
741.0, 0.04640866148973252
742.0, 0.04528226088857867
743.0, 0.04526731757400158
744.0, 0.04620387925052515
745.0, 0.04726126218857045
746.0, 0.04680694357238528
747.0, 0.0463841047203162
748.0, 0.04616464628018098
749.0, 0.046386714311358025
750.0, 0.047137173094580806
751.0, 0.04743942143207489
752.0, 0.04601816326459204
753.0, 0.04740981535632425
754.0, 0.05023660674706924
755.0, 0.046366638121013076
756.0, 0.04737417140412173
757.0, 0.04930593922261515
758.0, 0.05051632969782208
759.0, 0.04998710234487883
760.0, 0.05341455696223569
761.0, 0.05301566759666023
762.0, 0.054197829699132304
763.0, 0.05780991262947592
764.0, 0.05858716341767684
765.0, 0.05741112539211365
766.0, 0.06176457905656335
767.0, 0.06581072848012132
768.0, 0.061476901144175665
769.0, 0.06212669918141166
770.0, 0.06688447751557274
771.0, 0.06946396765345496
772.0, 0.06903879944461432
773.0, 0.07499797199907618
774.0, 0.07025659445117326
775.0, 0.06971173282251752
776.0, 0.07212839034670564
777.0, 0.07238165429053559
778.0, 0.0655922829017187
779.0, 0.06667198689306215
780.0, 0.06606671977431146
781.0, 0.060468754478332123
782.0, 0.05819511359014747
783.0, 0.056417158386144486
784.0, 0.05393703937572855
785.0, 0.05166195384357593
786.0, 0.05112722029662213
787.0, 0.05211795858597999
788.0, 0.05142870291369345
789.0, 0.05127252688734848
790.0, 0.051804623195536935
791.0, 0.04862636450121083
792.0, 0.04748191379499216
793.0, 0.05047541239887144
794.0, 0.052401159742919125
795.0, 0.04623843923918159
796.0, 0.04582394125422149
797.0, 0.04593574838676128
798.0, 0.0440226395530033
799.0, 0.0402362873215103
800.0, 0.03993671039354934
801.0, 0.034017466944917585
802.0, 0.032844393429704445
803.0, 0.032707658747306946
804.0, 0.027623473292501574
805.0, 0.02505805269010973
806.0, 0.023427606228293953
807.0, 0.01914330661602069
808.0, 0.014275679304093337
809.0, 0.02021890287353351
810.0, 0.019272956788544484
811.0, 0.014828991195617761
812.0, 0.012223002790715814
813.0, 0.015541383408716813
814.0, 0.011713200502363016
815.0, 0.01230402148703749
816.0, 0.009919890862905442
817.0, 0.005163073047531655
818.0, 0.006003613523416433
819.0, 0.006409128255402642
820.0, 0.005550288442933938
821.0, 0.004473951966844709
822.0, 0.003957921581932643
823.0, 0.0028094078481641685
824.0, 0.0025514396153318935
825.0, 0.0028398655544823793
826.0, 0.0030721618999972806
827.0, 0.0023398917719719956
828.0, 0.0021128013501914692
829.0, 0.0015876672886424757
830.0, 0.0017148758546359634
831.0, 0.0026516197521310593
832.0, 0.0024188814782104065
833.0, 0.0017348426650115735
834.0, 0.0013046510280843753
835.0, 0.0016116828679492616
836.0, 0.002891101858118802
837.0, 0.0008324273591184522
838.0, 0.0007690809893692157
839.0, 0.0009151272298188531
840.0, 0.0006345812262542424
841.0, 0.00036849125753308934
842.0, 0.0006495235298832141
843.0, 0.001878549980535459
844.0, 0.0025277165253139357
845.0, 0.0016105547153931962
846.0, 0.002167954284696544
847.0, 0.003976255920051827
848.0, 0.0034279175765355952
849.0, 0.0014328553518443408
850.0, 0.0012846759569236836
851.0, 0.001825198659129495
852.0, 0.0019193707474236662
853.0, 0.002303849301876962
854.0, 0.0028394081768169056
855.0, 0.0013784503512553775
856.0, 0.0011707654887231336
857.0, 0.0017213840016899445
858.0, 0.0018251496495095803
859.0, 0.0007914175588280528
860.0, 0.004547277651131765
861.0, 0.0032401902139546613
862.0, 0.003431054300707226
863.0, 0.004460014085984768
864.0, 0.000686040756993936
865.0, 0.0001634495820548793
866.0, 0.0016405814916988389
867.0, 0.003208812859110912
868.0, 0.0036571899262412186
869.0, 0.003096026647439056
870.0, 0.0019371435561387404
871.0, 0.0012742701971741014
872.0, 0.000832437571157196
873.0, 0.0002374730814700612
874.0, 0.0009907658534833888
875.0, 0.0026455338990963593
876.0, 0.00221643120245966
877.0, 0.0007325354119575981
878.0, 0.0021825778123357002
879.0, 0.00258321504800535
880.0, 0.0017176285242927276
881.0, 0.0008067364555922351
882.0, 0.00048374478300403643
883.0, 0.00023389475995424329
884.0, 0.003305086201055962
885.0, 0.00259543225015662
886.0, 0.001992986328242614
887.0, 0.005632254646295123
888.0, 0.006922347514474408
889.0, 0.0031289974506313123
890.0, 0.003934385369480591
891.0, 0.00631671535850832
892.0, 0.0011577223341908433
893.0, 0.009887621735212461
894.0, 0.0091903330829782
895.0, 0.0057495598367457035
896.0, 0.004746076209691979
897.0, 0.010969857725681239
898.0, 0.008457206590353513
899.0, 0.008221632119459876
900.0, 0.01097902733158556
901.0, 0.014494566184812253
902.0, 0.0076948860748903
903.0, 0.012512422149012468
904.0, 0.015041780801041866
905.0, 0.014583235213968357
906.0, 0.013948973311886019
907.0, 0.018400543796313073
908.0, 0.016984066081913364
909.0, 0.014980933679198758
910.0, 0.015877352049011438
911.0, 0.022623064104852927
912.0, 0.018473679321653752
913.0, 0.020248457530980507
914.0, 0.01963112084389742
915.0, 0.015686702001468326
916.0, 0.01917785823269936
917.0, 0.020553595369595275
918.0, 0.0206534690658992
919.0, 0.021271415995177838
920.0, 0.023247061696964288
921.0, 0.023859138866694152
922.0, 0.023715499074833387
923.0, 0.024308033667715754
924.0, 0.023791704074222805
925.0, 0.020697565657924348
926.0, 0.02341452843330356
927.0, 0.025102239677083634
928.0, 0.02363931978318674
929.0, 0.02235579015774527
930.0, 0.02703842212484536
931.0, 0.025527961101047505
932.0, 0.02607485845425275
933.0, 0.02823625905641309
934.0, 0.02948174472167516
935.0, 0.02470612519844621
936.0, 0.02974410588298989
937.0, 0.03113626766150339
938.0, 0.030830893945043094
939.0, 0.031027349045737927
940.0, 0.03411106053510183
941.0, 0.03049456249727205
942.0, 0.0322803837819371
943.0, 0.0352106845246992
944.0, 0.035268981971152254
945.0, 0.03428938002176366
946.0, 0.040067918995613745
947.0, 0.03835076049464949
948.0, 0.035973265048781386
949.0, 0.04108539861606309
950.0, 0.042145949397854696
951.0, 0.0404623668581793
952.0, 0.04180017956797883
953.0, 0.04458053177336851
954.0, 0.04498602912340986
955.0, 0.04622106310372725
956.0, 0.0470825674818485
957.0, 0.04819779079823423
958.0, 0.04972291627011194
959.0, 0.05152139590029971
960.0, 0.052344049670361895
961.0, 0.0552423586930856
962.0, 0.05724226623397953
963.0, 0.05827210511442626
964.0, 0.060945182762796854
965.0, 0.06516227807371092
966.0, 0.06378907384405344
967.0, 0.06354911147143691
968.0, 0.06721288684781168
969.0, 0.07208042836741926
970.0, 0.07313584151106475
971.0, 0.07286744559676629
972.0, 0.07580739718799051
973.0, 0.08196260507760754
974.0, 0.08181691936096537
975.0, 0.08558681210024072
976.0, 0.08664052127299655
977.0, 0.08630986335714659
978.0, 0.08700367351673444
979.0, 0.09248298047595387
980.0, 0.09164185917975899
981.0, 0.09299181644643136
982.0, 0.0942144490525087
983.0, 0.0927035638963665
984.0, 0.09024093020353494
985.0, 0.09174058698189355
986.0, 0.08899373548910554
987.0, 0.08653276426258408
988.0, 0.08912772223670103
989.0, 0.09040880923447478
990.0, 0.08748431529701045
991.0, 0.08719301837019873
992.0, 0.0863052241415027
993.0, 0.08139279494121668
994.0, 0.08410037702459908
995.0, 0.08516786262355504
996.0, 0.08249190076020209
997.0, 0.07920168212088018
998.0, 0.07966700786936151
999.0, 0.08433042976247448
1000.0, 0.07916763897901789
1001.0, 0.07802602025304821
1002.0, 0.0787411659305434
1003.0, 0.07502668848788928
1004.0, 0.07674862453634461
1005.0, 0.08014786747656354
1006.0, 0.07733886199198506
1007.0, 0.0733058211540375
1008.0, 0.07667159966097854
1009.0, 0.07634995836548965
1010.0, 0.07546055848091812
1011.0, 0.07678885404058007
1012.0, 0.07710361211122232
1013.0, 0.0719675111545941
1014.0, 0.074934760202619
1015.0, 0.0775186567555643
1016.0, 0.07434595249426122
1017.0, 0.07019704795262849
1018.0, 0.07314022636156875
1019.0, 0.07209342772092207
1020.0, 0.07226146462252853
1021.0, 0.07461561895621707
1022.0, 0.07554598052603265
1023.0, 0.07062505465628736
1024.0, 0.07156620239276916
1025.0, 0.07511464227774345
1026.0, 0.07374745404629493
1027.0, 0.07053492131092202
1028.0, 0.07206560478568408
1029.0, 0.07066636652507875
1030.0, 0.07188783371608473
1031.0, 0.07328723800755929
1032.0, 0.07320687261772167
1033.0, 0.07102513259927104
1034.0, 0.0730104073984913
1035.0, 0.07323772045984976
1036.0, 0.0705449933671023
1037.0, 0.07052801301898207
1038.0, 0.0778751138479119
1039.0, 0.0699582386348438
1040.0, 0.06970328397576431
1041.0, 0.07125947390669508
1042.0, 0.07084311214217055
1043.0, 0.06789982072580082
1044.0, 0.07906492123324566
1045.0, 0.07365342214541677
1046.0, 0.0705011193578984
1047.0, 0.07184368108983828
1048.0, 0.07472022814016048
1049.0, 0.0723888459588591
1050.0, 0.069998277720439
1051.0, 0.07173269786785924
1052.0, 0.0732937750612859
1053.0, 0.07168423121342433
1054.0, 0.07622220740618918
1055.0, 0.07153690307813321
1056.0, 0.07232152074265233
1057.0, 0.07591952587231952
1058.0, 0.0773959313981651
1059.0, 0.0732085641973712
1060.0, 0.07825397954506987
1061.0, 0.07884586918508708
1062.0, 0.0780917451816357
1063.0, 0.07892569222415409
1064.0, 0.07986036324667346
1065.0, 0.0764878738965046
1066.0, 0.07737238922753632
1067.0, 0.08067813308018465
1068.0, 0.08338410635167456
1069.0, 0.08177536254705065
1070.0, 0.08384839894208569
1071.0, 0.08275957898321264
1072.0, 0.08223531454798752
1073.0, 0.08436562583659617
1074.0, 0.0889719211181356
1075.0, 0.08553694503902198
1076.0, 0.08903459311710903
1077.0, 0.08893955396322832
1078.0, 0.08512061694308547
1079.0, 0.08507202649885026
1080.0, 0.08798423648232809
1081.0, 0.08611660275829966
1082.0, 0.08568816497447271
1083.0, 0.08760659036979038
1084.0, 0.08944469655275322
1085.0, 0.08303930611320591
1086.0, 0.08456552438748992
1087.0, 0.08478415877085083
1088.0, 0.08203782180117136
1089.0, 0.07877463431540378
1090.0, 0.0857633765515343
1091.0, 0.08296423868081187
1092.0, 0.07918777824887142
1093.0, 0.07830370876381461
1094.0, 0.07966283870647123
1095.0, 0.07233649096074031
1096.0, 0.0748312111000188
1097.0, 0.07533786748828607
1098.0, 0.07444462041912119
1099.0, 0.07366766281045956
1100.0, 0.07408788983522178
1101.0, 0.06790243494640841
1102.0, 0.06849119768620775
1103.0, 0.06905399010739559
1104.0, 0.0663862204221819
1105.0, 0.06169680519386098
1106.0, 0.0628362116763028
1107.0, 0.062118238056982474
1108.0, 0.06204851462386714
1109.0, 0.06344659842080498
1110.0, 0.06498029910675511
1111.0, 0.054722182028708995
1112.0, 0.0566646821102985
1113.0, 0.058368275766818065
1114.0, 0.055592113371167096
1115.0, 0.049927340097319896
1116.0, 0.05634880125003819
1117.0, 0.04987578533965167
1118.0, 0.04828425765466069
1119.0, 0.049950337336410223
1120.0, 0.04998268145963138
1121.0, 0.04261985168412363
1122.0, 0.04760125200222467
1123.0, 0.044645727502487687
1124.0, 0.04132847575090629
1125.0, 0.04108424133308611
1126.0, 0.04160675241738199
1127.0, 0.038114271676928074
1128.0, 0.03734875444013328
1129.0, 0.03810491226514131
1130.0, 0.036366734727598896
1131.0, 0.029778912128347594
1132.0, 0.03767954206088081
1133.0, 0.033853089719358666
1134.0, 0.03253519853429759
1135.0, 0.03278393920378254
1136.0, 0.03173481386613342
1137.0, 0.03176437939048621
1138.0, 0.02901708083097005
1139.0, 0.027466218843313288
1140.0, 0.02678165497462845
1141.0, 0.026040464870315586
1142.0, 0.024180332213805614
1143.0, 0.030210556812379392
1144.0, 0.02570470489739769
1145.0, 0.026124531327829943
1146.0, 0.028689620785746175
1147.0, 0.02232679351255059
1148.0, 0.02609101878733503
1149.0, 0.026543590572846883
1150.0, 0.02210684540862918
1151.0, 0.019113098224702075
1152.0, 0.022110616762447084
1153.0, 0.023701771362620482
1154.0, 0.02252779453132591
1155.0, 0.02193089342984482
1156.0, 0.020298085959030765
1157.0, 0.01868890123715763
1158.0, 0.02172678816277326
1159.0, 0.01963193560623072
1160.0, 0.015650842669802024
1161.0, 0.017054959883227794
1162.0, 0.02032778414913043
1163.0, 0.01818349660666498
1164.0, 0.018083108189021344
1165.0, 0.02332526532224144
1166.0, 0.018204102222082432
1167.0, 0.013900292195509131
1168.0, 0.017609033061312254
1169.0, 0.014622443372643694
1170.0, 0.012374660019445462
1171.0, 0.015959824856974433
1172.0, 0.014963200489361969
1173.0, 0.010558431992433979
1174.0, 0.01372181459822756
1175.0, 0.017001318036449012
1176.0, 0.013521249826581396
1177.0, 0.011644743627614975
1178.0, 0.012211970271600616
1179.0, 0.013292926502982413
1180.0, 0.012790520786929048
1181.0, 0.016940364467046578
1182.0, 0.013209898550113446
1183.0, 0.008140734946089797
1184.0, 0.007780614171740559
1185.0, 0.01395103173343492
1186.0, 0.006474468348262857
1187.0, 0.007672393817814771
1188.0, 0.010099947502947184
1189.0, 0.008895694882656915
1190.0, 0.004100023098202558
1191.0, 0.011876362101442014
1192.0, 0.006799011186398005
1193.0, 0.0036403936510145058
1194.0, 0.006214089743315555
1195.0, 0.009891721046248666
1196.0, 0.0009360481520382675
1197.0, 0.0028225308327109082
1198.0, 0.003390784682868028
1199.0, 0.0032309334938265986
1200.0, 0.003466093833184652
1201.0, 0.004408195882896749
1202.0, 0.000825449981671665
1203.0, 0.001383464547116141
1204.0, 0.004864895036583153
1205.0, 0.006285570298722764
1206.0, 0.004258693177028651
1207.0, 0.0038678819571789985
1208.0, 0.005444500682378972
1209.0, 0.002187109236870522
1210.0, 0.0042043078369416054
1211.0, 0.006468839806676976
1212.0, 0.0005081258931510847
1213.0, 0.0008237806307099667
1214.0, 0.006421074071539832
1215.0, 0.003913964350945961
1216.0, 0.001003031884850287
1217.0, 0.001971551350752218
1218.0, 0.001919934989626857
1219.0, 0.0004549187079510861
1220.0, 0.0060111686526796715
1221.0, 0.0078073711717539405
1222.0, 0.004858272064157957
1223.0, 0.0018350752733396081
1224.0, 0.0068624078221968966
1225.0, 0.003050515129553823
1226.0, 0.0014934068416292397
1227.0, 0.003320975944305369
1228.0, 0.005843056593361482
1229.0, 0.00451680473504628
1230.0, 0.01092432315137009
1231.0, 0.0061752055910348136
1232.0, 0.0027914971589029394
1233.0, 0.003171277488517033
1234.0, 0.005387686400372431
1235.0, 0.005532915414207487
1236.0, 0.001973876546566518
1237.0, 0.005053268035803502
1238.0, 0.005043583211957856
1239.0, 0.0026998475074621105
1240.0, 0.005745889748911593
1241.0, 0.007285302215647345
1242.0, 0.0022124783444643276
1243.0, 0.004613949017435626
1244.0, 0.008638333830009079
1245.0, 0.007913830046250094
1246.0, 0.0025952998614359145
1247.0, 0.012427870095612387
1248.0, 0.008076525665744048
1249.0, 0.005192762046369503
1250.0, 0.006158068046053959
1251.0, 0.006575843793051506
1252.0, 0.0017136845617068647
1253.0, 0.006025262425007586
1254.0, 0.00674761239253321
1255.0, 0.0039065112776777945
1256.0, 0.002770969501310281
1257.0, 0.009306663955789742
1258.0, 0.004753222860603026
1259.0, 0.007810653505463967
1260.0, 0.0068149829069154115
1261.0, 0.003087904524068451
1262.0, 0.0024693992949232153
1263.0, 0.01209461998786167
1264.0, 0.0055564526062800955
1265.0, 0.0017652394177443708
1266.0, 0.00498618250645774
1267.0, 0.008187015082648264
1268.0, 0.0045547402930026576
1269.0, 0.004609421166263889
1270.0, 0.009904970105533432
1271.0, 0.005172886462099834
1272.0, 0.004305584661557123
1273.0, 0.008604554774514724
1274.0, 0.008381358534822657
1275.0, 0.0013824065684399198
1276.0, 0.00984899716242111
1277.0, 0.00874572854521081
1278.0, 0.005186491550858042
1279.0, 0.006028744137246591
1280.0, 0.009222821739948142
1281.0, 0.0024675104778636332
1282.0, 0.0071354823223105605
1283.0, 0.009534768703062886
1284.0, 0.006347677569429507
1285.0, 0.0023707120253790262
1286.0, 0.011103146671511948
1287.0, 0.004849053235743358
1288.0, 0.0012797988902026611
1289.0, 0.004896643534903023
1290.0, 0.008515777235033509
1291.0, 0.005073568248473217
1292.0, 0.007871771904010337
1293.0, 0.005118560686013533
1294.0, 0.003902682919288997
1295.0, 0.005625741751089637
1296.0, 0.00745128487890211
1297.0, 0.004989955952943888
1298.0, 0.0006107590718954429
1299.0, 0.010380376215945782
1300.0, 0.008767289315147522
1301.0, 0.005696900633266663
1302.0, 0.006565323796421966
1303.0, 0.006215440421966296
1304.0, 0.0007357661472220081
1305.0, 0.008087393918663534
1306.0, 0.005068922237450639
1307, 0.0
1308, 0.0
1309, 0.0
1310, 0.0
1311, 0.0
1312, 0.0
1313, 0.0
1314, 0.0
1315, 0.0
1316, 0.0
1317, 0.0
1318, 0.0
1319, 0.0
1320, 0.0
1321, 0.0
1322, 0.0
1323, 0.0
1324, 0.0
1325, 0.0
1326, 0.0
1327, 0.0
1328, 0.0
1329, 0.0
1330, 0.0
1331, 0.0
1332, 0.0
1333, 0.0
1334, 0.0
1335, 0.0
1336, 0.0
1337, 0.0
1338, 0.0
1339, 0.0
1340, 0.0
1341, 0.0
1342, 0.0
1343, 0.0
1344, 0.0
1345, 0.0
1346, 0.0
1347, 0.0
1348, 0.0
1349, 0.0
1350, 0.0
1351, 0.0
1352, 0.0
1353, 0.0
1354, 0.0
1355, 0.0
1356, 0.0
1357, 0.0
1358, 0.0
1359, 0.0
1360, 0.0
1361, 0.0
1362, 0.0
1363, 0.0
1364, 0.0
1365, 0.0
1366, 0.0
1367, 0.0
1368, 0.0
1369, 0.0
1370, 0.0
1371, 0.0
1372, 0.0
1373, 0.0
1374, 0.0
1375, 0.0
1376, 0.0
1377, 0.0
1378, 0.0
1379, 0.0
1380, 0.0
1381, 0.0
1382, 0.0
1383, 0.0
1384, 0.0
1385, 0.0
1386, 0.0
1387, 0.0
1388, 0.0
1389, 0.0
1390, 0.0
1391, 0.0
1392, 0.0
1393, 0.0
1394, 0.0
1395, 0.0
1396, 0.0
1397, 0.0
1398, 0.0
1399, 0.0
1400, 0.0
1401, 0.0
1402, 0.0
1403, 0.0
1404, 0.0
1405, 0.0
1406, 0.0
1407, 0.0
1408, 0.0
1409, 0.0
1410, 0.0
1411, 0.0
1412, 0.0
1413, 0.0
1414, 0.0
1415, 0.0
1416, 0.0
1417, 0.0
1418, 0.0
1419, 0.0
1420, 0.0
1421, 0.0
1422, 0.0
1423, 0.0
1424, 0.0
1425, 0.0
1426, 0.0
1427, 0.0
1428, 0.0
1429, 0.0
1430, 0.0
1431, 0.0
1432, 0.0
1433, 0.0
1434, 0.0
1435, 0.0
1436, 0.0
1437, 0.0
1438, 0.0
1439, 0.0
1440, 0.0
1441, 0.0
1442, 0.0
1443, 0.0
1444, 0.0
1445, 0.0
1446, 0.0
1447, 0.0
1448, 0.0
1449, 0.0
1450, 0.0
1451, 0.0
1452, 0.0
1453, 0.0
1454, 0.0
1455, 0.0
1456, 0.0
1457, 0.0
1458, 0.0
1459, 0.0
1460, 0.0
1461, 0.0
1462, 0.0
1463, 0.0
1464, 0.0
1465, 0.0
1466, 0.0
1467, 0.0
1468, 0.0
1469, 0.0
1470, 0.0
1471, 0.0
1472, 0.0
1473, 0.0
1474, 0.0
1475, 0.0
1476, 0.0
1477, 0.0
1478, 0.0
1479, 0.0
1480, 0.0
1481, 0.0
1482, 0.0
1483, 0.0
1484, 0.0
1485, 0.0
1486, 0.0
1487, 0.0
1488, 0.0
1489, 0.0
1490, 0.0
1491, 0.0
1492, 0.0
1493, 0.0
1494, 0.0
1495, 0.0
1496, 0.0
1497, 0.0
1498, 0.0
1499, 0.0
1500, 0.0
1501, 0.0
1502, 0.0
1503, 0.0
1504, 0.0
1505, 0.0
1506, 0.0
1507, 0.0
1508, 0.0
1509, 0.0
1510, 0.0
1511, 0.0
1512, 0.0
1513, 0.0
1514, 0.0
1515, 0.0
1516, 0.0
1517, 0.0
1518, 0.0
1519, 0.0
1520, 0.0
1521, 0.0
1522, 0.0
1523, 0.0
1524, 0.0
1525, 0.0
1526, 0.0
1527, 0.0
1528, 0.0
1529, 0.0
1530, 0.0
1531, 0.0
1532, 0.0
1533, 0.0
1534, 0.0
1535, 0.0
1536, 0.0
1537, 0.0
1538, 0.0
1539, 0.0
1540, 0.0
1541, 0.0
1542, 0.0
1543, 0.0
1544, 0.0
1545, 0.0
1546, 0.0
1547, 0.0
1548, 0.0
1549, 0.0
1550, 0.0
1551, 0.0
1552, 0.0
1553, 0.0
1554, 0.0
1555, 0.0
1556, 0.0
1557, 0.0
1558, 0.0
1559, 0.0
1560, 0.0
1561, 0.0
1562, 0.0
1563, 0.0
1564, 0.0
1565, 0.0
1566, 0.0
1567, 0.0
1568, 0.0
1569, 0.0
1570, 0.0
1571, 0.0
1572, 0.0
1573, 0.0
1574, 0.0
1575, 0.0
1576, 0.0
1577, 0.0
1578, 0.0
1579, 0.0
1580, 0.0
1581, 0.0
1582, 0.0
1583, 0.0
1584, 0.0
1585, 0.0
1586, 0.0
1587, 0.0
1588, 0.0
1589, 0.0
1590, 0.0
1591, 0.0
1592, 0.0
1593, 0.0
1594, 0.0
1595, 0.0
1596, 0.0
1597, 0.0
1598, 0.0
1599, 0.0
