30, 0.0
31, 0.0
32, 0.0
33, 0.0
34, 0.0
35, 0.0
36, 0.0
37, 0.0
38, 0.0
39, 0.0
40, 0.0
41, 0.0
42, 0.0
43, 0.0
44, 0.0
45, 0.0
46, 0.0
47, 0.0
48, 0.0
49, 0.0
50, 0.0
51, 0.0
52, 0.0
53, 0.0
54, 0.0
55, 0.0
56, 0.0
57, 0.0
58, 0.0
59, 0.0
60, 0.0
61, 0.0
62, 0.0
63, 0.0
64, 0.0
65, 0.0
66, 0.0
67, 0.0
68, 0.0
69, 0.0
70, 0.0
71, 0.0
72, 0.0
73, 0.0
74, 0.0
75, 0.0
76, 0.0
77, 0.0
78, 0.0
79, 0.0
80, 0.0
81, 0.0
82, 0.0
83, 0.0
84, 0.0
85, 0.0
86, 0.0
87, 0.0
88, 0.0
89, 0.0
90, 0.0
91, 0.0
92, 0.0
93, 0.0
94, 0.0
95, 0.0
96, 0.0
97, 0.0
98, 0.0
99, 0.0
100, 0.0
101, 0.0
102, 0.0
103, 0.0
104, 0.0
105, 0.0
106, 0.0
107, 0.0
108, 0.0
109, 0.0
110, 0.0
111, 0.0
112, 0.0
113, 0.0
114, 0.0
115, 0.0
116, 0.0
117, 0.0
118, 0.0
119.0, 5.146340397610416e-06
120.0, 0.00012210862216149165
121.0, 0.00655828445097129
122.0, 0.011262951406369546
123.0, 0.0016315506085325567
124.0, 0.0052490788297998026
125.0, 0.0055361380407051046
126.0, 0.0009645938319967078
127.0, 0.005010159149146735
128.0, 0.014397317740540028
129.0, 0.020964368230056984
130.0, 0.016158967010013636
131.0, 0.03570225666911859
132.0, 0.038981875021245206
133.0, 0.029343907232060887
134.0, 0.039749229250044676
135.0, 0.044934578111357704
136.0, 0.049383434367007796
137.0, 0.05555331344297474
138.0, 0.06479113683086349
139.0, 0.0674067783734559
140.0, 0.07109502439951905
141.0, 0.09807735593566966
142.0, 0.10512702393648875
143.0, 0.11443403856871098
144.0, 0.13258744932454117
145.0, 0.13549997591779647
146.0, 0.1347262027084521
147.0, 0.13057986161238547
148.0, 0.12255410058585312
149.0, 0.09955823544192799
150.0, 0.08904863426968983
151.0, 0.08993491800444835
152.0, 0.05606137989386481
153.0, 0.04333208815266246
154.0, 0.03565569885641041
155.0, 0.02121043856695523
156.0, 0.018419280470219446
157.0, 0.014605243714542407
158.0, 0.0096349375496372
159.0, 0.005602041608538898
160.0, 0.010566476409713605
161.0, 0.013244411890527247
162.0, 0.009196038871048437
163.0, 0.016394603007708494
164.0, 0.020794755981376513
165.0, 0.0244721515715329
166.0, 0.030792765675575234
167.0, 0.04514236418309475
168.0, 0.052630385890971416
169.0, 0.05383822273874159
170.0, 0.07649098269811094
171.0, 0.08680524877369121
172.0, 0.0943158145151209
173.0, 0.10594661701844266
174.0, 0.1230831268383048
175.0, 0.13854052718242937
176.0, 0.15458846233875556
177.0, 0.1796675991084659
178.0, 0.18312332590904562
179.0, 0.1978102046416026
180.0, 0.233641152419737
181.0, 0.23857588284204975
182.0, 0.2601212600137334
183.0, 0.2865197973163306
184.0, 0.30334676318282255
185.0, 0.31261768725501016
186.0, 0.3239952764581831
187.0, 0.3347482698440726
188.0, 0.32411817504680657
189.0, 0.33018141183455235
190.0, 0.33031301949832387
191.0, 0.31165920014114384
192.0, 0.3238613090681114
193.0, 0.32304396187782913
194.0, 0.31260839495598447
195.0, 0.29743813004130787
196.0, 0.2906160459823094
197.0, 0.2772968434252811
198.0, 0.25719582660341467
199.0, 0.2525934786077135
200.0, 0.23742410410265313
201.0, 0.22429054370539178
202.0, 0.22275963103975732
203.0, 0.2203620903453218
204.0, 0.21062624300900334
205.0, 0.20055619831512622
206.0, 0.20830460170936838
207.0, 0.20015400168128059
208.0, 0.1959245988614409
209.0, 0.19905027617019777
210.0, 0.1899389210095302
211.0, 0.18175435671851042
212.0, 0.17540986023898342
213.0, 0.1720465721111235
214.0, 0.15096437874011942
215.0, 0.14171706604152728
216.0, 0.13774011638057151
217.0, 0.11705102597333383
218.0, 0.10733404622144634
219.0, 0.10095071573362045
220.0, 0.09523620114598833
221.0, 0.08252323717163215
222.0, 0.08623124736319047
223.0, 0.08714462335202898
224.0, 0.06740367270566494
225.0, 0.08147110042842874
226.0, 0.07468345957743053
227.0, 0.05675454702333731
228.0, 0.06115097395101552
229.0, 0.06147134614119627
230.0, 0.05735208285171054
231.0, 0.051257276629867746
232.0, 0.07169204340873216
233.0, 0.06373130513528776
234.0, 0.05690356839810751
235.0, 0.07557241212454574
236.0, 0.07760842056512861
237.0, 0.08766996100315541
238.0, 0.10105932574200832
239.0, 0.10474252959821187
240.0, 0.10373039298910593
241.0, 0.11573205237378925
242.0, 0.13938737304489904
243.0, 0.13014876653986868
244.0, 0.14787904043513778
245.0, 0.16526568890299315
246.0, 0.16439833155812378
247.0, 0.17725234485475913
248.0, 0.18832024186883878
249.0, 0.19829931360213915
250.0, 0.2085951966562059
251.0, 0.21379146092133638
252.0, 0.21574827938890456
253.0, 0.21605971271674648
254.0, 0.22136213391580048
255.0, 0.22149018322431405
256.0, 0.22058939208498912
257.0, 0.2204012673055067
258.0, 0.21785102575872334
259.0, 0.21171648537963492
260.0, 0.20578483174955903
261.0, 0.20475859170458574
262.0, 0.19795324289011687
263.0, 0.19192032383493215
264.0, 0.18746409379910625
265.0, 0.1855381706753666
266.0, 0.17847784248547427
267.0, 0.17615227732018798
268.0, 0.18102869005970854
269.0, 0.1876211181346049
270.0, 0.19257649296082488
271.0, 0.19547175101537187
272.0, 0.195763754780704
273.0, 0.2057443490344631
274.0, 0.2105975625325013
275.0, 0.2117714328661985
276.0, 0.21160944222760464
277.0, 0.21897975609232595
278.0, 0.22310757143975843
279.0, 0.22450305742713408
280.0, 0.2319339766608338
281.0, 0.2375947701645376
282.0, 0.23726368545346477
283.0, 0.23045420543111467
284.0, 0.23849895832952422
285.0, 0.2306317528061686
286.0, 0.22369811706651394
287.0, 0.2326267058846636
288.0, 0.2133967580195708
289.0, 0.2035191629113053
290.0, 0.1972667945211813
291.0, 0.1811447251492167
292.0, 0.15876491772974097
293.0, 0.14951172527759563
294.0, 0.14763979803761282
295.0, 0.1122595397259093
296.0, 0.10336267201848338
297.0, 0.09549762429312154
298.0, 0.08037700260113738
299.0, 0.07995246426623506
300.0, 0.07106022964046708
301.0, 0.060354961765702715
302.0, 0.05320643470150892
303.0, 0.059196229089641415
304.0, 0.04950314619032765
305.0, 0.0365182910193574
306.0, 0.043268917921297265
307.0, 0.04161095094193994
308.0, 0.04109222526118028
309.0, 0.041924995213699995
310.0, 0.040154352283936816
311.0, 0.03547195108829814
312.0, 0.03395576229114545
313.0, 0.0366297161218024
314.0, 0.03440811116862007
315.0, 0.03317107055627435
316.0, 0.03529431358334611
317.0, 0.04231717525535719
318.0, 0.03425648320368046
319.0, 0.04144268891354055
320.0, 0.0493373335649019
321.0, 0.039477124097211824
322.0, 0.046835609977713924
323.0, 0.04706211884144084
324.0, 0.04217811766539116
325.0, 0.04084427007714584
326.0, 0.03989559693165994
327.0, 0.03064469141108161
328.0, 0.01671339485748004
329.0, 0.023916811707716153
330.0, 0.015171724511119712
331.0, 0.009112564169822875
332.0, 0.011697949666883842
333.0, 0.0072017446919084935
334.0, 0.003855033717915375
335.0, 0.003210692669127627
336.0, 0.006542634146505382
337.0, 0.009070520534874591
338.0, 0.005877254935391582
339.0, 0.0020964307719794385
340.0, 0.004364012818701372
341.0, 0.0074820172211810376
342.0, 0.006465334082629085
343.0, 0.005608518163776831
344.0, 0.015548232135979279
345.0, 0.010060674489072784
346.0, 0.009903607508498719
347.0, 0.013904969063133887
348.0, 0.0028242320075207925
349.0, 0.005371558868943393
350.0, 0.012039248652472183
351.0, 0.01785604573205665
352.0, 0.006657377854617123
353.0, 0.008596818489300528
354.0, 0.010192253827691343
355.0, 0.004955891367733088
356.0, 0.012710576304117538
357.0, 0.01272191513900069
358.0, 0.009812793987629185
359.0, 0.008109486680905859
360.0, 0.00774053963038404
361.0, 0.004840317747306076
362.0, 0.0016944801236895614
363.0, 0.0018089935983755662
364.0, 0.009244870513025057
365.0, 0.013627693238776786
366.0, 0.014604639186406719
367.0, 0.013122360456741965
368.0, 0.020303081450999003
369.0, 0.021223082464267632
370.0, 0.017444380194252797
371.0, 0.02453591963917092
372.0, 0.02052282431608336
373.0, 0.015326323653962349
374.0, 0.012590248617802337
375.0, 0.01741824089427129
376.0, 0.014596496298556997
377.0, 0.015160407621814552
378.0, 0.02249721806970545
379.0, 0.01511179664225653
380.0, 0.018468835060964254
381.0, 0.021637710331936233
382.0, 0.017488001856260656
383.0, 0.016874532910445748
384.0, 0.026023039523237885
385.0, 0.030893826679247262
386.0, 0.017158518908946246
387.0, 0.03526947004558106
388.0, 0.03871793686759511
389.0, 0.034135928071193616
390.0, 0.03215381492999663
391.0, 0.03355013590912125
392.0, 0.040234296192171316
393.0, 0.05101225872393954
394.0, 0.0635045425403753
395.0, 0.054948562367636206
396.0, 0.05945717125597279
397.0, 0.0742948418774707
398.0, 0.07860758206605474
399.0, 0.07439289776529377
400.0, 0.07907957682516392
401.0, 0.09152033849957315
402.0, 0.09217294178452504
403.0, 0.10133378222300479
404.0, 0.10770927836021342
405.0, 0.108458378119935
406.0, 0.1068262921021134
407.0, 0.11086243696754289
408.0, 0.10401679443284724
409.0, 0.08438040950207777
410.0, 0.0977256054772279
411.0, 0.08695486793300425
412.0, 0.07447911682446563
413.0, 0.07136478430869368
414.0, 0.06654139236955542
415.0, 0.05358026581153896
416.0, 0.04976354385574766
417.0, 0.06566711837463102
418.0, 0.04674846771497175
419.0, 0.05280261723102879
420.0, 0.0635125147852888
421.0, 0.061412879882123655
422.0, 0.06839595781845924
423.0, 0.0840685557906469
424.0, 0.0963087363810393
425.0, 0.09146569628429978
426.0, 0.11632786361643502
427.0, 0.1269831879020639
428.0, 0.13361054997348085
429.0, 0.15151369930522188
430.0, 0.1603271819894764
431.0, 0.1545139883080871
432.0, 0.14540192959499113
433.0, 0.15192398942043112
434.0, 0.13943109535498996
435.0, 0.13911913321775055
436.0, 0.1439706911055349
437.0, 0.13546475505444014
438.0, 0.11786027670609285
439.0, 0.1226139176634734
440.0, 0.13375058270656892
441.0, 0.10654833978486482
442.0, 0.10243931588656424
443.0, 0.09695162820965833
444.0, 0.08643531704879157
445.0, 0.07015490821841233
446.0, 0.0674110682083424
447.0, 0.06517382479774832
448.0, 0.06202337022893095
449.0, 0.06036267740015911
450.0, 0.05202157708842625
451.0, 0.04709348898433042
452.0, 0.04842003144235416
453.0, 0.05904872096051329
454.0, 0.05118046842303526
455.0, 0.05214265311730529
456.0, 0.06316648383107065
457.0, 0.06557679384689626
458.0, 0.07717820674491263
459.0, 0.08261635664875017
460.0, 0.07977482849234196
461.0, 0.07578072566042884
462.0, 0.08465044104618706
463.0, 0.08569512985981503
464.0, 0.07821773931860947
465.0, 0.08426755817443887
466.0, 0.08208143723310986
467.0, 0.08690417346463056
468.0, 0.10273584904511598
469.0, 0.12753900184728792
470.0, 0.1255341998426447
471.0, 0.13230029564240242
472.0, 0.1504938890778413
473.0, 0.1405301510989937
474.0, 0.15762274115452138
475.0, 0.17732847071207022
476.0, 0.1918980059278428
477.0, 0.2002183166475681
478.0, 0.23380493899174054
479.0, 0.2543656882134621
480.0, 0.2623297049037193
481.0, 0.3200922072460679
482.0, 0.351942872247778
483.0, 0.37552334800735987
484.0, 0.40482296217914593
485.0, 0.48201814452375713
486.0, 0.49166776470330603
487.0, 0.49195068047493967
488.0, 0.49663310689327045
489.0, 0.4884219881070496
490.0, 0.4566106700041371
491.0, 0.43284524392239904
492.0, 0.42304214455562295
493.0, 0.41248735657683566
494.0, 0.42077489109277544
495.0, 0.4341252661768686
496.0, 0.45410440777938016
497.0, 0.5026391930635419
498.0, 0.5732734702168659
499.0, 0.6321903774132586
500.0, 0.6873537709645452
501.0, 0.8017159452299186
502.0, 0.862241194239565
503.0, 0.9130434080834029
504.0, 0.9610003390736587
505.0, 0.9950611783106386
506.0, 0.9512942621910996
507.0, 0.9102538024325584
508.0, 0.8725111776368376
509.0, 0.789997855896004
510.0, 0.7295021594869032
511.0, 0.6762950217049722
512.0, 0.6249389460781485
513.0, 0.5679788014135213
514.0, 0.5423643407758222
515.0, 0.4977025829595751
516.0, 0.4422164637111488
517.0, 0.41180455343433364
518.0, 0.3620763997313679
519.0, 0.31720424265502356
520.0, 0.2859543545964932
521.0, 0.2802654434877107
522.0, 0.22852810661031162
523.0, 0.207384240453719
524.0, 0.20503390761720042
525.0, 0.1907087903055483
526.0, 0.17726515204833523
527.0, 0.16870525575182221
528.0, 0.1556862088147164
529.0, 0.1248165047906241
530.0, 0.13720738396174054
531.0, 0.12252890970513405
532.0, 0.10313107584529163
533.0, 0.10723628664603914
534.0, 0.09069362127365037
535.0, 0.0873290283959871
536.0, 0.0877908280784387
537.0, 0.08326399858954893
538.0, 0.08600070654456954
539.0, 0.08677403595825259
540.0, 0.087405770480606
541.0, 0.08870120863170802
542.0, 0.0803929023154531
543.0, 0.10058854763956161
544.0, 0.11204191028720832
545.0, 0.09813726405653521
546.0, 0.11883152861173825
547.0, 0.14590487775183758
548.0, 0.1605349961102349
549.0, 0.16194147837529413
550.0, 0.20394401355542363
551.0, 0.20655620378189923
552.0, 0.224168511883923
553.0, 0.26597815135189595
554.0, 0.2858506345326659
555.0, 0.30125322353760814
556.0, 0.31378117039105186
557.0, 0.3234961338485774
558.0, 0.3292239049653996
559.0, 0.3199467678609362
560.0, 0.303595764824095
561.0, 0.28421784320798726
562.0, 0.2680463545664452
563.0, 0.25143592429402045
564.0, 0.23108324618168963
565.0, 0.20933323476557403
566.0, 0.19084239938344927
567.0, 0.16471722612253248
568.0, 0.1462552453971236
569.0, 0.13017607709710471
570.0, 0.10887125801197335
571.0, 0.09307791851874785
572.0, 0.09198373102481104
573.0, 0.08792829781756169
574.0, 0.06648091536966357
575.0, 0.06552591171431618
576.0, 0.05356906714083127
577.0, 0.044779151799457954
578.0, 0.04631670766400007
579.0, 0.039801634707049546
580.0, 0.03186012049282747
581.0, 0.032037321293686666
582.0, 0.040368364641975914
583.0, 0.0338439427745556
584.0, 0.02655653765832846
585.0, 0.03512774946978484
586.0, 0.0510853726314602
587.0, 0.029248510632339547
588.0, 0.03964825521486521
589.0, 0.04516214594529128
590.0, 0.04235785258539863
591.0, 0.03813459524080863
592.0, 0.054448147805308225
593.0, 0.05475148325016142
594.0, 0.05115561227691588
595.0, 0.06596632835633821
596.0, 0.05670968406086494
597.0, 0.047521455929975115
598.0, 0.047071141899682124
599.0, 0.0615776926674263
600.0, 0.05501854382714234
601.0, 0.051806875553084955
602.0, 0.04856519732595922
603.0, 0.04278066261901955
604.0, 0.031099375622008305
605.0, 0.037929607331771135
606.0, 0.03276612422323931
607.0, 0.01411925245118757
608.0, 0.028460944207336178
609.0, 0.019311890277559918
610.0, 0.01487531721776284
611.0, 0.017005373460081363
612.0, 0.013678123556179391
613.0, 0.008457889721656987
614.0, 0.011873283165469683
615.0, 0.014961976790460126
616.0, 0.0018488045984362857
617.0, 0.01449705982234649
618.0, 0.026070417047049786
619.0, 0.024833930983051235
620.0, 0.0035277827148431327
621.0, 0.03418700456766171
622.0, 0.032966565715194476
623.0, 0.031323015420832066
624.0, 0.04582547572041012
625.0, 0.06157341553669303
626.0, 0.044978478974761406
627.0, 0.05271983175237211
628.0, 0.07990208007970602
629.0, 0.03974423027879442
630.0, 0.025081650562165027
631.0, 0.02522672111444141
632.0, 0.02722482011734758
633.0, 0.009045364748417883
634.0, 0.021869272375688007
635.0, 0.01924005527683105
636.0, 0.010361939548935637
637.0, 0.009430826766089973
638.0, 0.018647714667282142
639.0, 0.010298660761325427
640.0, 0.0038101449403103197
641.0, 0.00948865432378087
642.0, 0.0035654254636937324
643.0, 0.012673768890981367
644.0, 0.020410118147729646
645.0, 0.020478760807783835
646.0, 0.011949449455907722
647.0, 0.033376157707104885
648.0, 0.032604771187065715
649.0, 0.01648505413096204
650.0, 0.01635655436580713
651.0, 0.03457886775376899
652.0, 0.02357139787747441
653.0, 0.0162692887408546
654.0, 0.04663161769540593
655.0, 0.010024938384163185
656.0, 0.005767613748527307
657.0, 0.013002469544105869
658.0, 0.01806628746737679
659.0, 0.012962825553205607
660.0, 0.007599484544085084
661.0, 0.0035074170162772275
662.0, 0.001614988606326512
663.0, 0.003273072031688048
664.0, 0.008836282245047785
665.0, 0.008253178202141165
666.0, 0.011436425587842738
667.0, 0.0341765507186436
668.0, 0.01925981877220456
669.0, 0.020859316404768163
670.0, 0.03026461742439242
671.0, 0.03817965571455584
672.0, 0.026804126525324823
673.0, 0.05603749569212815
674.0, 0.06722718283271287
675.0, 0.054483495913483754
676.0, 0.08016138710343369
677.0, 0.09785488597605556
678.0, 0.1053929165271837
679.0, 0.11057302673869523
680.0, 0.1274224024540636
681.0, 0.11563108000132669
682.0, 0.11575182213019423
683.0, 0.11893365179149447
684.0, 0.11562447091592533
685.0, 0.10001146635473673
686.0, 0.09953951870086068
687.0, 0.09411934199397994
688.0, 0.081056045910409
689.0, 0.08374695097379226
690.0, 0.07217551766851223
691.0, 0.06002955275406407
692.0, 0.055035451615142054
693.0, 0.06618102882861446
694.0, 0.0368086524718724
695.0, 0.025068230165979418
696.0, 0.0283588956257148
697.0, 0.038574427877985665
698.0, 0.01352196484197391
699.0, 0.02276297946532657
700.0, 0.022853910589150532
701.0, 0.008701613856020292
702.0, 0.02443143638974013
703.0, 0.031554903543605864
704.0, 0.02324424661793397
705.0, 0.01179468374485002
706.0, 0.0177186471760616
707.0, 0.012219013315692043
708.0, 0.014495044095582282
709.0, 0.01809691795945688
710.0, 0.017037240787556623
711.0, 0.003686266474442575
712.0, 0.010019423713955542
713.0, 0.009668465251702868
714.0, 0.004687576181626371
715.0, 0.023834144242099176
716.0, 0.014899137772461876
717.0, 0.01219511756350626
718.0, 0.014537308312338394
719.0, 0.015994675842147282
720.0, 0.009688057833495876
721.0, 0.008583019934284106
722.0, 0.01309190827703514
723.0, 0.018659207756943144
724.0, 0.0029107554390634324
725.0, 0.01692818779096441
726.0, 0.020784115882801508
727.0, 0.017077234672525584
728.0, 0.025852901198206824
729.0, 0.031411936667402
730.0, 0.028560429149998005
731.0, 0.029934855731650133
732.0, 0.04393583267278996
733.0, 0.05365029450474336
734.0, 0.05921831552457054
735.0, 0.05967151188237653
736.0, 0.0569775122188602
737.0, 0.05724861172311978
738.0, 0.0832128185681062
739.0, 0.08456143563010221
740.0, 0.07946684129412633
741.0, 0.09275368096973945
742.0, 0.11145562564804791
743.0, 0.10085288569451423
744.0, 0.10321170368329532
745.0, 0.12067248324288701
746.0, 0.08737352987824044
747.0, 0.08955698701899902
748.0, 0.10204422315830528
749.0, 0.10409338835227486
750.0, 0.07397638484823389
751.0, 0.11349951818761632
752.0, 0.10484735618382948
753.0, 0.09260749202675611
754.0, 0.10199131031404951
755.0, 0.1235510438688512
756.0, 0.11963820556345274
757.0, 0.13089676219739751
758.0, 0.14791102160504993
759.0, 0.14058803149373958
760.0, 0.1514964172563808
761.0, 0.17885373077660408
762.0, 0.18968300430548532
763.0, 0.17183407397386036
764.0, 0.19104887359040193
765.0, 0.19677619858612794
766.0, 0.18896123948527369
767.0, 0.1780260181852294
768.0, 0.18393536448785083
769.0, 0.16508403985983994
770.0, 0.16395436298903385
771.0, 0.160325691865465
772.0, 0.1411122189827907
773.0, 0.12996718000179033
774.0, 0.12116799131746661
775.0, 0.10234637159618697
776.0, 0.08246607459414093
777.0, 0.08602616056958974
778.0, 0.08453765816734587
779.0, 0.0641174148425308
780.0, 0.05409191514177677
781.0, 0.06952854848438823
782.0, 0.05456632746558149
783.0, 0.061963068534560156
784.0, 0.05993845224098573
785.0, 0.04482631951474486
786.0, 0.026522932549832224
787.0, 0.05164401488536947
788.0, 0.035854760040204124
789.0, 0.019366209341180687
790.0, 0.02981197194431087
791.0, 0.038495920495292754
792.0, 0.022587501975964642
793.0, 0.028175914700288685
794.0, 0.03909873850560259
795.0, 0.006920544539596167
796.0, 0.028292262897433695
797.0, 0.02784138842412263
798.0, 0.015304626927178508
799.0, 0.005374021740178907
800.0, 0.03385441438203471
801.0, 0.017239253978245585
802.0, 0.009055312810067068
803.0, 0.013621287075419637
804.0, 0.020344197946213772
805.0, 0.013503506829155753
806.0, 0.016260866442829532
807.0, 0.016094303898571645
808.0, 0.009569985289313222
809.0, 0.010904166351365327
810.0, 0.007782167469285627
811.0, 0.012076433061329623
812.0, 0.022645167302585412
813.0, 0.03431221303424213
814.0, 0.022295917660180686
815.0, 0.007951394699045026
816.0, 0.007851118402106564
817.0, 0.017112015667089024
818.0, 0.0014893393370225636
819.0, 0.00014595435715353267
820.0, 0.0017364211151304084
821.0, 0.004350253761013151
822.0, 0.0069338789206712876
823.0, 0.008511911130282889
824.0, 0.015007483514123027
825.0, 0.01665977639165131
826.0, 0.01244078565020773
827.0, 0.006399813703014925
828.0, 0.005856392678035914
829.0, 0.016607134290596893
830.0, 0.019103389034321405
831.0, 0.007089550266805973
832.0, 0.015172565203759345
833.0, 0.013520768399833938
834.0, 0.007629393990128076
835.0, 0.007491612834919957
836.0, 0.023208928640230407
837.0, 0.013885137315253617
838.0, 0.007697751837243224
839.0, 0.013419872751595636
840.0, 0.023953041718864726
841.0, 0.008479916406366991
842.0, 0.022128372534973448
843.0, 0.021657139064113207
844.0, 0.017640474423232518
845.0, 0.02150697384963631
846.0, 0.024520159995953295
847.0, 0.009376424749365736
848.0, 0.012471849610326335
849.0, 0.021449398721466714
850.0, 0.0012217202769076998
851.0, 0.009504163672308235
852.0, 0.033923888456433134
853.0, 0.04306102609301959
854.0, 0.031482499305218
855.0, 0.037802971021851726
856.0, 0.03192841108235601
857.0, 0.027327539098574504
858.0, 0.028005880431915445
859.0, 0.03454174094890783
860.0, 0.03240421130719931
861.0, 0.03859586799884665
862.0, 0.049121520262440474
863.0, 0.05512590886549247
864.0, 0.043769735145013325
865.0, 0.04229259640122357
866.0, 0.030409487293090287
867.0, 0.02540968366160254
868.0, 0.032530918943901255
869.0, 0.037469491421352405
870.0, 0.030944299358243565
871.0, 0.030188640263225184
872.0, 0.03175337654455878
873.0, 0.029826762160442576
874.0, 0.018393235631206185
875.0, 0.04656609086404663
876.0, 0.03572804688414086
877.0, 0.009290226924951146
878.0, 0.03350144276951701
879.0, 0.04661817361237749
880.0, 0.025012305777242713
881.0, 0.027950692924288787
882.0, 0.05416315371933962
883.0, 0.024010587701767925
884.0, 0.05332754877151932
885.0, 0.0501426560939458
886.0, 0.03859186923142676
887.0, 0.04257284732307375
888.0, 0.06148884315642981
889.0, 0.04357944896808169
890.0, 0.05023811779299252
891.0, 0.06868761402426607
892.0, 0.06860675336855154
893.0, 0.03795899857915753
894.0, 0.054184189528228115
895.0, 0.0636072290408347
896.0, 0.059834855298875805
897.0, 0.06528820299644263
898.0, 0.07266646286915021
899.0, 0.06563524800203394
900.0, 0.07290733514138519
901.0, 0.09156250050202028
902.0, 0.06378660436224012
903.0, 0.09023569758249633
904.0, 0.09996142063369225
905.0, 0.09012023448713008
906.0, 0.07288489522899698
907.0, 0.09620453031974927
908.0, 0.11239580356001298
909.0, 0.10805269765437604
910.0, 0.10840859426898528
911.0, 0.13924270595822388
912.0, 0.11768262313311531
913.0, 0.13121811827585222
914.0, 0.14471366022159426
915.0, 0.13876464742197547
916.0, 0.10153728453648907
917.0, 0.11329274751893147
918.0, 0.1123553796574938
919.0, 0.10556272776266212
920.0, 0.1038594804092732
921.0, 0.1257732173558075
922.0, 0.07803884249902934
923.0, 0.09358146513410703
924.0, 0.10555675421101007
925.0, 0.08085386663920059
926.0, 0.08054622556695067
927.0, 0.10488123982249664
928.0, 0.10000586884511019
929.0, 0.09305953267830853
930.0, 0.10722661720834681
931.0, 0.10063777514373501
932.0, 0.0890393164298495
933.0, 0.10252495271009027
934.0, 0.11082829377607656
935.0, 0.08065618483898371
936.0, 0.10893186481886473
937.0, 0.10749957367288886
938.0, 0.10026665496119064
939.0, 0.10643518488611167
940.0, 0.14094169238704152
941.0, 0.12175801933556211
942.0, 0.1202395432182847
943.0, 0.13156940736805778
944.0, 0.14036894200373667
945.0, 0.12069050247969432
946.0, 0.15707122465666934
947.0, 0.15783752237081594
948.0, 0.16053581669387737
949.0, 0.17680722349150435
950.0, 0.18476223214802912
951.0, 0.1846528742271238
952.0, 0.20441555715036197
953.0, 0.22007265512428606
954.0, 0.21794498571217566
955.0, 0.20747631194566274
956.0, 0.24067525569996304
957.0, 0.222850077121752
958.0, 0.20275080468790274
959.0, 0.21622610505218387
960.0, 0.22269997611868944
961.0, 0.19564630822094894
962.0, 0.18506481759335236
963.0, 0.18599501751204967
964.0, 0.18549234600836015
965.0, 0.17355905087921894
966.0, 0.1937989121548975
967.0, 0.19271454676210198
968.0, 0.18205837779813056
969.0, 0.1858751711497534
970.0, 0.21229599819042597
971.0, 0.2024373685228357
972.0, 0.21630785130286645
973.0, 0.22702528831153337
974.0, 0.19636447682266392
975.0, 0.22576987160750686
976.0, 0.24474698824321756
977.0, 0.2378372161308564
978.0, 0.23156963730802627
979.0, 0.259424992896092
980.0, 0.21558717165632632
981.0, 0.22643800042979262
982.0, 0.23171855789225246
983.0, 0.22015376698346514
984.0, 0.2046088075650357
985.0, 0.21303254674841968
986.0, 0.19932157078052654
987.0, 0.17923849210857473
988.0, 0.16830321181721442
989.0, 0.178972446698671
990.0, 0.13437649802817042
991.0, 0.14646583850410094
992.0, 0.15542770450345478
993.0, 0.14162138603588975
994.0, 0.11259706975063435
995.0, 0.13139098735622914
996.0, 0.12135445966713318
997.0, 0.11129514659320304
998.0, 0.11505648626702214
999.0, 0.1350155931049011
1000.0, 0.12454717216481172
1001.0, 0.15140915937066454
1002.0, 0.16478673574532512
1003.0, 0.1504668726528355
1004.0, 0.12285522439889561
1005.0, 0.13629663629972788
1006.0, 0.10665535367234878
1007.0, 0.08596412072886399
1008.0, 0.08892176908397485
1009.0, 0.1006908157240247
1010.0, 0.06921757705792218
1011.0, 0.07815849667798302
1012.0, 0.08360848941324385
1013.0, 0.07631640972936453
1014.0, 0.07300195682670911
1015.0, 0.0991943464725306
1016.0, 0.06993304857400674
1017.0, 0.07364688897683677
1018.0, 0.10447261508616253
1019.0, 0.09310326921822351
1020.0, 0.07629376766028247
1021.0, 0.09942767988456643
1022.0, 0.09770948970299434
1023.0, 0.08128528329845236
1024.0, 0.10309663942733745
1025.0, 0.10242946744755935
1026.0, 0.07176845290628235
1027.0, 0.07911499162759157
1028.0, 0.09825973540936002
1029.0, 0.0604292448233434
1030.0, 0.06025821611738202
1031.0, 0.08389169883583746
1032.0, 0.07615191346850961
1033.0, 0.05850041520661385
1034.0, 0.07852615074794708
1035.0, 0.06842357784075073
1036.0, 0.051136473242842685
1037.0, 0.07114565105327225
1038.0, 0.09053821399691014
1039.0, 0.059776966536347634
1040.0, 0.08706771156763819
1041.0, 0.09484741844643022
1042.0, 0.08183731820611426
1043.0, 0.07699001120264509
1044.0, 0.10177178873559557
1045.0, 0.08397058029407611
1046.0, 0.07726102410930903
1047.0, 0.1023262340955897
1048.0, 0.11186070153427584
1049.0, 0.07819686156222982
1050.0, 0.11092528162059122
1051.0, 0.11772775931792948
1052.0, 0.09737884446495121
1053.0, 0.0937235865825786
1054.0, 0.12057829961974242
1055.0, 0.08900177117502969
1056.0, 0.10338031690794242
1057.0, 0.10361964046849981
1058.0, 0.09129055897431206
1059.0, 0.08232602024525477
1060.0, 0.10873378926063516
1061.0, 0.10219062407055016
1062.0, 0.08715201595586572
1063.0, 0.09063146217038974
1064.0, 0.10393220647029525
1065.0, 0.07287036765766862
1066.0, 0.0823545272350775
1067.0, 0.09246092332559462
1068.0, 0.08453147140261635
1069.0, 0.08170883916040156
1070.0, 0.1355137708080048
1071.0, 0.09308835504375361
1072.0, 0.10020477019239353
1073.0, 0.11703945489303451
1074.0, 0.11811260836371965
1075.0, 0.0939683063686014
1076.0, 0.11406566247323817
1077.0, 0.113600460408429
1078.0, 0.10706837594513129
1079.0, 0.11269741704328046
1080.0, 0.13564008084135548
1081.0, 0.10649092302804143
1082.0, 0.10812375002549798
1083.0, 0.12091694433237533
1084.0, 0.11747941675351928
1085.0, 0.09795974057852319
1086.0, 0.14671814551966703
1087.0, 0.14873066027860682
1088.0, 0.11444536587029072
1089.0, 0.09531514505915387
1090.0, 0.09809367730319848
1091.0, 0.0506560817753111
1092.0, 0.08592203516912698
1093.0, 0.08725093270317334
1094.0, 0.06605464391316143
1095.0, 0.05160018163683383
1096.0, 0.08018516845709561
1097.0, 0.05493138808407004
1098.0, 0.04348639532019032
1099.0, 0.049995383049802784
1100.0, 0.05100962318840112
1101.0, 0.02284179332692428
1102.0, 0.04352812430309011
1103.0, 0.04471391683499561
1104.0, 0.03282172842294151
1105.0, 0.041634929503643336
1106.0, 0.07812139449948965
1107.0, 0.03556671155215718
1108.0, 0.024912574174549586
1109.0, 0.029857288628452706
1110.0, 0.0248139121782909
1111.0, 0.013644196332570219
1112.0, 0.04978936631668418
1113.0, 0.03035106244753846
1114.0, 0.017821073476522314
1115.0, 0.02937383474287112
1116.0, 0.04300680931412726
1117.0, 0.01388869922292117
1118.0, 0.032653732815739
1119.0, 0.04534681843893035
1120.0, 0.027984600863855385
1121.0, 0.01998325777174156
1122.0, 0.057721540895699294
1123.0, 0.03638463566593689
1124.0, 0.03223982421050527
1125.0, 0.037731840602464664
1126.0, 0.03695358042001888
1127.0, 0.025557198552159405
1128.0, 0.026517101686113737
1129.0, 0.04565754638159767
1130.0, 0.02215680324636375
1131.0, 0.023413541309890963
1132.0, 0.04619715160966479
1133.0, 0.020770923973509114
1134.0, 0.015293532176397078
1135.0, 0.04002898054248595
1136.0, 0.03940758389465378
1137.0, 0.02345587891097887
1138.0, 0.02559115655040129
1139.0, 0.053378410149812504
1140.0, 0.018789942939094834
1141.0, 0.02722114036413679
1142.0, 0.041746397428953474
1143.0, 0.027909499460774187
1144.0, 0.0010782490592198095
1145.0, 0.061832315817835035
1146.0, 0.03318340101257895
1147.0, 0.009265233826129819
1148.0, 0.01627031203051903
1149.0, 0.019002019648544324
1150.0, 0.010039838040486148
1151.0, 0.042741724412799914
1152.0, 0.03465847948213452
1153.0, 0.009821167872464212
1154.0, 0.014696174866166804
1155.0, 0.05419522513754685
1156.0, 0.02014475670734954
1157.0, 0.022536609692503762
1158.0, 0.02470449778828448
1159.0, 0.013114623066329097
1160.0, 0.02055682665913413
1161.0, 0.04912004305341522
1162.0, 0.029885276217289137
1163.0, 0.009879240200258313
1164.0, 0.014432384440511732
1165.0, 0.04135045297058733
1166.0, 0.010672541534392625
1167.0, 0.033098104516270696
1168.0, 0.02818250327406345
1169.0, 0.015820408644078236
1170.0, 0.01622474033135273
1171.0, 0.02167406194238551
1172.0, 0.013222933450508737
1173.0, 0.012413685913589382
1174.0, 0.024816995861605406
1175.0, 0.03062066780078922
1176.0, 0.009881488800706745
1177.0, 0.04361124014958352
1178.0, 0.018053895303512108
1179.0, 0.004480796955332156
1180.0, 0.021646132559008248
1181.0, 0.04817464646991597
1182.0, 0.00901372139912571
1183.0, 0.014469434509407027
1184.0, 0.041160251968836985
1185.0, 0.04299434764770858
1186.0, 0.03309603133732268
1187.0, 0.0501383673756815
1188.0, 0.017776250211876315
1189.0, 0.008123042121604366
1190.0, 0.01389550652326603
1191.0, 0.015941189175726206
1192.0, 0.010536788674598814
1193.0, 0.027964001182748752
1194.0, 0.02568677810847635
1195.0, 0.019388928650471246
1196.0, 0.03169687273686863
1197.0, 0.042634619735120706
1198.0, 0.018464259339997246
1199.0, 0.007351978369424607
1200.0, 0.032627363248375264
1201.0, 0.030387102454200492
1202.0, 0.02618558359378961
1203.0, 0.034751160291709576
1204.0, 0.026662316465938037
1205.0, 0.014204661875251635
1206.0, 0.04265697736000408
1207.0, 0.04105132148173498
1208.0, 0.018889105204410173
1209.0, 0.019004065862558255
1210.0, 0.036946475372697136
1211.0, 0.017648828764131125
1212.0, 0.026269517671598255
1213.0, 0.043233460497613535
1214.0, 0.04354626009747216
1215.0, 0.016473297040208838
1216.0, 0.060461357901622166
1217.0, 0.0537444726513396
1218.0, 0.028248111828822236
1219.0, 0.03368757280295274
1220.0, 0.07628340091438619
1221.0, 0.02512319925695549
1222.0, 0.03901067529873056
1223.0, 0.06039843740335432
1224.0, 0.04350532704474454
1225.0, 0.01914217409565875
1226.0, 0.05635384734463846
1227.0, 0.05071127801759642
1228.0, 0.033518380820793295
1229.0, 0.04945983797678216
1230.0, 0.05924211163841287
1231.0, 0.04461330830061883
1232.0, 0.05057288890424669
1233.0, 0.05797819516894977
1234.0, 0.0375681928839525
1235.0, 0.041284452951559386
1236.0, 0.06561742999417285
1237.0, 0.07632799709906173
1238.0, 0.027949491138695867
1239.0, 0.07170166039584643
1240.0, 0.0662265537341183
1241.0, 0.04535082460529115
1242.0, 0.04585588144847563
1243.0, 0.07711630793655933
1244.0, 0.029688014178128514
1245.0, 0.05245028117942045
1246.0, 0.06761216332611368
1247.0, 0.05459586065587247
1248.0, 0.042631976405131694
1249.0, 0.10871141618051447
1250.0, 0.04613287719119265
1251.0, 0.0415777396494397
1252.0, 0.06291126186680093
1253.0, 0.05738570058704898
1254.0, 0.013760101310052664
1255.0, 0.05593712221028066
1256.0, 0.08116757513577617
1257.0, 0.04252192515828276
1258.0, 0.04207584724860717
1259.0, 0.07281007543237607
1260.0, 0.0626966403383729
1261.0, 0.0459113458685764
1262.0, 0.06155020192228538
1263.0, 0.05246973170719305
1264.0, 0.051711743105670706
1265.0, 0.06618479820526428
1266.0, 0.06162424345391164
1267.0, 0.030634229623384322
1268.0, 0.06581344901337899
1269.0, 0.07948348615992752
1270.0, 0.060266749371451815
1271.0, 0.043935995681004036
1272.0, 0.10089344646452048
1273.0, 0.05881523744255178
1274.0, 0.05271638530730272
1275.0, 0.07997224336640812
1276.0, 0.07626373436723605
1277.0, 0.022757229079242106
1278.0, 0.0726413492037411
1279.0, 0.07014556542030168
1280.0, 0.048606127201934926
1281.0, 0.06051663450444225
1282.0, 0.0675290054257201
1283.0, 0.020307625067109373
1284.0, 0.031760385667812335
1285.0, 0.06836830658108999
1286.0, 0.03524807644622747
1287.0, 0.027179335071504284
1288.0, 0.04970038816532186
1289.0, 0.03768666808177174
1290.0, 0.012654236944058022
1291.0, 0.07436213038758724
1292.0, 0.05876123860786726
1293.0, 0.024416566486822198
1294.0, 0.028214820293055328
1295.0, 0.07274221671888989
1296.0, 0.03144599441830802
1297.0, 0.045330993363636954
1298.0, 0.05318928947383929
1299.0, 0.0347501336131896
1300.0, 0.02105844091169092
1301.0, 0.07751878570598078
1302.0, 0.05109718901591656
1303.0, 0.018833547447700168
1304.0, 0.04530036236170343
1305.0, 0.051217875916726885
1306.0, 0.014150272473990238
1307.0, 0.044317260500353534
1308.0, 0.03891950377384819
1309.0, 0.03860861072088788
1310.0, 0.057275538490734274
1311.0, 0.06640322496102266
1312.0, 0.05016173524076839
1313.0, 0.038572062081360714
1314.0, 0.06462628183139701
1315.0, 0.04729298200719822
1316.0, 0.048832756704018855
1317.0, 0.06650024760489869
1318.0, 0.0698360353403728
1319.0, 0.02836621754018099
1320.0, 0.06509464833521983
1321.0, 0.07356277624382096
1322.0, 0.04340044305040035
1323.0, 0.029506283633508757
1324.0, 0.05669190039342324
1325.0, 0.03797824147754081
1326.0, 0.02843956754458429
1327.0, 0.053460521645707006
1328.0, 0.03644236424084132
1329.0, 0.020577072406042642
1330.0, 0.048007828214913846
1331.0, 0.05113629102963899
1332.0, 0.01360268442726108
1333.0, 0.03426938671260064
1334.0, 0.04165473089224603
1335.0, 0.028147066396892437
1336.0, 0.02322198709784624
1337.0, 0.06766627353371962
1338.0, 0.025496797676986885
1339.0, 0.011942161150621572
1340.0, 0.04289703501228371
1341.0, 0.05258512588265495
1342.0, 0.013459135347852884
1343.0, 0.031657827516367934
1344.0, 0.0481392000623206
1345.0, 0.019067231414786428
1346.0, 0.03713458714983879
1347.0, 0.05027843366379405
1348.0, 0.016170027439081292
1349.0, 0.00831473861315785
1350.0, 0.062385197119565874
1351.0, 0.02934670146380399
1352.0, 0.0171628952808256
1353.0, 0.04132028037761648
1354.0, 0.06622768815489084
1355.0, 0.03851897676488262
1356.0, 0.05933910077530846
1357.0, 0.036066306671696385
1358.0, 0.0199443249089293
1359.0, 0.03254990453826753
1360.0, 0.05125510159523745
1361.0, 0.019439032743080443
1362.0, 0.012807044922375119
1363.0, 0.056406656871702446
1364.0, 0.03739064263266872
1365.0, 0.029274197896003357
1366.0, 0.05946548156010854
1367.0, 0.06075177196554185
1368.0, 0.014160740459530464
1369.0, 0.03648969171564781
1370.0, 0.03753399672735356
1371.0, 0.022392256993572893
1372.0, 0.022218328181942318
1373.0, 0.0541527773653289
1374.0, 0.025514598992787248
1375.0, 0.017993531452186524
1376.0, 0.05650846419816803
1377.0, 0.04484784460842534
1378.0, 0.018188117570264964
1379.0, 0.05889053958578843
1380.0, 0.056034772016374766
1381.0, 0.03143053435231594
1382.0, 0.0713392301597139
1383.0, 0.07182283221179007
1384.0, 0.04617453732059101
1385.0, 0.051177201025105534
1386.0, 0.07753363672171282
1387.0, 0.04134303568100105
1388.0, 0.04222878113092738
1389.0, 0.062469883381438725
1390.0, 0.04967315977310897
1391.0, 0.017871983172407162
1392.0, 0.08647616376436708
1393.0, 0.08253128772723646
1394.0, 0.025719639769850113
1395.0, 0.059068717521595475
1396.0, 0.08773302885956942
1397.0, 0.05559464690042076
1398.0, 0.027641970751386045
1399.0, 0.09394711897800892
1400.0, 0.0476856363288123
1401.0, 0.04175849931670372
1402.0, 0.06173018571560245
1403.0, 0.06376610706913008
1404.0, 0.03584241737499842
1405.0, 0.08938194443171368
1406.0, 0.07193125413105943
1407.0, 0.045583803962709744
1408.0, 0.050688932671197305
1409.0, 0.057303019987629655
1410.0, 0.03212803878551683
1411.0, 0.012194445804726183
1412.0, 0.06592182724632162
1413.0, 0.04343077115686296
1414.0, 0.033681087767441484
1415.0, 0.05387244565010174
1416.0, 0.06999814031844778
1417.0, 0.03525446554350054
1418.0, 0.060498029293848996
1419.0, 0.06028845354603554
1420.0, 0.03181558420081363
1421.0, 0.050284482183434065
1422.0, 0.07165746293990177
1423.0, 0.016284819419305138
1424.0, 0.046729134599092906
1425.0, 0.08990629922199112
1426.0, 0.04420131671532575
1427.0, 0.02408137274429755
1428.0, 0.04541161125753838
1429.0, 0.05830115305556738
1430.0, 0.010289096464720676
1431.0, 0.08001742937440312
1432.0, 0.06989896217234118
1433.0, 0.04829584080385538
1434.0, 0.06539790206386573
1435.0, 0.09076254441250729
1436.0, 0.04968046979168978
1437.0, 0.03980373749680689
1438.0, 0.09807638512088174
1439.0, 0.07238908886655689
1440.0, 0.08425342378037295
1441.0, 0.1299562739602284
1442.0, 0.12827493191546052
1443.0, 0.04422366644077053
1444.0, 0.13217764966115028
1445.0, 0.14619525189485266
1446.0, 0.10904059341594396
1447.0, 0.12055907394516728
1448.0, 0.16623337707624453
1449.0, 0.11771646833979575
1450.0, 0.11699484710301773
1451.0, 0.1752410941468855
1452.0, 0.1427515410137833
1453.0, 0.13089728155087224
1454.0, 0.1583049910768075
1455.0, 0.1616176196957179
1456.0, 0.08325633259777275
1457.0, 0.16552446249277983
1458.0, 0.15614482202503321
1459.0, 0.11678751995916634
1460.0, 0.12725448573930184
1461.0, 0.16788086050172904
1462.0, 0.13664712808685742
1463.0, 0.10677871656656228
1464.0, 0.15250708554223524
1465.0, 0.10850072651052421
1466.0, 0.0889201001164678
1467.0, 0.11631952851573556
1468.0, 0.12731806470867518
1469.0, 0.04734445177079873
1470.0, 0.11539323898348322
1471.0, 0.12139807907575705
1472.0, 0.06803650467383307
1473.0, 0.08287748298656206
1474.0, 0.12937540209031373
1475.0, 0.06488562098460622
1476.0, 0.028176689862401474
1477.0, 0.1245789476845374
1478.0, 0.08175513352049413
1479.0, 0.0644225527184489
1480.0, 0.09015433383531894
1481.0, 0.09525919154120333
1482.0, 0.03680660420491974
1483.0, 0.08261191891431394
1484.0, 0.08787508663597791
1485.0, 0.06668733482808661
1486.0, 0.06932617942693306
1487.0, 0.08102848818685175
1488.0, 0.05967481000670655
1489.0, 0.018057952303862985
1490.0, 0.09561327074839887
1491.0, 0.05832483913276507
1492.0, 0.027989180270074538
1493.0, 0.04466035330801803
1494.0, 0.06213128341076801
1495.0, 0.02203044240369369
1496.0, 0.04686613916071589
1497.0, 0.06819376278351295
1498.0, 0.02876477289449412
1499.0, 0.03960090614624481
1500.0, 0.058545119081597
1501.0, 0.03514631431264316
1502.0, 0.008412523146644747
1503.0, 0.06125730237933667
1504.0, 0.049328552668123936
1505.0, 0.017991352445073418
1506.0, 0.04410166421555639
1507.0, 0.05997484944585653
1508.0, 0.01846563034446569
1509.0, 0.04713413708643598
1510.0, 0.06643693748019364
1511.0, 0.01674640782242401
1512.0, 0.035944746844695244
1513.0, 0.056065003969135635
1514.0, 0.036300520358013476
1515, 0.0
1516, 0.0
1517, 0.0
1518, 0.0
1519, 0.0
1520, 0.0
1521, 0.0
1522, 0.0
1523, 0.0
1524, 0.0
1525, 0.0
1526, 0.0
1527, 0.0
1528, 0.0
1529, 0.0
1530, 0.0
1531, 0.0
1532, 0.0
1533, 0.0
1534, 0.0
1535, 0.0
1536, 0.0
1537, 0.0
1538, 0.0
1539, 0.0
1540, 0.0
1541, 0.0
1542, 0.0
1543, 0.0
1544, 0.0
1545, 0.0
1546, 0.0
1547, 0.0
1548, 0.0
1549, 0.0
1550, 0.0
1551, 0.0
1552, 0.0
1553, 0.0
1554, 0.0
1555, 0.0
1556, 0.0
1557, 0.0
1558, 0.0
1559, 0.0
1560, 0.0
1561, 0.0
1562, 0.0
1563, 0.0
1564, 0.0
1565, 0.0
1566, 0.0
1567, 0.0
1568, 0.0
1569, 0.0
1570, 0.0
1571, 0.0
1572, 0.0
1573, 0.0
1574, 0.0
1575, 0.0
1576, 0.0
1577, 0.0
1578, 0.0
1579, 0.0
1580, 0.0
1581, 0.0
1582, 0.0
1583, 0.0
1584, 0.0
1585, 0.0
1586, 0.0
1587, 0.0
1588, 0.0
1589, 0.0
1590, 0.0
1591, 0.0
1592, 0.0
1593, 0.0
1594, 0.0
1595, 0.0
1596, 0.0
1597, 0.0
1598, 0.0
1599, 0.0
