30, 0.0
31, 0.0
32, 0.0
33, 0.0
34, 0.0
35, 0.0
36, 0.0
37, 0.0
38, 0.0
39, 0.0
40, 0.0
41, 0.0
42, 0.0
43, 0.0
44, 0.0
45, 0.0
46, 0.0
47, 0.0
48, 0.0
49, 0.0
50, 0.0
51, 0.0
52, 0.0
53, 0.0
54, 0.0
55, 0.0
56, 0.0
57, 0.0
58, 0.0
59, 0.0
60, 0.0
61, 0.0
62, 0.0
63, 0.0
64, 0.0
65, 0.0
66, 0.0
67, 0.0
68, 0.0
69, 0.0
70, 0.0
71, 0.0
72, 0.0
73, 0.0
74, 0.0
75, 0.0
76, 0.0
77, 0.0
78, 0.0
79, 0.0
80.0, 0.0001410112660434262
81.0, 0.00040664160569973257
82.0, 0.0007631152420208299
83.0, 0.003205117686963143
84.0, 0.0066139020236982505
85.0, 0.010635722516194983
86.0, 0.020286157888579917
87.0, 0.031213534133570794
88.0, 0.04398148702795736
89.0, 0.060738055113262225
90.0, 0.0784533792032723
91.0, 0.09784982823371022
92.0, 0.11924642427849427
93.0, 0.13737206615621447
94.0, 0.14898657334216525
95.0, 0.15362757023258997
96.0, 0.14811630401527018
97.0, 0.13061757618112563
98.0, 0.11295787196742965
99.0, 0.09810474231373462
100.0, 0.08591687438895837
101.0, 0.07926075608141589
102.0, 0.07692003387625823
103.0, 0.0785826603834875
104.0, 0.08229725385854546
105.0, 0.08986948496033122
106.0, 0.10178786287317339
107.0, 0.1190666373265412
108.0, 0.14016847872451527
109.0, 0.16170620999671087
110.0, 0.18055470481279962
111.0, 0.1910119806575658
112.0, 0.18923971285708252
113.0, 0.1750643098938744
114.0, 0.14755120639321923
115.0, 0.11692232027691364
116.0, 0.08765763742399214
117.0, 0.06277988428514768
118.0, 0.04377266866311792
119.0, 0.028732017532159596
120.0, 0.017675133643230673
121.0, 0.011905066508677106
122.0, 0.00990006914648756
123.0, 0.012101551812306094
124.0, 0.01906196397374733
125.0, 0.028442578595476522
126.0, 0.036253058760724675
127.0, 0.041387784433096236
128.0, 0.04101741996462346
129.0, 0.03606668535075665
130.0, 0.026440248871237616
131.0, 0.0128082044362424
132.0, 0.004555176895168059
133.0, 0.003405802663020387
134.0, 0.003862802045782119
135.0, 0.0007248151654482646
136.0, 0.001512722881955689
137.0, 0.008624556872142721
138.0, 0.02099717585228124
139.0, 0.033177360088091856
140.0, 0.04872168213113062
141.0, 0.0621650422365764
142.0, 0.07019233745371489
143.0, 0.07077648428806668
144.0, 0.06630370980428628
145.0, 0.05832617150934625
146.0, 0.049608063405928216
147.0, 0.04256372280863343
148.0, 0.039988012803958126
149.0, 0.042879917392329235
150.0, 0.050420222773666215
151.0, 0.0625062615832519
152.0, 0.08017110999401288
153.0, 0.1061271286836149
154.0, 0.13552744703801525
155.0, 0.168648822194306
156.0, 0.20443961743442146
157.0, 0.23753576688933123
158.0, 0.2536435929217089
159.0, 0.2554951009290417
160.0, 0.24256070139493485
161.0, 0.21806078403052256
162.0, 0.19063745652912273
163.0, 0.16205024872080495
164.0, 0.13576450735477774
165.0, 0.11412908880774959
166.0, 0.09566386680207131
167.0, 0.08028139626429068
168.0, 0.0694707304429372
169.0, 0.059991629704568464
170.0, 0.052986049903240295
171.0, 0.05014738928457538
172.0, 0.049810465572487195
173.0, 0.04982996542667662
174.0, 0.04986338696906255
175.0, 0.04927456607475232
176.0, 0.04934118805949942
177.0, 0.050831523183653214
178.0, 0.05416901226695223
179.0, 0.05839516389652605
180.0, 0.06349081702270815
181.0, 0.06873382274744426
182.0, 0.0730686457087783
183.0, 0.07878270108308745
184.0, 0.08219648556047357
185.0, 0.08286657914220934
186.0, 0.08125874043324241
187.0, 0.074731319195473
188.0, 0.067015041517896
189.0, 0.060081601847851746
190.0, 0.05384938846877138
191.0, 0.04643703764990049
192.0, 0.03946595328242094
193.0, 0.03636831649975129
194.0, 0.031975042029885874
195.0, 0.02953224650454362
196.0, 0.029500225766733692
197.0, 0.030027679976805416
198.0, 0.03141439896005145
199.0, 0.032895954713239715
200.0, 0.03394454640507856
201.0, 0.03802847972706316
202.0, 0.042501420033955656
203.0, 0.04663305271630818
204.0, 0.04881187960260476
205.0, 0.05050548183902962
206.0, 0.048208472155960955
207.0, 0.04163874717241212
208.0, 0.03702566474134998
209.0, 0.03277094547544615
210.0, 0.028679374533695144
211.0, 0.024627217754023267
212.0, 0.02473556277388199
213.0, 0.026184662189813347
214.0, 0.029833114625025164
215.0, 0.038463249604226604
216.0, 0.05032817069067487
217.0, 0.06513800737278483
218.0, 0.08311559754907955
219.0, 0.10601480919669157
220.0, 0.12708062464471034
221.0, 0.1463057460382802
222.0, 0.163406000487301
223.0, 0.1648290876861725
224.0, 0.15756522647118493
225.0, 0.14280635183128074
226.0, 0.12125824195900468
227.0, 0.10407122199623352
228.0, 0.09013852848668165
229.0, 0.0791535495123312
230.0, 0.07022510508658948
231.0, 0.06429236849508892
232.0, 0.058430144883226856
233.0, 0.05083825899460741
234.0, 0.04148353608326364
235.0, 0.03205347832084898
236.0, 0.022603037901852682
237.0, 0.013208299826472763
238.0, 0.008198839242427172
239.0, 0.004842397058008689
240.0, 0.0030470712601121048
241.0, 0.00458135451741832
242.0, 0.00618560701566904
243.0, 0.006833650561723185
244.0, 0.005973255551380471
245.0, 0.003933500621181161
246.0, 0.001767902999900467
247.0, 0.002536813616168992
248.0, 0.010613385503867706
249.0, 0.016645814622174755
250.0, 0.025101727973425563
251.0, 0.035916525839552405
252.0, 0.047838664939678824
253.0, 0.0560493524885969
254.0, 0.06197648487129497
255.0, 0.06530373348838783
256.0, 0.05910535790224868
257.0, 0.048972349431178896
258.0, 0.03715174085180007
259.0, 0.02516201545328308
260.0, 0.016913784272370114
261.0, 0.00895015595311814
262.0, 0.0029160367340660687
263.0, 0.0025382690155158288
264.0, 0.0053049917437682295
265.0, 0.008127947396172163
266.0, 0.010248492528144875
267.0, 0.010424593067410714
268.0, 0.011399776504248659
269.0, 0.011505650373385416
270.0, 0.010065416015225467
271.0, 0.009424295029073307
272.0, 0.008451345292149255
273.0, 0.00711142305298579
274.0, 0.0053103567468771855
275.0, 0.0032126244287169503
276.0, 0.0048576320897160885
277.0, 0.009177102931707617
278.0, 0.013485198379308408
279.0, 0.020423529319078083
280.0, 0.02624561377431551
281.0, 0.030509837403923008
282.0, 0.035273253683575756
283.0, 0.0349633562363219
284.0, 0.0334646587625882
285.0, 0.03261997333648068
286.0, 0.03367673512710886
287.0, 0.03174592900568759
288.0, 0.02845142267447321
289.0, 0.02535259041493637
290.0, 0.02161645702602879
291.0, 0.017833920298587692
292.0, 0.01389075098517554
293.0, 0.00941144499054793
294.0, 0.005278392886445597
295.0, 0.0024592730604046636
296.0, 0.0012325595457568003
297.0, 0.002051471114997789
298.0, 0.002625100538879695
299.0, 0.002747300812312631
300.0, 0.0023709562795029343
301.0, 0.0027028685822382643
302.0, 0.0013884115905370845
303.0, 0.00017751027965359127
304.0, 0.0006493507984004917
305.0, 0.002546212022893451
306.0, 0.00431112895394394
307.0, 0.006593486409544548
308.0, 0.010751448887193057
309.0, 0.0139574040724056
310.0, 0.016897601356928596
311.0, 0.01945645156481378
312.0, 0.02082519147060394
313.0, 0.02227875424862308
314.0, 0.023526745514591135
315.0, 0.024374323344020298
316.0, 0.024002725786067675
317.0, 0.024815491364838932
318.0, 0.025735142582476042
319.0, 0.026105539131771348
320.0, 0.024803322442154347
321.0, 0.023809182146530224
322.0, 0.023053869448405213
323.0, 0.02248576498610274
324.0, 0.019650084214777493
325.0, 0.0176930058943298
326.0, 0.01590509322427002
327.0, 0.012423297488395942
328.0, 0.01073746350707157
329.0, 0.009698132948007952
330.0, 0.009238854024666622
331.0, 0.0098568895177314
332.0, 0.008357537755046607
333.0, 0.007936889527701461
334.0, 0.00930634093519779
335.0, 0.009713837921696984
336.0, 0.009458828093520928
337.0, 0.009315516638020173
338.0, 0.009685244985964554
339.0, 0.009334138510656922
340.0, 0.011088280442412323
341.0, 0.012904286239317608
342.0, 0.012754322028084046
343.0, 0.017021780290042993
344.0, 0.021069873031110818
345.0, 0.023561104986554785
346.0, 0.022283535679397656
347.0, 0.025211210189602824
348.0, 0.027919603467213918
349.0, 0.029964946601604238
350.0, 0.031456208891943685
351.0, 0.03240066762697379
352.0, 0.03261911919583004
353.0, 0.03207739050822823
354.0, 0.030808930083515568
355.0, 0.029384828120880745
356.0, 0.028379556127838396
357.0, 0.028149055568706057
358.0, 0.029876421166492376
359.0, 0.02929502292825259
360.0, 0.02833352322208782
361.0, 0.028147075683221886
362.0, 0.02888082976847654
363.0, 0.028181794244798518
364.0, 0.027270379726240867
365.0, 0.02731160325730115
366.0, 0.028458987338284798
367.0, 0.029603567530852512
368.0, 0.030648141599461293
369.0, 0.03147467943287601
370.0, 0.03251126955070474
371.0, 0.03320755910275892
372.0, 0.03300137446594764
373.0, 0.030612835157053476
374.0, 0.030306000949368105
375.0, 0.02851651234188162
376.0, 0.025586733504347457
377.0, 0.024662890260805183
378.0, 0.021744613414888314
379.0, 0.01955590190164144
380.0, 0.018419329980389906
381.0, 0.016198207981853126
382.0, 0.014474185668437882
383.0, 0.012839628570948804
384.0, 0.01124842464802428
385.0, 0.010703684298908195
386.0, 0.010832065638575503
387.0, 0.009623560478073081
388.0, 0.006300756177808439
389.0, 0.008765703336221039
390.0, 0.008442713429288633
391.0, 0.007921382026805753
392.0, 0.009211031542547444
393.0, 0.010860015800770407
394.0, 0.012339879344546887
395.0, 0.014624546452942906
396.0, 0.0188479564411096
397.0, 0.019978049973463842
398.0, 0.022519823269459564
399.0, 0.026494713159079385
400.0, 0.031827531677245176
401.0, 0.036100774426867356
402.0, 0.04092865236898416
403.0, 0.04549484481021431
404.0, 0.04786909576179824
405.0, 0.047602790938701456
406.0, 0.047808120379478375
407.0, 0.04803863016883105
408.0, 0.04603706245587934
409.0, 0.04262909408365577
410.0, 0.03914055274787219
411.0, 0.03536290818333232
412.0, 0.029683675777991688
413.0, 0.02981433393798297
414.0, 0.029667774094332484
415.0, 0.02808334263566684
416.0, 0.026691723629848296
417.0, 0.028189700880250055
418.0, 0.03091479277774306
419.0, 0.03434614573847396
420.0, 0.03840386571548546
421.0, 0.04381382042325825
422.0, 0.049788485501868956
423.0, 0.05625430438712644
424.0, 0.06513028857827656
425.0, 0.07439391683225915
426.0, 0.08435779000606465
427.0, 0.09513097226337118
428.0, 0.10585582677935931
429.0, 0.11852775142062497
430.0, 0.1317487069960583
431.0, 0.14480525572253833
432.0, 0.15955078186761854
433.0, 0.16574206448623838
434.0, 0.16882080349892425
435.0, 0.17222602560103864
436.0, 0.16651974630397595
437.0, 0.16125921666376375
438.0, 0.15464496694968732
439.0, 0.14518237465087216
440.0, 0.13653067015295642
441.0, 0.12723299730762846
442.0, 0.12006358837326728
443.0, 0.11773916214659919
444.0, 0.11508250953077787
445.0, 0.11213303694566402
446.0, 0.10930959282353735
447.0, 0.1070762698183131
448.0, 0.10554454705786732
449.0, 0.10518868621797484
450.0, 0.10665002455877974
451.0, 0.11076845922839659
452.0, 0.11800527563229433
453.0, 0.12324575336800525
454.0, 0.12962250132059855
455.0, 0.14158753888155834
456.0, 0.1482709982518238
457.0, 0.15445541503880283
458.0, 0.1583308835845395
459.0, 0.1568809606473139
460.0, 0.1520091486784771
461.0, 0.14337586352527357
462.0, 0.13072721276298638
463.0, 0.11350190127530632
464.0, 0.09871794238911744
465.0, 0.08736013434367858
466.0, 0.07740115737499072
467.0, 0.06556650904455157
468.0, 0.05541643644895088
469.0, 0.048201274215106546
470.0, 0.0424599342014563
471.0, 0.03571576380512671
472.0, 0.034854279984476905
473.0, 0.031989851544279156
474.0, 0.02861487040934617
475.0, 0.028173625039009078
476.0, 0.026976934966728434
477.0, 0.026384912605961316
478.0, 0.02625877682138536
479.0, 0.026217975016512445
480.0, 0.027769688010887233
481.0, 0.02862615357836986
482.0, 0.02924060186346149
483.0, 0.030628184142212713
484.0, 0.031348673877625834
485.0, 0.03213391809182476
486.0, 0.03292056861922663
487.0, 0.033524353428070364
488.0, 0.03464015362734381
489.0, 0.03563827961005462
490.0, 0.036520510893158574
491.0, 0.03734804253521224
492.0, 0.037627423666901604
493.0, 0.038062490880750484
494.0, 0.03832219331380529
495.0, 0.03786542939493768
496.0, 0.03814156132400462
497.0, 0.03826873033491096
498.0, 0.03811486366881984
499.0, 0.037551912712218305
500.0, 0.03734574238938179
501.0, 0.03738646762147654
502.0, 0.037536154653049054
503.0, 0.03763120090881812
504.0, 0.038469051510040375
505.0, 0.039230660636876045
506.0, 0.04024455125038724
507.0, 0.04189281671730901
508.0, 0.044456614912944996
509.0, 0.04772084842761569
510.0, 0.05142270410750603
511.0, 0.05531898034915886
512.0, 0.0615549731762
513.0, 0.06795410947516689
514.0, 0.07503760554059637
515.0, 0.08321726528405475
516.0, 0.09091984779769813
517.0, 0.0993535735201011
518.0, 0.1081237155800326
519.0, 0.11743963712171752
520.0, 0.1372703160398283
521.0, 0.15554336298867005
522.0, 0.1776112757564632
523.0, 0.2066881214675132
524.0, 0.2387179759496816
525.0, 0.27789761216546155
526.0, 0.32746234152950754
527.0, 0.3887675414795243
528.0, 0.45684389322548863
529.0, 0.543949923983892
530.0, 0.6361780147531042
531.0, 0.7282149338032691
532.0, 0.825868509475048
533.0, 0.9158881408586017
534.0, 0.9759458754174682
535.0, 0.9964262444456763
536.0, 0.9712589518096033
537.0, 0.8903894600515662
538.0, 0.7863823963056115
539.0, 0.6723286301861597
540.0, 0.5629214471152281
541.0, 0.4730897120824651
542.0, 0.3932032916290764
543.0, 0.32450450322905505
544.0, 0.27703577278278574
545.0, 0.23571622146004984
546.0, 0.2005808010614057
547.0, 0.17259241221248994
548.0, 0.15404672834732036
549.0, 0.1371033402385446
550.0, 0.12311483379218367
551.0, 0.11152037234646654
552.0, 0.10114980331683975
553.0, 0.09277150513587978
554.0, 0.08660199760055409
555.0, 0.08141437812981732
556.0, 0.07559375028864308
557.0, 0.07030006212546079
558.0, 0.06729823331875942
559.0, 0.06453800050127331
560.0, 0.06004278334829589
561.0, 0.05699678490984423
562.0, 0.05444992070975069
563.0, 0.051903324996901715
564.0, 0.049105331303984534
565.0, 0.04768336116032457
566.0, 0.04570679461474183
567.0, 0.0435972049660464
568.0, 0.04155711564091695
569.0, 0.03942845379489019
570.0, 0.03615896257183424
571.0, 0.03248390218265999
572.0, 0.029103617754132505
573.0, 0.028025935687591073
574.0, 0.02642186827826333
575.0, 0.025216294161922233
576.0, 0.023935901390778745
577.0, 0.020354477361021667
578.0, 0.018683502919813855
579.0, 0.01741103141553247
580.0, 0.016076296976678145
581.0, 0.014225225530346062
582.0, 0.013804873522762618
583.0, 0.012766102396191562
584.0, 0.011472739596905231
585.0, 0.010705369102877732
586.0, 0.010257546077545683
587.0, 0.009456787932301154
588.0, 0.008980312204327419
589.0, 0.009424356541115805
590.0, 0.007847063833684477
591.0, 0.0071200681438937565
592.0, 0.0068671554950358975
593.0, 0.006718097961607907
594.0, 0.005518741954811902
595.0, 0.005342493906614991
596.0, 0.005106090155252727
597.0, 0.004360431095050905
598.0, 0.003239891906325635
599.0, 0.0038036654160811248
600.0, 0.0026545025986166233
601.0, 0.00015352938689922025
602.0, 0.0003358082676705237
603.0, 0.0010514446326329628
604.0, 0.0017244180209010224
605.0, 0.002152689299285795
606.0, 0.0021184956756848975
607.0, 0.0009396819206042412
608.0, 0.0013048627461191252
609.0, 0.0017989613174182186
610.0, 0.0004963158952106547
611.0, 0.0006024838678042046
612.0, 0.0011486525973993251
613.0, 0.0016503835094712537
614.0, 0.0017298796745819798
615.0, 0.0014329881899470193
616.0, 0.0016171079547255996
617.0, 0.0017789886857962082
618.0, 0.0017455408062195972
619.0, 0.00190207078179141
620.0, 0.0012814236329691476
621.0, 0.001514234857793847
622.0, 0.002161200274404889
623.0, 0.0005193353780161341
624.0, 0.000661368035189257
625.0, 0.0024550993467168662
626.0, 0.0037324924724319196
627.0, 0.000783240540767513
628.0, 0.0025916489460990136
629.0, 0.003939582877377255
630.0, 0.0034668084503650656
631.0, 0.00029098979873486315
632.0, 0.0014575146293486663
633.0, 0.0020451421951686493
634.0, 0.0029665301431328417
635.0, 0.004380071436472339
636.0, 0.0031754825494068675
637.0, 0.0027534737120965946
638.0, 0.0020662546975977504
639.0, 0.0009988035684923464
640.0, 0.0004437118229286368
641.0, 0.001360181407870864
642.0, 0.0016659407405071511
643.0, 0.0019327528471860735
644.0, 0.003955681835497156
645.0, 0.004252328431491906
646.0, 0.005508137280615018
647.0, 0.0066557528677026
648.0, 0.006462045204340142
649.0, 0.007583256130288139
650.0, 0.00850971245012197
651.0, 0.009959068641325083
652.0, 0.011929986781260705
653.0, 0.011329763659949555
654.0, 0.011297306815369315
655.0, 0.010639056345409263
656.0, 0.010019038233894951
657.0, 0.012779952289902615
658.0, 0.014589737327037933
659.0, 0.01395645737026013
660.0, 0.013150160751197893
661.0, 0.0162255200431016
662.0, 0.01644697793227107
663.0, 0.017940562453745416
664.0, 0.018833584269752655
665.0, 0.017844370913279187
666.0, 0.022108129744522444
667.0, 0.023679531983101
668.0, 0.02651203988428643
669.0, 0.0313036312145301
670.0, 0.032594216493991635
671.0, 0.034036013131357436
672.0, 0.03735507617165613
673.0, 0.04082527715577609
674.0, 0.039844277913105394
675.0, 0.03975154678502212
676.0, 0.037924610526053205
677.0, 0.03587124617199366
678.0, 0.03529249843903083
679.0, 0.030459784074758918
680.0, 0.027099383409927645
681.0, 0.024426141990189502
682.0, 0.02188252149687108
683.0, 0.018941677064747222
684.0, 0.015868597267746812
685.0, 0.013252763869273055
686.0, 0.011335540241266838
687.0, 0.0103164591752264
688.0, 0.01050095532457065
689.0, 0.009326672255368533
690.0, 0.008841204167097043
691.0, 0.011544137905868055
692.0, 0.008506262199561174
693.0, 0.010890360398625116
694.0, 0.013077640159874431
695.0, 0.012327354792996464
696.0, 0.012850852126644845
697.0, 0.012764230230482575
698.0, 0.014735047227153438
699.0, 0.018004453882469244
700.0, 0.01894224278417843
701.0, 0.02130383148987838
702.0, 0.023480660184062325
703.0, 0.026776405029450605
704.0, 0.03266588108648863
705.0, 0.03797775308140485
706.0, 0.0389638111158001
707.0, 0.038410445782729695
708.0, 0.03822594432574167
709.0, 0.04014791803420402
710.0, 0.035291402373126085
711.0, 0.03202298944449372
712.0, 0.03027863409968777
713.0, 0.02598220575631375
714.0, 0.024609854851307983
715.0, 0.02205602610636937
716.0, 0.019856567642735468
717.0, 0.019553903632699033
718.0, 0.019703616195743963
719.0, 0.020128191558142928
720.0, 0.02031148926651716
721.0, 0.020514598081342338
722.0, 0.02248992325247052
723.0, 0.02363727076811253
724.0, 0.025380559779654345
725.0, 0.027763864346289316
726.0, 0.03049337961567794
727.0, 0.03045518102943719
728.0, 0.032910988043765375
729.0, 0.03477123122955818
730.0, 0.03413067441891866
731.0, 0.03261040797692599
732.0, 0.029718541503988487
733.0, 0.027008450652695346
734.0, 0.0246791322950684
735.0, 0.0221892403595904
736.0, 0.020379540709210782
737.0, 0.017920842332733337
738.0, 0.015839559246471888
739.0, 0.01499663626808721
740.0, 0.012220330745422083
741.0, 0.010924448388580543
742.0, 0.011735454472453352
743.0, 0.013675004818083432
744.0, 0.012597615681225718
745.0, 0.012280777102025155
746.0, 0.011892294654236866
747.0, 0.012564902121034819
748.0, 0.015755192631147493
749.0, 0.015558526551465111
750.0, 0.01716738076084437
751.0, 0.018210103999745708
752.0, 0.017983083325727525
753.0, 0.019600551428937456
754.0, 0.021501735801772764
755.0, 0.02154284895752692
756.0, 0.02087942228396399
757.0, 0.022179034139497334
758.0, 0.019644350958714783
759.0, 0.019546702403160223
760.0, 0.019279355053735184
761.0, 0.01745804251240491
762.0, 0.017571446356254142
763.0, 0.018191219065096933
764.0, 0.01649793122999926
765.0, 0.01439532863765948
766.0, 0.017164065786132842
767.0, 0.015146584556313101
768.0, 0.015244019222077623
769.0, 0.01583964099982594
770.0, 0.01538413934545569
771.0, 0.014100713003774287
772.0, 0.01330561025217991
773.0, 0.01157793725536922
774.0, 0.009350416026354743
775.0, 0.008571626458161355
776.0, 0.0071456560161695624
777.0, 0.005947559442983376
778.0, 0.005005477671037833
779.0, 0.004253386053280203
780.0, 0.003360465061108465
781.0, 0.002122426866166479
782.0, 0.0009182868482870815
783.0, 0.0003445133790270715
784.0, 0.0014939010612390487
785.0, 0.0006005489899333208
786.0, 0.0005690156803101195
787.0, 0.0008471868755795481
788.0, 0.0009282055010504558
789.0, 0.002252848241236682
790.0, 0.0015160275989653028
791.0, 0.0006577719361936494
792.0, 0.0007923202747670172
793.0, 0.0030160347193189793
794.0, 0.0013250038856073086
795.0, 0.00046956538478179786
796.0, 0.0006945524188768337
797.0, 0.0018278303060426083
798.0, 0.0029492151022103797
799.0, 0.0019720933663517548
800.0, 0.0014476099370664202
801.0, 0.001466059145368208
802.0, 0.0006880169735775062
803.0, 0.001244011809475269
804.0, 0.000752968490478095
805.0, 0.000273781745515877
806.0, 0.0004975617158594352
807.0, 0.00024086051119222315
808.0, 0.0014866237383402902
809.0, 0.001284083312507004
810.0, 0.0001609027677059346
811.0, 0.0002968692211198519
812.0, 0.0010966925541283652
813.0, 0.0010664052467145833
814.0, 0.0009797904368521071
815.0, 0.0012364028998212305
816.0, 0.001308756563954468
817.0, 0.0007522108436816622
818.0, 0.0007025942317126915
819.0, 0.0008294948410231401
820.0, 0.0004094258683020083
821.0, 0.0004064976320295394
822.0, 0.0001728232634835841
823.0, 0.0002298402091766967
824.0, 0.000721641805612881
825.0, 0.0012735043984866857
826.0, 0.0013171317723338453
827.0, 0.0008984082517752985
828.0, 0.000716084159096778
829.0, 0.0014307151437393914
830.0, 0.0022484592409547626
831.0, 0.001108760149532997
832.0, 0.0005448604796596036
833.0, 0.0008568425863372539
834.0, 0.0006682655252250199
835.0, 0.0005084567387678232
836.0, 0.0006213205322331543
837.0, 0.0008420142434412256
838.0, 0.0012304165554346633
839.0, 0.0029999242819333904
840.0, 0.0036190101901211846
841.0, 0.00325729850998311
842.0, 0.00239314261698493
843.0, 0.0017703895398961315
844.0, 0.0040652455528028255
845.0, 0.003509588559764537
846.0, 0.0025863367941823673
847.0, 0.002227185490368813
848.0, 0.0011674648852016975
849.0, 0.0015156896523114615
850.0, 0.0019304070479561296
851.0, 0.0024975981612539865
852.0, 0.0033684584126326745
853.0, 0.003854726370696421
854.0, 0.004236831932874896
855.0, 0.004423015491909837
856.0, 0.004507669300478149
857.0, 0.0047255711715925245
858.0, 0.004879897054727891
859.0, 0.004851093809869971
860.0, 0.004899902965578613
861.0, 0.005100844626512779
862.0, 0.005087365665744551
863.0, 0.004916792042013846
864.0, 0.0038279619950708503
865.0, 0.0029239310636190504
866.0, 0.0033538493569767935
867.0, 0.002688252921287871
868.0, 0.004041206720676212
869.0, 0.0039111287777685985
870.0, 0.002679760795579514
871.0, 0.0035430019661082655
872.0, 0.004421325194917969
873.0, 0.0035195514777829335
874.0, 0.002714085329739074
875.0, 0.0027623464429119365
876.0, 0.0016854889549729178
877.0, 0.0028231421340909066
878.0, 0.0034024312944314714
879.0, 0.0036396502899787805
880.0, 0.004168365429992619
881.0, 0.004578948063899719
882.0, 0.003059278793316806
883.0, 0.002380334983999794
884.0, 0.002641743172905269
885.0, 0.0024090308782998633
886.0, 0.0034694629064981834
887.0, 0.004220260104377676
888.0, 0.004733012504592535
889.0, 0.004826114959998842
890.0, 0.003713124532355523
891.0, 0.005361967774605637
892.0, 0.005419295591864453
893.0, 0.0046707736698150815
894.0, 0.004322051118730581
895.0, 0.004629965892724494
896.0, 0.005937424289328622
897.0, 0.006282966643818506
898.0, 0.00594216955102407
899.0, 0.005970305599418274
900.0, 0.005424933140343867
901.0, 0.0060148273502179635
902.0, 0.0063594654609577484
903.0, 0.006031918772294665
904.0, 0.005420181566674092
905.0, 0.006438668883887504
906.0, 0.006794904380521891
907.0, 0.007160514381253035
908.0, 0.007736230572822068
909.0, 0.007250943815891494
910.0, 0.00607127905994215
911.0, 0.006968252098810564
912.0, 0.008007094188648204
913.0, 0.007545492002608844
914.0, 0.010935447920419514
915.0, 0.01149349725903627
916.0, 0.010792450713484237
917.0, 0.01088460205434959
918.0, 0.013909731447888056
919.0, 0.01419245243354602
920.0, 0.016478833662894172
921.0, 0.019320620566473476
922.0, 0.022651715838054767
923.0, 0.027606655827581837
924.0, 0.03290820827607317
925.0, 0.039722117325800006
926.0, 0.04679257186359506
927.0, 0.05396068547234465
928.0, 0.06337768059637847
929.0, 0.06593705284397815
930.0, 0.06774314515248218
931.0, 0.0690332798015268
932.0, 0.06890435761767699
933.0, 0.06372274328461974
934.0, 0.059847337524057534
935.0, 0.05380423447587931
936.0, 0.04788672462348759
937.0, 0.04476567944871037
938.0, 0.03776604670649326
939.0, 0.03194545275328253
940.0, 0.027987847742583723
941.0, 0.024951007006437747
942.0, 0.021075177224927515
943.0, 0.016904023135133964
944.0, 0.014499779538435906
945.0, 0.014458227494311183
946.0, 0.015172924317846987
947.0, 0.012891753489514815
948.0, 0.012410363685255476
949.0, 0.011938841805727332
950.0, 0.01172726004292048
951.0, 0.01183750814642201
952.0, 0.012046174788623576
953.0, 0.009230067549933486
954.0, 0.009394009918959431
955.0, 0.010296282730728128
956.0, 0.010503969805568242
957.0, 0.011722501173608799
958.0, 0.00988743718502992
959.0, 0.00966552817760486
960.0, 0.009730727372087952
961.0, 0.008985288067364839
962.0, 0.010318881392466117
963.0, 0.012465756817321764
964.0, 0.013757852300418608
965.0, 0.01568869218516644
966.0, 0.019651486137805346
967.0, 0.02198072180687676
968.0, 0.02682148878151592
969.0, 0.03226730862805949
970.0, 0.03635327840307244
971.0, 0.037568195904512325
972.0, 0.04014043335369886
973.0, 0.0377597925581413
974.0, 0.03391977513477461
975.0, 0.029537031408979838
976.0, 0.024514405890190563
977.0, 0.01957768011352544
978.0, 0.018097325186908392
979.0, 0.017018939438356657
980.0, 0.016022514780305603
981.0, 0.016449110328531802
982.0, 0.017327956560149828
983.0, 0.01623901050296877
984.0, 0.017235061401620608
985.0, 0.020574957397115314
986.0, 0.02322261456401037
987.0, 0.021311555101977936
988.0, 0.025321300452614298
989.0, 0.028774876023444525
990.0, 0.030312110324912208
991.0, 0.03426406985656792
992.0, 0.03783450269620142
993.0, 0.04262690659192515
994.0, 0.04883824214312692
995.0, 0.05507497350748123
996.0, 0.05765247984604174
997.0, 0.058382223759257314
998.0, 0.054621525446786015
999.0, 0.05066820837618398
1000.0, 0.04770779576281645
1001.0, 0.041572877099654716
1002.0, 0.03872124546400518
1003.0, 0.03644814273214188
1004.0, 0.03436997913601903
1005.0, 0.03302324589343636
1006.0, 0.03452837316718859
1007.0, 0.033241876905224475
1008.0, 0.03440872049421969
1009.0, 0.03738053593575455
1010.0, 0.04091429551257102
1011.0, 0.04332190352716661
1012.0, 0.04917801497486751
1013.0, 0.05466274273092607
1014.0, 0.06065433493065701
1015.0, 0.06834628403455976
1016.0, 0.07913756090120397
1017.0, 0.08951107176829107
1018.0, 0.10159150380852082
1019.0, 0.11771716500936413
1020.0, 0.1395066194639748
1021.0, 0.16771892011779752
1022.0, 0.19045136287849349
1023.0, 0.2126424869858199
1024.0, 0.22373886770205367
1025.0, 0.21839829725664126
1026.0, 0.20244297213852883
1027.0, 0.17471315799812
1028.0, 0.15041451931821226
1029.0, 0.1267038405491052
1030.0, 0.10266400042181423
1031.0, 0.08339599355793406
1032.0, 0.07269985597245639
1033.0, 0.06462980835382177
1034.0, 0.05837468312748974
1035.0, 0.05385990169954974
1036.0, 0.051918871366696207
1037.0, 0.05131685351435467
1038.0, 0.050469210094558105
1039.0, 0.049144933030688925
1040.0, 0.04743969339735598
1041.0, 0.045827853516972133
1042.0, 0.04322283700484808
1043.0, 0.041431371613228976
1044.0, 0.0385270660753035
1045.0, 0.035153569335488
1046.0, 0.03531638491249978
1047.0, 0.034058150516770164
1048.0, 0.03644759600515343
1049.0, 0.03688597073541618
1050.0, 0.03560181086838348
1051.0, 0.03884147831221802
1052.0, 0.03744579101756945
1053.0, 0.03799667469280288
1054.0, 0.039468133047447604
1055.0, 0.04183677464862889
1056.0, 0.04578677006733352
1057.0, 0.04872683995256523
1058.0, 0.053019643907487986
1059.0, 0.05615937874016291
1060.0, 0.05884184207130058
1061.0, 0.06357738630256383
1062.0, 0.06958796382375454
1063.0, 0.07306200539250331
1064.0, 0.07552364086926838
1065.0, 0.07646613362971753
1066.0, 0.07492704477864659
1067.0, 0.0736478268027459
1068.0, 0.06483465224503232
1069.0, 0.057740300686041454
1070.0, 0.05243251999185807
1071.0, 0.04651232679506236
1072.0, 0.04102904805055216
1073.0, 0.0367728957659756
1074.0, 0.03263701088267383
1075.0, 0.02869413050366404
1076.0, 0.025458207020689478
1077.0, 0.02423913823894271
1078.0, 0.023998946693319447
1079.0, 0.023057075978456743
1080.0, 0.022648051073965572
1081.0, 0.022696102831241738
1082.0, 0.01899743357138555
1083.0, 0.020721892097072227
1084.0, 0.020471767427967295
1085.0, 0.020659230140718375
1086.0, 0.02223999742083818
1087.0, 0.022859804862945404
1088.0, 0.02622636785684931
1089.0, 0.027205072977553004
1090.0, 0.028541861252482887
1091.0, 0.031011586572437085
1092.0, 0.033395701173704315
1093.0, 0.038806741202623375
1094.0, 0.04430516323986476
1095.0, 0.047909544484680676
1096.0, 0.05107514539524774
1097.0, 0.05667364809509246
1098.0, 0.060839991285817796
1099.0, 0.06415267841961791
1100.0, 0.06438340584831438
1101.0, 0.06397848950940653
1102.0, 0.06498515992755166
1103.0, 0.058811843798906055
1104.0, 0.05661856623907138
1105.0, 0.05155594295884003
1106.0, 0.0475391037335879
1107.0, 0.046818613261009084
1108.0, 0.04193253357788631
1109.0, 0.03962639657338735
1110.0, 0.037766949520347294
1111.0, 0.03502942480830139
1112.0, 0.031135728609884394
1113.0, 0.0272177344685926
1114.0, 0.025336589340758463
1115.0, 0.02289006451965028
1116.0, 0.020869128404168834
1117.0, 0.019400518055565755
1118.0, 0.017940924163439783
1119.0, 0.01699903926090522
1120.0, 0.014855089355025868
1121.0, 0.01457562152181232
1122.0, 0.015766086666052594
1123.0, 0.01661180960268651
1124.0, 0.01568890447396429
1125.0, 0.0125107063102732
1126.0, 0.011488454541622556
1127.0, 0.010364601025274344
1128.0, 0.007959211151549923
1129.0, 0.009177733813454242
1130.0, 0.009533111811652789
1131.0, 0.008084814060697432
1132.0, 0.00515881823582954
1133.0, 0.0025672691187935736
1134.0, 0.0035681156201343997
1135.0, 0.006311282730560949
1136.0, 0.0035304971590193928
1137.0, 0.003466505027830312
1138.0, 0.004691375414059981
1139.0, 0.0016282834611272682
1140.0, 0.00299926351197044
1141.0, 0.0029011462861263967
1142.0, 0.0025606909999826015
1143.0, 0.0023956190510849274
1144.0, 0.002600317959477572
1145.0, 0.0033558242230644734
1146.0, 0.0034879768772443235
1147.0, 0.002592376605046006
1148.0, 0.001476322354287455
1149.0, 0.000719998982635681
1150.0, 0.0003819776134568526
1151.0, 7.809521055245034e-05
1152.0, 0.0016129301885923018
1153.0, 0.0015600544186294087
1154.0, 0.0007239995989037764
1155.0, 0.0017340468778255578
1156.0, 0.0005848547670795128
1157.0, 0.00015489010960943763
1158.0, 9.961606412803902e-05
1159.0, 0.0007950071375395283
1160.0, 0.001987021245609907
1161.0, 0.001286284891790871
1162.0, 0.0003889983471400832
1163.0, 0.0008066597957587348
1164.0, 0.0009656795555191872
1165.0, 0.0008752155454662751
1166.0, 0.0023739406953128665
1167.0, 0.0025801654982548893
1168.0, 0.0013878071264758597
1169.0, 0.0010804362600084132
1170.0, 0.001467794741750523
1171.0, 0.0014830049798090403
1172.0, 0.0014765748645529488
1173.0, 0.0005463239829759505
1174.0, 0.0011744419837344988
1175.0, 0.0018289382187824169
1176.0, 0.0014032626448407355
1177.0, 0.0006796503721842925
1178.0, 0.001317903595888755
1179.0, 0.0010448261547512715
1180.0, 0.0015822278078598297
1181.0, 0.002518272926077342
1182.0, 0.002244030764739771
1183.0, 0.001590716568905027
1184.0, 0.0010793307581610668
1185.0, 0.0010231723102189963
1186.0, 0.001156351350659316
1187.0, 0.0010694009078559298
1188.0, 0.00038046771875420925
1189.0, 0.0006985917989244079
1190.0, 0.0007901092095055887
1191.0, 0.0018272030578656208
1192.0, 0.002500078834544609
1193.0, 0.0001575762669243731
1194.0, 0.0009587818521330101
1195.0, 0.0017693891067723868
1196.0, 0.002070736455314859
1197.0, 0.0014457494201314427
1198.0, 0.0004917480084941327
1199.0, 0.0023777380384144993
1200.0, 0.0013938904005090017
1201.0, 0.003261083649032586
1202.0, 0.002770043931865396
1203.0, 0.00044478360783023653
1204.0, 0.0019832810540990915
1205.0, 0.004207598748637468
1206.0, 0.0041683923046741626
1207.0, 0.002524362657072063
1208.0, 0.001219792716597887
1209.0, 0.0016673178762167406
1210.0, 0.0028011833465558865
1211.0, 0.0018895883411861518
1212.0, 0.0018798637981337243
1213.0, 0.0015002572035449097
1214.0, 0.0008528113337671645
1215.0, 0.0013426933488423672
1216.0, 0.003361627730150223
1217.0, 0.0033583349983803616
1218.0, 0.002921601252235406
1219.0, 0.0025182997577468417
1220.0, 0.0021973819930416463
1221.0, 0.0017295654634220466
1222.0, 0.0013732084201874377
1223.0, 0.0016497863592838656
1224.0, 0.0019440135179472594
1225.0, 0.0021646764632177913
1226.0, 0.002565746553145185
1227.0, 0.0028387559279536814
1228.0, 0.0034489238685439507
1229.0, 0.003404939339983442
1230.0, 0.0033644782267560408
1231.0, 0.0031889934735512986
1232.0, 0.0009811398000621043
1233.0, 0.0036059198974996093
1234.0, 0.002114901366688092
1235.0, 0.0011502578570744913
1236.0, 0.0020818524882719883
1237.0, 0.003517377885427668
1238.0, 0.00040034773506179237
1239.0, 0.002344229316093658
1240.0, 0.004085532190565268
1241.0, 0.004258832329309979
1242.0, 0.0031316391484330053
1243.0, 0.002198078363426834
1244.0, 0.0014381608461041667
1245.0, 0.0023334477150518547
1246.0, 0.0038733786716260887
1247.0, 0.004018543505549048
1248.0, 0.0024472488872311015
1249.0, 0.003479580797718075
1250.0, 0.0012914588889545134
1251.0, 0.0017601255720663303
1252.0, 0.003285454985114915
1253.0, 0.0034823248416944908
1254.0, 0.0009579802423849447
1255.0, 0.0007479341903326853
1256.0, 0.0011676732029630241
1257.0, 0.0017788150445226122
1258.0, 0.0023794251689781823
1259.0, 0.002323822901635645
1260.0, 0.0007453401682752111
1261.0, 0.002212222910532125
1262.0, 0.002337607177996502
1263.0, 0.0014983526997321198
1264.0, 0.0008954716847810778
1265.0, 0.0010274967405646705
1266.0, 0.0001395649026032504
1267.0, 0.00038081335821763495
1268.0, 0.0003098183342994849
1269.0, 0.00019581687819342003
1270.0, 0.00035390056008403095
1271.0, 0.0008780282134270939
1272.0, 0.0009622155314858976
1273.0, 0.002002600895407719
1274.0, 0.0017155982170632784
1275.0, 0.002071950893774308
1276.0, 0.0027415559620475776
1277.0, 0.001272571815680787
1278.0, 0.0028922408736841857
1279.0, 0.0012006381510799276
1280.0, 0.0002016044236874788
1281.0, 0.0008008543335112394
1282.0, 0.0018160179173335176
1283.0, 0.000305648776026866
1284.0, 0.00339293362734834
1285.0, 0.0013487692718445097
1286.0, 0.0006243219527011786
1287.0, 0.0014691544921858627
1288.0, 0.0018087706293443014
1289.0, 0.0007392519966690094
1290.0, 0.0020404491928229474
1291.0, 0.001220247736681295
1292.0, 0.0004366967704738958
1293.0, 0.00037414400985166086
1294.0, 0.0005145499138783638
1295.0, 0.0003366129766650511
1296.0, 0.00043928186805804837
1297.0, 0.00041442467115065674
1298.0, 0.0002681502898659441
1299.0, 0.00012805304534127822
1300.0, 0.00014554227691599978
1301.0, 0.00020336231204141016
1302.0, 0.0009769311107668186
1303.0, 0.0009326287338557982
1304.0, 0.0006015782268396438
1305.0, 0.00046547356018118165
1306.0, 0.0005060359147623669
1307.0, 0.0017415324632433912
1308.0, 0.0006428807183580297
1309.0, 0.0018080722778684964
1310.0, 0.0022874107685326886
1311.0, 0.0006017402448010512
1312.0, 0.0008850935222708363
1313.0, 0.00226809767688023
1314.0, 0.003789472765263046
1315.0, 0.002539972639760091
1316.0, 0.0016260472037271402
1317.0, 0.0028655915624664296
1318.0, 0.0008393598303101849
1319.0, 0.0029161539564968417
1320.0, 0.0029475861507342383
1321.0, 0.0017852365369663374
1322.0, 0.0018974220808539264
1323.0, 0.003899484879624383
1324.0, 0.0019464701410647337
1325.0, 0.0014291966071425192
1326.0, 0.001064604247893436
1327.0, 0.0008983184500509131
1328.0, 0.000973311865358053
1329.0, 0.0013420688674066843
1330.0, 0.0021774390406170984
1331.0, 0.0028832731087283887
1332.0, 0.0019064438490124889
1333.0, 0.0016412222516276364
1334.0, 0.0015099131671128783
1335.0, 7.122549243579265e-05
1336.0, 0.0005019658837709066
1337.0, 0.0013312726804763694
1338.0, 0.000958319408754683
1339.0, 0.0017561739779394117
1340.0, 0.0026560375204637944
1341.0, 0.0012828762793149879
1342.0, 0.0009477486092689691
1343.0, 0.00029381514206298085
1344.0, 0.0007992661008219999
1345.0, 0.001260650214991049
1346.0, 0.0023122860096623553
1347.0, 0.004513357687024373
1348.0, 0.0010970311099623405
1349.0, 0.0010244112008790354
1350.0, 0.003739452323193618
1351.0, 0.0041454077901556955
1352.0, 0.0030607957291437227
1353.0, 0.004543252874431422
1354.0, 0.004610390117663972
1355.0, 0.001275417115989453
1356.0, 0.0029247156667299655
1357.0, 0.004105644992310391
1358.0, 0.003090346201791725
1359.0, 0.002495652308027416
1360.0, 0.005883669564259672
1361.0, 0.003672677599253196
1362.0, 0.0033137307402983486
1363.0, 0.004449986077393356
1364.0, 0.004738054981790051
1365.0, 0.0028697468050512547
1366.0, 0.004924668544184057
1367.0, 0.004393786895851804
1368.0, 0.004916597053780555
1369.0, 0.004898091899831145
1370.0, 0.004633872043507368
1371.0, 0.00506562735794717
1372.0, 0.003870210078751437
1373.0, 0.006528156199289549
1374.0, 0.004938586487370205
1375.0, 0.0046799002290964994
1376.0, 0.0050349996438556425
1377.0, 0.003136082713021702
1378.0, 0.0028041279365179006
1379.0, 0.005272618765968481
1380.0, 0.004124472797156394
1381.0, 0.002890067740967849
1382.0, 0.003532557195973225
1383.0, 0.005438089760145308
1384.0, 0.004725571089144007
1385.0, 0.004977655486653969
1386.0, 0.0040871845644875225
1387.0, 0.0053715689767913615
1388.0, 0.00657902348019079
1389.0, 0.005641656091294128
1390.0, 0.005499954261798432
1391.0, 0.002746563401540442
1392.0, 0.003244813233716445
1393.0, 0.00546726681090137
1394.0, 0.006025417997171479
1395.0, 0.004664626497971127
1396.0, 0.006077508946904737
1397.0, 0.004903911258852199
1398.0, 0.005412329414651744
1399.0, 0.007098391105607235
1400.0, 0.007088977959870716
1401.0, 0.005695472201810838
1402.0, 0.006688289253977935
1403.0, 0.005965645918442741
1404.0, 0.00383587460908113
1405.0, 0.0061082376342903085
1406.0, 0.005533390077461154
1407.0, 0.0030999671190457337
1408.0, 0.006202587476878749
1409.0, 0.008153385258883036
1410.0, 0.005376213223093116
1411.0, 0.007311104516899956
1412.0, 0.007261953128767063
1413.0, 0.005830059347067636
1414.0, 0.006848732997831255
1415.0, 0.0061434741922735125
1416.0, 0.0073313694298462245
1417.0, 0.005499697915057765
1418.0, 0.0062701344798585445
1419.0, 0.007113915153095704
1420.0, 0.0053288219744325
1421.0, 0.005325754321161466
1422.0, 0.004886491063651339
1423.0, 0.005242629263008717
1424.0, 0.005501981818693488
1425.0, 0.00566455203132798
1426.0, 0.005846805988028661
1427.0, 0.005884701586371973
1428.0, 0.004969663889732113
1429.0, 0.00559852480597411
1430.0, 0.005150630703619167
1431.0, 0.004765271277931723
1432.0, 0.0051509898765964655
1433.0, 0.005810173027110451
1434.0, 0.005313465966118635
1435.0, 0.005295715564534988
1436.0, 0.006156332090806948
1437.0, 0.006901217178444454
1438.0, 0.0074021733408578825
1439.0, 0.007651989724610294
1440.0, 0.006811861295828645
1441.0, 0.008874894435976392
1442.0, 0.008430683106921693
1443.0, 0.008572866144002178
1444.0, 0.008797569577871396
1445.0, 0.008724246387027755
1446.0, 0.009424657488010624
1447.0, 0.009292181579984782
1448.0, 0.009638010169757705
1449.0, 0.009610106137013987
1450.0, 0.01099403007343234
1451.0, 0.012014053652129106
1452.0, 0.009965483682298997
1453.0, 0.009721864738525399
1454.0, 0.012088994376968797
1455.0, 0.011126978098411391
1456.0, 0.010202099941610436
1457.0, 0.010124907063034464
1458.0, 0.010157495298712925
1459.0, 0.009646478498406524
1460.0, 0.011015007441163797
1461.0, 0.010117643310600128
1462.0, 0.008810183571121002
1463.0, 0.009698628287448602
1464.0, 0.010539766505306317
1465.0, 0.007183138002777943
1466.0, 0.008824233147378282
1467.0, 0.006023277642461093
1468.0, 0.0050702488221439435
1469.0, 0.004053123067605858
1470.0, 0.004540507369322725
1471.0, 0.006326003975238286
1472.0, 0.0022736191163250565
1473.0, 0.0065177500092753055
1474.0, 0.006132041633119688
1475.0, 0.004160719917239529
1476.0, 0.0030375655033972587
1477.0, 0.003698751341584822
1478.0, 0.00505991724290683
1479.0, 0.0035175964779934443
1480.0, 0.0071741416196677114
1481.0, 0.005992884904265765
1482.0, 0.006288135557968254
1483.0, 0.007264867160971724
1484.0, 0.006101641627827732
1485.0, 0.005210112150194326
1486.0, 0.003789781611926378
1487.0, 0.0030702281367792927
1488.0, 0.0032155588378026123
1489.0, 0.0034009937996637082
1490.0, 0.00338982636383193
1491.0, 0.004132665883123605
1492.0, 0.007983747577279467
1493.0, 0.007397626794890713
1494.0, 0.007293503019493911
1495.0, 0.007360353583460456
1496.0, 0.005978745731306956
1497.0, 0.0038071053001797724
1498.0, 0.004968817424240829
1499.0, 0.0038960199038585853
1500.0, 0.0035497297213996624
1501.0, 0.0018046984157544582
1502.0, 0.0006063060813614716
1503.0, 0.0009927502158393717
1504.0, 0.0025312994606969566
1505.0, 0.004475981505047895
1506.0, 0.0027479294517229655
1507.0, 0.0031659021611065387
1508.0, 0.002416672290184166
1509.0, 0.002411222125430459
1510.0, 0.004233491225191272
1511.0, 0.005446168948116762
1512.0, 0.002057406379414836
1513.0, 0.003189614193101811
1514.0, 0.001265512576669102
1515.0, 0.002323935295494562
1516.0, 0.003624816927426653
1517.0, 0.002327134963073823
1518.0, 0.004085545893419374
1519.0, 0.0020749500646704885
1520.0, 0.0015808157706133572
1521.0, 0.0005887563230356416
1522, 0.0
1523, 0.0
1524, 0.0
1525, 0.0
1526, 0.0
1527, 0.0
1528, 0.0
1529, 0.0
1530, 0.0
1531, 0.0
1532, 0.0
1533, 0.0
1534, 0.0
1535, 0.0
1536, 0.0
1537, 0.0
1538, 0.0
1539, 0.0
1540, 0.0
1541, 0.0
1542, 0.0
1543, 0.0
1544, 0.0
1545, 0.0
1546, 0.0
1547, 0.0
1548, 0.0
1549, 0.0
1550, 0.0
1551, 0.0
1552, 0.0
1553, 0.0
1554, 0.0
1555, 0.0
1556, 0.0
1557, 0.0
1558, 0.0
1559, 0.0
1560, 0.0
1561, 0.0
1562, 0.0
1563, 0.0
1564, 0.0
1565, 0.0
1566, 0.0
1567, 0.0
1568, 0.0
1569, 0.0
1570, 0.0
1571, 0.0
1572, 0.0
1573, 0.0
1574, 0.0
1575, 0.0
1576, 0.0
1577, 0.0
1578, 0.0
1579, 0.0
1580, 0.0
1581, 0.0
1582, 0.0
1583, 0.0
1584, 0.0
1585, 0.0
1586, 0.0
1587, 0.0
1588, 0.0
1589, 0.0
1590, 0.0
1591, 0.0
1592, 0.0
1593, 0.0
1594, 0.0
1595, 0.0
1596, 0.0
1597, 0.0
1598, 0.0
1599, 0.0
