30, 0.0
31, 0.0
32, 0.0
33, 0.0
34, 0.0
35, 0.0
36, 0.0
37, 0.0
38, 0.0
39, 0.0
40, 0.0
41, 0.0
42, 0.0
43, 0.0
44, 0.0
45, 0.0
46, 0.0
47, 0.0
48, 0.0
49, 0.0
50.0, 0.0008860490983372785
51.0, 0.0020495286731734945
52.0, 0.003316543944237412
53.0, 0.0025459687857995674
54.0, 0.002491623908168357
55.0, 0.003171808658901241
56.0, 0.004918445684693689
57.0, 0.006097283744314065
58.0, 0.007141223227621682
59.0, 0.008213933793360995
60.0, 0.008975671279662116
61.0, 0.009085010416666293
62.0, 0.009005981397683712
63.0, 0.010347059886397243
64.0, 0.010703522573392878
65.0, 0.010525339420912605
66.0, 0.009936769593590791
67.0, 0.010714599714310262
68.0, 0.010404803304036547
69.0, 0.009431286050836754
70.0, 0.009849868161367662
71.0, 0.008801128783758173
72.0, 0.007445279539015515
73.0, 0.006430413733118705
74.0, 0.00573817614010855
75.0, 0.004905244379120735
76.0, 0.004033089502291728
77.0, 0.003729806667417261
78.0, 0.002529995568360882
79.0, 0.0014721676858851474
80.0, 0.0013053826880485137
81.0, 0.0004905682008366694
82.0, 0.0001451653230882051
83.0, 0.000218607712012515
84.0, 0.00014835659363066338
85.0, 0.000716889734383534
86.0, 0.0011800076708884564
87.0, 0.0009820022674846534
88.0, 0.0007194937313255221
89.0, 0.0005272844951364952
90.0, 0.0005909085260676231
91.0, 0.0018603306308007913
92.0, 0.0035429107327172547
93.0, 0.00528997524816949
94.0, 0.0068767769524442435
95.0, 0.00896922649800243
96.0, 0.011229707794848599
97.0, 0.013518735548144992
98.0, 0.015292658017086362
99.0, 0.017647497372822386
100.0, 0.020070263951123605
101.0, 0.02224972051528675
102.0, 0.02778354711774575
103.0, 0.03262149308362514
104.0, 0.037293666278693634
105.0, 0.04483090494402594
106.0, 0.05139398090073989
107.0, 0.06079725304786282
108.0, 0.07572439707621804
109.0, 0.09052619184918241
110.0, 0.10666468986583882
111.0, 0.12237004122424407
112.0, 0.13128378649108993
113.0, 0.1263789809594324
114.0, 0.11632838320762429
115.0, 0.1042753808026218
116.0, 0.08987284925362714
117.0, 0.07703575997727202
118.0, 0.06616652370163636
119.0, 0.05881732389627489
120.0, 0.0523480511196348
121.0, 0.047957332782470365
122.0, 0.046261032379999366
123.0, 0.04578628166514871
124.0, 0.048711065696279796
125.0, 0.053121702880863514
126.0, 0.05561962930288004
127.0, 0.05880159180011612
128.0, 0.0588888525612345
129.0, 0.0547800210168166
130.0, 0.047806867378591994
131.0, 0.04363758310306123
132.0, 0.04108113978746985
133.0, 0.038953812417472915
134.0, 0.04184250595153889
135.0, 0.04742039475282966
136.0, 0.05586971199342036
137.0, 0.07189593209772119
138.0, 0.09267233812510611
139.0, 0.11832962485261583
140.0, 0.1503573076719684
141.0, 0.1826567467721669
142.0, 0.2058416045070234
143.0, 0.21873397474208411
144.0, 0.21835015199042176
145.0, 0.19696889596011363
146.0, 0.1684565268450663
147.0, 0.13997698552080143
148.0, 0.12049524045828941
149.0, 0.10668596912215615
150.0, 0.09885691983600325
151.0, 0.09989891377742484
152.0, 0.10624167363203804
153.0, 0.11961629875478946
154.0, 0.14119271788489665
155.0, 0.16284768061992527
156.0, 0.19135830584612384
157.0, 0.2222474414882295
158.0, 0.24821749768391863
159.0, 0.25686904665683946
160.0, 0.2554608027100899
161.0, 0.24417703173772423
162.0, 0.21285175364233933
163.0, 0.18532798638939632
164.0, 0.15963257376468257
165.0, 0.1342967892652364
166.0, 0.11977749077457962
167.0, 0.10878964659724469
168.0, 0.10049641297695139
169.0, 0.09460510552395013
170.0, 0.09052834683709651
171.0, 0.08694021326261313
172.0, 0.08322813615471465
173.0, 0.08299258718547398
174.0, 0.08179270665332716
175.0, 0.08106562939406278
176.0, 0.08424715569673237
177.0, 0.08758020468081458
178.0, 0.09299543290322752
179.0, 0.10118137794950846
180.0, 0.11323347848651283
181.0, 0.12328747073061715
182.0, 0.13399811593345984
183.0, 0.1483948575838337
184.0, 0.15750498785898565
185.0, 0.16376702827326178
186.0, 0.16703913156930772
187.0, 0.16513319667473683
188.0, 0.15433311965562657
189.0, 0.14071720535676652
190.0, 0.12690593124082772
191.0, 0.10683768049469496
192.0, 0.09220111646184266
193.0, 0.08028406284228282
194.0, 0.0664153034417419
195.0, 0.05781595259338825
196.0, 0.051076891443816705
197.0, 0.045677565196219065
198.0, 0.042846877950762065
199.0, 0.04246436711810041
200.0, 0.04200970561080304
201.0, 0.03940772735669641
202.0, 0.04087189473269543
203.0, 0.043196398098109844
204.0, 0.04581350477837147
205.0, 0.047593441082553714
206.0, 0.04936164456296189
207.0, 0.049531871170153494
208.0, 0.04764088379675497
209.0, 0.04658357131806822
210.0, 0.04328434449239997
211.0, 0.03959464879885724
212.0, 0.037603198109809194
213.0, 0.035913456197235134
214.0, 0.035385321795991125
215.0, 0.03624771878608541
216.0, 0.03929091389957678
217.0, 0.04171798246595247
218.0, 0.04633726374645455
219.0, 0.0544338599362811
220.0, 0.0608124795967392
221.0, 0.06765653308902234
222.0, 0.07345005075357261
223.0, 0.07571665662626598
224.0, 0.07170390743963868
225.0, 0.06593834817357615
226.0, 0.0584794463834764
227.0, 0.046359829107272134
228.0, 0.03779700325512182
229.0, 0.03147534316309648
230.0, 0.026990563136922066
231.0, 0.02537412302430066
232.0, 0.0253058876301648
233.0, 0.025786883028382564
234.0, 0.025329809568619948
235.0, 0.025393107755328298
236.0, 0.023713916155321306
237.0, 0.02038770352061356
238.0, 0.017546378281800005
239.0, 0.01434023101623324
240.0, 0.01151219090804527
241.0, 0.009468427828269569
242.0, 0.008238668560886037
243.0, 0.007134141872709382
244.0, 0.006399924613326142
245.0, 0.006485578408256335
246.0, 0.006251344630684514
247.0, 0.007094527104683718
248.0, 0.008974024803312976
249.0, 0.01094119434090643
250.0, 0.013937399725007063
251.0, 0.01804408359361426
252.0, 0.023296091248879918
253.0, 0.02701750609952378
254.0, 0.031082937850121988
255.0, 0.03362952998199742
256.0, 0.03200540131320954
257.0, 0.029525156954186466
258.0, 0.02572450343841882
259.0, 0.020718171430283167
260.0, 0.014890144405567933
261.0, 0.01148523379672936
262.0, 0.008621298839921193
263.0, 0.005807626291987268
264.0, 0.004576219914846247
265.0, 0.002885416052646918
266.0, 0.0016074330579828196
267.0, 0.0016055675916811407
268.0, 0.0010222890289358865
269.0, 0.0005515269907879227
270.0, 0.0003687044752307073
271.0, 0.0008698092966511991
272.0, 0.0006404466647406977
273.0, 0.0010372790363832188
274.0, 0.002125702646299589
275.0, 0.0022029841101188505
276.0, 0.0022310031886688393
277.0, 0.0029190988066153216
278.0, 0.0047189101583903865
279.0, 0.005047951074700576
280.0, 0.006413129819071551
281.0, 0.008311408018566316
282.0, 0.01008461712184034
283.0, 0.012951409623257847
284.0, 0.01624512297512143
285.0, 0.019598688487745035
286.0, 0.021956499420892298
287.0, 0.026475699909583594
288.0, 0.029921278827894023
289.0, 0.031353791045876725
290.0, 0.03282394621055577
291.0, 0.030216922884895303
292.0, 0.02628121802693491
293.0, 0.02298748715160741
294.0, 0.01903111710125264
295.0, 0.014691788552147185
296.0, 0.010824712497952213
297.0, 0.009069843811408492
298.0, 0.006267888337332237
299.0, 0.004395257650001822
300.0, 0.0034624971818816123
301.0, 0.0023169389474909183
302.0, 0.001486763281499059
303.0, 0.000955984402952531
304.0, 0.0007094431695892572
305.0, 0.0004140531526522364
306.0, 0.0006130428787481004
307.0, 0.0007618620409739848
308.0, 0.00041201576017408617
309.0, 0.0011152493264488888
310.0, 0.0014488871027836764
311.0, 0.0013751976719819628
312.0, 0.0008252350639817126
313.0, 0.0014851177978851809
314.0, 0.0017698079374617714
315.0, 0.0015851460172703622
316.0, 0.001367373803598526
317.0, 0.001127950351511878
318.0, 0.001085190212940844
319.0, 0.0012324732724970362
320.0, 0.0007349128218201928
321.0, 0.0005338752033693596
322.0, 0.00040185927578350824
323.0, 0.0001955810386688787
324.0, 0.000254592257584032
325.0, 0.000889356002691828
326.0, 0.0015906659548046674
327.0, 0.001663927828879732
328.0, 0.0015649193534330386
329.0, 0.0014220731173944237
330.0, 0.0012728936755319162
331.0, 0.0011873970551587053
332.0, 0.0008532275769795909
333.0, 0.0005205389249145495
334.0, 0.000381563708597199
335.0, 0.001203562517502023
336.0, 0.001179330071039564
337.0, 0.0014021923112441893
338.0, 0.0022448356405631127
339.0, 0.001907572187418165
340.0, 0.0024873354404738694
341.0, 0.00312790909087334
342.0, 0.0031385468515965544
343.0, 0.0029129136067119464
344.0, 0.002979006827559015
345.0, 0.0027133836051948398
346.0, 0.0011100244903192399
347.0, 0.0011867423882545235
348.0, 0.0009181436589959866
349.0, 0.0006046828781234913
350.0, 0.0016064250225971196
351.0, 0.0028698468280277754
352.0, 0.003901257294448969
353.0, 0.004643121896192308
354.0, 0.005349752544293678
355.0, 0.006252655856667455
356.0, 0.0066946279746820415
357.0, 0.006621789605171115
358.0, 0.008584785319542695
359.0, 0.009320510965886543
360.0, 0.009912988783773858
361.0, 0.011082058465506396
362.0, 0.013029450354526271
363.0, 0.014321276859807105
364.0, 0.015412765165570014
365.0, 0.016810967160678758
366.0, 0.017851723762797676
367.0, 0.019656771020665806
368.0, 0.021643614843019757
369.0, 0.022613883789044838
370.0, 0.023152806601444757
371.0, 0.023610769645108286
372.0, 0.02378681633344877
373.0, 0.0228854416739805
374.0, 0.02260158412622806
375.0, 0.021857583131030634
376.0, 0.020451555245447794
377.0, 0.018675860304695015
378.0, 0.018124200941097526
379.0, 0.016722062617317925
380.0, 0.013989704252549274
381.0, 0.013366783227806827
382.0, 0.012319387332582086
383.0, 0.011191207383771896
384.0, 0.01022305790943341
385.0, 0.010484745982841883
386.0, 0.01001072628048268
387.0, 0.009441970057009594
388.0, 0.009354577576654866
389.0, 0.009399637469815368
390.0, 0.009720529741474804
391.0, 0.010173653656525493
392.0, 0.010569490974979653
393.0, 0.010940331322635282
394.0, 0.012462961800333062
395.0, 0.014193659577661177
396.0, 0.014106135084255515
397.0, 0.01663302379567197
398.0, 0.01925572627232567
399.0, 0.021548782545248692
400.0, 0.023209526779794577
401.0, 0.027132548538538345
402.0, 0.030474355559646015
403.0, 0.03335750148995892
404.0, 0.03877421325031813
405.0, 0.04113405998416689
406.0, 0.04295317008170854
407.0, 0.044732555414028125
408.0, 0.044915346223768075
409.0, 0.04222844857797006
410.0, 0.039618127496237124
411.0, 0.03789126687523913
412.0, 0.03264831039307296
413.0, 0.029863623629109666
414.0, 0.02679604242611946
415.0, 0.022066122982576195
416.0, 0.019435093572066648
417.0, 0.018010983223238287
418.0, 0.016897438247554828
419.0, 0.015461478233232151
420.0, 0.015285544405681471
421.0, 0.015189513644767755
422.0, 0.015501053437553359
423.0, 0.016564657625479862
424.0, 0.01776138389727091
425.0, 0.01915086553834737
426.0, 0.021686154558861734
427.0, 0.02664773019719586
428.0, 0.02813143654204687
429.0, 0.03217770652959832
430.0, 0.0372237751623165
431.0, 0.04037106398837177
432.0, 0.04547994335223256
433.0, 0.05207184121935089
434.0, 0.05827016457043032
435.0, 0.060416179506816874
436.0, 0.06682547311507349
437.0, 0.07141256317605194
438.0, 0.0744077508256984
439.0, 0.07796987526904253
440.0, 0.08618705732092785
441.0, 0.09149597166654971
442.0, 0.09551665827164256
443.0, 0.10623571482256233
444.0, 0.11307499488548686
445.0, 0.12184738307116291
446.0, 0.13271651806876528
447.0, 0.14249714525105223
448.0, 0.1490280571352654
449.0, 0.1566581729366523
450.0, 0.1645149500136266
451.0, 0.16503023530296834
452.0, 0.16789200348784913
453.0, 0.16848052673190186
454.0, 0.1653873372586679
455.0, 0.15791681709043412
456.0, 0.15319572215272279
457.0, 0.14389599603671666
458.0, 0.12945443297757975
459.0, 0.11929097187117309
460.0, 0.10490716893500954
461.0, 0.09128378193423457
462.0, 0.07993379218506538
463.0, 0.06953934226510941
464.0, 0.059039593308979246
465.0, 0.050787713246940765
466.0, 0.045171080253722795
467.0, 0.03851124588033597
468.0, 0.034271050528073534
469.0, 0.030782834631971304
470.0, 0.027406156574459987
471.0, 0.024272660685463247
472.0, 0.02265857979187978
473.0, 0.020757257786379178
474.0, 0.01828042289696659
475.0, 0.019084564872610676
476.0, 0.019087115373913614
477.0, 0.018517199395482773
478.0, 0.01770801470779548
479.0, 0.01866133673768705
480.0, 0.018453875865810147
481.0, 0.018991278728841876
482.0, 0.020861597709928074
483.0, 0.021523847906897216
484.0, 0.02166862998031103
485.0, 0.022936858123577392
486.0, 0.025585208358031505
487.0, 0.02523445401990761
488.0, 0.02655456517580129
489.0, 0.028444918375928233
490.0, 0.030374622024405714
491.0, 0.031984338996743085
492.0, 0.03426734243048843
493.0, 0.03594064129914955
494.0, 0.03688828234230756
495.0, 0.04064575882810302
496.0, 0.04220676936197048
497.0, 0.044135330722743386
498.0, 0.0472783966552762
499.0, 0.04991045230396366
500.0, 0.05116953671612015
501.0, 0.05357341770200123
502.0, 0.05727399570719735
503.0, 0.05665556544674768
504.0, 0.060046578183860604
505.0, 0.06329124443806643
506.0, 0.06516601925666869
507.0, 0.06748507826050558
508.0, 0.0716809073665515
509.0, 0.07468822112515618
510.0, 0.07637795263402199
511.0, 0.0813562380319769
512.0, 0.08407580579562525
513.0, 0.08783513637921245
514.0, 0.0935423984699203
515.0, 0.10083045400859696
516.0, 0.10471965182168602
517.0, 0.11135055594017047
518.0, 0.12065875631582583
519.0, 0.1262839243459688
520.0, 0.1381755552708048
521.0, 0.15195214552172853
522.0, 0.16552680177184562
523.0, 0.1753474071185851
524.0, 0.19898257711200737
525.0, 0.22404772414572216
526.0, 0.25107135964952465
527.0, 0.28780923007515485
528.0, 0.3366358528026376
529.0, 0.3927857410666123
530.0, 0.46314781314858877
531.0, 0.5651779507848397
532.0, 0.6472950379145669
533.0, 0.7558454452179892
534.0, 0.8723317110231646
535.0, 0.9531153261987613
536.0, 0.9877525535577583
537.0, 0.9900916464103441
538.0, 0.9461175877035736
539.0, 0.8322977688928326
540.0, 0.7271458665903209
541.0, 0.6162648851765415
542.0, 0.5074669748545169
543.0, 0.4109487210945779
544.0, 0.3557266068450779
545.0, 0.2968610758747471
546.0, 0.24584617644195228
547.0, 0.21386737637936537
548.0, 0.1847063148897251
549.0, 0.15973178610286562
550.0, 0.14099580171737308
551.0, 0.12925161554563144
552.0, 0.11085177592419349
553.0, 0.10169613448281843
554.0, 0.09470400015170477
555.0, 0.08617016094867062
556.0, 0.08023428793914172
557.0, 0.07487627964232377
558.0, 0.0700793211425427
559.0, 0.06599149267819607
560.0, 0.06352537853684716
561.0, 0.060022289323579135
562.0, 0.05741810382431743
563.0, 0.055958991731280855
564.0, 0.0540407289947145
565.0, 0.05091973985032875
566.0, 0.04944073226303754
567.0, 0.04875772241216828
568.0, 0.04451821276399828
569.0, 0.04432119847168683
570.0, 0.04331259711845771
571.0, 0.040997180500347216
572.0, 0.03784330565715465
573.0, 0.03682764842843009
574.0, 0.03479213380529912
575.0, 0.03228173332356381
576.0, 0.030473039642665192
577.0, 0.029279686869776805
578.0, 0.027437495815265864
579.0, 0.02597636086363345
580.0, 0.025903243045543176
581.0, 0.02329658204855611
582.0, 0.021737373059490472
583.0, 0.02027402964344683
584.0, 0.01831242659270959
585.0, 0.01706807427646656
586.0, 0.01628336149766676
587.0, 0.015143538363252596
588.0, 0.013497557941487414
589.0, 0.01294637383425537
590.0, 0.0122580785361844
591.0, 0.011149595590098671
592.0, 0.009885884604892496
593.0, 0.009812168548153963
594.0, 0.008096062796705538
595.0, 0.007110473016427233
596.0, 0.006877365856128292
597.0, 0.006335791106895427
598.0, 0.005366805035212801
599.0, 0.005149920495812311
600.0, 0.0049096153437480925
601.0, 0.0032798599231436683
602.0, 0.0038721255588954296
603.0, 0.0028001942867561407
604.0, 0.001432280562483919
605.0, 0.0012442269572521217
606.0, 0.0017247457365406496
607.0, 0.0009574690369162708
608.0, 0.0005047032726207672
609.0, 0.0010968971759094193
610.0, 0.00033601817197691095
611.0, 0.00015680159613880974
612.0, 0.00023865846026663672
613.0, 0.00042840232364864275
614.0, 0.0006051897633097311
615.0, 0.00034211127822928415
616.0, 0.000570764429005443
617.0, 0.0011599943171643427
618.0, 0.0012433298822937386
619.0, 0.0010855311160810448
620.0, 0.0007246027940624123
621.0, 0.0004612011158540401
622.0, 0.0007356220253239224
623.0, 0.0009703424916852465
624.0, 0.0006778372332204015
625.0, 0.0005031301089360009
626.0, 0.000952085150226592
627.0, 0.0002766098614240797
628.0, 0.0009795887315134566
629.0, 0.0016126949367210898
630.0, 0.0015393732287008158
631.0, 0.0017441700236931722
632.0, 0.002339353413746787
633.0, 0.0025038688473729208
634.0, 0.002638228082269181
635.0, 0.004810296203834261
636.0, 0.004189329388389813
637.0, 0.004463023666651973
638.0, 0.005721717376128324
639.0, 0.00715175211465317
640.0, 0.006948713058601944
641.0, 0.007855301687349514
642.0, 0.009331661298246209
643.0, 0.010664166556991584
644.0, 0.010908175748340444
645.0, 0.011552331591031471
646.0, 0.011806039846089245
647.0, 0.011679084538783583
648.0, 0.014058858601122402
649.0, 0.013970036095752167
650.0, 0.014029693096732578
651.0, 0.014698669020126384
652.0, 0.01504846391873492
653.0, 0.013772257491371117
654.0, 0.013755083644916418
655.0, 0.014191207086204083
656.0, 0.013261182630351242
657.0, 0.013294064017506725
658.0, 0.012830950532926742
659.0, 0.011835575942641603
660.0, 0.010456455821056775
661.0, 0.010451899985959228
662.0, 0.010108266512025817
663.0, 0.009734065881713896
664.0, 0.009467999975840292
665.0, 0.009315018366802532
666.0, 0.008241237296125728
667.0, 0.007943935520227359
668.0, 0.008090717137856019
669.0, 0.007258750339134093
670.0, 0.006799971198372292
671.0, 0.006751405207482914
672.0, 0.006488779870843913
673.0, 0.005474925030648958
674.0, 0.006657078188259823
675.0, 0.005532175499379729
676.0, 0.004578202321832348
677.0, 0.004777262171348013
678.0, 0.0039958332345801815
679.0, 0.0037137797801959443
680.0, 0.003776886466440759
681.0, 0.003756239535245468
682.0, 0.0027262949712412135
683.0, 0.00393290839449204
684.0, 0.00433116422100206
685.0, 0.004337284926135732
686.0, 0.004772959117971709
687.0, 0.00675265710232705
688.0, 0.006813594640726009
689.0, 0.007553389742824198
690.0, 0.009957823108554746
691.0, 0.011102058230985859
692.0, 0.01210593082403781
693.0, 0.013229613663245252
694.0, 0.014188616431657423
695.0, 0.014175904386463314
696.0, 0.016182082180431448
697.0, 0.016786128446738165
698.0, 0.016191001506378123
699.0, 0.015139868462660197
700.0, 0.018015801716540058
701.0, 0.018569042963603358
702.0, 0.020238181048149055
703.0, 0.023947637550788912
704.0, 0.025622536346105156
705.0, 0.026144654981058592
706.0, 0.027727070738283902
707.0, 0.02911045078912103
708.0, 0.026999174981111478
709.0, 0.027509063850749308
710.0, 0.02667297129707629
711.0, 0.024677844836277496
712.0, 0.022070569243199136
713.0, 0.020979335790885532
714.0, 0.01780952817398675
715.0, 0.015343332508499499
716.0, 0.014065298398686032
717.0, 0.01192409803326585
718.0, 0.01021998864557505
719.0, 0.009312399318284493
720.0, 0.008419956424830293
721.0, 0.006444743821049118
722.0, 0.007227040662891678
723.0, 0.0071774688817298725
724.0, 0.006727387600021418
725.0, 0.00625760267821911
726.0, 0.006311883313978047
727.0, 0.005676017674127305
728.0, 0.005306121378238126
729.0, 0.005192482324841848
730.0, 0.00482630165403557
731.0, 0.003870085003331427
732.0, 0.0037242828373232444
733.0, 0.0033574419018076052
734.0, 0.0020113399443888883
735.0, 0.001995008102928327
736.0, 0.0020779717631079237
737.0, 0.0013309818825195487
738.0, 0.00020368832815452319
739.0, 0.0009896970526909596
740.0, 0.0004919718747097593
741.0, 0.00016821608060458827
742.0, 0.00013163873495157535
743.0, 0.00030582642070675045
744.0, 0.0003425422825171909
745.0, 0.0005825151896426755
746.0, 0.0004940944084943083
747.0, 8.699384690903503e-05
748.0, 0.00039448041426989346
749.0, 0.0014287866001696614
750.0, 0.001203045965404504
751.0, 0.0009632535169302559
752.0, 0.0028612695892668953
753.0, 0.0028711055518135884
754.0, 0.0026979956460888178
755.0, 0.003199227411653552
756.0, 0.004414686746524847
757.0, 0.004129078496919018
758.0, 0.004433689262811805
759.0, 0.0043726291218921945
760.0, 0.004078492971860812
761.0, 0.004087584266118617
762.0, 0.004641681264750488
763.0, 0.004016927698198518
764.0, 0.003513095896623791
765.0, 0.0037034878638059912
766.0, 0.0028676517205249636
767.0, 0.002602494201882414
768.0, 0.002787663313619905
769.0, 0.0028158668889907788
770.0, 0.001691162661273766
771.0, 0.002098552965793897
772.0, 0.0018775317403989017
773.0, 0.0014293894987077432
774.0, 0.0011302290394298502
775.0, 0.001349196647158512
776.0, 0.0008524529200206334
777.0, 0.00047576515033043886
778.0, 0.00040393159681629187
779.0, 0.0006095088455271265
780.0, 0.000504829333337004
781.0, 0.0005169871246049305
782.0, 0.0004555645438973607
783.0, 0.00030556423798699483
784.0, 0.0006944550954845056
785.0, 0.0007117773344606883
786.0, 0.000912517456056028
787.0, 0.001054677085573557
788.0, 0.0005724380049487653
789.0, 0.0017690587568448077
790.0, 0.0016286003209983512
791.0, 0.0008958365509162613
792.0, 0.00029915404017338956
793.0, 0.0009482977885467862
794.0, 0.0010818630656236176
795.0, 0.0011969637119200829
796.0, 0.0013103672753928103
797.0, 0.0013211529572162305
798.0, 0.0011263440570855577
799.0, 0.00113119275046199
800.0, 0.0009782606329745746
801.0, 0.0006878089049650139
802.0, 0.0009899337836115941
803.0, 0.0008736940759321529
804.0, 0.000824087458326224
805.0, 0.0009216024042598778
806.0, 0.0011143283578040684
807.0, 0.00039033432883098826
808.0, 0.0005403472531437988
809.0, 0.000642510912040223
810.0, 0.0004372316679902498
811.0, 0.00022306878756293591
812.0, 0.0005891650781061859
813.0, 0.0005305513205547818
814.0, 0.00042383979863206816
815.0, 0.0005894696296747799
816.0, 0.0003611480012632032
817.0, 0.00044496415967365185
818.0, 0.0003309116780021451
819.0, 0.0001607253961354124
820.0, 0.00045798976712060983
821.0, 0.0004054872811389999
822.0, 0.0005689979365261532
823.0, 0.00048749025495253064
824.0, 4.776753307899972e-05
825.0, 8.177936507698899e-05
826.0, 0.00020241601425447905
827.0, 0.00027132375894774625
828.0, 0.0003201383865276951
829.0, 0.00043509482902536877
830.0, 0.0009285216944874409
831.0, 0.0006034016649943857
832.0, 0.0005920416251276712
833.0, 0.0010237190236498902
834.0, 0.000977302904960696
835.0, 0.000315197546515755
836.0, 0.0007969275682203779
837.0, 0.0014617064275691922
838.0, 0.0014280838921891484
839.0, 0.0009542397412805118
840.0, 0.0011484152670471772
841.0, 0.0008031410823078774
842.0, 0.0005484814431878831
843.0, 0.0017337840427069458
844.0, 0.0011025553328609392
845.0, 0.0013147003477213728
846.0, 0.0016936579443013855
847.0, 0.0017236601851592726
848.0, 0.0009064350017019707
849.0, 0.0016215474670350479
850.0, 0.0014998879675522448
851.0, 0.001396416739100023
852.0, 0.002122888563085199
853.0, 0.0021719893326946622
854.0, 0.001323808655832123
855.0, 0.001210437648474599
856.0, 0.0016054530713624502
857.0, 0.0014457183236044908
858.0, 0.001721990280214295
859.0, 0.001871328339815019
860.0, 0.002022946508711836
861.0, 0.0021263013850011375
862.0, 0.001817652583834802
863.0, 0.002142206367385816
864.0, 0.0019665066942243558
865.0, 0.0020316493625611993
866.0, 0.0026982996776921155
867.0, 0.0014197563266306096
868.0, 0.001919493247078317
869.0, 0.0019576447754237883
870.0, 0.0017204096733944838
871.0, 0.0021860670216540977
872.0, 0.001989401684152235
873.0, 0.0023375712176437907
874.0, 0.002466343002433072
875.0, 0.002374574408630784
876.0, 0.002891008250479242
877.0, 0.0015515546774558095
878.0, 0.001901938069350595
879.0, 0.002408676272854065
880.0, 0.0020042424738523144
881.0, 0.0015635402729636415
882.0, 0.0027979516714153026
883.0, 0.002466466645646887
884.0, 0.0018773947937685356
885.0, 0.00278125923061831
886.0, 0.002053110719748064
887.0, 0.002056081581683217
888.0, 0.002641131026670738
889.0, 0.0030978407656632187
890.0, 0.0023413827920757725
891.0, 0.002952047960736562
892.0, 0.0027881704086941336
893.0, 0.00265298214815106
894.0, 0.0027522746106676157
895.0, 0.002530550105375119
896.0, 0.0027074997471691316
897.0, 0.0027946475113157046
898.0, 0.0029393632842545764
899.0, 0.0031634909407883623
900.0, 0.002956596383822998
901.0, 0.0037424170617751835
902.0, 0.004009088252765248
903.0, 0.003975051605527653
904.0, 0.004223236604487641
905.0, 0.005538370088666374
906.0, 0.004202946581225174
907.0, 0.004178015247486887
908.0, 0.005304988396503256
909.0, 0.0056907555214725115
910.0, 0.005329657415446617
911.0, 0.005919054252040546
912.0, 0.006404569426122598
913.0, 0.006635461829597342
914.0, 0.00723432676227396
915.0, 0.007607989960899481
916.0, 0.007440266947802131
917.0, 0.00846042641179491
918.0, 0.010619676950000627
919.0, 0.010629852517135996
920.0, 0.012447586796104883
921.0, 0.01445385268434658
922.0, 0.015905652105468626
923.0, 0.01724306535276063
924.0, 0.022753791625950197
925.0, 0.025423350485775882
926.0, 0.029259444771975503
927.0, 0.0349859417874183
928.0, 0.04218861821087507
929.0, 0.04748273034692471
930.0, 0.05902692899015877
931.0, 0.07155944166570691
932.0, 0.08373996083495765
933.0, 0.09464106064611717
934.0, 0.09394328691615292
935.0, 0.09414913520166142
936.0, 0.08912826283839001
937.0, 0.07751240999620522
938.0, 0.06082438731811515
939.0, 0.047306420789450604
940.0, 0.038964287028473085
941.0, 0.031393169163861964
942.0, 0.024266039630133046
943.0, 0.02069192799230974
944.0, 0.018743688539805604
945.0, 0.015513286874957231
946.0, 0.013785755392207364
947.0, 0.013759474701117897
948.0, 0.012151766400953713
949.0, 0.01113930864074431
950.0, 0.011633263730791477
951.0, 0.011209380924583316
952.0, 0.009586855992554426
953.0, 0.010850572864308591
954.0, 0.01061111117115192
955.0, 0.01047189508723316
956.0, 0.011019657195325548
957.0, 0.011976390080748744
958.0, 0.010963129482642933
959.0, 0.012457856330803924
960.0, 0.013965374546527538
961.0, 0.015085819502762778
962.0, 0.016164384483436517
963.0, 0.019329838119675088
964.0, 0.021309798852573125
965.0, 0.024969151020052472
966.0, 0.030698198959584363
967.0, 0.037882400502489116
968.0, 0.04367717155807144
969.0, 0.05423025879874091
970.0, 0.06387941575553176
971.0, 0.07138029393718151
972.0, 0.07620684866916283
973.0, 0.07589876742629696
974.0, 0.0661105922831338
975.0, 0.056978491071529865
976.0, 0.048797622997163115
977.0, 0.03992019443924705
978.0, 0.032807935531150544
979.0, 0.03084909346400786
980.0, 0.02766076833280919
981.0, 0.0243497533791876
982.0, 0.023670844785502566
983.0, 0.023808451382985683
984.0, 0.023859133528116187
985.0, 0.025375767511907895
986.0, 0.027054077810684734
987.0, 0.027092635069320737
988.0, 0.027953508568545345
989.0, 0.029831282256962667
990.0, 0.0301462542261796
991.0, 0.030545961851022606
992.0, 0.0334378552694323
993.0, 0.03445745747576181
994.0, 0.03412480694906571
995.0, 0.03524941787250301
996.0, 0.03533208187535963
997.0, 0.03130180492599094
998.0, 0.031540773151719124
999.0, 0.03131738857198588
1000.0, 0.02919247108716759
1001.0, 0.027375774338447584
1002.0, 0.028522671802515512
1003.0, 0.02828330891385449
1004.0, 0.028825154697978157
1005.0, 0.03093364488369207
1006.0, 0.03293016242206547
1007.0, 0.03355635575222793
1008.0, 0.04061736504224542
1009.0, 0.04507403886352198
1010.0, 0.05050359167600603
1011.0, 0.058570929198386794
1012.0, 0.06956321067385136
1013.0, 0.07925304618235911
1014.0, 0.09436324532383561
1015.0, 0.11156145453684721
1016.0, 0.12647601543474934
1017.0, 0.13682947120333724
1018.0, 0.15221676357935257
1019.0, 0.15552974127216895
1020.0, 0.15043308257329385
1021.0, 0.14240132395092178
1022.0, 0.13463965015907953
1023.0, 0.11846739947735253
1024.0, 0.1134972539714742
1025.0, 0.10932263022723315
1026.0, 0.1055076754905615
1027.0, 0.1039210301810297
1028.0, 0.10902534275188895
1029.0, 0.09790862400610992
1030.0, 0.0880458639824033
1031.0, 0.0789446509593194
1032.0, 0.06821625904932543
1033.0, 0.05385543602775536
1034.0, 0.04865505393626876
1035.0, 0.044485659959898116
1036.0, 0.041003585337488005
1037.0, 0.03941970094660101
1038.0, 0.04272291569649987
1039.0, 0.042704262351357575
1040.0, 0.046849360956937126
1041.0, 0.050880181571456726
1042.0, 0.05249443333704964
1043.0, 0.05243209054234698
1044.0, 0.05284913802680325
1045.0, 0.04700692256334874
1046.0, 0.04092070638474014
1047.0, 0.036750811808229554
1048.0, 0.03309595694612798
1049.0, 0.027940614206488502
1050.0, 0.026090267691732345
1051.0, 0.024531067607728826
1052.0, 0.022290244271487396
1053.0, 0.0199088240390904
1054.0, 0.021600228090956748
1055.0, 0.0196315966531268
1056.0, 0.018817962536160224
1057.0, 0.0192086911136066
1058.0, 0.019269721095045468
1059.0, 0.018887171660355064
1060.0, 0.02095362187263694
1061.0, 0.021682334310383272
1062.0, 0.021966804817881873
1063.0, 0.023471886736839878
1064.0, 0.026875932033259615
1065.0, 0.027413883256649636
1066.0, 0.02884769331534433
1067.0, 0.03095114257239886
1068.0, 0.03274974159429739
1069.0, 0.032762703976446365
1070.0, 0.03715679479544192
1071.0, 0.03727798649543479
1072.0, 0.036478456440157514
1073.0, 0.03677240972828476
1074.0, 0.03775729542811762
1075.0, 0.033451520855055344
1076.0, 0.03246207866473541
1077.0, 0.030616465920241698
1078.0, 0.02728947632424516
1079.0, 0.024365315515373815
1080.0, 0.023822973785418512
1081.0, 0.021375802068680075
1082.0, 0.019832962198303324
1083.0, 0.019344540211544848
1084.0, 0.018848927210189406
1085.0, 0.01622393087509108
1086.0, 0.017272373737877298
1087.0, 0.018255018269589092
1088.0, 0.018708081948615892
1089.0, 0.019131302078321373
1090.0, 0.020941291401658593
1091.0, 0.020069423290343887
1092.0, 0.02299809686113124
1093.0, 0.026317344862912456
1094.0, 0.028205779836269998
1095.0, 0.029783602464938892
1096.0, 0.03463130798355189
1097.0, 0.036746680522692476
1098.0, 0.03795395517645417
1099.0, 0.03942519661119489
1100.0, 0.04132986706960998
1101.0, 0.03870645927617378
1102.0, 0.03834011469212509
1103.0, 0.03700652883694428
1104.0, 0.03381962553132057
1105.0, 0.02978222387732441
1106.0, 0.030085618305025128
1107.0, 0.02583767389218309
1108.0, 0.023110402980032495
1109.0, 0.02150171066713019
1110.0, 0.01972736617131687
1111.0, 0.016425880266256083
1112.0, 0.01619853656215803
1113.0, 0.014706749269495367
1114.0, 0.012368659039320383
1115.0, 0.010468202072690643
1116.0, 0.010427203275378725
1117.0, 0.009038732081827192
1118.0, 0.008588007334881114
1119.0, 0.007800988786218331
1120.0, 0.006506022559587767
1121.0, 0.00525736428071677
1122.0, 0.005926543845636023
1123.0, 0.004720252351218942
1124.0, 0.0041893731631657515
1125.0, 0.004045872780494788
1126.0, 0.0037435331949832807
1127.0, 0.002886586025594371
1128.0, 0.0023991918667420013
1129.0, 0.0027981948293837045
1130.0, 0.0020890097559669975
1131.0, 0.0009553168727325275
1132.0, 0.001398412631088843
1133.0, 0.0023415018952401257
1134.0, 0.0015666439608066798
1135.0, 0.0014677040635366553
1136.0, 0.0011720094994432414
1137.0, 0.0001774514070508053
1138.0, 0.0009011727133400797
1139.0, 0.0009062146718997385
1140.0, 0.0004997629755973999
1141.0, 0.0005969820138275149
1142.0, 0.0010520353523890797
1143.0, 0.0007403764347308161
1144.0, 0.00011907992935018737
1145.0, 0.0007927642506144492
1146.0, 0.0008234200753442879
1147.0, 0.000380965514186366
1148.0, 0.00024903248721476777
1149.0, 0.000462461002499901
1150.0, 0.0004244027431065926
1151.0, 0.0005737078427261312
1152.0, 0.0007392553424543266
1153.0, 0.0006544574871765638
1154.0, 9.764031292737463e-05
1155.0, 0.0010425093822093348
1156.0, 0.0007224082568840431
1157.0, 0.0007260850824363756
1158.0, 0.00082146963104771
1159.0, 0.0002668871493787424
1160.0, 0.00010645192395229396
1161.0, 0.000528969619184329
1162.0, 0.0004510530299878326
1163.0, 0.00017792371284004776
1164.0, 0.00014715697954414145
1165.0, 0.000632722167241397
1166.0, 0.0005887459282547086
1167.0, 0.00026220877702261617
1168.0, 0.00010281231147258807
1169.0, 0.0003854628658795731
1170.0, 0.001019777871172525
1171.0, 0.0007053929688649258
1172.0, 0.0006104809133846492
1173.0, 0.00045638966032053146
1174.0, 0.00047875337469851484
1175.0, 0.0006444536574906889
1176.0, 0.00047265492561002204
1177.0, 0.0005478777594344588
1178.0, 0.0002465636440444343
1179.0, 0.00019094605653530085
1180.0, 0.0003700096934476682
1181.0, 0.0004631899518891387
1182.0, 0.00018000089988650294
1183.0, 8.926279256829992e-05
1184.0, 0.0007786622437966025
1185.0, 0.0009123880510437819
1186.0, 0.0004260179708195727
1187.0, 0.0008862568686767438
1188.0, 0.0006306650304701877
1189.0, 0.00024365601732914254
1190.0, 0.00040269836575456113
1191.0, 0.0006920385711570632
1192.0, 0.0005763809132009796
1193.0, 0.0004158542781711599
1194.0, 0.0003671698872933235
1195.0, 0.0002580652059342642
1196.0, 0.0003306762284230827
1197.0, 0.0005084820571238108
1198.0, 0.0004705347930793495
1199.0, 0.00044054619138758145
1200.0, 0.0007241543208935506
1201.0, 0.000647408503466279
1202.0, 0.0005827311912662903
1203.0, 0.0008481922673674907
1204.0, 0.0011475871558206845
1205.0, 0.0009390262669398562
1206.0, 0.0004994700046744315
1207.0, 0.0006052012348383995
1208.0, 0.0007742187011863627
1209.0, 0.0004440533629520234
1210.0, 0.0019503790773673195
1211.0, 0.0005686364142988153
1212.0, 0.0001603973997751249
1213.0, 0.0007369645972704348
1214.0, 0.0011944015658820685
1215.0, 0.00014172718591187885
1216.0, 0.0009334730026824025
1217.0, 0.0005189351059035161
1218.0, 0.0002950447022528804
1219.0, 0.0009136550683848528
1220.0, 0.0017625722496284536
1221.0, 0.00016117726604360162
1222.0, 0.000802222092646116
1223.0, 0.0016363289685897206
1224.0, 0.0013647908441286622
1225.0, 0.0009015800476897483
1226.0, 0.0016676678468145654
1227.0, 0.001653363222645051
1228.0, 0.000909864643361569
1229.0, 0.0017858122326170226
1230.0, 0.0017486035109454375
1231.0, 0.000545695678487943
1232.0, 0.0005351020263381542
1233.0, 0.0007146388706169828
1234.0, 0.000511851227418417
1235.0, 0.0002306202214839803
1236.0, 0.0005361645302884229
1237.0, 0.0011270958147217448
1238.0, 0.0001238905929168561
1239.0, 0.001419101454104739
1240.0, 0.0014789325860659324
1241.0, 0.0011791797776654108
1242.0, 0.0010898101801604275
1243.0, 0.0011985037826529612
1244.0, 0.0003313025462443048
1245.0, 0.0007488244206626812
1246.0, 0.001032588939272061
1247.0, 0.0007281043617108388
1248.0, 0.0005569323988672209
1249.0, 0.0013342429799015113
1250.0, 0.0007498129464645249
1251.0, 0.0001942183951491226
1252.0, 0.0005417393603037566
1253.0, 0.0007446340979229996
1254.0, 0.00039988798977013524
1255.0, 0.00012851046153871217
1256.0, 0.0014631923380362985
1257.0, 0.0006318405773992203
1258.0, 0.0005831824965838863
1259.0, 0.0008237959182773
1260.0, 0.0006420757073492037
1261.0, 0.0001583450169313728
1262.0, 0.0008924827629616316
1263.0, 0.0004961695084065392
1264.0, 0.0006292380721753764
1265.0, 0.0010160990414014423
1266.0, 0.0009850513607997497
1267.0, 0.0003717794380001826
1268.0, 0.0008351880086934593
1269.0, 0.0012622303605177455
1270.0, 0.0012306166476493921
1271.0, 0.0012046932063559282
1272.0, 0.0013772332244787388
1273.0, 0.000352186649417184
1274.0, 0.0005888386633970648
1275.0, 0.001188161147112081
1276.0, 0.0009543127849221273
1277.0, 0.0004072412522304913
1278.0, 0.0005676493273204746
1279.0, 0.0009695481107653278
1280.0, 0.0006169300670897115
1281.0, 0.0010221710971400036
1282.0, 0.0008711092948995651
1283.0, 0.0003923277676043866
1284.0, 0.0006666930826280252
1285.0, 0.0016249847263678755
1286.0, 0.0006027799233788655
1287.0, 0.000549100569851249
1288.0, 0.0008581165848308461
1289.0, 0.0008175817136930887
1290.0, 0.0002694974792309518
1291.0, 0.0007274822631383582
1292.0, 0.0007422396901448792
1293.0, 0.0009350936020622322
1294.0, 0.0012493608534225723
1295.0, 0.0011502757856679223
1296.0, 0.00020146921203647499
1297.0, 0.00011830668644399793
1298.0, 0.0008483638169923446
1299.0, 0.0005991719393268889
1300.0, 0.0005148881221735905
1301.0, 0.0007550839258756251
1302.0, 0.00047250249034374236
1303.0, 0.00022181183758025532
1304.0, 0.0005616462532259962
1305.0, 0.0004086890477226024
1306.0, 0.00024286861729506641
1307.0, 0.0004921051448564533
1308.0, 0.001033259908798493
1309.0, 0.00014105183037040585
1310.0, 0.0008515339936929539
1311.0, 0.0010139780593850015
1312.0, 0.0007107328392003974
1313.0, 0.0005524360935403081
1314.0, 0.0009807808073658637
1315.0, 0.0005388456030612635
1316.0, 0.00047152695286205445
1317.0, 0.000907537882527268
1318.0, 0.0007795356314650202
1319.0, 0.00039393119278516964
1320.0, 0.000900475128721506
1321.0, 0.0010081657469097878
1322.0, 0.0005156142587604371
1323.0, 0.0012559897665919803
1324.0, 0.0011726634960570691
1325.0, 0.00038406085570975325
1326.0, 0.0005959320657225992
1327.0, 0.0011852829033439044
1328.0, 0.0004145312730129572
1329.0, 0.0005490029672705545
1330.0, 0.0010250729418419158
1331.0, 0.0010791517924391043
1332.0, 0.000592450418098782
1333.0, 0.0014540379368885004
1334.0, 0.0010617262037588215
1335.0, 0.0004345341453490527
1336.0, 0.00038392174817112354
1337.0, 0.0007491647023433293
1338.0, 0.0008210982350424117
1339.0, 9.150153830239822e-05
1340.0, 0.0015589201088105176
1341.0, 0.0008977669392729664
1342.0, 0.00039588498992271877
1343.0, 0.0007109326887342224
1344.0, 0.0011400647411871326
1345.0, 0.0002807640983642476
1346.0, 0.000641355086739463
1347.0, 0.0009894407232077312
1348.0, 0.0006085554166977842
1349.0, 0.00048259983346702305
1350.0, 0.0009159128667313515
1351.0, 0.0001281122775221318
1352.0, 0.0005945020058924042
1353.0, 0.0017033545636349512
1354.0, 0.0011408963927651635
1355.0, 0.0009910819411015894
1356.0, 0.0018858053088393412
1357.0, 0.0013619452098988405
1358.0, 0.0015385545737109105
1359.0, 0.0014191594718200938
1360.0, 0.0015774163111129018
1361.0, 0.0011659808243076348
1362.0, 0.0008445175625729606
1363.0, 0.0019437349458560735
1364.0, 0.00047606703864603304
1365.0, 0.0011415513956378638
1366.0, 0.0019269500784276634
1367.0, 0.001439560368860905
1368.0, 0.0008355307335295347
1369.0, 0.0016765072187592985
1370.0, 0.001379969042114462
1371.0, 0.0006435872017966504
1372.0, 0.0010826842766158058
1373.0, 0.0010135620253926083
1374.0, 0.0006104001157000258
1375.0, 0.0008885320893926121
1376.0, 0.0023264755974048397
1377.0, 0.00055330577494644
1378.0, 0.0007397376669558554
1379.0, 0.0016212795519477403
1380.0, 0.0018644490367381106
1381.0, 0.001729155385298443
1382.0, 0.002908884627708617
1383.0, 0.0021544373815119873
1384.0, 0.0010707775172706948
1385.0, 0.001995691633812284
1386.0, 0.002163892287659074
1387.0, 0.0012719483856896644
1388.0, 0.001372518552753453
1389.0, 0.0026458673011688204
1390.0, 0.0015564911254305673
1391.0, 0.002140381498666507
1392.0, 0.0023840005904631986
1393.0, 0.0018571699001439519
1394.0, 0.0014785190149725997
1395.0, 0.002523196331857925
1396.0, 0.0025309848929499154
1397.0, 0.0012760816366904433
1398.0, 0.0019970623228668326
1399.0, 0.0022406534877880027
1400.0, 0.0012861172778821808
1401.0, 0.0019870679294100163
1402.0, 0.002939893107465022
1403.0, 0.0017064666538311609
1404.0, 0.002200591926505238
1405.0, 0.002849501360137851
1406.0, 0.00228302172084532
1407.0, 0.0010313655073943759
1408.0, 0.00277446805195647
1409.0, 0.0022480880728179865
1410.0, 0.0009427976439093401
1411.0, 0.0011655077323300307
1412.0, 0.0018811615749885552
1413.0, 0.0018784299517572737
1414.0, 0.0018378255794976415
1415.0, 0.002878627678312125
1416.0, 0.0015862045221446985
1417.0, 0.0019276833925202684
1418.0, 0.0024096778728008124
1419.0, 0.0018368553584177587
1420.0, 0.0008345768866549778
1421.0, 0.002291216368161648
1422.0, 0.001518121367154929
1423.0, 0.0012332424715642664
1424.0, 0.0014211655752108926
1425.0, 0.001431305819513218
1426.0, 0.0012058424051674406
1427.0, 0.0017995003868608518
1428.0, 0.002663810735068896
1429.0, 0.0012975256164296258
1430.0, 0.0012581438906811761
1431.0, 0.001830115057804515
1432.0, 0.001686715958574616
1433.0, 0.0007407116016654706
1434.0, 0.002067370499568024
1435.0, 0.0016251066505986094
1436.0, 0.0005086334839190484
1437.0, 0.0012401308249636426
1438.0, 0.0020633478392860175
1439.0, 0.0015602702757662134
1440.0, 0.0012326313859699959
1441.0, 0.002662360145746117
1442.0, 0.0012344372928394937
1443.0, 0.002061347640919599
1444.0, 0.0028088251012287997
1445.0, 0.0022012576097494197
1446.0, 0.0013592457261994335
1447.0, 0.003225677086063441
1448.0, 0.0016162262282125456
1449.0, 0.0009123986668749945
1450.0, 0.0016240026909382494
1451.0, 0.0019748550193965193
1452.0, 0.0016454960107302576
1453.0, 0.002089610752389487
1454.0, 0.0024598572030362594
1455.0, 0.00172599425230592
1456.0, 0.0019162849647620364
1457.0, 0.002400739447519813
1458.0, 0.0019886230558574386
1459.0, 0.0012204292568088531
1460.0, 0.0028777419681241486
1461.0, 0.00264348541940964
1462.0, 0.002289118965107659
1463.0, 0.0026105578460006375
1464.0, 0.0020652981001390352
1465.0, 0.001164563756455088
1466.0, 0.0014724474914262868
1467.0, 0.002721940938742398
1468.0, 0.0015485805645771697
1469.0, 0.002128030605272
1470.0, 0.0023768223981044685
1471.0, 0.0019484313102123775
1472.0, 0.0016934484297851072
1473.0, 0.002301427294547618
1474.0, 0.001496729329179343
1475.0, 0.0003115189698836454
1476.0, 0.0022150391519023564
1477.0, 0.0018244203276833388
1478.0, 0.0008100031395495093
1479.0, 0.001547501107029366
1480.0, 0.0027844948110269394
1481.0, 0.00035821360730877057
1482.0, 0.0006534470748331003
1483.0, 0.0014499262468076319
1484.0, 0.0012963923214569719
1485.0, 0.0013177030356808254
1486.0, 0.0021217856321014525
1487.0, 0.001619105145202944
1488.0, 0.000817113861403782
1489.0, 0.0020486147995796354
1490.0, 0.0015638929963741103
1491.0, 0.001342050443236341
1492.0, 0.0019455844970884323
1493.0, 0.002244932390001272
1494.0, 0.0010692152060946163
1495.0, 0.0012582789436296564
1496.0, 0.0024580537368128763
1497.0, 0.0013038781378333219
1498.0, 0.0010292993972724747
1499.0, 0.0017426866180208999
1500.0, 0.0012972158254496784
1501.0, 0.00042258489226951635
1502.0, 0.001475061504375722
1503.0, 0.0017870450785481928
1504.0, 0.0009607783497110538
1505.0, 0.0011165841340338332
1506.0, 0.0017467189202055925
1507.0, 0.001094071092797459
1508.0, 0.0013254193631787856
1509.0, 0.0016039413046357376
1510.0, 0.0007979094648609204
1511.0, 0.0019120991304729194
1512.0, 0.00225594457705375
1513.0, 0.0011940254393776489
1514.0, 0.0007169434117473992
1515.0, 0.0008084592104515738
1516.0, 0.001883288466741588
1517.0, 0.0005886103536830623
1518.0, 0.0016665040986835176
1519.0, 0.0018450573676067241
1520.0, 0.00039526635496460114
1521, 0.0
1522, 0.0
1523, 0.0
1524, 0.0
1525, 0.0
1526, 0.0
1527, 0.0
1528, 0.0
1529, 0.0
1530, 0.0
1531, 0.0
1532, 0.0
1533, 0.0
1534, 0.0
1535, 0.0
1536, 0.0
1537, 0.0
1538, 0.0
1539, 0.0
1540, 0.0
1541, 0.0
1542, 0.0
1543, 0.0
1544, 0.0
1545, 0.0
1546, 0.0
1547, 0.0
1548, 0.0
1549, 0.0
1550, 0.0
1551, 0.0
1552, 0.0
1553, 0.0
1554, 0.0
1555, 0.0
1556, 0.0
1557, 0.0
1558, 0.0
1559, 0.0
1560, 0.0
1561, 0.0
1562, 0.0
1563, 0.0
1564, 0.0
1565, 0.0
1566, 0.0
1567, 0.0
1568, 0.0
1569, 0.0
1570, 0.0
1571, 0.0
1572, 0.0
1573, 0.0
1574, 0.0
1575, 0.0
1576, 0.0
1577, 0.0
1578, 0.0
1579, 0.0
1580, 0.0
1581, 0.0
1582, 0.0
1583, 0.0
1584, 0.0
1585, 0.0
1586, 0.0
1587, 0.0
1588, 0.0
1589, 0.0
1590, 0.0
1591, 0.0
1592, 0.0
1593, 0.0
1594, 0.0
1595, 0.0
1596, 0.0
1597, 0.0
1598, 0.0
1599, 0.0
