30, 0.0
31, 0.0
32, 0.0
33, 0.0
34, 0.0
35, 0.0
36, 0.0
37, 0.0
38, 0.0
39, 0.0
40, 0.0
41, 0.0
42, 0.0
43, 0.0
44, 0.0
45, 0.0
46, 0.0
47, 0.0
48, 0.0
49, 0.0
50, 0.0
51, 0.0
52, 0.0
53, 0.0
54, 0.0
55, 0.0
56, 0.0
57, 0.0
58, 0.0
59, 0.0
60, 0.0
61, 0.0
62, 0.0
63, 0.0
64, 0.0
65, 0.0
66, 0.0
67, 0.0
68, 0.0
69, 0.0
70, 0.0
71, 0.0
72, 0.0
73, 0.0
74, 0.0
75, 0.0
76, 0.0
77, 0.0
78, 0.0
79, 0.0
80, 0.0
81, 0.0
82, 0.0
83, 0.0
84, 0.0
85, 0.0
86, 0.0
87, 0.0
88, 0.0
89, 0.0
90, 0.0
91, 0.0
92, 0.0
93, 0.0
94, 0.0
95, 0.0
96, 0.0
97, 0.0
98, 0.0
99, 0.0
100, 0.0
101, 0.0
102, 0.0
103, 0.0
104, 0.0
105, 0.0
106, 0.0
107, 0.0
108, 0.0
109, 0.0
110, 0.0
111, 0.0
112, 0.0
113, 0.0
114, 0.0
115, 0.0
116, 0.0
117, 0.0
118, 0.0
119, 0.0
120, 0.0
121, 0.0
122, 0.0
123, 0.0
124, 0.0
125, 0.0
126, 0.0
127, 0.0
128, 0.0
129, 0.0
130, 0.0
131, 0.0
132, 0.0
133, 0.0
134, 0.0
135, 0.0
136, 0.0
137, 0.0
138, 0.0
139, 0.0
140, 0.0
141, 0.0
142, 0.0
143, 0.0
144, 0.0
145, 0.0
146, 0.0
147, 0.0
148, 0.0
149, 0.0
150, 0.0
151, 0.0
152, 0.0
153, 0.0
154, 0.0
155, 0.0
156, 0.0
157, 0.0
158, 0.0
159, 0.0
160, 0.0
161, 0.0
162, 0.0
163, 0.0
164, 0.0
165.0, 0.000398304694770046
166.0, 0.0025057369422306856
167.0, 0.0005596489983154398
168.0, 0.0005161751804974309
169.0, 0.0010858545334969207
170.0, 0.0018032811961286878
171.0, 0.0029110179788098163
172.0, 0.0005913568966037215
173.0, 0.0007121956349227501
174.0, 0.0004831093354609793
175.0, 5.574429383291e-05
176.0, 0.0002237452139146989
177.0, 0.0009157928266685005
178.0, 0.0009249050278502598
179.0, 0.0012266682520728355
180.0, 0.0016043268673972377
181.0, 0.0018165411747602936
182.0, 0.0017517943062424425
183.0, 0.001996656276199817
184.0, 0.0033769397996807763
185.0, 0.0031690216306046156
186.0, 0.002781821121875602
187.0, 0.003863418735429842
188.0, 0.003657671421908683
189.0, 0.0037733770570797086
190.0, 0.004231785341801744
191.0, 0.005135511231368294
192.0, 0.0068161022671517895
193.0, 0.009557496181681696
194.0, 0.00857076296908656
195.0, 0.009353423754728932
196.0, 0.009083804285811679
197.0, 0.00810205831340547
198.0, 0.007856248781442565
199.0, 0.009398829846700455
200.0, 0.009771504546488041
201.0, 0.009716884400504933
202.0, 0.009976649449783005
203.0, 0.010062543981360392
204.0, 0.00830790750902577
205.0, 0.004082174994688923
206.0, 0.002379273858589883
207.0, 0.001360909400762985
208.0, 0.0010303693350349628
209.0, 0.0014864242513354315
210.0, 0.0013864776183480565
211.0, 0.0015650401151068338
212.0, 0.0017773856473975633
213.0, 0.0017239494294871462
214.0, 0.0016067048923085068
215.0, 0.001887759979124408
216.0, 0.0011342917355248443
217.0, 0.0007162799815329147
218.0, 0.0006500977083649377
219.0, 0.0007952824440202383
220.0, 0.0008460340140883122
221.0, 0.0002726412859426886
222.0, 0.0007415930331656279
223.0, 0.000675458056636542
224.0, 0.0009084078603104072
225.0, 0.0011026253797490144
226.0, 0.00041559848173742316
227.0, 0.00011596469925084787
228.0, 0.0001923978907453197
229.0, 0.0004261776564365333
230.0, 0.0011173243100644947
231.0, 0.0018969277330325837
232.0, 0.001376318401741286
233.0, 0.0010338360147528172
234.0, 0.0022539369120604287
235.0, 0.0024706331024661825
236.0, 0.0019416960598506617
237.0, 0.0019881343402567966
238.0, 0.002887371915886358
239.0, 0.003470155584726148
240.0, 0.003734048301095303
241.0, 0.0037248642049097632
242.0, 0.003902186598134609
243.0, 0.004902363715072494
244.0, 0.005495623321471372
245.0, 0.005219106864292486
246.0, 0.0058049484114567704
247.0, 0.006947018859306394
248.0, 0.00818210818971099
249.0, 0.009849095781986403
250.0, 0.011739603426553412
251.0, 0.013350120333011516
252.0, 0.014872724706809743
253.0, 0.016719390355183755
254.0, 0.01922724315746444
255.0, 0.02203075141849841
256.0, 0.026112454023851702
257.0, 0.03146788730917271
258.0, 0.03502678575997335
259.0, 0.03625838054261403
260.0, 0.03759967984343694
261.0, 0.0394995643663227
262.0, 0.037111794431394535
263.0, 0.035913338710713956
264.0, 0.035312570546940404
265.0, 0.03377159654130805
266.0, 0.031294712381829924
267.0, 0.031374667746235464
268.0, 0.029058383990849094
269.0, 0.025555353127112792
270.0, 0.022075294923325505
271.0, 0.019283798977861463
272.0, 0.016186258125433114
273.0, 0.013807778634490682
274.0, 0.012662400399394482
275.0, 0.011249011191257397
276.0, 0.009633730336012327
277.0, 0.009048164915378498
278.0, 0.007436622605452813
279.0, 0.005998203273454998
280.0, 0.004501959143547167
281.0, 0.003628353393625225
282.0, 0.0035561373682738598
283.0, 0.003487980936179352
284.0, 0.0029693942139731367
285.0, 0.0023019425115253017
286.0, 0.002310200131299217
287.0, 0.00216330125877696
288.0, 0.001252091020119852
289.0, 0.0009091004294384955
290.0, 0.001716793200728196
291.0, 0.001248759972575622
292.0, 0.0005227617528610641
293.0, 0.0005688916241290565
294.0, 0.0015427128614555882
295.0, 0.0006544908401218813
296.0, 0.0003822770166372662
297.0, 0.0006023239266955201
298.0, 0.0007627813406971063
299.0, 0.0007222006897494031
300.0, 0.0006822114501538484
301.0, 0.0003168006072532939
302.0, 0.0004968480171463948
303.0, 0.0002574107056596458
304.0, 0.00029041956179949195
305.0, 0.0006891201745648533
306.0, 0.0005603435262202282
307.0, 0.0005305001178974937
308.0, 0.0004012531150979217
309.0, 0.00018925757457800255
310.0, 0.00018148715840763258
311.0, 0.00038310494998868916
312.0, 0.00023159684600227226
313.0, 0.00017562868168690546
314.0, 0.00022488726538224082
315.0, 0.00020856613408953367
316.0, 0.00022911927871862667
317.0, 0.00032099589744125545
318.0, 0.00011120697418194172
319.0, 0.0005797306215106788
320.0, 0.00048117022599713805
321.0, 0.00041916521781572833
322.0, 0.0007004545890160434
323.0, 0.0011172442940403677
324.0, 0.000512377314320763
325.0, 0.0009024246802324961
326.0, 0.00097416207081482
327.0, 0.0008107334253754245
328.0, 0.0008185096339119512
329.0, 0.0011928861577387372
330.0, 0.0006157265401999987
331.0, 0.0006990728130876505
332.0, 0.0009727325604586212
333.0, 0.0009846616848050785
334.0, 0.0007614465288869592
335.0, 0.0006779827878458841
336.0, 0.0007906590583408585
337.0, 0.0005519221562566441
338.0, 0.0005796699580166073
339.0, 0.0006231057916797914
340.0, 0.0005928227059304691
341.0, 0.0006366189174139374
342.0, 0.0006007560458037523
343.0, 0.0007347986802435486
344.0, 0.0008806049569041929
345.0, 0.0009782589355129998
346.0, 0.0009693409433636244
347.0, 0.0008675173978562531
348.0, 0.0014410781592224396
349.0, 0.0015380372719906122
350.0, 0.0012312112322992864
351.0, 0.0012834767875707558
352.0, 0.001575307778943828
353.0, 0.0010261104645900845
354.0, 0.0014981412028476785
355.0, 0.0013740616906471618
356.0, 0.0012770271081521387
357.0, 0.0017022696859970417
358.0, 0.0021355611264520123
359.0, 0.0011681191752295774
360.0, 0.0012641717605782656
361.0, 0.001431734466185004
362.0, 0.0012933885846887305
363.0, 0.0011987836438354133
364.0, 0.0013515255027356243
365.0, 0.001518085545137548
366.0, 0.0017215480376879565
367.0, 0.0013564393726218456
368.0, 0.0015364077083343164
369.0, 0.001621704802297345
370.0, 0.001456306871288089
371.0, 0.0019349139075807162
372.0, 0.001286233208992949
373.0, 0.0013442103656458794
374.0, 0.0020758495245735958
375.0, 0.0021933701753403746
376.0, 0.0015875605547391357
377.0, 0.0018816681103726374
378.0, 0.001999556361763922
379.0, 0.0017805432242946023
380.0, 0.0014956788346103924
381.0, 0.001630181559127951
382.0, 0.002207097787030217
383.0, 0.0025867681325843646
384.0, 0.0018143706426081612
385.0, 0.0014450908665367952
386.0, 0.0014431185421980859
387.0, 0.0014179780284338808
388.0, 0.0013310775882218518
389.0, 0.0015380108747171765
390.0, 0.001509333598234934
391.0, 0.0014806735523095935
392.0, 0.0013686486655532456
393.0, 0.0014217026503011742
394.0, 0.0015665371155096526
395.0, 0.001451242045607075
396.0, 0.0014589664029040635
397.0, 0.0015229131975054858
398.0, 0.0014919521301241768
399.0, 0.0015362012537523623
400.0, 0.0016932448513427413
401.0, 0.0017928300677833306
402.0, 0.0014479612582532215
403.0, 0.0016508330337265914
404.0, 0.0016729010341224074
405.0, 0.0015753796430252923
406.0, 0.0015421898391154468
407.0, 0.001660811491417331
408.0, 0.0015734218204247082
409.0, 0.001964731163203838
410.0, 0.002461309938223069
411.0, 0.0027966771783069283
412.0, 0.0027123497114593716
413.0, 0.0021660635391627624
414.0, 0.0016703503333849003
415.0, 0.0019783523438093075
416.0, 0.0022331766245715307
417.0, 0.0020782779376907856
418.0, 0.0016942809245699354
419.0, 0.0015246888231487993
420.0, 0.0019393793788246433
421.0, 0.001646919036617861
422.0, 0.0016154288654826124
423.0, 0.001804222954592175
424.0, 0.001859848963558496
425.0, 0.0017192476304949056
426.0, 0.0019643069322187456
427.0, 0.0030550638767500343
428.0, 0.0031945759635431466
429.0, 0.002443385142288203
430.0, 0.0026108110191022864
431.0, 0.003660083282220759
432.0, 0.0033147980131834343
433.0, 0.003970676882340275
434.0, 0.004617477064645321
435.0, 0.004937986185958317
436.0, 0.005883267035263207
437.0, 0.006892993496187393
438.0, 0.006682071563016366
439.0, 0.007673457517997636
440.0, 0.00904880630463242
441.0, 0.009998421001903028
442.0, 0.011277002816396181
443.0, 0.01282375645347608
444.0, 0.01457362811967833
445.0, 0.01815006478904702
446.0, 0.020082517590076746
447.0, 0.022447287003662202
448.0, 0.02561830027697623
449.0, 0.029929292619906747
450.0, 0.034847059743127184
451.0, 0.038723991590498316
452.0, 0.046394285689000406
453.0, 0.05330947216646329
454.0, 0.05926056249136902
455.0, 0.06772103669470199
456.0, 0.07875075174767529
457.0, 0.08823637825579207
458.0, 0.09933792890059814
459.0, 0.11087542445651463
460.0, 0.12469990727525913
461.0, 0.1402682421597797
462.0, 0.1587170563610869
463.0, 0.18244417571673313
464.0, 0.21293233411126958
465.0, 0.255262659434886
466.0, 0.3111561828437829
467.0, 0.38380190634448247
468.0, 0.4763062383909384
469.0, 0.591060183434087
470.0, 0.7281991029322492
471.0, 0.8656967717776455
472.0, 0.9676809351563602
473.0, 0.9812501206559896
474.0, 0.9101141438477143
475.0, 0.7814781139640672
476.0, 0.6297102163419034
477.0, 0.4946140208004212
478.0, 0.3912395167653146
479.0, 0.3089570799863245
480.0, 0.24595354053708443
481.0, 0.19837460663871137
482.0, 0.1615806869763765
483.0, 0.13423695822875586
484.0, 0.11356416171411457
485.0, 0.09569514165015852
486.0, 0.08197693565907294
487.0, 0.07175080385206994
488.0, 0.06361912028226632
489.0, 0.056357248030353926
490.0, 0.047727757736671254
491.0, 0.04332644258824126
492.0, 0.03926649173810645
493.0, 0.035098902371905265
494.0, 0.03143062425680978
495.0, 0.02886727050791136
496.0, 0.026726502815483253
497.0, 0.024277550514611276
498.0, 0.022434493044615405
499.0, 0.021030431839007217
500.0, 0.019719462492955392
501.0, 0.018118302335072656
502.0, 0.016101266227729685
503.0, 0.016649253091396622
504.0, 0.013836508566459583
505.0, 0.012596829223174587
506.0, 0.012541745871221378
507.0, 0.012102997879497566
508.0, 0.010567470432899153
509.0, 0.010238551578776026
510.0, 0.010265026859302034
511.0, 0.009873882203918142
512.0, 0.009537021779531236
513.0, 0.00931281163192527
514.0, 0.009095493992097437
515.0, 0.008934063201160407
516.0, 0.008864405737423897
517.0, 0.00919336740227452
518.0, 0.00898751142527426
519.0, 0.008241796025125021
520.0, 0.007747536968920357
521.0, 0.008107068295732444
522.0, 0.007513350300070971
523.0, 0.007656134359211589
524.0, 0.008273832436540535
525.0, 0.007562800775084536
526.0, 0.006878163205669808
527.0, 0.007091255575152289
528.0, 0.006440869829223837
529.0, 0.006343420437216471
530.0, 0.006938548160709103
531.0, 0.00717077519491513
532.0, 0.006947956814301177
533.0, 0.006877158644456328
534.0, 0.007207991740971896
535.0, 0.006270634259634353
536.0, 0.007323191866780159
537.0, 0.007098175993731269
538.0, 0.007485626309736514
539.0, 0.007745852518070495
540.0, 0.007488914446448567
541.0, 0.007416285439901385
542.0, 0.006019679380906265
543.0, 0.006696601756842425
544.0, 0.006135766451873264
545.0, 0.005768208907427281
546.0, 0.005970930137014796
547.0, 0.006161657868014576
548.0, 0.005685085661773298
549.0, 0.005497297481751412
550.0, 0.005721431367575069
551.0, 0.005837023359408054
552.0, 0.005515938089679802
553.0, 0.005427405538474265
554.0, 0.00601908784245492
555.0, 0.005012862396614736
556.0, 0.005174057641195012
557.0, 0.0052534097746209495
558.0, 0.004581239355241588
559.0, 0.004595113607103857
560.0, 0.005046192065564776
561.0, 0.0040169998079482745
562.0, 0.00464522701713648
563.0, 0.004782665555070932
564.0, 0.005019896069709119
565.0, 0.00445155736940101
566.0, 0.003964080093665266
567.0, 0.004188989535711573
568.0, 0.003944947994997658
569.0, 0.0025547628616340405
570.0, 0.0030297357940675188
571.0, 0.0035683678550739685
572.0, 0.003561648467041289
573.0, 0.003205665066700868
574.0, 0.0028887125993735238
575.0, 0.002467243064594397
576.0, 0.0018143443945986912
577.0, 0.0020089495960870993
578.0, 0.002969736679940744
579.0, 0.003242536870793905
580.0, 0.0029961346930078474
581.0, 0.003454345452543267
582.0, 0.004199254520825473
583.0, 0.004453409901705275
584.0, 0.0039149355064848545
585.0, 0.003958044336938045
586.0, 0.003968199957720173
587.0, 0.0037780705171039175
588.0, 0.004236057138056195
589.0, 0.005902939510869654
590.0, 0.0055740692706875905
591.0, 0.005297221607270698
592.0, 0.005956570650288386
593.0, 0.006368386829309441
594.0, 0.006303412383204434
595.0, 0.007033847621536653
596.0, 0.007197045277932047
597.0, 0.00574934945612296
598.0, 0.0059796296799873
599.0, 0.0053404412605398185
600.0, 0.005311390118988339
601.0, 0.006123999930445045
602.0, 0.0048262344003665745
603.0, 0.0047414943288817905
604.0, 0.004290053169757016
605.0, 0.004334840343351097
606.0, 0.004058851582780512
607.0, 0.0037217513790736858
608.0, 0.003707679726963664
609.0, 0.0037084321111906177
610.0, 0.0036392939049138466
611.0, 0.0031203118656589475
612.0, 0.002151907443831212
613.0, 0.0017720479741242913
614.0, 0.001907457339723403
615.0, 0.0020585693238331787
616.0, 0.00215442861083135
617.0, 0.0024897730960814278
618.0, 0.0019294351794989495
619.0, 0.002081428058435105
620.0, 0.002034918141121108
621.0, 0.0018582359709418046
622.0, 0.0019701336527580405
623.0, 0.002147017377162654
624.0, 0.001407378376385548
625.0, 0.0014203128293594752
626.0, 0.0013956198669886491
627.0, 0.001248480185903269
628.0, 0.0007904685939522398
629.0, 0.0003609423819016997
630.0, 0.0008423742821073952
631.0, 0.0006786071890739767
632.0, 0.00016494922784288687
633.0, 0.0003833563038674182
634.0, 0.0005446486938411463
635.0, 0.000514295863429986
636.0, 0.0005701732204266458
637.0, 0.0007802885080681933
638.0, 0.00023105782300137875
639.0, 0.00030895900758231377
640.0, 0.00019686195425504922
641.0, 0.00027621420934235074
642.0, 0.000422858497435115
643.0, 0.00034525026413740527
644.0, 9.948479484032295e-05
645.0, 0.0006525647236733535
646.0, 0.0005179234452229761
647.0, 0.00040493300958881976
648.0, 0.0003685896927938055
649.0, 0.00040454761372639365
650.0, 0.0003396212109765227
651.0, 8.444689952933276e-05
652.0, 0.00048684967458576136
653.0, 0.0005123683250080307
654.0, 0.00029204829196195157
655.0, 0.0003101565407780206
656.0, 0.00027063934615482267
657.0, 9.208519463217383e-05
658.0, 0.0001341020947638265
659.0, 0.0006079795177197501
660.0, 0.00015961753538267464
661.0, 0.00017993195817110462
662.0, 0.00011561883424366328
663.0, 0.0001536394523400353
664.0, 0.0002701632343447493
665.0, 0.0002373189591568459
666.0, 0.0001294598635425995
667.0, 0.00040406106325938237
668.0, 0.00031170173057935385
669.0, 0.0002934013240826259
670.0, 0.0001684269027209014
671.0, 4.096119381544882e-05
672.0, 0.00016780268422724676
673.0, 0.0005293487698827037
674.0, 0.0003539559681457664
675.0, 0.0008170351782703167
676.0, 0.000312717551279668
677.0, 0.00022107597446479992
678.0, 0.0003169441864289981
679.0, 0.00017619267395214372
680.0, 0.0001903665603229728
681.0, 0.00015492767324015144
682.0, 0.00020221833472244455
683.0, 0.00022562909471703159
684.0, 0.0003288786249328327
685.0, 0.0003218130993783473
686.0, 0.00019566979336131288
687.0, 0.00013069525969233947
688.0, 8.128700401942662e-05
689.0, 5.787285224919819e-05
690.0, 0.00020033975964276217
691.0, 0.00022042162190324344
692.0, 0.00017171540433338689
693.0, 0.00021072316168301112
694.0, 0.00039640618964374675
695.0, 0.000560129418326027
696.0, 0.0003777491352880988
697.0, 0.0001081421237346894
698.0, 0.00014313238672715561
699.0, 0.00012230771436512144
700.0, 0.00029293390893424975
701.0, 0.0004782108261683931
702.0, 9.16681424476836e-05
703.0, 0.00022967920968327703
704.0, 0.0004258684936103013
705.0, 0.0001866521686541475
706.0, 0.0001818968192316496
707.0, 0.00013553297558415827
708.0, 0.00010835361823096708
709.0, 0.0002689603722915624
710.0, 0.00022286295409394534
711.0, 0.0020229377637313232
712.0, 0.0006204827777635605
713.0, 0.0005936177599074432
714.0, 0.000462304673758259
715.0, 0.00028327424078143393
716.0, 0.00036745855528905224
717.0, 0.00021226197628377983
718.0, 0.0007784280821758953
719.0, 0.0011940021162198029
720.0, 0.0013990322473303798
721.0, 0.0018293257420861444
722.0, 0.0018071798839173379
723.0, 0.001713207654256888
724.0, 0.0019741707294726176
725.0, 0.0012206957769853516
726.0, 0.0014120961244468977
727.0, 0.0024648532690279413
728.0, 0.002744132453837408
729.0, 0.002723848625058076
730.0, 0.002815168396225159
731.0, 0.0030345199687794653
732.0, 0.0030953581052317186
733.0, 0.002737091947157624
734.0, 0.0025959020128674213
735.0, 0.0028617410066877056
736.0, 0.0028930133192423646
737.0, 0.002918375894442804
738.0, 0.0030922570609872753
739.0, 0.0032676358024397887
740.0, 0.0032431939143438117
741.0, 0.0035269658274819306
742.0, 0.0037672050054566864
743.0, 0.003754545880224585
744.0, 0.0036092665455314116
745.0, 0.0038509362792283714
746.0, 0.0037821904812598427
747.0, 0.0027455355353400465
748.0, 0.0027852662132536584
749.0, 0.002748915193605233
750.0, 0.0033827020749363813
751.0, 0.002514538571494193
752.0, 0.002573628242063507
753.0, 0.002903827392692752
754.0, 0.002522927632776185
755.0, 0.002262168396059262
756.0, 0.002864087322888248
757.0, 0.0023229392013051717
758.0, 0.0033202780218899107
759.0, 0.003048657983862537
760.0, 0.0024517015941554155
761.0, 0.0021096440531682705
762.0, 0.0018209210598001864
763.0, 0.0015173635353582149
764.0, 0.002097815662929098
765.0, 0.001642393124397671
766.0, 0.001098156078374467
767.0, 0.0018423905192865586
768.0, 0.0024081613245478762
769.0, 0.0021402688883651526
770.0, 0.0017857014624536188
771.0, 0.002056134059764759
772.0, 0.0015511342954570584
773.0, 0.00138671287529809
774.0, 0.0011559602178614803
775.0, 0.001007208950406517
776.0, 0.0011240923878968084
777.0, 0.0013354748527742532
778.0, 0.001605723437863516
779.0, 0.0022882060518405324
780.0, 0.0004714437623720056
781.0, 0.0016067665890093694
782.0, 0.0022414410036417764
783.0, 0.0010145325401413267
784.0, 0.0003494990224176862
785.0, 0.0006922761498023926
786.0, 0.0007470007815557078
787.0, 0.0015795980226351856
788.0, 0.0015856493410727165
789.0, 0.0015984881733526438
790.0, 0.0005400745584552024
791.0, 0.0003874776943201838
792.0, 0.0005184911382574986
793.0, 0.00044763871346754653
794.0, 0.0005700803792000733
795.0, 0.0007134274686379705
796.0, 0.0013940622842791826
797.0, 0.0010798090856665506
798.0, 0.0009767373029155124
799.0, 0.0013721677474217455
800.0, 0.0014414157872891704
801.0, 0.0012709029088194977
802.0, 0.0017376021953900392
803.0, 0.0026638949804649397
804.0, 0.002556616816283259
805.0, 0.0030804806438564617
806.0, 0.0025673888381551975
807.0, 0.0023029883057001294
808.0, 0.0017751628064115368
809.0, 0.0013157481947418464
810.0, 0.0016754439386350909
811.0, 0.0018832245516779945
812.0, 0.0018612500371049008
813.0, 0.0023685467471736272
814.0, 0.0019830751471287037
815.0, 0.0015693864400653445
816.0, 0.001691553777224791
817.0, 0.0014048550125990282
818.0, 0.0006341165430111691
819.0, 0.0015782735725897877
820.0, 0.0011090116886030392
821.0, 0.0018958527738029435
822.0, 0.0015172924897487066
823.0, 0.0010561370676583847
824.0, 0.0008407491886145537
825.0, 0.0007556349541544671
826.0, 0.0007441824790134771
827.0, 0.000955611771371078
828.0, 0.0011532898599550148
829.0, 0.0013114621302524397
830.0, 0.0019948027298719298
831.0, 0.0017145994189149646
832.0, 0.001516430368415327
833.0, 0.0013168312685596071
834.0, 0.00119486122609773
835.0, 0.001783810637967657
836.0, 0.001750438826503845
837.0, 0.0007449598026270871
838.0, 0.0011158297532757862
839.0, 0.001885625136926379
840.0, 0.001852205685297865
841.0, 0.001457632003180571
842.0, 0.0015142417015147841
843.0, 0.0021214853017090577
844.0, 0.0024748779936909727
845.0, 0.0007837000285822671
846.0, 0.0016615561310036504
847.0, 0.0007970554280332193
848.0, 0.0010177902862596427
849.0, 0.0012218939964440164
850.0, 0.0008484493543406686
851.0, 0.0007217657942535751
852.0, 0.0011390143267938286
853.0, 0.00022585447411704767
854.0, 9.933396648365958e-05
855.0, 0.00021166455571383842
856.0, 9.865473642442708e-05
857.0, 8.598769369352557e-05
858.0, 0.00030959846531305926
859.0, 0.0003823010119270709
860.0, 0.00010349573379456302
861.0, 0.00042493955691742916
862.0, 0.0005847362704610874
863.0, 0.0006532812151899893
864.0, 0.0003371163226736912
865.0, 8.605831812510845e-05
866.0, 0.00034463745961261377
867.0, 0.00045228298234904426
868.0, 7.778757109413693e-05
869.0, 0.0002973629954218567
870.0, 0.0007212224362991219
871.0, 0.00019544226698197618
872.0, 0.00018150906715502302
873.0, 0.00017203809044007715
874.0, 8.199181832978289e-05
875.0, 0.0002320287631046479
876.0, 0.0009216571917907489
877.0, 0.00147799343593373
878.0, 0.0003142753884397584
879.0, 0.0008885131937826865
880.0, 0.00017033369072385317
881.0, 0.0006930466162804741
882.0, 0.0010159999359269933
883.0, 0.0006346838976684345
884.0, 0.00018484321482120333
885.0, 0.0001737771316918099
886.0, 0.0003119827435764923
887.0, 0.0005695146105319853
888.0, 0.0010819411298553566
889.0, 0.00038164076477309905
890.0, 0.00022243792668833823
891.0, 0.0007065765276639894
892.0, 0.0007030418893003928
893.0, 0.0008557132892277904
894.0, 0.001637503041928025
895.0, 0.0012457752673458078
896.0, 0.0007317304206023406
897.0, 0.002494514049919473
898.0, 0.002567515669567509
899.0, 0.0027262959732102065
900.0, 0.003178941509400391
901.0, 0.0032660874066705275
902.0, 0.003355538175547781
903.0, 0.0039845117667661025
904.0, 0.004167618008859921
905.0, 0.004624605586572173
906.0, 0.00523045778827381
907.0, 0.005476829303626047
908.0, 0.006168468340278302
909.0, 0.006677804040847522
910.0, 0.007006593043040335
911.0, 0.007666841573745756
912.0, 0.008410262737148929
913.0, 0.008061128460495405
914.0, 0.009270248346702582
915.0, 0.010818297216250617
916.0, 0.010913089891532404
917.0, 0.011543703064797928
918.0, 0.012691806061630704
919.0, 0.014124398168719497
920.0, 0.014975157494378926
921.0, 0.014890621854881008
922.0, 0.015609249967796683
923.0, 0.016062020329135472
924.0, 0.017592027116302367
925.0, 0.01835338586675419
926.0, 0.019507681306571194
927.0, 0.019382010128725688
928.0, 0.01953815259705788
929.0, 0.019829214123196756
930.0, 0.018224925468910157
931.0, 0.016303994143755364
932.0, 0.01583321346372899
933.0, 0.014831120276131966
934.0, 0.012987268675072109
935.0, 0.012185235626686781
936.0, 0.012027623296362857
937.0, 0.011122875437552924
938.0, 0.009860910271040055
939.0, 0.009459861074955271
940.0, 0.009238594491680416
941.0, 0.008759465132189587
942.0, 0.008454246791516414
943.0, 0.007949343999946186
944.0, 0.0073554460412232495
945.0, 0.006942425239239189
946.0, 0.006347193373702488
947.0, 0.005846972994555507
948.0, 0.0057994438802283456
949.0, 0.00551280675319712
950.0, 0.004395917600434874
951.0, 0.0046116245335808435
952.0, 0.004978850431407444
953.0, 0.004591186201508871
954.0, 0.004276544995008764
955.0, 0.003764146836332518
956.0, 0.0029130996514429176
957.0, 0.002738798000992642
958.0, 0.003645570163719344
959.0, 0.002883246952364869
960.0, 0.004513185713134131
961.0, 0.002844223242580962
962.0, 0.0021982496333923475
963.0, 0.0035222174474206533
964.0, 0.0035653442369320476
965.0, 0.0029163422864248332
966.0, 0.002745370468653815
967.0, 0.002811339238006829
968.0, 0.003398153397958063
969.0, 0.0031829503576018834
970.0, 0.0025578376604170456
971.0, 0.0033095749908369264
972.0, 0.0032939363162578787
973.0, 0.002669161752830184
974.0, 0.0015835541295870807
975.0, 0.0012246255200020798
976.0, 0.001968571815326759
977.0, 0.00244063267603235
978.0, 0.002539145545372795
979.0, 0.0017355539091929053
980.0, 0.0019320003366926062
981.0, 0.0018059162155725627
982.0, 0.002116148304325585
983.0, 0.002109484315905674
984.0, 0.0019443377385888604
985.0, 0.0022093087110646747
986.0, 0.002887337925878597
987.0, 0.0032144292113257767
988.0, 0.002443699259129114
989.0, 0.0022975988102691544
990.0, 0.002525870968252456
991.0, 0.0026981107401284426
992.0, 0.0028361610497861954
993.0, 0.0034844053626475065
994.0, 0.003334777154772963
995.0, 0.0029361926990265365
996.0, 0.004327727116285022
997.0, 0.005268471880293739
998.0, 0.0038082739189177917
999.0, 0.004457779384603669
1000.0, 0.004493679467971049
1001.0, 0.004447214832146157
1002.0, 0.0035729303042111595
1003.0, 0.002451675446534422
1004.0, 0.002074964946029568
1005.0, 0.0023322769367849503
1006.0, 0.0021988526148654323
1007.0, 0.0016594174140793952
1008.0, 0.001500271391898433
1009.0, 0.0017885640634978835
1010.0, 0.001323335804888381
1011.0, 0.000942062716542107
1012.0, 0.0015938515468470072
1013.0, 0.0015495553835298255
1014.0, 0.0015418988084325057
1015.0, 0.0016981317604430836
1016.0, 0.00023973298831521774
1017.0, 0.0006582078649763943
1018.0, 0.0020612802268698345
1019.0, 0.0020809521828133943
1020.0, 0.0022123853586025898
1021.0, 0.0024329048454743677
1022.0, 0.0024886388804340512
1023.0, 0.002258151483499205
1024.0, 0.0020619002149747582
1025.0, 0.0019180214911948819
1026.0, 0.0013074573595718748
1027.0, 0.0004477029595298213
1028.0, 0.0007178220620973742
1029.0, 0.0012927431305035176
1030.0, 0.0004887384881511656
1031.0, 0.0003485302613450057
1032.0, 0.0015154890795515865
1033.0, 0.0016430948374301932
1034.0, 0.0011096050670126453
1035.0, 0.001012015463504327
1036.0, 0.0006852511209528472
1037.0, 0.0003175189986144778
1038.0, 0.00022283435814283244
1039.0, 0.0012827927921734697
1040.0, 0.0008611330356909099
1041.0, 0.0007122673810764154
1042.0, 0.0013408753978836493
1043.0, 0.0015339334866032919
1044.0, 0.0015853588957597184
1045.0, 0.0018893511303504213
1046.0, 0.001894182626374208
1047.0, 0.0016002546780922017
1048.0, 0.0019521818437596183
1049.0, 0.0019180897804056522
1050.0, 0.0014614862313271702
1051.0, 0.002553496894082601
1052.0, 0.00271969536331285
1053.0, 0.0021628389344833803
1054.0, 0.0027425620321743244
1055.0, 0.0036872131165618174
1056.0, 0.003891337119968849
1057.0, 0.003937701826475184
1058.0, 0.002144803475525557
1059.0, 0.002819376086772422
1060.0, 0.0021170864980191574
1061.0, 0.001580252085422092
1062.0, 0.002717119315862404
1063.0, 0.0028437946138782583
1064.0, 0.0024510778386259056
1065.0, 0.002485308698978398
1066.0, 0.002864253938983483
1067.0, 0.0026164696124363765
1068.0, 0.0015330956097723062
1069.0, 0.0028128159058955194
1070.0, 0.001880441036388823
1071.0, 0.003088259949038009
1072.0, 0.0025328577491619104
1073.0, 0.0020716295845152398
1074.0, 0.0021671789623132
1075.0, 0.002376075042942981
1076.0, 0.0026079547408007506
1077.0, 0.0027916737383655767
1078.0, 0.002442052790153504
1079.0, 0.0016803821477728528
1080.0, 0.0021378730801279488
1081.0, 0.001997087221818963
1082.0, 0.0014364379931983112
1083.0, 0.0013993675102381656
1084.0, 0.001816180873650675
1085.0, 0.0023093739621266956
1086.0, 0.0026438172599090016
1087.0, 0.0028567959426610925
1088.0, 0.002589429233775966
1089.0, 0.001931495253448537
1090.0, 0.002579674817277069
1091.0, 0.00221374446254182
1092.0, 0.00115949926264121
1093.0, 0.00281827997397554
1094.0, 0.0014345761656946942
1095.0, 0.0015047582883952746
1096.0, 0.001689207045801276
1097.0, 0.0019745654401924855
1098.0, 0.0024615227957303417
1099.0, 0.002524324764363531
1100.0, 0.0017338525113405683
1101.0, 0.000339888003964931
1102.0, 0.0015355340030441833
1103.0, 0.00010584132145162873
1104.0, 0.0010828694454059126
1105.0, 0.0010739016827561033
1106.0, 0.0009105295172938296
1107.0, 0.0016113891038409243
1108.0, 0.0011852211053809574
1109.0, 0.0010467319842271305
1110.0, 0.001607918883449642
1111.0, 0.0012771406926970273
1112.0, 0.0028709409452155974
1113.0, 0.003517266154847661
1114.0, 0.00157371375443889
1115.0, 0.0020398422599281524
1116.0, 0.004588993801029621
1117.0, 0.004205311940500609
1118.0, 0.004597309560316492
1119.0, 0.005336722125927983
1120.0, 0.0049623509358934555
1121.0, 0.00452556428031949
1122.0, 0.005218611035155235
1123.0, 0.005546216143440526
1124.0, 0.0047521949869507975
1125.0, 0.003667996431210796
1126.0, 0.0031817110565730937
1127.0, 0.002479565711060649
1128.0, 0.002038870346798138
1129.0, 0.0015194975428699789
1130.0, 0.0013966735084539079
1131.0, 0.0013962626908032097
1132.0, 0.0013263938560629626
1133.0, 0.000961124501658737
1134.0, 0.0003971906857050748
1135.0, 0.0006932101405357983
1136.0, 0.000357757391589384
1137.0, 3.463021820479921e-05
1138.0, 0.0009668872490187175
1139.0, 0.0004357088143410965
1140.0, 0.00021583975176870857
1141.0, 0.001059532870909324
1142.0, 0.0007865304469538843
1143.0, 0.00023352468401223277
1144.0, 0.0006126134269049348
1145.0, 0.0010919237489727832
1146.0, 0.0007189705921462097
1147.0, 8.087991959954984e-05
1148.0, 0.0004023682440163815
1149.0, 1.7567695717033343e-05
1150.0, 0.00014580038231577368
1151.0, 0.00030624111412326196
1152.0, 0.0004428710735545635
1153.0, 0.0004041927096332966
1154.0, 0.00069654553821961
1155.0, 0.0008488988203114243
1156.0, 0.000758486046788896
1157.0, 0.0009603133603246766
1158.0, 0.0010819357966957055
1159.0, 0.0004894339906682124
1160.0, 0.0013321475107520094
1161.0, 0.000540773189431677
1162.0, 0.0001453677250731339
1163.0, 0.0006442931035050727
1164.0, 0.00023953279213806213
1165.0, 0.00019916820253223708
1166.0, 0.00023019842393319924
1167.0, 0.00018079811358320214
1168.0, 0.00018006441017408623
1169.0, 0.000304228692862474
1170.0, 0.00047364751890212315
1171.0, 0.0003037641136713124
1172.0, 0.00010603545288255973
1173.0, 0.000301681151817652
1174.0, 0.0011024992485409856
1175.0, 0.00020833877254366285
1176.0, 0.00019108710287567388
1177.0, 0.0007399357293503059
1178.0, 0.000419683386616602
1179.0, 0.00012963490884606595
1180.0, 0.00023409320591393805
1181.0, 0.00025425000563364354
1182.0, 0.00017037754893498664
1183.0, 0.00011138454304353821
1184.0, 0.0002486323280872002
1185.0, 0.00046756067229257524
1186.0, 0.00026227941953457464
1187.0, 0.0006676151806676025
1188.0, 0.0006853992702887488
1189.0, 0.0005797761663601344
1190.0, 0.0007648126354012586
1191.0, 0.0007405860935519264
1192.0, 0.0006706602921146508
1193.0, 0.0006741437620044673
1194.0, 0.0005763419331663319
1195.0, 0.0006025391424149259
1196.0, 0.0008725109146701964
1197.0, 0.0005306505037490088
1198.0, 0.0009318483024382625
1199.0, 0.0004064672912412387
1200.0, 0.0001503650358790298
1201.0, 0.00021352301399105275
1202.0, 0.0005207317154068308
1203.0, 0.0008370783146300584
1204.0, 0.0008251629013513261
1205.0, 0.000374898696213039
1206.0, 1.3515814617070722e-05
1207.0, 0.00011979215315835378
1208.0, 0.00041906843347191297
1209.0, 0.0006159146488041345
1210.0, 0.0001094156848057918
1211.0, 0.000382429387821536
1212.0, 4.248650538611994e-05
1213.0, 0.0006561376290616349
1214.0, 0.0010719047017571665
1215.0, 0.0006309488315036813
1216.0, 0.000598348168981497
1217.0, 0.0003890562055367929
1218.0, 0.0005345440219740651
1219.0, 0.0005973636419202106
1220.0, 0.0004830287649681284
1221.0, 0.0007868887228918486
1222.0, 0.0003790853743256097
1223.0, 0.0007966578714854137
1224.0, 0.001093042275855894
1225.0, 0.0006312722151125818
1226.0, 0.0012915093594987462
1227.0, 0.000790819395144202
1228.0, 0.00036802366156877663
1229.0, 8.988702089933177e-05
1230.0, 0.0006828998151567291
1231.0, 0.000553236485660555
1232.0, 0.00034140215854917106
1233.0, 0.0009852236713413585
1234.0, 0.0010544205986506646
1235.0, 0.00010913236466465002
1236.0, 0.0003005038579548694
1237.0, 0.0006388129726565839
1238.0, 9.22904238884729e-06
1239.0, 0.00013494202098524597
1240.0, 0.001195821752479132
1241.0, 0.001012187735891303
1242.0, 0.0013382753639486925
1243.0, 0.001335752667327128
1244.0, 0.0017955258901701503
1245.0, 0.0012506727476502067
1246.0, 0.0003373618379908777
1247.0, 0.00013043648191146543
1248.0, 0.00026180077885764604
1249.0, 0.0007034969081610319
1250.0, 0.0003829797988319982
1251.0, 0.00035510098986201854
1252.0, 0.0005619516216869017
1253.0, 0.00018163080635967907
1254.0, 0.00023802043091278603
1255.0, 0.0008203062257682006
1256.0, 0.0008837856379467733
1257.0, 0.0003746371952815752
1258.0, 0.0002390183388712579
1259.0, 0.00017366760119168358
1260.0, 3.651139012488765e-05
1261.0, 0.00036453827070544967
1262.0, 0.0006997700060299088
1263.0, 0.0002970219398212259
1264.0, 0.00045716291275193957
1265.0, 0.0009435087367650852
1266.0, 6.893342151756337e-05
1267.0, 0.00010312966588413178
1268.0, 0.00012412937980199953
1269.0, 0.0007222394647791114
1270.0, 0.0012678592828914116
1271.0, 0.001087693524186376
1272.0, 0.00047500183795971715
1273.0, 0.00021133617045403534
1274.0, 0.000571330995527874
1275.0, 0.0007431700628111097
1276.0, 0.00065403503215714
1277.0, 0.0006389019748050985
1278.0, 0.00016299344837747906
1279.0, 0.00021814489087066603
1280.0, 0.0006902246811154576
1281.0, 0.0010209695635417944
1282.0, 4.192476728261357e-05
1283.0, 0.00010631973171292626
1284.0, 3.903446475341185e-05
1285.0, 0.0013040993085647692
1286.0, 0.001079292399559478
1287.0, 0.0016655498044367931
1288.0, 0.0021391948693363252
1289.0, 0.0020453001242213146
1290.0, 0.0017025002161502034
1291.0, 0.0014021899384289624
1292.0, 0.001641313826998891
1293.0, 0.0020813486811733233
1294.0, 0.0016576846780799047
1295.0, 0.00121304202196309
1296.0, 0.0023966067976371993
1297.0, 0.0022989945839348154
1298.0, 0.0014902305811479017
1299.0, 0.0006623185314422906
1300.0, 0.00139210653862455
1301.0, 0.0015382869591013541
1302.0, 0.0012465920896829585
1303.0, 0.0014630332250299785
1304.0, 0.0013872891566418
1305.0, 0.0011887336778838892
1306.0, 0.0015689377730099797
1307.0, 0.0019293378066543743
1308.0, 0.001684859172134127
1309.0, 0.0017223934822920305
1310.0, 0.0022239870504927872
1311.0, 0.0011916531182208996
1312.0, 0.000834441804612517
1313.0, 7.490512088635838e-05
1314.0, 0.00031254991615968985
1315.0, 0.0008996010889806631
1316.0, 0.0011132384728299546
1317.0, 0.00117335287843879
1318.0, 0.0008824097318032474
1319.0, 0.00138804435647633
1320.0, 0.0011355485517781717
1321.0, 0.0003499611110464808
1322.0, 0.0001488775456370875
1323.0, 0.0009108605480280614
1324.0, 0.0015749063098418547
1325.0, 0.00044930375904094627
1326.0, 0.0011357262438435383
1327.0, 0.00132270223846908
1328.0, 0.0010731864196828335
1329.0, 0.0016226697079012396
1330.0, 0.00043062616292096993
1331.0, 0.00021328132166743093
1332.0, 9.210519117647785e-05
1333.0, 0.0014118021016984242
1334.0, 0.0016194130655305002
1335.0, 0.0010921153234086413
1336.0, 0.0008684728197457385
1337.0, 0.0004967476088547646
1338.0, 0.00018135046903691103
1339.0, 0.0005958402860399447
1340.0, 0.0008388831240330178
1341.0, 0.0005346704195906277
1342.0, 0.0009388093356976531
1343.0, 0.00011409184803547602
1344.0, 0.00026553240180310735
1345.0, 0.00010967907236530424
1346.0, 0.0008946935590097569
1347.0, 0.00205930036357232
1348.0, 0.00032434721461547687
1349.0, 0.00014385383266584217
1350.0, 0.000910582142808786
1351.0, 0.0004956823282631828
1352.0, 0.0004947371329420552
1353.0, 0.0007970745620601749
1354.0, 0.0009374581315744826
1355.0, 0.0006398026914821811
1356.0, 0.0007648346925178325
1357.0, 0.001267308241493719
1358.0, 0.0010100649104480231
1359.0, 0.0007590659239377595
1360.0, 0.00024066369385229984
1361.0, 0.00039634150826800655
1362.0, 0.0006198006613303212
1363.0, 0.0002231532854591005
1364.0, 0.0008488627395095247
1365.0, 0.001064563035604449
1366.0, 0.0002472358044764846
1367.0, 0.0004419091378161837
1368.0, 0.000915586751963013
1369.0, 0.001298908845461257
1370.0, 0.0015484389237395476
1371.0, 0.0013874542481863174
1372.0, 0.0012161413974435481
1373.0, 0.0011742725168431153
1374.0, 0.0013526323498225339
1375.0, 0.0013984201131942
1376.0, 0.0010427320986209148
1377.0, 0.0008242508456361912
1378.0, 0.00020671018776644825
1379.0, 0.0007162473969739547
1380.0, 0.0007467128710945849
1381.0, 0.0005390093145790328
1382.0, 0.0010852657764401112
1383.0, 0.0008969298703023991
1384.0, 0.0008549963227289001
1385.0, 0.0005703686050295612
1386.0, 0.00043321697630716374
1387.0, 0.0004314485182095918
1388.0, 0.0004307812935917306
1389.0, 0.0005728733931930252
1390.0, 0.0006339052204861756
1391.0, 0.0006839411882577926
1392.0, 0.0007579441925923838
1393.0, 0.0006367459967221833
1394.0, 0.000293544420836783
1395.0, 0.0005438147882240959
1396.0, 0.0011916222498138177
1397.0, 0.00038974265973979757
1398.0, 0.0009088881918727236
1399.0, 0.0005457327076612518
1400.0, 0.0013548386587403953
1401.0, 0.0017264123690711546
1402.0, 0.0012777552731673314
1403.0, 0.0003244049131619757
1404.0, 0.00017369281683360813
1405.0, 0.00092739854084805
1406.0, 0.0007082434148547471
1407.0, 0.0007334872172937184
1408.0, 0.0003386860324696198
1409.0, 0.00038607950591576344
1410.0, 0.00047290760905803394
1411.0, 0.000305319337952626
1412.0, 0.00012030060042862622
1413.0, 0.00013961335793398824
1414.0, 0.0001885382972175004
1415.0, 0.0002952286371778554
1416.0, 0.0009164162333248615
1417.0, 0.001049385194285821
1418.0, 0.0003543352341741277
1419.0, 0.0007161480318817347
1420.0, 0.0013792330195818627
1421.0, 0.0006133578811677165
1422.0, 0.0024139662514326195
1423.0, 0.0007357152142349962
1424.0, 0.0015238845606115408
1425.0, 0.0013890412355399076
1426.0, 0.0009248066222193505
1427.0, 0.0012783007250305174
1428.0, 0.001715180467172076
1429.0, 0.0018685833045628364
1430.0, 0.0015887313675498214
1431.0, 0.0017578917815844052
1432.0, 0.002903964210412364
1433.0, 0.0026651405855327016
1434.0, 0.0022598410486173834
1435.0, 0.003615351385775427
1436.0, 0.00449988963239265
1437.0, 0.004284822864631995
1438.0, 0.003898952660097788
1439.0, 0.004376437191675184
1440.0, 0.004920995935385323
1441.0, 0.004816326721466488
1442.0, 0.005524430668516559
1443.0, 0.0050120599402948595
1444.0, 0.004289020959022274
1445.0, 0.005802738745571096
1446.0, 0.005523264801688377
1447.0, 0.005700804610041022
1448.0, 0.006256914552164709
1449.0, 0.005448603927088686
1450.0, 0.004793591605387642
1451.0, 0.005009665631840139
1452.0, 0.005059011436040366
1453.0, 0.005138487162240213
1454.0, 0.004822080591055457
1455.0, 0.004576907674940505
1456.0, 0.0043741257505416015
1457.0, 0.004032145726822761
1458.0, 0.003911425685669712
1459.0, 0.0037370045504330203
1460.0, 0.003516181436772463
1461.0, 0.0033777914449613063
1462.0, 0.002888124385204429
1463.0, 0.0025496110718257236
1464.0, 0.002620259260313116
1465.0, 0.003393442611210137
1466.0, 0.0024927450431467867
1467.0, 0.0023257325767552448
1468.0, 0.0028824950509214343
1469.0, 0.002131251479036022
1470.0, 0.0028657890665058027
1471.0, 0.0015689075425692105
1472.0, 0.0024400266138592188
1473.0, 0.003084355269973987
1474.0, 0.0020589731719314027
1475.0, 0.0014320369201578527
1476.0, 0.0018431382292585941
1477.0, 0.0017454029808152993
1478.0, 0.001978536045567411
1479.0, 0.0017369747204871154
1480.0, 0.0015975310473413796
1481.0, 0.0019452866966044578
1482.0, 0.001516723721023186
1483.0, 0.001466583715479
1484.0, 0.0018719306008707472
1485.0, 0.0011754897984578632
1486.0, 0.0011877903047611581
1487.0, 0.0003676977699475463
1488.0, 0.00076692203017356
1489.0, 0.0011560831778883037
1490.0, 0.0015557263370623775
1491.0, 0.0014844768332877446
1492.0, 0.001293115007242718
1493.0, 0.0014529652162040764
1494.0, 0.0006680785380752383
1495.0, 0.000797517207230363
1496.0, 0.0012777391059652628
1497.0, 0.0002807983339669763
1498.0, 0.0006974870637127166
1499.0, 0.00028091488307932467
1500.0, 0.0003828770314492932
1501.0, 0.0001792645213588085
1502.0, 0.0007245811218618494
1503.0, 0.0003907712515919021
1504.0, 0.0010590211704369526
1505.0, 0.0007394289814728996
1506.0, 0.0004443316885916256
1507.0, 0.0003565555414445812
1508.0, 0.0013123390935686477
1509.0, 0.0015318267481155756
1510.0, 0.00016729256083278308
1511.0, 0.0005208486407313
1512.0, 0.0007608125865627619
1513.0, 0.0002814457267217293
1514.0, 0.00012283819936778617
1515.0, 0.00034640098785117534
1516.0, 0.0003509968979329639
1517.0, 0.0009152419953249172
1518.0, 0.0011822766223317314
1519.0, 0.0011281270495038776
1520.0, 0.0003892232652212822
1521.0, 0.00036439584151482044
1522.0, 0.0010358495877834648
1523.0, 3.0011981982112847e-05
1524.0, 0.0007937172168759562
1525.0, 0.0002380492714565939
1526.0, 0.0006531293494184956
1527.0, 0.0010655937654710389
1528.0, 0.0009129291518257825
1529.0, 0.0007906174048858537
1530.0, 0.0009222109623787291
1531.0, 0.0010964066703256228
1532.0, 0.0011672935736784435
1533.0, 0.0010073027513648324
1534.0, 0.0009897303620140271
1535.0, 0.0004918843490015281
1536.0, 0.00028219430786898485
1537.0, 0.0007144730490408006
1538.0, 0.0012225419517366903
1539.0, 0.0008049071232510275
1540.0, 0.00014600072932880628
1541.0, 0.0003113479462619926
1542.0, 0.0004700974040671082
1543.0, 0.000688217501837118
1544.0, 0.0010253476027178503
1545.0, 0.0006613996223505436
1546.0, 0.00028700233535162474
1547.0, 0.00041465423162725566
1548.0, 0.0007638493191023907
1549.0, 0.0010105974479601273
1550.0, 0.0008532665209297804
1551.0, 0.001557733317772439
1552.0, 0.0023903331112521005
1553.0, 0.0034060942975041053
1554.0, 0.0031302849901905815
1555.0, 0.003877356463883839
1556.0, 0.00273299230583745
1557.0, 0.00026303634592866366
1558.0, 0.0017155835654781757
1559.0, 0.000514892072290838
1560.0, 0.0012451584033932803
1561.0, 0.0017985597263252564
1562.0, 0.0016548662570898952
1563.0, 0.0019844243140602147
1564.0, 0.001486370655795974
1565.0, 0.0017359115331730725
1566.0, 0.0015019259057550219
1567.0, 0.000954660556328812
1568.0, 0.0007293778859967832
1569.0, 0.0015135331330774588
1570.0, 0.0011930332933857038
1571.0, 0.0002998236711458936
1572.0, 2.6439550555918208e-06
1573, 0.0
1574, 0.0
1575, 0.0
1576, 0.0
1577, 0.0
1578, 0.0
1579, 0.0
1580, 0.0
1581, 0.0
1582, 0.0
1583, 0.0
1584, 0.0
1585, 0.0
1586, 0.0
1587, 0.0
1588, 0.0
1589, 0.0
1590, 0.0
1591, 0.0
1592, 0.0
1593, 0.0
1594, 0.0
1595, 0.0
1596, 0.0
1597, 0.0
1598, 0.0
1599, 0.0
