30, 0.0
31, 0.0
32, 0.0
33, 0.0
34, 0.0
35, 0.0
36, 0.0
37, 0.0
38, 0.0
39, 0.0
40, 0.0
41, 0.0
42, 0.0
43, 0.0
44, 0.0
45, 0.0
46, 0.0
47, 0.0
48, 0.0
49, 0.0
50, 0.0
51, 0.0
52, 0.0
53, 0.0
54, 0.0
55, 0.0
56, 0.0
57, 0.0
58, 0.0
59, 0.0
60, 0.0
61, 0.0
62, 0.0
63, 0.0
64, 0.0
65, 0.0
66, 0.0
67, 0.0
68, 0.0
69, 0.0
70, 0.0
71, 0.0
72, 0.0
73, 0.0
74, 0.0
75, 0.0
76, 0.0
77, 0.0
78, 0.0
79, 0.0
80, 0.0
81, 0.0
82, 0.0
83, 0.0
84, 0.0
85, 0.0
86, 0.0
87, 0.0
88, 0.0
89, 0.0
90, 0.0
91, 0.0
92, 0.0
93, 0.0
94, 0.0
95, 0.0
96, 0.0
97, 0.0
98, 0.0
99, 0.0
100, 0.0
101, 0.0
102, 0.0
103, 0.0
104, 0.0
105, 0.0
106, 0.0
107, 0.0
108, 0.0
109, 0.0
110, 0.0
111, 0.0
112.0, 0.00022186573609031058
113.0, 0.003484597149183217
114.0, 0.002467873994634127
115.0, 0.00022987211141281078
116.0, 0.0003155824876026008
117.0, 0.002762674240876052
118.0, 0.002858557377509426
119.0, 0.0005628661156823461
120.0, 0.00367896612239549
121.0, 0.003573680268580213
122.0, 0.003948976639692641
123.0, 0.008970059282209472
124.0, 0.0077303389011617405
125.0, 0.00792697632706602
126.0, 0.010033980841176035
127.0, 0.01039404919900561
128.0, 0.01124069889746085
129.0, 0.013308683617654709
130.0, 0.01756788700776323
131.0, 0.017815821821431675
132.0, 0.02079375029612642
133.0, 0.026756765500059405
134.0, 0.034509907691377455
135.0, 0.04405722267038943
136.0, 0.05349589234594355
137.0, 0.06159219505045843
138.0, 0.06466876254777908
139.0, 0.0625007971081876
140.0, 0.05494799172975172
141.0, 0.04014603141409864
142.0, 0.030833897108940828
143.0, 0.023783649290201925
144.0, 0.017868205725788542
145.0, 0.015860125346669016
146.0, 0.01361992837350737
147.0, 0.011613454855797144
148.0, 0.011047791950795468
149.0, 0.011795489234269207
150.0, 0.011199826902245887
151.0, 0.008779736384631592
152.0, 0.013305880041911588
153.0, 0.012346194415456
154.0, 0.010495264916055132
155.0, 0.014381512032105657
156.0, 0.013490216478913193
157.0, 0.013960468637319414
158.0, 0.016906686042273373
159.0, 0.022465811604083185
160.0, 0.022463610494502604
161.0, 0.023775438504054395
162.0, 0.03302960056078101
163.0, 0.03907187637168291
164.0, 0.047925265976913635
165.0, 0.05922204950442403
166.0, 0.06945456253354798
167.0, 0.08142984022938009
168.0, 0.09096659889501683
169.0, 0.09553694155792561
170.0, 0.0891285720318909
171.0, 0.07865571258655643
172.0, 0.06497207483312696
173.0, 0.04912137331307631
174.0, 0.03990451996992216
175.0, 0.032915658599877225
176.0, 0.027157941192086397
177.0, 0.024309254775765142
178.0, 0.02272998475195105
179.0, 0.02064003985616797
180.0, 0.01565781723817851
181.0, 0.01733453179979773
182.0, 0.017250492589922055
183.0, 0.015053722754156725
184.0, 0.0148797904251393
185.0, 0.014107405574026555
186.0, 0.01279908929860038
187.0, 0.010902851374520198
188.0, 0.015672507686807422
189.0, 0.017011494490150377
190.0, 0.0163611101222402
191.0, 0.01770846984758207
192.0, 0.017764153360017614
193.0, 0.020929703921941947
194.0, 0.028135394246711815
195.0, 0.030428738504125422
196.0, 0.03397480676595091
197.0, 0.03804574672251666
198.0, 0.041912497159376956
199.0, 0.0387274052421138
200.0, 0.037613655523584526
201.0, 0.038411354437704916
202.0, 0.0356483871075892
203.0, 0.03362097509127117
204.0, 0.033210709020150615
205.0, 0.035047035867353464
206.0, 0.03026792394057229
207.0, 0.02773176853675385
208.0, 0.025387571577211998
209.0, 0.019277358055841555
210.0, 0.017300905290163336
211.0, 0.01615598078581831
212.0, 0.01507529401429172
213.0, 0.013104432451628654
214.0, 0.012616424701910565
215.0, 0.011607874903323965
216.0, 0.008454347264844102
217.0, 0.00954553195719227
218.0, 0.008258571989657723
219.0, 0.0056785726205473026
220.0, 0.005269593459978937
221.0, 0.006709713161788865
222.0, 0.006272264583030727
223.0, 0.003422742029611208
224.0, 0.006202830219571067
225.0, 0.005807619482690993
226.0, 0.005463029996541515
227.0, 0.008375866538184768
228.0, 0.007775703802973889
229.0, 0.009112660479527085
230.0, 0.01118032330660889
231.0, 0.008735955767119996
232.0, 0.007015624603691268
233.0, 0.008474199961748747
234.0, 0.013504127491586398
235.0, 0.01049061615512457
236.0, 0.012024226435440252
237.0, 0.014715497979068176
238.0, 0.01502273661891988
239.0, 0.013703560953410115
240.0, 0.014866170399167737
241.0, 0.01724350251136599
242.0, 0.01526613767697677
243.0, 0.019856765558430328
244.0, 0.022049430912556994
245.0, 0.019360465402605227
246.0, 0.026915082280317727
247.0, 0.029291330552069714
248.0, 0.029786886617555644
249.0, 0.03160724891066807
250.0, 0.038746860894135565
251.0, 0.04286646146721326
252.0, 0.0458135126855234
253.0, 0.05562468844611069
254.0, 0.06001500255813134
255.0, 0.06662223104526135
256.0, 0.07720410483285224
257.0, 0.0812028136805626
258.0, 0.08704340692621873
259.0, 0.09405078570858517
260.0, 0.10180151852664768
261.0, 0.1030547073609891
262.0, 0.10467082751641568
263.0, 0.10649466156796009
264.0, 0.10719244358532207
265.0, 0.10715092000718186
266.0, 0.10524857022738371
267.0, 0.10067287039194386
268.0, 0.08946284819344703
269.0, 0.08052001507460661
270.0, 0.07092114647537488
271.0, 0.058599530627810884
272.0, 0.04965053125263263
273.0, 0.04135541452162238
274.0, 0.034534543905350185
275.0, 0.031036803200631922
276.0, 0.02682092370980403
277.0, 0.02209591700001957
278.0, 0.017985499151217593
279.0, 0.019970329067054034
280.0, 0.016019095723837286
281.0, 0.0132636195922867
282.0, 0.01472776434037953
283.0, 0.01407762128219088
284.0, 0.010894832377038229
285.0, 0.008282338550683225
286.0, 0.00985119524946429
287.0, 0.006888110403846254
288.0, 0.007463112579170321
289.0, 0.009676765881249548
290.0, 0.0068493395037639866
291.0, 0.005985776064869603
292.0, 0.005570872908761241
293.0, 0.005031965113528469
294.0, 0.0028087173001125855
295.0, 0.005093988527837437
296.0, 0.005554494395732815
297.0, 0.0003172666804796675
298.0, 0.003614388667604963
299.0, 0.003227044980062307
300.0, 0.0018762621785067325
301.0, 0.0033592990380916805
302.0, 0.004277644773029888
303.0, 0.002878648187569288
304.0, 0.001023286480956545
305.0, 0.005349204656869944
306.0, 0.0037063456095750283
307.0, 0.0024746274199916422
308.0, 0.0031154698119234174
309.0, 0.0021930059351635426
310.0, 0.002257481992951993
311.0, 0.003085589699841073
312.0, 0.004582558647589888
313.0, 0.002325268436780711
314.0, 0.0025815112570267648
315.0, 0.0038100005455517344
316.0, 0.003955404383120508
317.0, 0.0033440900769635853
318.0, 0.004064857711390195
319.0, 0.004865078503838487
320.0, 0.0014277255660776072
321.0, 0.002986061110599436
322.0, 0.0030646176652667913
323.0, 0.000736472318957463
324.0, 0.0011547377280115851
325.0, 0.0007368830358924798
326.0, 0.00041670901543312393
327.0, 0.0007890210989964469
328.0, 0.004588668154863266
329.0, 0.0031507823829080967
330.0, 0.0011392995222349158
331.0, 0.0035001839942841095
332.0, 0.0011497277041088577
333.0, 0.00020109831176012754
334.0, 0.0011145158435029064
335.0, 0.0044534123532644215
336.0, 0.002727328585544584
337.0, 0.0016918763065644489
338.0, 0.001971714525875751
339.0, 0.002280549908859411
340.0, 0.0017492141666308272
341.0, 0.001745168088551051
342.0, 0.002531947656589852
343.0, 0.001962650039237266
344.0, 0.004737425141054771
345.0, 0.005559719404546881
346.0, 0.0011341565256672145
347.0, 0.00574221921184176
348.0, 0.005232819138792717
349.0, 0.0029367838686941085
350.0, 0.002622251513851828
351.0, 0.003638615020847988
352.0, 0.0024081100267119193
353.0, 0.0015606627683478996
354.0, 0.007189817733098855
355.0, 0.003042201285794406
356.0, 0.0010356748071992377
357.0, 0.002135143884168764
358.0, 0.0030519830462970698
359.0, 0.0019291018234702095
360.0, 0.002154231999650023
361.0, 0.00421430432841528
362.0, 0.003891846804606033
363.0, 0.005424986064336851
364.0, 0.004813679979411866
365.0, 0.00038352100191748413
366.0, 0.003020658740810264
367.0, 0.0031674200809291707
368.0, 0.0019733806940649503
369.0, 0.00032625934283235253
370.0, 0.00365306236073393
371.0, 0.004005994704138189
372.0, 0.0030597052331225215
373.0, 0.003305552455792669
374.0, 0.0021595380880250026
375.0, 0.0010210063343797158
376.0, 0.0006342527031859552
377.0, 0.002549452323423222
378.0, 0.0011491296927695642
379.0, 0.002473240476514326
380.0, 0.00547401737137152
381.0, 0.002429366882760878
382.0, 0.0010645965870508104
383.0, 0.0021843603466142935
384.0, 0.004909198267991895
385.0, 0.0018874961106461917
386.0, 0.0036419007115041334
387.0, 0.004113020232058841
388.0, 0.0012436813090593783
389.0, 0.003631753058805558
390.0, 0.004330015016200226
391.0, 0.003811647064605782
392.0, 0.002378066915777705
393.0, 0.002422064821733695
394.0, 0.0014143611391895846
395.0, 0.001170225295424199
396.0, 0.0035516764601262467
397.0, 0.0025496919325363634
398.0, 0.0023661715288436596
399.0, 0.003257921288338038
400.0, 0.005549733765612302
401.0, 0.00199799799413545
402.0, 0.002805817173653493
403.0, 0.0052235193713710375
404.0, 0.002121023928408564
405.0, 0.0026443624412874735
406.0, 0.003222605904622425
407.0, 0.003280521499375597
408.0, 0.002504586556153324
409.0, 0.004540399683181435
410.0, 0.0045851722494030245
411.0, 0.0028783780370833347
412.0, 0.004420795092961604
413.0, 0.003816724209814097
414.0, 0.0026288010922612803
415.0, 0.001779617276083428
416.0, 0.004076117844663602
417.0, 0.003089647955969149
418.0, 0.002994266608149869
419.0, 0.004657469497024885
420.0, 0.0009984428003297072
421.0, 0.0023916577209269867
422.0, 0.00433022113642977
423.0, 0.004438385563454886
424.0, 0.002059756114052181
425.0, 0.003985235090448264
426.0, 0.004507970479357852
427.0, 0.00020993344425569455
428.0, 0.004667991687287605
429.0, 0.004210193716529711
430.0, 0.0020169080870779
431.0, 0.0007465143912307906
432.0, 0.00552899857094038
433.0, 0.0037214368055317527
434.0, 0.0013644667967333019
435.0, 0.004872225847452777
436.0, 0.002104971256711047
437.0, 0.0020929973570269467
438.0, 0.004653120671035369
439.0, 0.009435066455399087
440.0, 0.002963690379288358
441.0, 0.004932376124155393
442.0, 0.008581633528328
443.0, 0.0020727778085060196
444.0, 0.002328521895007671
445.0, 0.004391183219669544
446.0, 0.005856126415937431
447.0, 0.002958446504939355
448.0, 0.003699319261516477
449.0, 0.0023740620152433345
450.0, 0.0004640766559106616
451.0, 0.002261052034562762
452.0, 0.002473157143148525
453.0, 0.0018743720119272732
454.0, 0.0019048649948011844
455.0, 0.005851753127561007
456.0, 0.0025337241057333338
457.0, 0.0009990575219044906
458.0, 0.0016258076009175826
459.0, 0.0018865916864323727
460.0, 0.004514475205932651
461.0, 0.0059243584984939755
462.0, 0.005343597193047091
463.0, 0.0022109879466307176
464.0, 0.004163162607031065
465.0, 0.0041908154767306355
466.0, 0.002034086236323869
467.0, 0.0011627726718333449
468.0, 0.003201545583137516
469.0, 0.002973466076662959
470.0, 0.0014387168733296673
471.0, 0.005694108739341778
472.0, 0.003501838053178901
473.0, 0.002451110721566115
474.0, 0.003299858535117546
475.0, 0.002668782346869172
476.0, 0.0016416280041589703
477.0, 0.004156135302210171
478.0, 0.008443264839507747
479.0, 0.004393196757112399
480.0, 0.00604950107186625
481.0, 0.005939518296524834
482.0, 0.0034896283806196116
483.0, 0.0032928018489769718
484.0, 0.00595776660883179
485.0, 0.005255525846230604
486.0, 0.002517408276702888
487.0, 0.008477769433589058
488.0, 0.004325503661564475
489.0, 0.0016809684299103288
490.0, 0.0027125495149078072
491.0, 0.005267039381785534
492.0, 0.0022994653229076647
493.0, 0.002534542538952585
494.0, 0.0055622663666907764
495.0, 0.002866974111754362
496.0, 0.0026740666722079856
497.0, 0.0035247673500069065
498.0, 0.004245010974492337
499.0, 0.001976707184442405
500.0, 0.0040226091696483396
501.0, 0.003795926148299697
502.0, 0.0027828116187925966
503.0, 0.009627131557709053
504.0, 0.007003637369465589
505.0, 0.005240022356446785
506.0, 0.006333245873257605
507.0, 0.010660758057906663
508.0, 0.0043680485669616
509.0, 0.003033442911199928
510.0, 0.006229815932445604
511.0, 0.006711495380410082
512.0, 0.003939926192313743
513.0, 0.004359112704187366
514.0, 0.005998219334900374
515.0, 0.002540615607833384
516.0, 0.005399536843764106
517.0, 0.0051789400997643955
518.0, 0.0031055100240096932
519.0, 0.003576656426204097
520.0, 0.006155597236029092
521.0, 0.004108010880576927
522.0, 0.002199658555946667
523.0, 0.009341294699844623
524.0, 0.0033771035663885413
525.0, 0.003444964200684736
526.0, 0.0066697104136986245
527.0, 0.007365170883385234
528.0, 0.0034310676934890486
529.0, 0.004452169575822726
530.0, 0.005466747928564997
531.0, 0.00023367586427525035
532.0, 0.006744250246953113
533.0, 0.006692562373725001
534.0, 0.003431704742290502
535.0, 0.0005972538887416556
536.0, 0.005399710009627719
537.0, 0.00561945360376791
538.0, 0.004723974033732065
539.0, 0.0053860156529367195
540.0, 0.0053924394347475086
541.0, 0.005728884048002654
542.0, 0.005644454270892031
543.0, 0.004544621350300071
544.0, 0.0011652091882879355
545.0, 0.004425791936578973
546.0, 0.005389696868541769
547.0, 0.0009492446578932696
548.0, 0.0014239803459712443
549.0, 0.006532445290499407
550.0, 0.00648741982137418
551.0, 0.0009046372551167643
552.0, 0.007301306574481206
553.0, 0.0037870495841874525
554.0, 0.001928892553904969
555.0, 0.0039273484030003325
556.0, 0.005756090065703263
557.0, 0.002337810853149474
558.0, 0.002020905287138744
559.0, 0.0038599187070819004
560.0, 0.0008761070220424107
561.0, 0.0004214762371777973
562.0, 0.0026724632957939093
563.0, 0.004924489876819179
564.0, 0.0019357103029253439
565.0, 0.006018086990402385
566.0, 0.004337979908716946
567.0, 0.0015787639205533846
568.0, 0.005564712899560535
569.0, 0.004300533316028881
570.0, 0.0031641381469829028
571.0, 0.003354064429166455
572.0, 0.00580551857517488
573.0, 0.005563288381223693
574.0, 0.004841422209750583
575.0, 0.004889522923615953
576.0, 0.006161457408739586
577.0, 0.003092562628663554
578.0, 0.004053042460743069
579.0, 0.004338686026760541
580.0, 0.00240353925766651
581.0, 0.0033212957827866763
582.0, 0.0023857353002356843
583.0, 0.0019695742599809734
584.0, 0.0029901389433569683
585.0, 0.00595927952624351
586.0, 0.004218716108556074
587.0, 0.0050101824340627035
588.0, 0.007156406254272015
589.0, 0.003916097517928985
590.0, 0.0025607122941486717
591.0, 0.003297035275777329
592.0, 0.003921651912748182
593.0, 0.0008110408697878043
594.0, 0.005211113655136716
595.0, 0.0062577653439290695
596.0, 0.005009066720655114
597.0, 0.0032696064839969497
598.0, 0.007617381911311205
599.0, 0.004647879964676518
600.0, 0.004717436278501363
601.0, 0.013000873133823945
602.0, 0.006523606022118569
603.0, 0.005688660935364609
604.0, 0.006897892035980277
605.0, 0.007534614516900419
606.0, 0.00234828419279105
607.0, 0.007613919872429734
608.0, 0.008704790891598488
609.0, 0.0054623353329732805
610.0, 0.008670290006519308
611.0, 0.010228331089360962
612.0, 0.006080457526008208
613.0, 0.002307818417950924
614.0, 0.01039000477889207
615.0, 0.0060160726495566
616.0, 0.006793020631186348
617.0, 0.009050778857289797
618.0, 0.00799630236135653
619.0, 0.0033409113885617295
620.0, 0.007820060709961581
621.0, 0.009149524778334847
622.0, 0.0018111133098171043
623.0, 0.006160847451426734
624.0, 0.006882005050699449
625.0, 0.004961516647104951
626.0, 0.0030577151375791776
627.0, 0.01024801559618536
628.0, 0.005621349561505309
629.0, 0.00468582400010338
630.0, 0.007727034427622309
631.0, 0.00885217987233681
632.0, 0.00391697938058777
633.0, 0.006243685967511449
634.0, 0.008505085566908568
635.0, 0.0010074679935953923
636.0, 0.010465550717781186
637.0, 0.010478738829450409
638.0, 0.006786172457099815
639.0, 0.004373419784204569
640.0, 0.010825162861092476
641.0, 0.006926502856905612
642.0, 0.0038042551595092854
643.0, 0.004740730437260974
644.0, 0.005979266818808314
645.0, 0.004697838687120017
646.0, 0.006786521266715789
647.0, 0.008673920441587987
648.0, 0.0012008999139482652
649.0, 0.00756991347070657
650.0, 0.007818802344058335
651.0, 0.005200553620503873
652.0, 0.004838245312570839
653.0, 0.015923125582474065
654.0, 0.008574531783512784
655.0, 0.0038333605941645666
656.0, 0.010616052456997241
657.0, 0.008137615822424001
658.0, 0.006306219951967699
659.0, 0.008490272058348763
660.0, 0.011485011041301786
661.0, 0.0037621397449895773
662.0, 0.00635652924055799
663.0, 0.008768502296213135
664.0, 0.008252580652402154
665.0, 0.002849007933869496
666.0, 0.010128360672578064
667.0, 0.008449666669971804
668.0, 0.006975160126119734
669.0, 0.011225876622973077
670.0, 0.010009482174867973
671.0, 0.00547186627516837
672.0, 0.0077361443223277135
673.0, 0.014024054421793376
674.0, 0.003279893131949929
675.0, 0.006759014049895717
676.0, 0.008222808146858211
677.0, 0.006466852924889141
678.0, 0.0033702498936685156
679.0, 0.009858721994272474
680.0, 0.006297990486750473
681.0, 0.003641376773316626
682.0, 0.009161419099680658
683.0, 0.008398139160462635
684.0, 0.0074521430002531894
685.0, 0.009862932688389404
686.0, 0.01335760789941937
687.0, 0.0062997306174526965
688.0, 0.008329081707708054
689.0, 0.008882547301273639
690.0, 0.00813744281214669
691.0, 0.008538704762652673
692.0, 0.013999672765508432
693.0, 0.01187230913297923
694.0, 0.011116536051828517
695.0, 0.01643950928264454
696.0, 0.014032972836456529
697.0, 0.009564488577693951
698.0, 0.010765217067929168
699.0, 0.014304991217855594
700.0, 0.004432286763212853
701.0, 0.0077348259454987
702.0, 0.00809582447362338
703.0, 0.005626293978609759
704.0, 0.003007313686205007
705.0, 0.01609219718295531
706.0, 0.012441532329901557
707.0, 0.010630713976595482
708.0, 0.018969525674616943
709.0, 0.026355547121903945
710.0, 0.024762426758426964
711.0, 0.023003615356588177
712.0, 0.02058244409477687
713.0, 0.012786038754074022
714.0, 0.013686109409415668
715.0, 0.016220045383834567
716.0, 0.02210569762377617
717.0, 0.03242001868409136
718.0, 0.041597590625901494
719.0, 0.037965793119666046
720.0, 0.028553365435209588
721.0, 0.018791079349732606
722.0, 0.01705912814236448
723.0, 0.006769715840316228
724.0, 0.0093424710913425
725.0, 0.01314353065868636
726.0, 0.0021179543262858916
727.0, 0.007884957953076492
728.0, 0.01191257807369534
729.0, 0.010731595896237284
730.0, 0.006017005138328762
731.0, 0.012935283958512699
732.0, 0.00873524113468473
733.0, 0.005598434071520117
734.0, 0.006872034647081881
735.0, 0.014037062664476394
736.0, 0.005175327443473689
737.0, 0.007175615158843747
738.0, 0.009621330924453731
739.0, 0.006809952367424397
740.0, 0.009977966339036633
741.0, 0.01042614567511683
742.0, 0.0068978229991726705
743.0, 0.004256321116815447
744.0, 0.012833727703360498
745.0, 0.006261701319962783
746.0, 0.007070641150198286
747.0, 0.00997916324838161
748.0, 0.009363763994313072
749.0, 0.001886458112188742
750.0, 0.010817183570385358
751.0, 0.011998161939616576
752.0, 0.005555203014722168
753.0, 0.009193918092019955
754.0, 0.010842124859829277
755.0, 0.006482380715788445
756.0, 0.006050670980827514
757.0, 0.015830205952442833
758.0, 0.007719784236271552
759.0, 0.006746072821063154
760.0, 0.009018933524981058
761.0, 0.010421444817386428
762.0, 0.004053103433063627
763.0, 0.009952170418036322
764.0, 0.008065463394610721
765.0, 0.004182015221523921
766.0, 0.005205988154020473
767.0, 0.010973292162172946
768.0, 0.006000949947370665
769.0, 0.004454694076186471
770.0, 0.008070521443043582
771.0, 0.009116481808712015
772.0, 0.007308748005332874
773.0, 0.00824784104689166
774.0, 0.00714355645570593
775.0, 0.0010922062824861747
776.0, 0.005843537687049635
777.0, 0.007217863605268206
778.0, 0.0060667108626815194
779.0, 0.0055342930823821905
780.0, 0.012008871328743747
781.0, 0.003809398197493207
782.0, 0.004005884564986316
783.0, 0.007421879586397995
784.0, 0.008298260380319911
785.0, 0.003919859400438047
786.0, 0.009861238201663292
787.0, 0.007858404031417139
788.0, 0.003245247110945865
789.0, 0.015388520185079406
790.0, 0.006158292057393851
791.0, 0.0014895053936203083
792.0, 0.004614472031055778
793.0, 0.012640135021269617
794.0, 0.0018670774138479784
795.0, 0.006247344191336255
796.0, 0.00897826268741941
797.0, 0.008105155139091838
798.0, 0.006132470395012153
799.0, 0.00882452502641626
800.0, 0.004396123547991507
801.0, 0.0031996280131656074
802.0, 0.00813220666869954
803.0, 0.00913795556892717
804.0, 0.004877039107706026
805.0, 0.005843561270608763
806.0, 0.007471170872679665
807.0, 0.0036219538417634396
808.0, 0.004895929248510447
809.0, 0.006698289221758928
810.0, 0.005213481213532242
811.0, 0.0026771117509519567
812.0, 0.008210361189411477
813.0, 0.0036526848695564882
814.0, 0.005196281145564936
815.0, 0.0077203125588355655
816.0, 0.006213266620530652
817.0, 0.0011712936832963374
818.0, 0.010289543903987087
819.0, 0.011017899468581878
820.0, 0.004347836010253884
821.0, 0.0009594844803943706
822.0, 0.007056803033485515
823.0, 0.005097248093892578
824.0, 0.005621118689853899
825.0, 0.010036337560156042
826.0, 0.003006468972262074
827.0, 0.0017750463022816855
828.0, 0.0074290898967642564
829.0, 0.010087550067666602
830.0, 0.0020825914513898126
831.0, 0.009996475226659233
832.0, 0.008718310142078595
833.0, 0.004733651118333173
834.0, 0.0032975105740495436
835.0, 0.01047643756733617
836.0, 0.005827034403184074
837.0, 0.004145152831868899
838.0, 0.006424473070719039
839.0, 0.010334161456447678
840.0, 0.004975185128158283
841.0, 0.011005059976111857
842.0, 0.008063466490736023
843.0, 0.0023857030909275392
844.0, 0.004022263838148193
845.0, 0.010439131284381205
846.0, 0.0049246566960150905
847.0, 0.00411294620609144
848.0, 0.008118812554522108
849.0, 0.006317167600052016
850.0, 0.004484425640392301
851.0, 0.006047220992232277
852.0, 0.006547957645300884
853.0, 0.00608724804964199
854.0, 0.01566009754270887
855.0, 0.012265399690785368
856.0, 0.00573607692952439
857.0, 0.0043718466143056
858.0, 0.012234675523706929
859.0, 0.0032619379004113465
860.0, 0.009928772425622023
861.0, 0.01620012617235497
862.0, 0.016144015720247026
863.0, 0.008098591170472904
864.0, 0.018648841735698904
865.0, 0.01256602739387468
866.0, 0.00751374071043564
867.0, 0.009173602386964734
868.0, 0.007804854574629133
869.0, 0.003753758463874024
870.0, 0.008618238823741655
871.0, 0.011196428087444523
872.0, 0.004404217724849116
873.0, 0.0025561875470683387
874.0, 0.009802080726020995
875.0, 0.007444783464876621
876.0, 0.004843783003781625
877.0, 0.015265590847259716
878.0, 0.00673754250829584
879.0, 0.002759112674489356
880.0, 0.008070150975232823
881.0, 0.013644150606799285
882.0, 9.18851410504698e-05
883.0, 0.01110414386798703
884.0, 0.009534950293564876
885.0, 0.006061471416583333
886.0, 0.0069441443295054275
887.0, 0.012966715593220397
888.0, 0.003996230038226925
889.0, 0.007817407336318114
890.0, 0.012930402073293669
891.0, 0.010248350470000942
892.0, 0.008384557127948937
893.0, 0.016185679725327785
894.0, 0.010637914174086952
895.0, 0.0028836913479837033
896.0, 0.008185893459493755
897.0, 0.01349971151882804
898.0, 0.005827738619974322
899.0, 0.008882290929195309
900.0, 0.015737709118065442
901.0, 0.006812203605423913
902.0, 0.008271810952500035
903.0, 0.010305458473892866
904.0, 0.009822282921839898
905.0, 0.008693823486474626
906.0, 0.013533015909372314
907.0, 0.008467074234810251
908.0, 0.004530261034348001
909.0, 0.007447117683304842
910.0, 0.013549145646406156
911.0, 0.0025552871697130195
912.0, 0.010461775033879059
913.0, 0.012148636222224358
914.0, 0.00936762576201907
915.0, 0.007264871125312499
916.0, 0.015700887156179802
917.0, 0.006516039627936034
918.0, 0.0048676653535581135
919.0, 0.009192649911211305
920.0, 0.012751855422581414
921.0, 0.004606299118050922
922.0, 0.014356040040718528
923.0, 0.011229534331433956
924.0, 0.004214377963402273
925.0, 0.010472985642303742
926.0, 0.013634698623069198
927.0, 0.004982265139063811
928.0, 0.0071715815657957165
929.0, 0.015817228011818604
930.0, 0.014891760170712441
931.0, 0.008903714758810289
932.0, 0.014276464691418288
933.0, 0.010851396762578088
934.0, 0.0045317148955833116
935.0, 0.01844695282705622
936.0, 0.011981662852510278
937.0, 0.008240808206441552
938.0, 0.011885927996684196
939.0, 0.016846155471598536
940.0, 0.0057722191465988055
941.0, 0.009708625221959002
942.0, 0.014347761485779664
943.0, 0.010932131007641965
944.0, 0.003654566438869856
945.0, 0.01499904043238826
946.0, 0.010995706277453545
947.0, 0.012245082735732103
948.0, 0.015557162854569827
949.0, 0.016459075985166154
950.0, 0.009249713775120277
951.0, 0.01569769523131804
952.0, 0.01778925743746885
953.0, 0.014935480675023375
954.0, 0.011091718672825253
955.0, 0.018126762716141546
956.0, 0.009033074477859162
957.0, 0.012480882714619009
958.0, 0.016350153653695788
959.0, 0.01145411271607506
960.0, 0.006156257828605554
961.0, 0.013916283263659178
962.0, 0.013298299922342164
963.0, 0.008743706322226302
964.0, 0.007455692240247168
965.0, 0.01607927055354865
966.0, 0.0053699617115542135
967.0, 0.009110569970505834
968.0, 0.015518123500160227
969.0, 0.011520193875728911
970.0, 0.0013208895760414858
971.0, 0.015940982402321436
972.0, 0.011506473938299868
973.0, 0.004468389682907138
974.0, 0.010745616575454198
975.0, 0.009535697262247816
976.0, 0.005960757174350683
977.0, 0.011584807910399137
978.0, 0.014041405475673103
979.0, 0.005413770538449188
980.0, 0.009050980686772639
981.0, 0.010559896517403968
982.0, 0.0075882643318992025
983.0, 0.006844098540133507
984.0, 0.01193926602740466
985.0, 0.009768428519306017
986.0, 0.0034428979950075376
987.0, 0.010163959622088012
988.0, 0.013801056232785838
989.0, 0.003372131854381661
990.0, 0.002959446681398241
991.0, 0.007331631203995104
992.0, 0.005112490249366004
993.0, 0.004780070836903711
994.0, 0.010380651021644238
995.0, 0.003648350021000828
996.0, 0.005220108475246627
997.0, 0.009244125966903806
998.0, 0.008042929134802196
999.0, 0.0020096256265932557
1000.0, 0.013594328689873128
1001.0, 0.01418247925319672
1002.0, 0.010784491328895241
1003.0, 0.013583995490380963
1004.0, 0.020762246180167556
1005.0, 0.003021068615363413
1006.0, 0.008128558566196537
1007.0, 0.010566264755003801
1008.0, 0.007954867673266312
1009.0, 0.004649856305244693
1010.0, 0.013999928557978825
1011.0, 0.008795350969450439
1012.0, 0.009390874414180645
1013.0, 0.015402059143902372
1014.0, 0.018668730517427352
1015.0, 0.0016434691497921542
1016.0, 0.019976066377863692
1017.0, 0.017790348596625517
1018.0, 0.012548566145324121
1019.0, 0.015231781828677831
1020.0, 0.027801490942628924
1021.0, 0.008119594672555134
1022.0, 0.014488450244906352
1023.0, 0.020041123181228866
1024.0, 0.017115131080421613
1025.0, 0.013570809589216595
1026.0, 0.025216127607593977
1027.0, 0.01492367858115188
1028.0, 0.010371747042691287
1029.0, 0.0158808126401193
1030.0, 0.02198752175621432
1031.0, 0.009560894333306535
1032.0, 0.01832844483794487
1033.0, 0.018715145364398257
1034.0, 0.011557348113740986
1035.0, 0.008773708605955636
1036.0, 0.021657267039271635
1037.0, 0.012360164341300058
1038.0, 0.014285370615083203
1039.0, 0.019518545297563014
1040.0, 0.016302816410882496
1041.0, 0.014349714111297287
1042.0, 0.023428896167393666
1043.0, 0.019684878834054183
1044.0, 0.015537780794726466
1045.0, 0.01993568966773715
1046.0, 0.023321153257719517
1047.0, 0.010905611803975868
1048.0, 0.01967206241758971
1049.0, 0.024957888694039254
1050.0, 0.017881246583445667
1051.0, 0.015665517883856207
1052.0, 0.03023481047289158
1053.0, 0.01966919528707991
1054.0, 0.012028090928957978
1055.0, 0.016025730653524844
1056.0, 0.023374490612663362
1057.0, 0.016531833992779594
1058.0, 0.02111350797628899
1059.0, 0.021688213763506922
1060.0, 0.0191320438506321
1061.0, 0.021756998917564538
1062.0, 0.03762334337279251
1063.0, 0.02922455132138707
1064.0, 0.03398308935540784
1065.0, 0.04714469052915364
1066.0, 0.05877805525582188
1067.0, 0.0766014736540508
1068.0, 0.1768916287830738
1069.0, 0.2358748180433725
1070.0, 0.23332505373952342
1071.0, 0.1778038605638021
1072.0, 0.10398582481640486
1073.0, 0.05617101360683917
1074.0, 0.043204675441217415
1075.0, 0.04042579796706349
1076.0, 0.03320463489397592
1077.0, 0.019742589237715453
1078.0, 0.03954553311711549
1079.0, 0.03310681096750724
1080.0, 0.032031141335740344
1081.0, 0.04026480284618164
1082.0, 0.04849881025056708
1083.0, 0.042550148519002934
1084.0, 0.07347837397771827
1085.0, 0.11362441687123706
1086.0, 0.23520993629560658
1087.0, 0.5110796965302561
1088.0, 0.9767180807871751
1089.0, 0.9514274848000083
1090.0, 0.6357559546366223
1091.0, 0.31451299299786695
1092.0, 0.13454104939820538
1093.0, 0.06494838688437751
1094.0, 0.05530542560831061
1095.0, 0.037674056211750566
1096.0, 0.025977789049872954
1097.0, 0.026724115467768615
1098.0, 0.03625424843386285
1099.0, 0.013077582329493156
1100.0, 0.02482163812374507
1101.0, 0.0275407252317105
1102.0, 0.018258777986107096
1103.0, 0.010539395699257622
1104.0, 0.035820820597871963
1105.0, 0.017938861893166874
1106.0, 0.018093038305178506
1107.0, 0.021532254415869794
1108.0, 0.016284260819291907
1109.0, 0.0006558698710445836
1110.0, 0.015367914488574922
1111.0, 0.011148078997855183
1112.0, 0.005457252233191683
1113.0, 0.006455934311266643
1114.0, 0.013477179322703287
1115.0, 0.004720182905642668
1116.0, 0.008631952666485703
1117.0, 0.013158335602489904
1118.0, 0.011897834656375714
1119.0, 0.008939070667288456
1120.0, 0.024174090656982592
1121.0, 0.012680234577016497
1122.0, 0.009845814453184429
1123.0, 0.01852156176545126
1124.0, 0.022758550313748835
1125.0, 0.003354569935054997
1126.0, 0.014878926747137658
1127.0, 0.024261201812832613
1128.0, 0.01332761142260877
1129.0, 0.009499653346319643
1130.0, 0.025102153689488586
1131.0, 0.0074741643520143675
1132.0, 0.005250839042095551
1133.0, 0.020513495576217636
1134.0, 0.019053988076405143
1135.0, 0.00643235052252791
1136.0, 0.01994894320613847
1137.0, 0.022384256108929208
1138.0, 0.007363918962544437
1139.0, 0.01544967604184865
1140.0, 0.022324969516127485
1141.0, 0.004702282679442221
1142.0, 0.0036220671393182823
1143.0, 0.02111528784751017
1144.0, 0.012487357282942516
1145.0, 0.011971279077874524
1146.0, 0.022929860709887236
1147.0, 0.014755212904803111
1148.0, 0.0043890721144860785
1149.0, 0.02035072599424461
1150.0, 0.01665885938875895
1151.0, 0.00843479251233727
1152.0, 0.0182032725601599
1153.0, 0.027775053116977554
1154.0, 0.008918332077648203
1155.0, 0.016384563164032327
1156.0, 0.02128862509201059
1157.0, 0.012751651570641866
1158.0, 0.004495246202586173
1159.0, 0.018788787118704096
1160.0, 0.015530972971467095
1161.0, 0.011908947372679423
1162.0, 0.016109463108487466
1163.0, 0.022922130498155294
1164.0, 0.0012681402143090385
1165.0, 0.01945504545982145
1166.0, 0.01706744375141969
1167.0, 0.007833518844691896
1168.0, 0.009149950206268919
1169.0, 0.02901514737030067
1170.0, 0.008791234870423202
1171.0, 0.008848595273341975
1172.0, 0.019254950333468742
1173.0, 0.018389493532291565
1174.0, 0.006620728131749751
1175.0, 0.027623097513788403
1176.0, 0.012740686879205987
1177.0, 0.007220327033806731
1178.0, 0.017213588734718604
1179.0, 0.021785816029340176
1180.0, 0.0018678482938190273
1181.0, 0.014680485628554505
1182.0, 0.02135493839327543
1183.0, 0.011629874585723447
1184.0, 0.01319029765672132
1185.0, 0.024928930639195532
1186.0, 0.01018463064346715
1187.0, 0.006325490931082073
1188.0, 0.015701800080780537
1189.0, 0.010639390564208522
1190.0, 0.0012560370484886966
1191.0, 0.004564042312696264
1192.0, 0.021851714777720813
1193.0, 0.006578677421188247
1194.0, 0.012419002974925278
1195.0, 0.014269321959289443
1196.0, 0.008548151294382461
1197.0, 0.008713138951320427
1198.0, 0.025008268466185278
1199.0, 0.009736921523345371
1200.0, 0.00919397379805391
1201.0, 0.019253097937962413
1202.0, 0.0229028301362708
1203.0, 0.002878706262021951
1204.0, 0.020673307004075138
1205.0, 0.024158201815857445
1206.0, 0.017485139545954487
1207.0, 0.01967424068688401
1208.0, 0.032065011933945835
1209.0, 0.006726182767179177
1210.0, 0.01201951632916621
1211.0, 0.022851562220980354
1212.0, 0.01812175234404053
1213.0, 0.012936246349114245
1214.0, 0.02857342175674156
1215.0, 0.022654419460016558
1216.0, 0.01650267140371442
1217.0, 0.025330820997173004
1218.0, 0.02188567275323114
1219.0, 0.010212341549234488
1220.0, 0.02165286040298801
1221.0, 0.028966045062492896
1222.0, 0.014675029034447774
1223.0, 0.022262955450834704
1224.0, 0.025123934326799574
1225.0, 0.011325033164439596
1226.0, 0.012016571387013057
1227.0, 0.03658494280642551
1228.0, 0.017464955334186627
1229.0, 0.012454856314040218
1230.0, 0.02446305947979473
1231.0, 0.03290591895784252
1232.0, 0.01271485865888377
1233.0, 0.023984809527689367
1234.0, 0.024553305004376778
1235.0, 0.014738721865204333
1236.0, 0.015753349396958886
1237.0, 0.035718525764847006
1238.0, 0.007643045713793428
1239.0, 0.016289612207081586
1240.0, 0.03158231274004793
1241.0, 0.024250003227295317
1242.0, 0.010094531355164454
1243.0, 0.023114382339985307
1244.0, 0.028002130680497422
1245.0, 0.013799309947629637
1246.0, 0.027531040316805835
1247.0, 0.02860742035666459
1248.0, 0.013298852116053878
1249.0, 0.01733977387318232
1250.0, 0.035269103514489995
1251.0, 0.012833002519278342
1252.0, 0.01813438921938419
1253.0, 0.026921102388167355
1254.0, 0.020614632621595075
1255.0, 0.010861515485895187
1256.0, 0.040889511338516954
1257.0, 0.023058482609194624
1258.0, 0.015201522513858208
1259.0, 0.025476745906709914
1260.0, 0.03568253017301962
1261.0, 0.01445036134291644
1262.0, 0.012509216888480817
1263.0, 0.028851476958978193
1264.0, 0.019765128601157558
1265.0, 0.013756131170321356
1266.0, 0.025908473587243762
1267.0, 0.018464528469810032
1268.0, 0.009996637883170385
1269.0, 0.029971854346429093
1270.0, 0.02439277223453461
1271.0, 0.013766141121289188
1272.0, 0.021599701181334155
1273.0, 0.030210961778856855
1274.0, 0.00579234509004811
1275.0, 0.028650897056114556
1276.0, 0.02887054124660244
1277.0, 0.011961688752755193
1278.0, 0.009075906537889289
1279.0, 0.04071251008989369
1280.0, 0.016349624787038393
1281.0, 0.014853528098232439
1282.0, 0.025097897998275567
1283.0, 0.023551409185748995
1284.0, 0.009665144184806226
1285.0, 0.030969999778913453
1286.0, 0.019681773701080985
1287.0, 0.006223902670612859
1288.0, 0.014191226695903187
1289.0, 0.02220897000078938
1290.0, 0.014291861137238552
1291.0, 0.015931921871474214
1292.0, 0.032353823862076074
1293.0, 0.012782380157404695
1294.0, 0.014611567114863454
1295.0, 0.026028588250365404
1296.0, 0.021721221303527685
1297.0, 0.0016250664077588333
1298.0, 0.027574949118555153
1299.0, 0.0142572426227947
1300.0, 0.009182073464579762
1301.0, 0.024704904294603203
1302.0, 0.03854343084253167
1303.0, 0.003926274279356849
1304.0, 0.021941439770675808
1305.0, 0.031790580996545276
1306.0, 0.016633155422280162
1307.0, 0.00916141372088624
1308.0, 0.024295591616301602
1309.0, 0.03263677836890539
1310.0, 0.006606404015458773
1311.0, 0.02230525287688821
1312.0, 0.02203047191581947
1313.0, 0.014685908003390875
1314.0, 0.0179009638462529
1315.0, 0.0334626469896642
1316.0, 0.007958659312590294
1317.0, 0.022408423013221504
1318.0, 0.029300539784251622
1319.0, 0.018984807613336888
1320.0, 0.012445864398703918
1321.0, 0.03604184513419518
1322.0, 0.02671286908595935
1323.0, 0.016911794373114925
1324.0, 0.030678374532343563
1325.0, 0.028639264625326646
1326.0, 0.015154317020183062
1327.0, 0.021763241910946963
1328.0, 0.03550130217825987
1329.0, 0.013891355918095729
1330.0, 0.025895204927096103
1331.0, 0.03146492153304352
1332.0, 0.018637201195789502
1333.0, 0.008391227374220635
1334.0, 0.04799648739318177
1335.0, 0.01914076053598892
1336.0, 0.018374453755285403
1337.0, 0.03273140053213787
1338.0, 0.029378330696393794
1339.0, 0.00871105107043669
1340.0, 0.03389963778337994
1341.0, 0.03481332224439099
1342.0, 0.012026315464293762
1343.0, 0.027156062262205134
1344.0, 0.0378316455925518
1345.0, 0.02217219233457853
1346.0, 0.017723442878092546
1347.0, 0.038830033485918763
1348.0, 0.012016258539967836
1349.0, 0.016070012255798096
1350.0, 0.027805519071875555
1351.0, 0.02315125330965013
1352.0, 0.006644163520015936
1353.0, 0.03801279808804562
1354.0, 0.020574695708419338
1355.0, 0.009543365372947787
1356.0, 0.023940849534956354
1357.0, 0.03535399726729674
1358.0, 0.019649889264001286
1359.0, 0.018256267743510142
1360.0, 0.04169273947606737
1361.0, 0.019088422062745646
1362.0, 0.02553023489608172
1363.0, 0.038643384375500175
1364.0, 0.028784853243813847
1365.0, 0.011116053040173574
1366.0, 0.04939122594644509
1367.0, 0.02712131417543006
1368.0, 0.00752995224851824
1369.0, 0.01725614132393011
1370.0, 0.02844898187052784
1371.0, 0.0016085268758808118
1372.0, 0.007714670429134608
1373.0, 0.036354627897250955
1374.0, 0.014996568406103411
1375.0, 0.01789629199467061
1376.0, 0.03155502692049874
1377.0, 0.019583556258740954
1378.0, 0.002433131594040225
1379.0, 0.02820713994938556
1380.0, 0.01680122473545073
1381.0, 0.004737369882569463
1382, 0.0
1383, 0.0
1384, 0.0
1385, 0.0
1386, 0.0
1387, 0.0
1388, 0.0
1389, 0.0
1390, 0.0
1391, 0.0
1392, 0.0
1393, 0.0
1394, 0.0
1395, 0.0
1396, 0.0
1397, 0.0
1398, 0.0
1399, 0.0
1400, 0.0
1401, 0.0
1402, 0.0
1403, 0.0
1404, 0.0
1405, 0.0
1406, 0.0
1407, 0.0
1408, 0.0
1409, 0.0
1410, 0.0
1411, 0.0
1412, 0.0
1413, 0.0
1414, 0.0
1415, 0.0
1416, 0.0
1417, 0.0
1418, 0.0
1419, 0.0
1420, 0.0
1421, 0.0
1422, 0.0
1423, 0.0
1424, 0.0
1425, 0.0
1426, 0.0
1427, 0.0
1428, 0.0
1429, 0.0
1430, 0.0
1431, 0.0
1432, 0.0
1433, 0.0
1434, 0.0
1435, 0.0
1436, 0.0
1437, 0.0
1438, 0.0
1439, 0.0
1440, 0.0
1441, 0.0
1442, 0.0
1443, 0.0
1444, 0.0
1445, 0.0
1446, 0.0
1447, 0.0
1448, 0.0
1449, 0.0
1450, 0.0
1451, 0.0
1452, 0.0
1453, 0.0
1454, 0.0
1455, 0.0
1456, 0.0
1457, 0.0
1458, 0.0
1459, 0.0
1460, 0.0
1461, 0.0
1462, 0.0
1463, 0.0
1464, 0.0
1465, 0.0
1466, 0.0
1467, 0.0
1468, 0.0
1469, 0.0
1470, 0.0
1471, 0.0
1472, 0.0
1473, 0.0
1474, 0.0
1475, 0.0
1476, 0.0
1477, 0.0
1478, 0.0
1479, 0.0
1480, 0.0
1481, 0.0
1482, 0.0
1483, 0.0
1484, 0.0
1485, 0.0
1486, 0.0
1487, 0.0
1488, 0.0
1489, 0.0
1490, 0.0
1491, 0.0
1492, 0.0
1493, 0.0
1494, 0.0
1495, 0.0
1496, 0.0
1497, 0.0
1498, 0.0
1499, 0.0
1500, 0.0
1501, 0.0
1502, 0.0
1503, 0.0
1504, 0.0
1505, 0.0
1506, 0.0
1507, 0.0
1508, 0.0
1509, 0.0
1510, 0.0
1511, 0.0
1512, 0.0
1513, 0.0
1514, 0.0
1515, 0.0
1516, 0.0
1517, 0.0
1518, 0.0
1519, 0.0
1520, 0.0
1521, 0.0
1522, 0.0
1523, 0.0
1524, 0.0
1525, 0.0
1526, 0.0
1527, 0.0
1528, 0.0
1529, 0.0
1530, 0.0
1531, 0.0
1532, 0.0
1533, 0.0
1534, 0.0
1535, 0.0
1536, 0.0
1537, 0.0
1538, 0.0
1539, 0.0
1540, 0.0
1541, 0.0
1542, 0.0
1543, 0.0
1544, 0.0
1545, 0.0
1546, 0.0
1547, 0.0
1548, 0.0
1549, 0.0
1550, 0.0
1551, 0.0
1552, 0.0
1553, 0.0
1554, 0.0
1555, 0.0
1556, 0.0
1557, 0.0
1558, 0.0
1559, 0.0
1560, 0.0
1561, 0.0
1562, 0.0
1563, 0.0
1564, 0.0
1565, 0.0
1566, 0.0
1567, 0.0
1568, 0.0
1569, 0.0
1570, 0.0
1571, 0.0
1572, 0.0
1573, 0.0
1574, 0.0
1575, 0.0
1576, 0.0
1577, 0.0
1578, 0.0
1579, 0.0
1580, 0.0
1581, 0.0
1582, 0.0
1583, 0.0
1584, 0.0
1585, 0.0
1586, 0.0
1587, 0.0
1588, 0.0
1589, 0.0
1590, 0.0
1591, 0.0
1592, 0.0
1593, 0.0
1594, 0.0
1595, 0.0
1596, 0.0
1597, 0.0
1598, 0.0
1599, 0.0
