30, 0.0
31, 0.0
32, 0.0
33, 0.0
34, 0.0
35, 0.0
36, 0.0
37, 0.0
38, 0.0
39, 0.0
40, 0.0
41, 0.0
42, 0.0
43, 0.0
44, 0.0
45, 0.0
46, 0.0
47, 0.0
48, 0.0
49, 0.0
50, 0.0
51, 0.0
52, 0.0
53, 0.0
54, 0.0
55.0, 2.9820301951809973e-05
56.0, 0.0009068880064168367
57.0, 0.002535236433332763
58.0, 0.004383058390942816
59.0, 0.005539564514386909
60.0, 0.006418500491309604
61.0, 0.008181762639860894
62.0, 0.010962942592624553
63.0, 0.008895205608867985
64.0, 0.006220356616480728
65.0, 0.003357664926997246
66.0, 0.0009762650485921492
67.0, 0.0008757131729018075
68.0, 0.0012577136900269066
69.0, 0.001646131717728348
70.0, 0.000738653423536173
71.0, 0.0009162571556145267
72.0, 0.0016196912367624622
73.0, 0.0021581348913042053
74.0, 0.00265753712800855
75.0, 0.0044713363937927955
76.0, 0.007832426474237906
77.0, 0.011142845252045142
78.0, 0.015720744129494656
79.0, 0.021901470339804625
80.0, 0.030691632999398456
81.0, 0.038763426660741764
82.0, 0.0482285488261647
83.0, 0.059214214342072954
84.0, 0.06903766754408547
85.0, 0.08100555698062242
86.0, 0.09523570353753215
87.0, 0.11257394076030794
88.0, 0.12808914922682096
89.0, 0.14297537085714804
90.0, 0.15723314459963675
91.0, 0.1697836888359236
92.0, 0.1840770863889268
93.0, 0.19720139168191467
94.0, 0.20640847486761094
95.0, 0.21905431664827818
96.0, 0.22786199010234187
97.0, 0.233343360407879
98.0, 0.24026339041018968
99.0, 0.24900216779774903
100.0, 0.25618278903194
101.0, 0.25944216856612884
102.0, 0.2651200702008797
103.0, 0.2712914670096065
104.0, 0.2784460371974619
105.0, 0.288705198192056
106.0, 0.29878314837211445
107.0, 0.3144144419417337
108.0, 0.3386666428368057
109.0, 0.37810193876612597
110.0, 0.42960656672642994
111.0, 0.4961871014880097
112.0, 0.5887475879169003
113.0, 0.6729263925841719
114.0, 0.7539248065993847
115.0, 0.8321637923390537
116.0, 0.8941514295019605
117.0, 0.9365076855312723
118.0, 0.9650044544343526
119.0, 0.9833023501602404
120.0, 0.9946895163958412
121.0, 0.9863414754772636
122.0, 0.955792915175579
123.0, 0.9009702146559155
124.0, 0.8180753990694261
125.0, 0.7339937532280817
126.0, 0.6708012647766249
127.0, 0.6303491123196256
128.0, 0.6010370614872133
129.0, 0.5846988130123698
130.0, 0.5948540036078624
131.0, 0.6132642873472407
132.0, 0.6402937716889663
133.0, 0.6771970697085969
134.0, 0.6865149119642978
135.0, 0.6975109474447586
136.0, 0.7049353989071715
137.0, 0.6959919926082284
138.0, 0.7052844666654924
139.0, 0.7193055882990443
140.0, 0.7352977788995196
141.0, 0.7596777019979434
142.0, 0.7707837598417052
143.0, 0.777648202428781
144.0, 0.7896082123229674
145.0, 0.8005603702781481
146.0, 0.8056900773164481
147.0, 0.802953249805672
148.0, 0.7836309235462688
149.0, 0.7614444500713912
150.0, 0.7365416458190247
151.0, 0.7085741140330606
152.0, 0.6539593433118421
153.0, 0.5822748981790083
154.0, 0.4985358627313271
155.0, 0.4115250038709117
156.0, 0.34805521672824097
157.0, 0.2943617472010538
158.0, 0.2480313988052431
159.0, 0.22057947109417572
160.0, 0.1994099704211467
161.0, 0.18275521260147656
162.0, 0.16975941270676992
163.0, 0.16426190786938727
164.0, 0.15906589070822
165.0, 0.15395943602639306
166.0, 0.15154438372352363
167.0, 0.1496628224891629
168.0, 0.14678150019584307
169.0, 0.14203114782949236
170.0, 0.14005564023006778
171.0, 0.13840902994987736
172.0, 0.13650276012246776
173.0, 0.13312785016585674
174.0, 0.1332856266486927
175.0, 0.13185437075897377
176.0, 0.12828428962386446
177.0, 0.127016522605466
178.0, 0.1256208620121474
179.0, 0.12369778593423832
180.0, 0.12083268604447019
181.0, 0.11915619288379843
182.0, 0.11821224364405498
183.0, 0.11771257997937172
184.0, 0.11699003842764631
185.0, 0.11565850690598352
186.0, 0.11469497809018267
187.0, 0.11426647352219596
188.0, 0.11208036646226693
189.0, 0.11025694788185818
190.0, 0.10878904553523308
191.0, 0.10775016475461108
192.0, 0.10515353884042614
193.0, 0.10431128046299776
194.0, 0.104617788336471
195.0, 0.10287614792546365
196.0, 0.10277430401701731
197.0, 0.10117925656939253
198.0, 0.09711743159114057
199.0, 0.09982441041296143
200.0, 0.10058664067478632
201.0, 0.0995594195469315
202.0, 0.09653673111707205
203.0, 0.09793728389259194
204.0, 0.09813256177942348
205.0, 0.09701044816710935
206.0, 0.09673232207657603
207.0, 0.09643077840969312
208.0, 0.09574914345907416
209.0, 0.09439773874195405
210.0, 0.0890004497166957
211.0, 0.08635741145450482
212.0, 0.08523872160794518
213.0, 0.08427782583549641
214.0, 0.08147631295319395
215.0, 0.07983646914337658
216.0, 0.0794327194943791
217.0, 0.07914369625988495
218.0, 0.0779112111131901
219.0, 0.07687209004597331
220.0, 0.07649624965943588
221.0, 0.07585823634950536
222.0, 0.0750591225625742
223.0, 0.07420035983688841
224.0, 0.07340079573266123
225.0, 0.07255747277728826
226.0, 0.0716824439362424
227.0, 0.07084204557357757
228.0, 0.0702893169101734
229.0, 0.0701923154913706
230.0, 0.07024737003992218
231.0, 0.0702009045386499
232.0, 0.06742676711040266
233.0, 0.06651304368175914
234.0, 0.06657212397785493
235.0, 0.06684984658029672
236.0, 0.06360097326570724
237.0, 0.06204982867168082
238.0, 0.06161162724456731
239.0, 0.05964324910710339
240.0, 0.05917838832274986
241.0, 0.05965065429151807
242.0, 0.06046802979254365
243.0, 0.056973985384466894
244.0, 0.054638250725463515
245.0, 0.05366560703170785
246.0, 0.0543999847580938
247.0, 0.051639607644230916
248.0, 0.05071106542888604
249.0, 0.05055391153690103
250.0, 0.04885830707965835
251.0, 0.04934292074062053
252.0, 0.04893047268653288
253.0, 0.047707679564294746
254.0, 0.049292186732302685
255.0, 0.0484269833536573
256.0, 0.04741279993980119
257.0, 0.04734227646688716
258.0, 0.04750188299106033
259.0, 0.047534220271903044
260.0, 0.04748735495825782
261.0, 0.0474074181621623
262.0, 0.04708975369102577
263.0, 0.046705559643144656
264.0, 0.04613254394128423
265.0, 0.0449224253688615
266.0, 0.04427811741158757
267.0, 0.04412557032146586
268.0, 0.04430924392439605
269.0, 0.04349881738505996
270.0, 0.04219410230005854
271.0, 0.04110230596812363
272.0, 0.04071594425506039
273.0, 0.03848978018552626
274.0, 0.037577808791843054
275.0, 0.03694909666686134
276.0, 0.03496942959834348
277.0, 0.03298403864934018
278.0, 0.032104421426047317
279.0, 0.03185120835129299
280.0, 0.030021265035703223
281.0, 0.02776093971528439
282.0, 0.026796118066742338
283.0, 0.02738805390679781
284.0, 0.02578339280483666
285.0, 0.02620818929549914
286.0, 0.02617851942044422
287.0, 0.02385775112693967
288.0, 0.02306564163667086
289.0, 0.02365622526034219
290.0, 0.02397143304858973
291.0, 0.021289382921844742
292.0, 0.020150605874187898
293.0, 0.02051112118027717
294.0, 0.021232716872081343
295.0, 0.01842120700446918
296.0, 0.018458796979792996
297.0, 0.0180728283400678
298.0, 0.016527139620806316
299.0, 0.015999853004072754
300.0, 0.016901486327678482
301.0, 0.017252332776544647
302.0, 0.015822371703249485
303.0, 0.01566962784526759
304.0, 0.01474210231021264
305.0, 0.01374795107637315
306.0, 0.013599015748242078
307.0, 0.014014478729275932
308.0, 0.014472673151373601
309.0, 0.014423013692463812
310.0, 0.012483163081303284
311.0, 0.01380916227146551
312.0, 0.013645940405841533
313.0, 0.011687964510522123
314.0, 0.011751867289102626
315.0, 0.010618530859264973
316.0, 0.010583266714415894
317.0, 0.012457422588333012
318.0, 0.012594009085883763
319.0, 0.011707082387316263
320.0, 0.010701174920214131
321.0, 0.010303580346275956
322.0, 0.009393848603475006
323.0, 0.009491070109732621
324.0, 0.010198915189259295
325.0, 0.01093239165700176
326.0, 0.009484867028572493
327.0, 0.00836678500095364
328.0, 0.007966902641207637
329.0, 0.008738898912290715
330.0, 0.007381727583085186
331.0, 0.006625288489048009
332.0, 0.006949958842347652
333.0, 0.007524084583946752
334.0, 0.00850466426704798
335.0, 0.008497635168716896
336.0, 0.007119863218957761
337.0, 0.007883554773097068
338.0, 0.008397124755673653
339.0, 0.008665623483936895
340.0, 0.00867478322499421
341.0, 0.008996065471503095
342.0, 0.008763720745812267
343.0, 0.008589988099871404
344.0, 0.009293964034592641
345.0, 0.00949345359847754
346.0, 0.009719707876289247
347.0, 0.010035802563531659
348.0, 0.010508434082303904
349.0, 0.0107706568666174
350.0, 0.010373938023168203
351.0, 0.009840204931083542
352.0, 0.01141416563100999
353.0, 0.011071448223565138
354.0, 0.010688439267963167
355.0, 0.010872082476196218
356.0, 0.012030211898346153
357.0, 0.012174756836299722
358.0, 0.01205675793765207
359.0, 0.01204293539015779
360.0, 0.012411932820805195
361.0, 0.011375207135397069
362.0, 0.010359169594109065
363.0, 0.010446679893441243
364.0, 0.011124486612443902
365.0, 0.00916750206653009
366.0, 0.00735674913886354
367.0, 0.009119993692600315
368.0, 0.006653038477474799
369.0, 0.006171535673346391
370.0, 0.00663288943395628
371.0, 0.005578072941657391
372.0, 0.005210602209563525
373.0, 0.005338517785948457
374.0, 0.005622715129662054
375.0, 0.005179944975784703
376.0, 0.007020287380367706
377.0, 0.008422848402588659
378.0, 0.008990158121800127
379.0, 0.009430074460309532
380.0, 0.010883089638230403
381.0, 0.011479611067260502
382.0, 0.011171656737347196
383.0, 0.013935773856593748
384.0, 0.01611760196414935
385.0, 0.017366816355647886
386.0, 0.01759973002252595
387.0, 0.018386861814651153
388.0, 0.01872326873311547
389.0, 0.018854224852364283
390.0, 0.018887509865732385
391.0, 0.017273137555332392
392.0, 0.017079737923828983
393.0, 0.016669404166155914
394.0, 0.014499237938136931
395.0, 0.013804937721572753
396.0, 0.01260966928557565
397.0, 0.010927394413857735
398.0, 0.008775022383140972
399.0, 0.008595680847906958
400.0, 0.005663070411463395
401.0, 0.0024442267789820853
402.0, 0.0036936784320951922
403.0, 0.0012605274772464336
404.0, 0.00029432798989906483
405.0, 0.000505971945027481
406.0, 0.00010793683384823242
407.0, 0.0011511854850797607
408.0, 0.002216593138884185
409.0, 0.0030794359794265682
410.0, 0.0037095860848494794
411.0, 0.00454251867742444
412.0, 0.004843025797130111
413.0, 0.004738781911331411
414.0, 0.005387801440920142
415.0, 0.006609475944784003
416.0, 0.006243080940095812
417.0, 0.004506336682859871
418.0, 0.0059748939114501265
419.0, 0.0067163997105289955
420.0, 0.006885414916641421
421.0, 0.006614662863214167
422.0, 0.006557244744368369
423.0, 0.006599316957057487
424.0, 0.006452570423612431
425.0, 0.006056951145973528
426.0, 0.006179070523929761
427.0, 0.005691723786158268
428.0, 0.0050419532051219195
429.0, 0.004500548777644551
430.0, 0.004519262634756241
431.0, 0.005422699237293425
432.0, 0.005611625024334731
433.0, 0.004153345512284297
434.0, 0.0043289731030486
435.0, 0.00212039164683014
436.0, 0.000620114663601148
437.0, 0.002131657490979862
438.0, 0.001775430110837411
439.0, 0.0027504520645132164
440.0, 0.004837375434308446
441.0, 0.007870993347065624
442.0, 0.012368162815157329
443.0, 0.01684072624131512
444.0, 0.020488042974799375
445.0, 0.02246231314438596
446.0, 0.028417434653320202
447.0, 0.03281847725832806
448.0, 0.03618733521639561
449.0, 0.039171409376796314
450.0, 0.04060686066145652
451.0, 0.04014042480756495
452.0, 0.03857458916883625
453.0, 0.03690088147899194
454.0, 0.03397508102418994
455.0, 0.030800540458018333
456.0, 0.027237361327789013
457.0, 0.023018799420690548
458.0, 0.020301146220471723
459.0, 0.01827818281763022
460.0, 0.01659587255001233
461.0, 0.014803596023786173
462.0, 0.013447377245843944
463.0, 0.012304504114316843
464.0, 0.01134369172283547
465.0, 0.010546237136685649
466.0, 0.011784285834617351
467.0, 0.011328814154202366
468.0, 0.010535811978030597
469.0, 0.012008480217562583
470.0, 0.01343674610959108
471.0, 0.01346967284724689
472.0, 0.013289292159187944
473.0, 0.015020335621697533
474.0, 0.01498792944047672
475.0, 0.015616479242997432
476.0, 0.01678357726997512
477.0, 0.01800672515034083
478.0, 0.020058780729155002
479.0, 0.02237465862102234
480.0, 0.025135634604011834
481.0, 0.028735697186491015
482.0, 0.03203034692459061
483.0, 0.0347206527868304
484.0, 0.03753051351235184
485.0, 0.04168481137984903
486.0, 0.04419482227239204
487.0, 0.04955120578013287
488.0, 0.05583049832470944
489.0, 0.059572897201882045
490.0, 0.06712645362828557
491.0, 0.07558289206154567
492.0, 0.08453666683412477
493.0, 0.09366265346492167
494.0, 0.10464459994138063
495.0, 0.11589297466241448
496.0, 0.12844210437028505
497.0, 0.14388850336340397
498.0, 0.16071621936636285
499.0, 0.17845982466155297
500.0, 0.1989062775211585
501.0, 0.22441648383921267
502.0, 0.2517506083703057
503.0, 0.27991521781794565
504.0, 0.31088041146736006
505.0, 0.3469982719041039
506.0, 0.3804347815269804
507.0, 0.42042196061397
508.0, 0.46015192755276124
509.0, 0.492378921785924
510.0, 0.5306179774826444
511.0, 0.5594118226955151
512.0, 0.5794607077974685
513.0, 0.5914944524175225
514.0, 0.5966887607600875
515.0, 0.5837099495150965
516.0, 0.5630488654102237
517.0, 0.5425381005781483
518.0, 0.5033815622230409
519.0, 0.47075033183108433
520.0, 0.4366027740415423
521.0, 0.3954437216265521
522.0, 0.3499994813326962
523.0, 0.31666263409562695
524.0, 0.2874051748258592
525.0, 0.25776500274707326
526.0, 0.2305200372285363
527.0, 0.2062967501311791
528.0, 0.18525125082026753
529.0, 0.16774395285623422
530.0, 0.15560041348272388
531.0, 0.14159684138199988
532.0, 0.1291333825170041
533.0, 0.11891040437401879
534.0, 0.10693122077508815
535.0, 0.09734803392647531
536.0, 0.08957583632083745
537.0, 0.08324328734523402
538.0, 0.07750866486547643
539.0, 0.07143583872356905
540.0, 0.06640389203665702
541.0, 0.06260712940008693
542.0, 0.05953556334661975
543.0, 0.055644376846935656
544.0, 0.051916483490392004
545.0, 0.048603411517271926
546.0, 0.045885283659882294
547.0, 0.043765303671744714
548.0, 0.041454600883803816
549.0, 0.03947150425219574
550.0, 0.039046167865880776
551.0, 0.03836094475121351
552.0, 0.03699616275414687
553.0, 0.03556791133326103
554.0, 0.035047510599635755
555.0, 0.0348842978295204
556.0, 0.03473643168187608
557.0, 0.03459038973502431
558.0, 0.034446617885338954
559.0, 0.03491045523289769
560.0, 0.03453866898518064
561.0, 0.03425741943852964
562.0, 0.03476981134116923
563.0, 0.034081946414720336
564.0, 0.03511994936709706
565.0, 0.03626213143825417
566.0, 0.03653667687502434
567.0, 0.03639650158658177
568.0, 0.03759561487357872
569.0, 0.038354342209175725
570.0, 0.03837819323404726
571.0, 0.04069345493030214
572.0, 0.04252727475945729
573.0, 0.044650366457528325
574.0, 0.04688099002171925
575.0, 0.04758788623872656
576.0, 0.05050417000181933
577.0, 0.053089200511748154
578.0, 0.05537385794249283
579.0, 0.058792014216116274
580.0, 0.062376060453268385
581.0, 0.06613857413705534
582.0, 0.06977169167522766
583.0, 0.07273621556971428
584.0, 0.07469601458090329
585.0, 0.07561089850968611
586.0, 0.0753516232911167
587.0, 0.07379690548325414
588.0, 0.07271142118501148
589.0, 0.07093935984583372
590.0, 0.06798044435625479
591.0, 0.06361000052060715
592.0, 0.06049642730760947
593.0, 0.054589418320432306
594.0, 0.04855990076507494
595.0, 0.04365678112437796
596.0, 0.03836585134539923
597.0, 0.03554547967214796
598.0, 0.032514234412271505
599.0, 0.028640763743062087
600.0, 0.0251722939140171
601.0, 0.022502235662702832
602.0, 0.019979884016914563
603.0, 0.01754256346870053
604.0, 0.015372994982278175
605.0, 0.014152735103581107
606.0, 0.012879363460535947
607.0, 0.011482995354200342
608.0, 0.010024040313184098
609.0, 0.008226644266460493
610.0, 0.007163131240594721
611.0, 0.006864377135945577
612.0, 0.0072191582288026555
613.0, 0.005878257610858953
614.0, 0.005567963127764019
615.0, 0.00550213586579551
616.0, 0.005232377499841295
617.0, 0.005068041875362567
618.0, 0.004863260890134934
619.0, 0.004817508717490525
620.0, 0.004873092588246466
621.0, 0.0045018319225235545
622.0, 0.004400022591828508
623.0, 0.004246005397378616
624.0, 0.0040307284326274615
625.0, 0.003883563468289916
626.0, 0.0035909385560698947
627.0, 0.0032431215393952436
628.0, 0.0029896984892484216
629.0, 0.003014606277034279
630.0, 0.004199680295293727
631.0, 0.0033494477843777955
632.0, 0.0025625265445128444
633.0, 0.00348478827987706
634.0, 0.005040657374882017
635.0, 0.004640454103545427
636.0, 0.004100704529993334
637.0, 0.003924761444103745
638.0, 0.0023396169336751685
639.0, 0.003296742111239571
640.0, 0.003453499012133084
641.0, 0.0027049708841140334
642.0, 0.0029667363400399374
643.0, 0.003957854935901903
644.0, 0.004022731883211327
645.0, 0.003849641177636611
646.0, 0.004685268998624641
647.0, 0.004519623961511002
648.0, 0.004436661350763152
649.0, 0.004155213755702383
650.0, 0.0035005442093597665
651.0, 0.003268087483220593
652.0, 0.003568257429766537
653.0, 0.003722141965447022
654.0, 0.0033894406741074436
655.0, 0.0024034258077872336
656.0, 0.000825048557719649
657.0, 0.0010066820884061523
658.0, 0.0020732090340025953
659.0, 0.0008384346347299799
660.0, 0.0005619275225556692
661.0, 0.0004550571204151874
662.0, 0.00041565055558864225
663.0, 0.00039422274569845715
664.0, 0.0003131011936855251
665.0, 0.0004519255765337302
666.0, 0.0005060139216781956
667.0, 0.00039354474380548895
668.0, 0.0010097080766422826
669.0, 0.0010106140612858457
670.0, 0.0012433045811610275
671.0, 0.001638768936852271
672.0, 0.001105575530307975
673.0, 0.0003866092614358982
674.0, 0.00011019391108819529
675.0, 0.0001140095793223731
676.0, 7.836706756750831e-06
677.0, 0.0010546819894362664
678.0, 0.0010233247910995174
679.0, 0.000887517135627018
680.0, 0.001418705999704172
681.0, 0.0019836262012515767
682.0, 0.001869256325085552
683.0, 0.002011741423986311
684.0, 0.0024784359304796167
685.0, 0.002128787853926612
686.0, 0.0009397263317585136
687.0, 0.0009016245198564212
688.0, 0.001332951422013675
689.0, 0.0004901725785847
690.0, 0.0006207169466240812
691.0, 0.0007306216472562486
692.0, 0.0009337961818018867
693.0, 0.0012485962926953582
694.0, 0.0004720774515664256
695.0, 0.000667577555025713
696.0, 0.0007033272734714893
697.0, 0.00028384528505688957
698.0, 4.729028937602969e-05
699.0, 0.0008867611020146599
700.0, 0.0010568566955631799
701.0, 0.0009184353363973605
702.0, 0.0015394295268113681
703.0, 0.0017810438277072282
704.0, 0.0014029292221980475
705.0, 0.0008402392214447393
706.0, 0.000443743365207428
707.0, 9.476380650306606e-05
708.0, 4.503146894878798e-05
709.0, 5.2206934310554685e-05
710.0, 5.7034876093756884e-05
711.0, 0.00015071555967619525
712.0, 0.0006632531175330916
713.0, 0.0005781448523846671
714.0, 0.0003971691714872123
715.0, 0.0009645382821306577
716.0, 0.00037879790759449034
717.0, 0.0010459288869887112
718.0, 0.0018607468071690965
719.0, 0.0020882626777683332
720.0, 0.0017114373678341998
721.0, 0.001900779861159476
722.0, 0.002153860786428429
723.0, 0.0023775803634381435
724.0, 0.0026684125627001246
725.0, 0.0029094244626735066
726.0, 0.0023398304440172945
727.0, 0.001616849526165351
728.0, 0.0015109430538786067
729.0, 0.002736676178999995
730.0, 0.0015104081974919707
731.0, 0.001070409990112829
732.0, 0.00211535240701736
733.0, 0.0018429692273684974
734.0, 0.0010111111329740596
735.0, 0.00046638142998949614
736.0, 0.0004525997087581274
737.0, 0.0010982096735109763
738.0, 0.0006748042231984682
739.0, 0.0004180302852090609
740.0, 0.0005629287924638635
741.0, 0.001085978595133707
742.0, 0.0009751753663645836
743.0, 0.00037482206812566215
744.0, 0.00030203102256874507
745.0, 0.0005530878887238962
746.0, 0.00016808688275223342
747.0, 9.223001948541959e-05
748.0, 0.00017339239464308904
749.0, 0.0003076219326980968
750.0, 0.0004476020847056258
751.0, 0.000991831574485752
752.0, 0.0011111305599392628
753.0, 0.0015154712907218463
754.0, 0.0020450815692436308
755.0, 0.0015802565031927036
756.0, 0.002174939920758798
757.0, 0.002624153628512374
758.0, 0.002918193097700218
759.0, 0.0031592136046196756
760.0, 0.00308127992217284
761.0, 0.003218971509356594
762.0, 0.0035911927330398857
763.0, 0.003982230247298181
764.0, 0.003637045093202629
765.0, 0.003719718115163198
766.0, 0.004207174838444804
767.0, 0.004453083862629773
768.0, 0.0037732690231616715
769.0, 0.005409831200501425
770.0, 0.00542669213083764
771.0, 0.005666858622832047
772.0, 0.006597617091606553
773.0, 0.006319142797397278
774.0, 0.006477577810227214
775.0, 0.007021189949646253
776.0, 0.007139882565719311
777.0, 0.005840120152787252
778.0, 0.006694389293436623
779.0, 0.007366740542279345
780.0, 0.007639527754039589
781.0, 0.007462767713500658
782.0, 0.007092096657278733
783.0, 0.007634711638544104
784.0, 0.007586531604932923
785.0, 0.007186202053348357
786.0, 0.0071476946052985105
787.0, 0.007880699671031747
788.0, 0.00788069326078884
789.0, 0.00797165393340225
790.0, 0.008353109343444114
791.0, 0.007961356490725895
792.0, 0.00862996085904699
793.0, 0.008824018778293623
794.0, 0.008614320017695073
795.0, 0.00848602156609213
796.0, 0.009630812316591002
797.0, 0.010857078652919128
798.0, 0.010891966939539128
799.0, 0.009922211704460147
800.0, 0.011020925639961798
801.0, 0.011151611543802864
802.0, 0.011879687629808702
803.0, 0.01268958842605812
804.0, 0.012709357921819433
805.0, 0.012489902928717813
806.0, 0.014420654585432175
807.0, 0.015684491429242792
808.0, 0.015876873939543408
809.0, 0.017686715845374283
810.0, 0.019418544603174756
811.0, 0.02042587187281241
812.0, 0.021522147201029844
813.0, 0.02352052466623672
814.0, 0.02510347282370162
815.0, 0.02771855684845242
816.0, 0.030084308424519986
817.0, 0.03198492170423973
818.0, 0.03403339569884917
819.0, 0.03671299678573274
820.0, 0.04007225721808712
821.0, 0.044089304393872084
822.0, 0.04852772489532006
823.0, 0.052039731546064213
824.0, 0.05473604082772387
825.0, 0.05645228493744995
826.0, 0.0573434482680651
827.0, 0.05780456407864721
828.0, 0.05623905890000435
829.0, 0.054318717385264954
830.0, 0.051619126142266755
831.0, 0.048150073637790634
832.0, 0.04510536705113652
833.0, 0.0423102907141108
834.0, 0.039637735518345256
835.0, 0.03692139244555382
836.0, 0.0340501539748252
837.0, 0.032670143374135686
838.0, 0.03217429460441892
839.0, 0.03205832606554091
840.0, 0.032229840872360596
841.0, 0.03306204982095925
842.0, 0.032575415481919924
843.0, 0.0330121852640809
844.0, 0.033108724476492664
845.0, 0.0315023733911953
846.0, 0.027559144665441855
847.0, 0.026180973314878637
848.0, 0.024050955288262805
849.0, 0.020984553863263207
850.0, 0.01823838573118091
851.0, 0.01625200909257822
852.0, 0.013609508885532435
853.0, 0.011589590176430993
854.0, 0.010639040362006554
855.0, 0.009651046200599794
856.0, 0.007372420307071413
857.0, 0.006224305125876757
858.0, 0.006247862441556996
859.0, 0.006873067124037592
860.0, 0.005667225557352387
861.0, 0.005611667706106335
862.0, 0.005717868682552915
863.0, 0.005891822204262715
864.0, 0.006591682068207211
865.0, 0.005211235305622789
866.0, 0.004761034429211944
867.0, 0.004864497063614315
868.0, 0.0050569466024647704
869.0, 0.00468996464709409
870.0, 0.006080108882463139
871.0, 0.005948551361209743
872.0, 0.005367204660183908
873.0, 0.006067419700516544
874.0, 0.007629906716041838
875.0, 0.007817839984320292
876.0, 0.007274619236510779
877.0, 0.007069859658063019
878.0, 0.008855522731618656
879.0, 0.008961457723953608
880.0, 0.009654632826583045
881.0, 0.010409701047873159
882.0, 0.011067853885167196
883.0, 0.012370614436338242
884.0, 0.01373301283757861
885.0, 0.015082901266490223
886.0, 0.016064581235137165
887.0, 0.016511497529820965
888.0, 0.017930739344046306
889.0, 0.018849087317803718
890.0, 0.020529768876951404
891.0, 0.02299393965116283
892.0, 0.025660289142925178
893.0, 0.028912690580138803
894.0, 0.03219994887123322
895.0, 0.03603686321559766
896.0, 0.04094461722329454
897.0, 0.047687225049059374
898.0, 0.05480483412940928
899.0, 0.0632015499723048
900.0, 0.07410129472684557
901.0, 0.08802266561247817
902.0, 0.10333791587373418
903.0, 0.12363169633781501
904.0, 0.14805782722677807
905.0, 0.17471533644877016
906.0, 0.2012351321085883
907.0, 0.2264613208579275
908.0, 0.2516029475055041
909.0, 0.26997737682902273
910.0, 0.2797742414383538
911.0, 0.28223969830371454
912.0, 0.27561271031543616
913.0, 0.263837720516265
914.0, 0.2462687162517416
915.0, 0.22268260179488955
916.0, 0.19297214364811785
917.0, 0.17013310163275724
918.0, 0.14529901778916773
919.0, 0.12104081911916567
920.0, 0.10031469021144618
921.0, 0.08513198054556607
922.0, 0.07318346888853888
923.0, 0.0626139067873677
924.0, 0.05377910906641536
925.0, 0.047214391858797576
926.0, 0.041871511667491465
927.0, 0.038284274596807055
928.0, 0.03492924084240385
929.0, 0.03184340444438565
930.0, 0.029730510501899832
931.0, 0.027881145705250358
932.0, 0.026021718136358146
933.0, 0.024695430427449924
934.0, 0.023655557053932675
935.0, 0.02182700363124917
936.0, 0.0202546586662637
937.0, 0.019681788797564603
938.0, 0.01885450859313217
939.0, 0.01780836151348106
940.0, 0.01922996094850516
941.0, 0.018266294542982935
942.0, 0.017189684173134143
943.0, 0.01690241510658593
944.0, 0.01735691170044957
945.0, 0.015610178267990698
946.0, 0.015347901643392423
947.0, 0.015621580348589058
948.0, 0.015612486417850178
949.0, 0.014881334037989993
950.0, 0.015470249488750481
951.0, 0.014419008614239372
952.0, 0.014468799476248127
953.0, 0.015559970692295108
954.0, 0.01657666466846219
955.0, 0.01602681426313975
956.0, 0.015752441299791253
957.0, 0.01639959816947592
958.0, 0.01729189298379595
959.0, 0.016969578060691385
960.0, 0.01705553411718882
961.0, 0.01708634303887266
962.0, 0.017278333594119358
963.0, 0.017771079484955037
964.0, 0.01864815342062524
965.0, 0.01878150445208169
966.0, 0.019754440649858887
967.0, 0.020672165267148487
968.0, 0.02152978424823015
969.0, 0.023669380858601586
970.0, 0.023692034927257792
971.0, 0.025348242255945515
972.0, 0.027351667870667815
973.0, 0.02891095824091365
974.0, 0.030692584444853552
975.0, 0.03191951407644797
976.0, 0.03334920030923534
977.0, 0.034723848861713445
978.0, 0.03551512323772742
979.0, 0.034521947527464604
980.0, 0.035536100250829324
981.0, 0.038258832428461204
982.0, 0.040628376875651635
983.0, 0.041655474083581556
984.0, 0.04552014320313788
985.0, 0.05004385135027094
986.0, 0.05177820057028618
987.0, 0.05366035899356774
988.0, 0.05817717495768703
989.0, 0.05911959376807204
990.0, 0.057233259573202765
991.0, 0.05728876881081989
992.0, 0.05833957431826327
993.0, 0.05838000030594613
994.0, 0.05798016420957403
995.0, 0.057966828219272654
996.0, 0.05849962078879745
997.0, 0.05978590270703194
998.0, 0.06177131597855057
999.0, 0.062411939431711645
1000.0, 0.06411875523520898
1001.0, 0.06417794710114921
1002.0, 0.06454368848065968
1003.0, 0.0677628274561116
1004.0, 0.06545423796814424
1005.0, 0.06550948643368222
1006.0, 0.06565499565979672
1007.0, 0.06515771088226734
1008.0, 0.0640538220783248
1009.0, 0.06440823394690083
1010.0, 0.06298539357539869
1011.0, 0.0620403428278312
1012.0, 0.061266133083086274
1013.0, 0.05952255608075776
1014.0, 0.0590402852652043
1015.0, 0.057248992094218056
1016.0, 0.054954638221669114
1017.0, 0.05296190796223943
1018.0, 0.05189642368658267
1019.0, 0.04977469499511156
1020.0, 0.04866257030994064
1021.0, 0.047006229094023834
1022.0, 0.04538387447952144
1023.0, 0.04507212175039486
1024.0, 0.04402685901063563
1025.0, 0.04254906906659284
1026.0, 0.04183585942009804
1027.0, 0.040918611973823724
1028.0, 0.0383103656705172
1029.0, 0.037466881491610614
1030.0, 0.03609927327670272
1031.0, 0.03555332186157406
1032.0, 0.034750279379424355
1033.0, 0.03214341065724633
1034.0, 0.031246539089377162
1035.0, 0.02992376782068289
1036.0, 0.02914506098464668
1037.0, 0.028310569110110498
1038.0, 0.026537678769848246
1039.0, 0.02532969984950264
1040.0, 0.02455484493438018
1041.0, 0.02388785977016719
1042.0, 0.022808667135750953
1043.0, 0.021095186641789467
1044.0, 0.020822895110550983
1045.0, 0.019003710390979374
1046.0, 0.018269021068518854
1047.0, 0.017414951496130964
1048.0, 0.01518881683054892
1049.0, 0.015275835366844317
1050.0, 0.013800955289661866
1051.0, 0.013978252519697688
1052.0, 0.013924316812190907
1053.0, 0.012121210633359816
1054.0, 0.012695958168790118
1055.0, 0.011032817342258385
1056.0, 0.009458045244077628
1057.0, 0.00835530121889505
1058.0, 0.007788343356919932
1059.0, 0.007848560606804285
1060.0, 0.0062737212113070165
1061.0, 0.005540498691777712
1062.0, 0.005258260576605096
1063.0, 0.004844277093622987
1064.0, 0.003995435789504608
1065.0, 0.0036401936569368898
1066.0, 0.0034313856924961137
1067.0, 0.0027787539405352423
1068.0, 0.0018311184232681428
1069.0, 0.0019106310446062127
1070.0, 0.0013613114495447647
1071.0, 0.0006000120510931162
1072.0, 0.0007491163122045879
1073.0, 0.0014094627534804497
1074.0, 0.0005482303312701341
1075.0, 0.0005437256432563674
1076.0, 0.0006532594673942893
1077.0, 0.000430839117728371
1078.0, 0.00024466304654582036
1079.0, 0.0009499357194194467
1080.0, 0.0008409774289313604
1081.0, 0.0010667304991899649
1082.0, 0.0007364794598767953
1083.0, 0.0003899153940395861
1084.0, 0.0009670041055375555
1085.0, 0.00047000313734235535
1086.0, 0.00022573860099222196
1087.0, 0.0001340684079412163
1088.0, 0.00026431883816701137
1089.0, 0.0005925355680051663
1090.0, 0.00041432237568963945
1091.0, 0.00037487893620526456
1092.0, 0.0006510214471244037
1093.0, 0.0006331041060282052
1094.0, 0.0001738765965866154
1095.0, 0.0008537975506184303
1096.0, 0.0006011280497883599
1097.0, 0.0006094751162449435
1098.0, 0.0007369341599154557
1099.0, 0.0007214535633388935
1100.0, 0.000314053922029074
1101.0, 0.0009073827817918336
1102.0, 0.0013964726356386124
1103.0, 0.0016320958576300677
1104.0, 0.0015594843498592521
1105.0, 0.0012239324656696236
1106.0, 0.0015171278546729327
1107.0, 0.0014882075900726664
1108.0, 0.0009311928199333846
1109.0, 0.0006446471038731067
1110.0, 0.001584702838232657
1111.0, 0.0012941473523037385
1112.0, 0.0007214336238819071
1113.0, 0.0008390847186601442
1114.0, 0.001092124176219719
1115.0, 0.0008998040585443067
1116.0, 0.0014203080248551179
1117.0, 0.0006877648620286774
1118.0, 0.0015381621435239328
1119.0, 0.0022834490696483204
1120.0, 0.0020576322495587385
1121.0, 0.0029247389046585686
1122.0, 0.0036822144876323005
1123.0, 0.0048600995568332025
1124.0, 0.005207570270228211
1125.0, 0.0044802792405384375
1126.0, 0.003547401697989805
1127.0, 0.002886966472380208
1128.0, 0.002748546559933393
1129.0, 0.002663529241102782
1130.0, 0.002503406353439276
1131.0, 0.0022713280614399395
1132.0, 0.00158863142014628
1133.0, 0.002344268694869293
1134.0, 0.002430648669178788
1135.0, 0.0018788312562760653
1136.0, 0.00145421413198019
1137.0, 0.0025124925593765814
1138.0, 0.0026362754272824447
1139.0, 0.001874766422541753
1140.0, 0.0013049688702700018
1141.0, 0.0011673665555981057
1142.0, 0.0004773026315612446
1143.0, 0.0014263749082235554
1144.0, 0.001587861404121211
1145.0, 0.002218973244560536
1146.0, 0.0026675265784203055
1147.0, 0.00153821396966945
1148.0, 0.0014275392188997382
1149.0, 0.0013298242662545623
1150.0, 0.0014199516540595635
1151.0, 0.0017163359838402086
1152.0, 0.0021034911027635684
1153.0, 0.002211717132932945
1154.0, 0.0023489878501271435
1155.0, 0.0024880294669108517
1156.0, 0.0024792530515852537
1157.0, 0.0023894568831734613
1158.0, 0.002547052882148992
1159.0, 0.002214145793520162
1160.0, 0.00196527045267795
1161.0, 0.0020399758449797666
1162.0, 0.0021364012559934795
1163.0, 0.0018683562375909014
1164.0, 0.0022455531127129054
1165.0, 0.0019256195914896385
1166.0, 0.001927034521584201
1167.0, 0.0022596290038059985
1168.0, 0.0025090286812372324
1169.0, 0.0018186607390573146
1170.0, 0.00268555846423117
1171.0, 0.0016525409250757702
1172.0, 0.0011615674010371107
1173.0, 0.0015633887631382292
1174.0, 0.0011981321689330483
1175.0, 0.0006889662854914433
1176.0, 0.0002437481679106832
1177.0, 8.893963575069276e-05
1178.0, 8.832493715520625e-05
1179.0, 8.207458293585784e-05
1180.0, 0.0002979386171712438
1181.0, 0.0006071841340793624
1182.0, 0.0008130429907310687
1183.0, 0.0008919595586564354
1184.0, 0.0008826583315135
1185.0, 0.0008677516244673021
1186.0, 0.0006956415479865907
1187.0, 0.0003402465069234724
1188.0, 0.00019790883677287623
1189.0, 0.00032456548646235745
1190.0, 0.0005411988401514409
1191.0, 0.0003747830497535129
1192.0, 0.00019306543275494513
1193.0, 0.00011683724141677788
1194.0, 0.00019891420118137835
1195.0, 0.00032139677214001734
1196.0, 0.00015792444959985327
1197.0, 0.00029747949934915617
1198.0, 0.00025450854053665544
1199.0, 0.00014458558017963995
1200.0, 0.0002435324051978423
1201.0, 0.0006559094054770561
1202.0, 0.000206217511879804
1203.0, 0.0003452242991263123
1204.0, 0.0004009989741964533
1205.0, 0.00032092591986709694
1206.0, 0.0002652942886535621
1207.0, 0.0005416161284635319
1208.0, 0.0004091357351004467
1209.0, 0.00015216189370150304
1210.0, 0.0001402036648283248
1211.0, 0.00020830427390511994
1212.0, 8.54151935950153e-05
1213.0, 0.0004058531838832985
1214.0, 0.00028744440816761926
1215.0, 0.000314360759334203
1216.0, 0.00025323567436741834
1217.0, 5.931173848057741e-05
1218.0, 8.932282388445141e-05
1219.0, 2.0514596121023306e-05
1220.0, 0.0002971765824329995
1221.0, 0.000430044747374126
1222.0, 0.0006313161802356592
1223.0, 0.0011049134633263457
1224.0, 0.000795331281514335
1225.0, 0.0006941976579527548
1226.0, 0.00029958669616129594
1227.0, 7.286299950616374e-05
1228.0, 0.00013883338225583594
1229.0, 0.0001520152808740726
1230.0, 0.00010825340144845463
1231.0, 0.000292514068660332
1232.0, 0.0003106596996665103
1233.0, 0.00041899955666914007
1234.0, 0.0007882740416654534
1235.0, 0.0008045910780437521
1236.0, 0.0007557367048669569
1237.0, 0.00042211126558254345
1238.0, 0.00041620785696086174
1239.0, 0.0006036358872049348
1240.0, 0.0004214742364162459
1241.0, 0.0006482994306617237
1242.0, 0.000488681745856664
1243.0, 0.0004027669266235218
1244.0, 0.0005483945478178987
1245.0, 0.0007123716792439129
1246.0, 0.00024320565861651506
1247.0, 6.99155635753686e-05
1248.0, 0.0005104141306797246
1249.0, 0.0006242236476143545
1250.0, 0.0004412294239768857
1251.0, 0.00035519823089114776
1252.0, 0.0003482684340407039
1253.0, 0.0003760451532079184
1254.0, 0.00032646239158557795
1255.0, 0.0007871638886520272
1256.0, 0.001319263770441115
1257.0, 0.0008131049707097929
1258.0, 0.0008598679426655826
1259.0, 0.0005478734758014562
1260.0, 0.0006456865016259846
1261.0, 0.000884653570075181
1262.0, 0.000977475494297233
1263.0, 0.0010443235699779832
1264.0, 0.0014080511654684484
1265.0, 0.0014406998931839068
1266.0, 0.0016102270877470098
1267.0, 0.0014576672587027003
1268.0, 0.0007241160678181563
1269.0, 0.0011468722728788057
1270.0, 0.002345644946645951
1271.0, 0.0018304413763751864
1272.0, 0.0009118033160195082
1273.0, 0.0003632548935764208
1274.0, 0.0003212911574506283
1275.0, 0.0015651528759905906
1276.0, 0.0015865542250200304
1277.0, 0.0014549238943715125
1278.0, 0.0013491863097994088
1279.0, 0.0012875414185071043
1280.0, 0.001272595733463446
1281.0, 0.0013651296837676726
1282.0, 0.0013871472612911268
1283.0, 0.0014172038196009
1284.0, 0.001454067746282686
1285.0, 0.001487154055059285
1286.0, 0.0015410300477267345
1287.0, 0.0014412317220920152
1288.0, 0.0013765872423972959
1289.0, 0.0012414936984476755
1290.0, 0.0011227870962355387
1291.0, 0.0011855994094447902
1292.0, 0.0015183894508341178
1293.0, 0.0016538336576867386
1294.0, 0.002113121532451887
1295.0, 0.0022290781262500206
1296.0, 0.0021925912549794605
1297.0, 0.0026158637293174454
1298.0, 0.002436174942082604
1299.0, 0.002411206757265867
1300.0, 0.00203173628955058
1301.0, 0.0019183448181603812
1302.0, 0.002108059728727981
1303.0, 0.0019357414876785704
1304.0, 0.0016413241946502974
1305.0, 0.0020678467387897736
1306.0, 0.0015264331865420453
1307.0, 0.0011403670266291177
1308.0, 0.0016786744179070202
1309.0, 0.002386029836599873
1310.0, 0.0014247570246762168
1311.0, 0.0011905688917352225
1312.0, 0.0012190931918653776
1313.0, 0.0015095716080177858
1314.0, 0.0020146883969062775
1315.0, 0.0023475201583356125
1316.0, 0.0019699509211291554
1317.0, 0.002276022770012799
1318.0, 0.0022037702057207927
1319.0, 0.002230951187078931
1320.0, 0.0026931312238656618
1321.0, 0.00206766323138409
1322.0, 0.0021145885642522688
1323.0, 0.0022720946545384466
1324.0, 0.0023595667980672442
1325.0, 0.0025857341752608142
1326.0, 0.003046693682634203
1327.0, 0.0029480449201585413
1328.0, 0.002848998498253398
1329.0, 0.0031269751304646132
1330.0, 0.002637436839492366
1331.0, 0.002148574010878918
1332.0, 0.002766109763468777
1333.0, 0.002645971085998897
1334.0, 0.0031664890715149686
1335.0, 0.003154703499868761
1336.0, 0.0030075038732320274
1337.0, 0.0029084935942436806
1338.0, 0.0028757369400595127
1339.0, 0.0032013531635430668
1340.0, 0.002890357192744803
1341.0, 0.0033449905608052316
1342.0, 0.003395713241656102
1343.0, 0.0032310606086824317
1344.0, 0.003812897641559932
1345.0, 0.004386435049174821
1346.0, 0.00393374618857267
1347.0, 0.0036493584692758032
1348.0, 0.0036915324295918573
1349.0, 0.004094333810533478
1350.0, 0.004573298722344567
1351.0, 0.003534374282456993
1352.0, 0.0038052883288561754
1353.0, 0.004386807297918793
1354.0, 0.004258815562022322
1355.0, 0.003543242389966849
1356.0, 0.0032180636823078714
1357.0, 0.004024654312929856
1358.0, 0.003567958964078717
1359.0, 0.00343226451562984
1360.0, 0.003726099084296154
1361.0, 0.004046757459124554
1362.0, 0.0039627677980330605
1363.0, 0.004027642926850324
1364.0, 0.0040584093225124835
1365.0, 0.0037517100989547638
1366.0, 0.0033177894998559793
1367.0, 0.0030116140400583014
1368.0, 0.0029343526267112535
1369.0, 0.0026863300083396257
1370.0, 0.002740425952424971
1371.0, 0.0027801934678835867
1372.0, 0.0028490057787382314
1373.0, 0.0030852644115224163
1374.0, 0.0035250571252550145
1375.0, 0.0037584945694981945
1376.0, 0.0037777112046004204
1377.0, 0.004126947833407687
1378.0, 0.003939232813461666
1379.0, 0.0033541001686084593
1380.0, 0.002885106920302335
1381.0, 0.002355894490604716
1382.0, 0.0031520141665923045
1383.0, 0.003254094591295879
1384.0, 0.003082398903593823
1385.0, 0.0030087086715754607
1386.0, 0.002936330863450569
1387.0, 0.0019752720992089806
1388.0, 0.0026365436532424127
1389.0, 0.0028008646550833397
1390.0, 0.003191945770979724
1391.0, 0.0032283789040076227
1392.0, 0.002635819814770225
1393.0, 0.0024910886973332903
1394.0, 0.0028482972598276673
1395.0, 0.003155634828811645
1396.0, 0.0031388635336587556
1397.0, 0.002649731504641351
1398.0, 0.0022408972183569553
1399.0, 0.0030018046661956415
1400.0, 0.0030147913942290077
1401.0, 0.002759713809205207
1402.0, 0.0030492436241253756
1403.0, 0.003335756522326777
1404.0, 0.003261611632194416
1405.0, 0.003028019960680249
1406.0, 0.0030652708800324407
1407.0, 0.0030600185386883885
1408.0, 0.003077314310497032
1409.0, 0.003158121897570664
1410.0, 0.003215785541390281
1411.0, 0.0031807975603486043
1412.0, 0.003386903350928483
1413.0, 0.0031401911178299733
1414.0, 0.0029340923775318345
1415.0, 0.002676058790524047
1416.0, 0.002632677873294831
1417.0, 0.0029776650052067482
1418.0, 0.003176199117186214
1419.0, 0.002736509259367647
1420.0, 0.0024049984078025133
1421.0, 0.002913103593328985
1422.0, 0.0030176110356102508
1423.0, 0.00236296849820321
1424.0, 0.00285935853274047
1425.0, 0.002578580859515487
1426.0, 0.0032101478913755515
1427.0, 0.0026793713892424562
1428.0, 0.0022790907565147472
1429.0, 0.0025386403650357685
1430.0, 0.0024958270290303427
1431.0, 0.002187597040516133
1432.0, 0.0020642070906649185
1433.0, 0.0018848291071236198
1434.0, 0.0018695556082255508
1435.0, 0.0019337818796769531
1436.0, 0.0019331637178714991
1437.0, 0.002266643193240966
1438.0, 0.002109313658898246
1439.0, 0.0016527464439748982
1440.0, 0.0015809384015826303
1441.0, 0.0013257654739919002
1442.0, 0.0008315989095711281
1443.0, 0.0015810135467420898
1444.0, 0.001510386652238576
1445.0, 0.0009737377850664828
1446.0, 0.0006384399029241639
1447.0, 0.0009163601573629303
1448.0, 0.0014732162236508466
1449.0, 0.0014716671446039038
1450.0, 0.0009956934381775207
1451.0, 0.0007561060984073269
1452.0, 0.000792704756951518
1453.0, 0.0010141197573054117
1454.0, 0.0008944556658581301
1455.0, 0.0003693538095999963
1456.0, 0.0009746853578716281
1457.0, 0.0013902549412729054
1458.0, 0.0011690610312424543
1459.0, 0.0008143986108048241
1460.0, 0.0005660256925419997
1461.0, 0.00037452419835245636
1462.0, 6.924315577298314e-05
1463.0, 0.00044792312837767733
1464.0, 0.0009480394097376235
1465.0, 0.0005541355216351542
1466.0, 0.0005422935027902837
1467.0, 0.0007384408175748791
1468.0, 0.0003679749580742841
1469.0, 0.000841609420829893
1470.0, 0.001258211186239176
1471.0, 0.0005966031235229427
1472.0, 0.0005514761208332525
1473.0, 0.0008359571205983303
1474.0, 0.000970638395465554
1475.0, 0.0012544837092574503
1476.0, 0.0004743796530763661
1477.0, 0.0009092309002494556
1478.0, 0.0008993130345403049
1479.0, 0.0007946368280375663
1480.0, 0.0009164164761506822
1481.0, 0.0011605532263476263
1482.0, 0.0010378288010942623
1483.0, 0.001318561348341397
1484.0, 0.0015078539986462434
1485.0, 0.0013667994873198524
1486.0, 0.0013719534084217372
1487.0, 0.0016963862948399327
1488.0, 0.0016779976878606604
1489.0, 0.00028055359037476156
1490.0, 0.0002568829742091296
1491.0, 0.00035354038505100286
1492.0, 0.0006341899967469663
1493.0, 0.0007951294515643301
1494.0, 0.0005876612234343155
1495.0, 0.0007375711924248658
1496.0, 0.0007898059393044474
1497.0, 0.0005459236581129676
1498.0, 0.0005389152699413651
1499.0, 0.0004078965202873484
1500.0, 0.00023926544795518654
1501.0, 0.0005659683401362883
1502.0, 0.00011660836222797134
1503.0, 0.00017498339806836397
1504.0, 0.0005091923732363076
1505.0, 0.0005027477806370023
1506.0, 0.00044983873214119027
1507.0, 0.0007426223058639497
1508.0, 0.0010551900195069947
1509.0, 0.0014394837800072481
1510.0, 0.0017303471450341328
1511.0, 0.0016911417292608936
1512.0, 0.001800207594279725
1513.0, 0.0018479043149795258
1514.0, 0.001258667800011595
1515.0, 0.0003527753193042176
1516.0, 0.0009608892669986089
1517.0, 0.0004801572331595775
1518.0, 0.00013712161755489674
1519.0, 8.503256456743651e-05
1520.0, 0.0001839062997173092
1521.0, 0.00032943768673733055
1522.0, 1.8982068605756698e-05
1523.0, 2.633235344601378e-05
1524.0, 0.00013092861363038152
1525.0, 0.0004205025289936123
1526.0, 0.00041509248305036115
1527.0, 3.6416655445129138e-06
1528, 0.0
1529, 0.0
1530, 0.0
1531, 0.0
1532, 0.0
1533, 0.0
1534, 0.0
1535, 0.0
1536, 0.0
1537, 0.0
1538, 0.0
1539, 0.0
1540, 0.0
1541, 0.0
1542, 0.0
1543, 0.0
1544, 0.0
1545, 0.0
1546, 0.0
1547, 0.0
1548, 0.0
1549, 0.0
1550, 0.0
1551, 0.0
1552, 0.0
1553, 0.0
1554, 0.0
1555, 0.0
1556, 0.0
1557, 0.0
1558, 0.0
1559, 0.0
1560, 0.0
1561, 0.0
1562, 0.0
1563, 0.0
1564, 0.0
1565, 0.0
1566, 0.0
1567, 0.0
1568, 0.0
1569, 0.0
1570, 0.0
1571, 0.0
1572, 0.0
1573, 0.0
1574, 0.0
1575, 0.0
1576, 0.0
1577, 0.0
1578, 0.0
1579, 0.0
1580, 0.0
1581, 0.0
1582, 0.0
1583, 0.0
1584, 0.0
1585, 0.0
1586, 0.0
1587, 0.0
1588, 0.0
1589, 0.0
1590, 0.0
1591, 0.0
1592, 0.0
1593, 0.0
1594, 0.0
1595, 0.0
1596, 0.0
1597, 0.0
1598, 0.0
1599, 0.0
