30, 0.0
31, 0.0
32, 0.0
33, 0.0
34, 0.0
35, 0.0
36, 0.0
37, 0.0
38, 0.0
39, 0.0
40, 0.0
41, 0.0
42, 0.0
43, 0.0
44, 0.0
45, 0.0
46, 0.0
47, 0.0
48, 0.0
49, 0.0
50, 0.0
51, 0.0
52, 0.0
53, 0.0
54, 0.0
55, 0.0
56, 0.0
57, 0.0
58, 0.0
59, 0.0
60, 0.0
61, 0.0
62, 0.0
63, 0.0
64, 0.0
65, 0.0
66, 0.0
67, 0.0
68, 0.0
69, 0.0
70, 0.0
71, 0.0
72, 0.0
73, 0.0
74, 0.0
75, 0.0
76, 0.0
77, 0.0
78, 0.0
79, 0.0
80, 0.0
81, 0.0
82, 0.0
83, 0.0
84, 0.0
85, 0.0
86, 0.0
87, 0.0
88, 0.0
89, 0.0
90, 0.0
91, 0.0
92.0, 9.732372804258507e-05
93.0, 0.00012471319269566117
94.0, 0.0007100900924405222
95.0, 0.0008978543355848522
96.0, 0.0004623955751995495
97.0, 9.359133412747832e-05
98.0, 0.000730710956656466
99.0, 0.00047587134398258504
100.0, 0.0002491246365968135
101.0, 0.0006276865175424466
102.0, 0.0016772059212884105
103.0, 0.002783510477414162
104.0, 0.003983052537855553
105.0, 0.0049068054538367
106.0, 0.005456478274491165
107.0, 0.007362081920554757
108.0, 0.008013413599189098
109.0, 0.00854771380978071
110.0, 0.009996744193627633
111.0, 0.01064973362599782
112.0, 0.011940893222375648
113.0, 0.013594610709791986
114.0, 0.015193623636749488
115.0, 0.01685470197969344
116.0, 0.018334444900522637
117.0, 0.019976252035571258
118.0, 0.021952291702125936
119.0, 0.02411043249994346
120.0, 0.025843019718606565
121.0, 0.02766485820527203
122.0, 0.029678771250100353
123.0, 0.03156221345915936
124.0, 0.03413388655875702
125.0, 0.036207333068213374
126.0, 0.037766099203613936
127.0, 0.03929957703667523
128.0, 0.04037692334200947
129.0, 0.040329131038945955
130.0, 0.039329773175074245
131.0, 0.03767661853429627
132.0, 0.035690480241730015
133.0, 0.031897539444491606
134.0, 0.028116585840455045
135.0, 0.025530115257780074
136.0, 0.021341403477093783
137.0, 0.017746758988989062
138.0, 0.01428717997794516
139.0, 0.01108338864373059
140.0, 0.009018759959614585
141.0, 0.00698262002245819
142.0, 0.005558347707418425
143.0, 0.004611105583582693
144.0, 0.003554707101113065
145.0, 0.0026432997627821126
146.0, 0.002375602509232552
147.0, 0.0021953980227512
148.0, 0.0015679369968839736
149.0, 0.0010646887982998056
150.0, 0.0005493021653239897
151.0, 0.000209441006555076
152.0, 0.00021325996051944592
153.0, 0.0002851199149093203
154.0, 0.0003089931447017368
155.0, 0.000333182105462284
156.0, 0.0004475147984506523
157.0, 0.0005821166424849255
158.0, 0.00036254032772798625
159.0, 0.000337434740443974
160.0, 0.000569190901633573
161.0, 0.0008769410981271043
162.0, 0.0014781797746437023
163.0, 0.001773215129230834
164.0, 0.0024434606164723946
165.0, 0.0038222448330867526
166.0, 0.0048940479332193415
167.0, 0.005450580354625103
168.0, 0.004512520658856097
169.0, 0.0026534047142681553
170.0, 0.0017785359655588199
171.0, 0.000965324808034686
172.0, 0.0008384562112446816
173.0, 0.0009283479394377942
174.0, 0.0005030803250950307
175.0, 0.00043900251508428417
176.0, 0.0005388085132820225
177.0, 0.0002967168967430711
178.0, 0.00010633333400028897
179.0, 0.0004732269139598684
180.0, 0.0006269221568818282
181.0, 0.00045292750452844023
182.0, 0.00043306813640079164
183.0, 0.0009082684862091543
184.0, 0.0008041837763999458
185.0, 0.0005927385397562282
186.0, 0.0006455328881865515
187.0, 0.0010355084567790726
188.0, 0.0010367400815307962
189.0, 0.0011008182526853596
190.0, 0.0010940543845268766
191.0, 0.0010744180132583035
192.0, 0.0014567732012144645
193.0, 0.0011022702527080344
194.0, 0.0012031313251079335
195.0, 0.0014312445335913939
196.0, 0.0007610043006201694
197.0, 0.0010624350036598552
198.0, 0.0014219266082389234
199.0, 0.0013204328836733962
200.0, 0.0008863444491331199
201.0, 0.0012620122895748319
202.0, 0.0012149889130364522
203.0, 0.0008904398074537673
204.0, 0.0006703054952945525
205.0, 0.0009644185371136111
206.0, 0.0008095900592528763
207.0, 0.0005670366549454483
208.0, 0.0012090783063840964
209.0, 0.0023977621081339943
210.0, 0.001020701509881961
211.0, 0.000920915484687793
212.0, 0.001120732869554696
213.0, 0.000597429573390718
214.0, 0.00030141382259157954
215.0, 0.0007145020513071065
216.0, 0.0004348465764742874
217.0, 0.00013662665292751673
218.0, 0.0005335849489149221
219.0, 0.00036981105063335466
220.0, 8.234816068014866e-05
221.0, 0.00020727621755233473
222.0, 9.718955827043338e-05
223.0, 0.0002047843363960321
224.0, 0.0004156112119633764
225.0, 0.00012033223124048494
226.0, 0.0002724041332240793
227.0, 0.0002424362750200217
228.0, 0.0005079422078303386
229.0, 0.0004025811366151399
230.0, 0.0004156840230523359
231.0, 0.00043499675516618094
232.0, 0.0013372079500662904
233.0, 0.0004764826923918797
234.0, 0.0007266696010251527
235.0, 0.0006649941214530528
236.0, 0.00023569010779300064
237.0, 0.000605983435869025
238.0, 0.0006102539571518031
239.0, 0.00029476840122581385
240.0, 0.00013201177746473622
241.0, 0.0006603601180616605
242.0, 0.0007089392734796647
243.0, 0.0006733790444610287
244.0, 0.0005799072570916974
245.0, 0.00040705924918737227
246.0, 0.0007097308335510309
247.0, 0.0004912142652767035
248.0, 0.00014265436473335325
249.0, 2.77081917892786e-05
250.0, 0.00024536054675302943
251.0, 0.0008993792437944894
252.0, 0.0008115831368021758
253.0, 0.0005685453952326206
254.0, 0.0009921714917966765
255.0, 0.0018386431769185552
256.0, 0.001530931170916846
257.0, 0.0012929811967961422
258.0, 0.001375718005704136
259.0, 0.0013275815098117449
260.0, 0.0009379196906657186
261.0, 0.0014302636171782256
262.0, 0.0017850852393015676
263.0, 0.0015669967950014655
264.0, 0.0015442459812620357
265.0, 0.002071380721030843
266.0, 0.0016122389488072435
267.0, 0.0010928517949079857
268.0, 0.0018578443413107663
269.0, 0.0018631914456576414
270.0, 0.0017139365213137926
271.0, 0.0015485683006200904
272.0, 0.0012841369786569772
273.0, 0.0008559696935983604
274.0, 0.0011639333461321351
275.0, 0.0014454233514981413
276.0, 0.0011081985098448691
277.0, 0.0003341609285583004
278.0, 0.0001580371130930547
279.0, 0.0005964515834202958
280.0, 0.0010816247568363527
281.0, 0.0011808499263523556
282.0, 0.0008971604044080596
283.0, 0.0008766385945511104
284.0, 0.0007320636435476132
285.0, 0.0008267145883991664
286.0, 0.0014333642606709602
287.0, 0.0024480609457476067
288.0, 0.002667981822260389
289.0, 0.003725008872684035
290.0, 0.005295313838390357
291.0, 0.006634433504256915
292.0, 0.007807609385994234
293.0, 0.009038958683930535
294.0, 0.011121879637313814
295.0, 0.013633764067639801
296.0, 0.016330464497338347
297.0, 0.021028383078393494
298.0, 0.02540183003621065
299.0, 0.02906998674020421
300.0, 0.03367103987834795
301.0, 0.0410773245468716
302.0, 0.04943795797510584
303.0, 0.057963422210201385
304.0, 0.06921042284599788
305.0, 0.08306080455778929
306.0, 0.09683400464141455
307.0, 0.11412699866312073
308.0, 0.1351022163804899
309.0, 0.1582979315360544
310.0, 0.18247485208814734
311.0, 0.20693421096350695
312.0, 0.23582714911371774
313.0, 0.26546225645065863
314.0, 0.29528178862057464
315.0, 0.3272085130418234
316.0, 0.3634311474227594
317.0, 0.402103928932238
318.0, 0.4464864356800567
319.0, 0.4959343059040686
320.0, 0.5487808523666112
321.0, 0.6109778148852533
322.0, 0.676651548104516
323.0, 0.744256240709037
324.0, 0.8126800540037054
325.0, 0.8798497389920678
326.0, 0.9423689082294908
327.0, 0.9857952872772067
328.0, 0.9983434106223686
329.0, 0.9827184996366949
330.0, 0.949761150318768
331.0, 0.8856591419998364
332.0, 0.803935881181142
333.0, 0.7149689879272654
334.0, 0.6252684875036525
335.0, 0.5411680836068896
336.0, 0.4691099214181927
337.0, 0.4059899403402111
338.0, 0.35159694805534863
339.0, 0.30683621741774314
340.0, 0.26974497130482844
341.0, 0.2367456768375601
342.0, 0.2066741192898865
343.0, 0.18234067745478272
344.0, 0.16444305249989866
345.0, 0.14772997069749222
346.0, 0.1328983729654569
347.0, 0.1203611853111493
348.0, 0.10952994781768241
349.0, 0.09986757955666675
350.0, 0.09186832489044154
351.0, 0.08402940316317524
352.0, 0.07669967312884231
353.0, 0.07098495757611444
354.0, 0.06722345126536543
355.0, 0.06165395832698957
356.0, 0.0571491600395134
357.0, 0.05313087602688254
358.0, 0.049543748833512535
359.0, 0.046757773657932405
360.0, 0.04345082856553597
361.0, 0.04130321017040063
362.0, 0.03841475520753877
363.0, 0.035443815066133054
364.0, 0.03368183553066691
365.0, 0.03106772913755391
366.0, 0.029560679923720697
367.0, 0.028212567710076526
368.0, 0.0261323219809819
369.0, 0.023716296485299684
370.0, 0.023088054520791434
371.0, 0.020879437234414086
372.0, 0.019047117316447672
373.0, 0.017858933437409387
374.0, 0.01623019839181518
375.0, 0.014255615993499358
376.0, 0.01322066898198725
377.0, 0.011853515945110612
378.0, 0.01052856381710667
379.0, 0.010402845055671074
380.0, 0.00862140319055875
381.0, 0.007332457389568917
382.0, 0.0068175494660700706
383.0, 0.006289468241378316
384.0, 0.005191273040090469
385.0, 0.004568310581240263
386.0, 0.0037456586769592554
387.0, 0.0032767487532413425
388.0, 0.0030772098487866395
389.0, 0.0026793324200563014
390.0, 0.002332381760619794
391.0, 0.0022413505123181706
392.0, 0.0017660309868143282
393.0, 0.001019309001554181
394.0, 0.0006233034763830847
395.0, 0.0009508743408802694
396.0, 0.0010219628399406905
397.0, 0.000980297651146789
398.0, 0.0008914602672748076
399.0, 0.0005315846092833877
400.0, 0.00017950175139956533
401.0, 0.00015122053488233957
402.0, 0.00018523852236344843
403.0, 0.00019972861163634897
404.0, 0.0005299384331115681
405.0, 0.00040874026723656593
406.0, 0.0007898723558305067
407.0, 0.0005815870669480102
408.0, 0.00016473925533305644
409.0, 0.0001598964241065771
410.0, 0.0005834904235297116
411.0, 0.0007598078027187201
412.0, 0.0001750912124577525
413.0, 0.00026346404307892604
414.0, 8.18324376122319e-05
415.0, 0.00045629228389431204
416.0, 0.0006833234385657781
417.0, 0.00048403900079878353
418.0, 0.0003908636796523811
419.0, 0.0004799326596812831
420.0, 0.00039857894151448017
421.0, 0.00040611966516090794
422.0, 0.000395879523086759
423.0, 0.00031551885860031876
424.0, 0.00024279367246322252
425.0, 0.00023198330190751036
426.0, 0.00010397807905700474
427.0, 3.429924376498634e-05
428.0, 0.00020969224472817198
429.0, 0.0003046652613268186
430.0, 3.444468210018417e-05
431.0, 7.379980738507521e-06
432.0, 0.00027852419683687936
433.0, 0.00017528141323922773
434.0, 0.00019732734957055855
435.0, 0.0005839038577871332
436.0, 0.0005831172796444937
437.0, 0.0005281311814466658
438.0, 0.0003755119958018286
439.0, 0.0004160903552426853
440.0, 0.0007072027763075434
441.0, 0.0008959122507670986
442.0, 0.0007526936997158329
443.0, 0.0009664981116854521
444.0, 0.0008223950876646722
445.0, 0.0005120291549849023
446.0, 0.0006565930589603295
447.0, 0.0013315275861397935
448.0, 0.001177553736100727
449.0, 0.0013948726596770542
450.0, 0.0014020381421988913
451.0, 0.0009410086719074309
452.0, 0.000905216649164125
453.0, 0.0014082855713856103
454.0, 0.0015885830754245377
455.0, 0.001819232021780328
456.0, 0.002044028387901012
457.0, 0.0018573338031249356
458.0, 0.0018153145026742143
459.0, 0.0018897395248277983
460.0, 0.0019322739997014791
461.0, 0.0022142372734203484
462.0, 0.002703456445343906
463.0, 0.002745615024393136
464.0, 0.0026883082816860334
465.0, 0.0026289829645469204
466.0, 0.002961244960786442
467.0, 0.003291709732461953
468.0, 0.002817545621327474
469.0, 0.0030566326775271126
470.0, 0.0024978939453241633
471.0, 0.0022868441023282567
472.0, 0.0023485169875867994
473.0, 0.00188858936399125
474.0, 0.0020645021217112255
475.0, 0.002064653833596416
476.0, 0.0020158477173384723
477.0, 0.0019383909358566054
478.0, 0.0016216536726454227
479.0, 0.0010444792618315298
480.0, 0.0012653582736311152
481.0, 0.0010676503140796994
482.0, 0.000959711204631877
483.0, 0.0010488534884185278
484.0, 0.0009742313052982904
485.0, 0.0010601584994675585
486.0, 0.0008357212347179424
487.0, 0.0006342108022244972
488.0, 0.0005079399282694708
489.0, 0.00032436152294410464
490.0, 0.0002891926922032587
491.0, 0.0006186671870976797
492.0, 0.0007915454380206011
493.0, 0.000692189397346809
494.0, 0.0006741148892423952
495.0, 0.0008154601434417886
496.0, 0.0005098359812409668
497.0, 0.0004687057646643053
498.0, 0.00035970250467622496
499.0, 0.0002169217730854876
500.0, 0.0002447246162391244
501.0, 0.00045285116922869344
502.0, 0.00031946358208764775
503.0, 0.000361011218489474
504.0, 0.0004996586155684878
505.0, 0.0006290370346217892
506.0, 0.0005888570000725471
507.0, 0.00034467744736374
508.0, 0.0008532878042506897
509.0, 0.0005065145511579331
510.0, 0.00013446983059417413
511.0, 0.0003408469556560522
512.0, 0.0006122179908827639
513.0, 0.0007372481444502898
514.0, 0.0009499190566065118
515.0, 0.0009403170362269292
516.0, 0.0010123122007262928
517.0, 0.0012203585581759243
518.0, 0.0011319227245947458
519.0, 0.001051936474721121
520.0, 0.0012812560380411075
521.0, 0.001232435477560777
522.0, 0.0011740392090695893
523.0, 0.001514775183559058
524.0, 0.001809248324840427
525.0, 0.0018463925310275465
526.0, 0.0017886805162093892
527.0, 0.001868485546768379
528.0, 0.0020605022766120506
529.0, 0.002230430105917646
530.0, 0.0023766374201805033
531.0, 0.0027650961439799238
532.0, 0.00282362746625267
533.0, 0.0030719738755466846
534.0, 0.0036739396782675487
535.0, 0.004008266606161914
536.0, 0.0037706607433454333
537.0, 0.0042673403590778956
538.0, 0.00524542019206928
539.0, 0.0054896327207364206
540.0, 0.005258480741409755
541.0, 0.006134283656919091
542.0, 0.007605958398214103
543.0, 0.008740381013390057
544.0, 0.0093268766623452
545.0, 0.010441916216704069
546.0, 0.012675018414259375
547.0, 0.015354270833510316
548.0, 0.01884954459493836
549.0, 0.022728847313393273
550.0, 0.02711605863350072
551.0, 0.03154948733656051
552.0, 0.03514777943023539
553.0, 0.03765367789279644
554.0, 0.04097757987813758
555.0, 0.045486323974086855
556.0, 0.05082578782825312
557.0, 0.05728049449692014
558.0, 0.0651069586840704
559.0, 0.07390427873250402
560.0, 0.08525123098569587
561.0, 0.10015541930881881
562.0, 0.11613348636718743
563.0, 0.1327131285289711
564.0, 0.14924323535625023
565.0, 0.15838110977279157
566.0, 0.1545748019457921
567.0, 0.13810201551082837
568.0, 0.11339869316703499
569.0, 0.08700293536050308
570.0, 0.06427049634079336
571.0, 0.04633848747831053
572.0, 0.034984752195987935
573.0, 0.026858806168338027
574.0, 0.020748005775526907
575.0, 0.0162435363054856
576.0, 0.01284532508838874
577.0, 0.01036397454852241
578.0, 0.008373052834595742
579.0, 0.006709827744355679
580.0, 0.005637683360040329
581.0, 0.004752273368063816
582.0, 0.0036307669055558284
583.0, 0.003134032863760093
584.0, 0.0026855144207423463
585.0, 0.0019454478639674697
586.0, 0.0015511475646946347
587.0, 0.0014127225594727697
588.0, 0.0011092825891213657
589.0, 0.0011212722798187738
590.0, 0.0011380158779151334
591.0, 0.0005574314433480988
592.0, 0.00014288116700320066
593.0, 6.999219625323928e-05
594.0, 2.015951273642371e-05
595.0, 5.0092160208736394e-05
596.0, 0.00020591475328466272
597.0, 6.834074096232898e-05
598.0, 0.00016652222713565157
599.0, 0.00013161603193584325
600.0, 2.2661510966674258e-05
601.0, 8.562406428997729e-05
602.0, 0.00015094155354155128
603.0, 0.00010033540749593528
604.0, 1.9129905323772803e-05
605.0, 9.755168036787525e-05
606.0, 0.00024237776678781635
607.0, 0.00011858355016031825
608.0, 1.5280564254126214e-05
609.0, 0.00011074824385943337
610.0, 6.325359826245478e-05
611.0, 0.00019815126094416656
612.0, 0.0002222536566674582
613.0, 0.00021693504217469947
614.0, 0.0002875246865903806
615.0, 0.00013663893146938084
616.0, 7.194733115732588e-05
617.0, 7.121405447152226e-05
618.0, 0.00020663531970356626
619.0, 1.7504162994032327e-05
620.0, 0.00013738517214505357
621.0, 0.0002075315171933714
622.0, 0.0004152718399339103
623.0, 0.0006393049606262869
624.0, 0.00044879408026084346
625.0, 1.364521384965359e-05
626.0, 0.0003389039895093447
627.0, 0.0005562348908864888
628.0, 0.0005373692036166566
629.0, 0.00023778430560437785
630.0, 3.260575365593828e-05
631.0, 0.0001634565247191223
632.0, 0.0003737346837738204
633.0, 0.0004559248580969688
634.0, 0.0003671467528660762
635.0, 0.00027721753012070033
636.0, 0.00026406750382511053
637.0, 0.0003202476919473337
638.0, 0.0003901257099134775
639.0, 0.00034596662117909684
640.0, 0.00013586004874946016
641.0, 5.721420728056126e-05
642.0, 9.700789120145375e-05
643.0, 3.8700748966161184e-05
644.0, 0.00011004902423192331
645.0, 9.814424804932068e-05
646.0, 0.00015296882200243017
647.0, 3.305789412864707e-05
648.0, 4.357499558363035e-05
649.0, 0.00023206851963409133
650.0, 0.0002824369090893176
651.0, 7.491232023723035e-05
652.0, 0.00044116771121404037
653.0, 0.00041199710167420605
654.0, 0.0002922431406523239
655.0, 0.00023591632598935923
656.0, 0.00010556852034727321
657.0, 4.385113306272764e-05
658.0, 5.433983779822554e-05
659.0, 0.00034405038069331475
660.0, 0.00046712941647225744
661.0, 0.00018199477811063755
662.0, 8.78549803651894e-05
663.0, 0.0002464101646602756
664.0, 4.586966553423477e-05
665.0, 0.00018767886518328216
666.0, 6.75360440801332e-05
667.0, 3.9239589715165705e-05
668.0, 1.563272774782728e-05
669.0, 8.095694828539434e-06
670.0, 2.7621607048978e-05
671.0, 0.0001554374122069564
672.0, 1.717395980655321e-05
673.0, 5.5452069675381144e-05
674.0, 3.2309681142089555e-05
675.0, 2.0843736826395982e-05
676.0, 6.514907470438279e-05
677.0, 0.00019777567791241666
678.0, 0.00030610961925649156
679.0, 0.00011038319445785019
680.0, 0.00012433804426402342
681.0, 6.516393375383585e-05
682.0, 0.0001821346365263019
683.0, 0.00046101128894016525
684.0, 0.00014746666452863154
685.0, 0.00035671115585417473
686.0, 5.671434214401326e-05
687.0, 0.0003670118955501889
688.0, 0.00044031845464726264
689.0, 0.0002808805705982513
690.0, 0.0002542465826432743
691.0, 0.0002976701585277718
692.0, 0.00045555998716617993
693.0, 0.0003654704202807314
694.0, 0.0004894904270005035
695.0, 0.0005293672025024134
696.0, 0.00032058096882533034
697.0, 0.0001666255784548812
698.0, 0.00034199250278776054
699.0, 0.0002478799348104006
700.0, 0.00045766453445956606
701.0, 0.00044808169383349307
702.0, 0.000557084376759988
703.0, 0.0006639807916394389
704.0, 0.0005462816749018575
705.0, 0.0004825703787150922
706.0, 0.0006243186886319096
707.0, 0.0005444627119923736
708.0, 0.0005800375228750221
709.0, 0.0005999848565705565
710.0, 0.000507856710700153
711.0, 0.0005433172380581481
712.0, 0.0007333286807566833
713.0, 0.0005891896017497959
714.0, 0.0008114111527079732
715.0, 0.0005858251073425297
716.0, 0.0004118437825741122
717.0, 0.0005427413130959169
718.0, 0.0007333128952179384
719.0, 0.0008083858151921241
720.0, 0.0004236618561274024
721.0, 0.0005984957769266869
722.0, 0.000735354390784188
723.0, 0.0006440258127162298
724.0, 0.0005180984842971217
725.0, 0.00032651571206202153
726.0, 6.056395529136038e-05
727.0, 0.0004331795629304778
728.0, 0.0005614571437425702
729.0, 0.0004943024920732844
730.0, 0.0005499006396472035
731.0, 0.0005917964317838784
732.0, 0.0004793139103424471
733.0, 0.0004776011304883477
734.0, 0.0005291828207115171
735.0, 0.0003550964122146867
736.0, 0.00041997724345641603
737.0, 0.0005519567361204856
738.0, 0.0005289700083000638
739.0, 0.000418235401529617
740.0, 0.00038730080275897424
741.0, 0.0001907936170120635
742.0, 0.00021535847157738792
743.0, 0.0004117553576667073
744.0, 0.0001917903860182882
745.0, 4.3399839411380095e-05
746.0, 0.00023769838229056574
747.0, 0.00036557099529469823
748.0, 0.0002004119039526991
749.0, 0.0004236169935946429
750.0, 0.0003960938541672384
751.0, 0.0002822970593223473
752.0, 0.00030758448396177047
753.0, 0.0004335634809164073
754.0, 0.0005478747928981936
755.0, 0.0005608379641221851
756.0, 0.00038776339454133906
757.0, 0.0004283245337792892
758.0, 0.0003642942436158412
759.0, 0.0004044706735220642
760.0, 0.0004011811993879888
761.0, 0.00023925349022065973
762.0, 0.0002431756078759724
763.0, 0.00031457705983462545
764.0, 0.0004893727965932133
765.0, 0.00036330516640756553
766.0, 5.956670151470242e-05
767.0, 5.188900062225723e-05
768.0, 0.00015045501800527096
769.0, 0.00011682884896206495
770.0, 0.00030199415631986854
771.0, 9.439173640068271e-05
772.0, 0.0002492049070418495
773.0, 0.0003325753183562871
774.0, 0.00037064254756201116
775.0, 0.00029922742308115117
776.0, 0.0002978489870395836
777.0, 0.0005821176953705647
778.0, 0.0006195307502465826
779.0, 9.996101424516948e-05
780.0, 0.00025866900934043847
781.0, 0.0002307831743421452
782.0, 2.6729642710035184e-05
783.0, 8.207754310385832e-05
784.0, 5.966594664070963e-05
785.0, 0.00035836371548654425
786.0, 0.00023691763064440544
787.0, 0.0002976869048621612
788.0, 0.0005092443251107681
789.0, 0.0006126456400779142
790.0, 0.0003663797244072998
791.0, 7.50066750230564e-05
792.0, 3.125593153496303e-05
793.0, 4.066811134370894e-05
794.0, 0.0003893676585062137
795.0, 0.0005141743476793313
796.0, 0.0003447752211157352
797.0, 0.0002305760554820879
798.0, 0.0002133520821228019
799.0, 0.0001784556983000722
800.0, 0.0001778997689055348
801.0, 0.0003340737546339642
802.0, 0.0004747248566577361
803.0, 0.0002485773140201525
804.0, 6.106658457484507e-05
805.0, 0.0003330601320936797
806.0, 0.0004690024089604602
807.0, 0.00027119808533364407
808.0, 0.00027148379414531216
809.0, 0.0004053435919889815
810.0, 0.00014567718292056225
811.0, 0.00028341972535413166
812.0, 0.0005493547238572377
813.0, 0.0003063678399690852
814.0, 0.00033055535693155946
815.0, 0.0005950123652241013
816.0, 0.0003722827804566888
817.0, 0.0003203981213573897
818.0, 0.00022955682200089593
819.0, 0.0002562817719037103
820.0, 0.0003400352492509235
821.0, 0.0002653254050117429
822.0, 0.00021519490759019033
823.0, 0.00022715473749312918
824.0, 0.00013630032434433853
825.0, 0.00016012223601658606
826.0, 0.0005166361709684907
827.0, 0.0004092067385794204
828.0, 0.0002691055188667859
829.0, 0.00031477115443986686
830.0, 0.00041114875903178693
831.0, 0.0004771540307044625
832.0, 0.0004352974903036349
833.0, 0.00017459506211354382
834.0, 0.00049154746860306
835.0, 0.00044300952014799896
836.0, 0.0007218119961452887
837.0, 0.00046605032846170984
838.0, 0.0002382248891558841
839.0, 0.00046380184547056266
840.0, 0.0005650418632920924
841.0, 0.00028702908562559755
842.0, 0.0002487540297212442
843.0, 0.000158920838683268
844.0, 0.00031662625294660716
845.0, 0.00025673293421599446
846.0, 0.00024943354934387754
847.0, 0.0005076352923927211
848.0, 0.0006442717497287814
849.0, 0.0004666328249967101
850.0, 0.00042045777071490076
851.0, 9.830392446581222e-05
852.0, 0.00033191304311831413
853.0, 0.0003673027722108982
854.0, 0.0001127901365316398
855.0, 9.096239753298894e-05
856.0, 0.0003750238788238557
857.0, 0.0006434486147911781
858.0, 0.0006002264058289177
859.0, 0.0004704012807285393
860.0, 0.0006661900400314983
861.0, 0.0002445495374706272
862.0, 0.00011680267442204268
863.0, 2.5042223679680675e-05
864.0, 0.00024730047954094666
865.0, 0.00033404008873494975
866.0, 0.00038485210696873127
867.0, 0.00023332746957492546
868.0, 0.00020815003220572218
869.0, 0.00038407876398852445
870.0, 0.0004792571381330061
871.0, 0.0006003902499647922
872.0, 0.0004074068987976549
873.0, 0.000318638950819084
874.0, 0.0004827812040081177
875.0, 0.0003905927386250559
876.0, 0.0007757497185123571
877.0, 0.0005151690304689777
878.0, 0.00022963236347757704
879.0, 0.00019924881045468274
880.0, 0.00022892704149095442
881.0, 0.00024915844706556103
882.0, 0.00035307784784121345
883.0, 0.0004478473747953175
884.0, 0.00036576612540824873
885.0, 0.0002485944962241625
886.0, 0.000270557276521502
887.0, 0.0002686110862497479
888.0, 0.00025608299970960756
889.0, 0.0003876635824264468
890.0, 0.00042855394947048994
891.0, 0.0003834532653762415
892.0, 0.0004492246534336555
893.0, 0.0004477680349754882
894.0, 5.333218000555072e-05
895.0, 0.00015238018254079647
896.0, 9.680002739067222e-05
897.0, 0.00029475209560404395
898.0, 0.00019277956098219596
899.0, 0.0002825763179908027
900.0, 0.0005305780520369102
901.0, 0.0003868749624382152
902.0, 0.00015698852820649294
903.0, 0.00018592102141648048
904.0, 0.0004750469657983293
905.0, 0.0004457380184071048
906.0, 0.0002406074676203715
907.0, 0.00017757603917374087
908.0, 0.00011894850608755423
909.0, 0.00027086995597673817
910.0, 0.00034887382051818083
911.0, 0.0002258307335970768
912.0, 0.00018685643471529805
913.0, 0.00022581606565296166
914.0, 0.00011039235598286505
915.0, 0.0004610071358850116
916.0, 0.0006572690778570443
917.0, 0.0002443196572455409
918.0, 5.951240427238423e-05
919.0, 0.00016126509721568527
920.0, 0.0002533816025984465
921.0, 0.00011857767039430172
922.0, 0.0004858629963259725
923.0, 0.0002966597199826559
924.0, 0.00011621257483846585
925.0, 0.0001899563826793235
926.0, 0.00030995914226750345
927.0, 0.0004972318730103635
928.0, 0.0003767584566294852
929.0, 0.00014091082270268606
930.0, 0.0002069212442147876
931.0, 8.799759701009398e-05
932.0, 4.883914515183522e-05
933.0, 0.00033915015041733205
934.0, 0.00037412161231523047
935.0, 8.658981796912651e-05
936.0, 0.0003333209853413963
937.0, 0.0002772086056708111
938.0, 7.448375026029328e-05
939.0, 0.00038084391176881384
940.0, 0.00048654919332219735
941.0, 0.0003355407960153095
942.0, 0.0001312470339068029
943.0, 0.00026020841366217087
944.0, 4.7060295775783585e-05
945.0, 5.8129080063279965e-05
946.0, 4.6664179542449504e-05
947.0, 0.00011564172159634724
948.0, 0.00022241057382919318
949.0, 0.00017899004256031743
950.0, 0.00017931036894051642
951.0, 0.00031872362911044736
952.0, 0.0005460371229861009
953.0, 0.000591675091641809
954.0, 0.000516267179765888
955.0, 0.00033488111258141406
956.0, 0.00016103271045905652
957.0, 8.249226514680276e-05
958.0, 0.0001151799365412202
959.0, 0.00023789547806304424
960.0, 0.00034795501771684356
961.0, 0.00036115309516895574
962.0, 0.00048132097036568194
963.0, 0.0004661285491269225
964.0, 0.00045190120591716304
965.0, 0.0004975355367379501
966.0, 0.0002829712725752495
967.0, 9.67968290136644e-05
968.0, 0.00017677919519656213
969.0, 0.00039925816299040095
970.0, 0.0004894463564838379
971.0, 0.0003266022467109283
972.0, 0.0002332811610770268
973.0, 0.000465863367216751
974.0, 0.0003868750430772605
975.0, 0.00010663966398479023
976.0, 0.00023832537377568318
977.0, 0.0004565635590883375
978.0, 0.0004952726920290209
979.0, 0.00041069184100527316
980.0, 0.0003808264225933828
981.0, 0.0005825541927190346
982.0, 0.0006314189846525102
983.0, 0.00021774621223806482
984.0, 7.529649338300774e-05
985.0, 0.00012208202402126778
986.0, 0.00022461871144123518
987.0, 0.00038434892939143557
988.0, 0.00030463387722390317
989.0, 0.0002698194800012443
990.0, 0.0006251504426118863
991.0, 0.0006806245666514996
992.0, 0.00028659430235615784
993.0, 0.0005775912102112551
994.0, 0.0005982003154399681
995.0, 0.00034997878092973795
996.0, 0.0003532064070273236
997.0, 0.0002876745296254072
998.0, 0.00035020744111373284
999.0, 0.00036335396555083033
1000.0, 0.00032727640850945585
1001.0, 0.00033146196574704496
1002.0, 0.00033846198997971753
1003.0, 0.000401006137968011
1004.0, 0.0005397217924585581
1005.0, 0.0004286775880909404
1006.0, 0.00020520242396858746
1007.0, 0.00037137313962440593
1008.0, 0.0005111707724386919
1009.0, 0.0006585626281306558
1010.0, 0.0004454528539092121
1011.0, 0.00040627570261633403
1012.0, 0.0006250943513499028
1013.0, 0.0004983954922553472
1014.0, 0.00032878741045206267
1015.0, 0.00047835138679552575
1016.0, 0.0007087268073696317
1017.0, 0.0002911163371849055
1018.0, 0.00031299802375677263
1019.0, 0.0004395442910629248
1020.0, 0.00023949463916282735
1021.0, 0.00031177823902482887
1022.0, 0.0001264287427182802
1023.0, 0.00011016091560103119
1024.0, 0.00031302282319650135
1025.0, 7.488097532335477e-05
1026.0, 0.00026185542992333865
1027.0, 5.464866473943307e-05
1028.0, 0.00018934045230709767
1029.0, 0.00015265388862739602
1030.0, 9.687341992847056e-05
1031.0, 9.222455522497708e-05
1032.0, 5.77330642675353e-05
1033.0, 0.0001432212948369863
1034.0, 0.0001719142389537538
1035.0, 0.0001402732849206626
1036.0, 0.00016734024026505913
1037.0, 0.0002670305466975791
1038.0, 0.0002155384182383813
1039.0, 0.00037730234536543735
1040.0, 0.0003546980402855698
1041.0, 0.0003268936596085869
1042.0, 0.0002808980819381555
1043.0, 0.00015572911832082713
1044.0, 0.0003442231685195123
1045.0, 0.00044182238726836524
1046.0, 0.00044072938698027286
1047.0, 0.00013806088938801085
1048.0, 0.0001967835652978378
1049.0, 0.0004858719510553354
1050.0, 0.00015458967127367787
1051.0, 0.0004067599973533189
1052.0, 0.00010090196398727466
1053.0, 4.904159894214975e-05
1054.0, 0.00024369129494696343
1055.0, 4.997285951782412e-05
1056.0, 0.00010000471834347131
1057.0, 4.898096413897994e-05
1058.0, 0.00013397832254152182
1059.0, 0.0002785148411111637
1060.0, 0.00010991265459147942
1061.0, 0.00013152236869028576
1062.0, 0.00047748896466060295
1063.0, 0.00021522016740104836
1064.0, 0.0002555772128999119
1065.0, 0.000545862725738228
1066.0, 4.7896100422964896e-05
1067.0, 2.751384124908041e-05
1068.0, 5.016795691105615e-05
1069.0, 0.0001849537745335255
1070.0, 0.00021812920585891922
1071.0, 0.0004047086833372964
1072.0, 0.0004624920804968881
1073.0, 0.00022192267187803657
1074.0, 9.468570367062189e-05
1075.0, 0.00022964744123804163
1076.0, 0.00036761431328678534
1077.0, 0.00040520242113671064
1078.0, 0.0003154282754279791
1079.0, 0.000497468492140543
1080.0, 0.00020394594907965867
1081.0, 0.0003000331287160588
1082.0, 0.00038264094074801384
1083.0, 0.00016479612988856132
1084.0, 0.0002667943234206343
1085.0, 0.00032801529911850066
1086.0, 0.0004929895056464314
1087.0, 0.0006688837662233264
1088.0, 0.0005017782068979411
1089.0, 0.0003021825049217998
1090.0, 7.611713621770571e-05
1091.0, 0.0002929233506089949
1092.0, 0.00031066053060768847
1093.0, 0.0005141896691032459
1094.0, 0.00023796027500567416
1095.0, 0.0002317706641406959
1096.0, 0.000278154957952067
1097.0, 0.0002776309362850352
1098.0, 0.0004425547070003319
1099.0, 0.0002571131400335025
1100.0, 5.397371993501701e-05
1101.0, 7.308017475746226e-05
1102.0, 5.946941641461026e-05
1103.0, 0.00027311681699584923
1104.0, 0.0005130032317703831
1105.0, 0.00043923863090095046
1106.0, 0.0004580864582544277
1107.0, 0.0005114963451691479
1108.0, 0.00034225536408584553
1109.0, 4.043462095694197e-05
1110.0, 0.00015720542077438693
1111.0, 0.00022335941486571731
1112.0, 0.0003509943286299646
1113.0, 0.0002042607765127105
1114.0, 0.00035969782343090497
1115.0, 0.00047322100891429716
1116.0, 0.0002499073214139082
1117.0, 0.00030594468739040745
1118.0, 0.0002999086788891318
1119.0, 0.0005374435770161967
1120.0, 0.0002330061972824219
1121.0, 0.0003366063875037872
1122.0, 0.00022023711486367245
1123.0, 1.252267286259253e-05
1124.0, 0.0002720307923666704
1125.0, 0.0002818605028755681
1126.0, 0.0001232325332830433
1127.0, 0.0001651620643222449
1128.0, 9.311759275132704e-05
1129.0, 0.00023739604671380737
1130.0, 3.983651467209945e-05
1131.0, 3.870651565003082e-05
1132.0, 0.00023711725585041308
1133.0, 4.2793975201107816e-05
1134.0, 0.0002856119987336973
1135.0, 0.00043707109341922714
1136.0, 0.00025387401758647293
1137.0, 0.00045366187733896765
1138.0, 0.0006464895119126795
1139.0, 0.00038903453337117526
1140.0, 0.0004133981906356672
1141.0, 0.0005368673831486563
1142.0, 0.000475807410851211
1143.0, 0.0002546188460183905
1144.0, 0.00037388614377431323
1145.0, 0.00043613705087282875
1146.0, 0.00017969045886832993
1147.0, 0.00013184164575890956
1148.0, 0.00021679526779210307
1149.0, 0.00020677504606461016
1150.0, 0.00028584060575125893
1151.0, 4.1336770778725044e-05
1152.0, 9.054463404872351e-05
1153.0, 4.5563123930526374e-05
1154.0, 0.0002174476831785776
1155.0, 0.0002997859539322757
1156.0, 0.0004342598776897688
1157.0, 0.00025617486941613107
1158.0, 0.0002308312149444491
1159.0, 0.00035950979844025384
1160.0, 0.00024998034285939774
1161.0, 0.0002743440485639109
1162.0, 0.00023269370760874378
1163.0, 0.0002994489852102642
1164.0, 0.0005157064113825553
1165.0, 0.000355239212028989
1166.0, 0.0002671227131237497
1167.0, 0.00011293384406682767
1168.0, 8.035943516357131e-05
1169.0, 0.0002733211521425056
1170.0, 0.00021881475862850486
1171.0, 7.79212002535512e-05
1172.0, 0.00032505916952283554
1173.0, 0.0003533115345507624
1174.0, 0.0002887034436221324
1175.0, 0.0004250068864361457
1176.0, 0.0002808621133708457
1177.0, 0.00017740942243766895
1178.0, 0.0002774661410713391
1179.0, 0.0003950831250954038
1180.0, 0.00026578145035427165
1181.0, 0.00018830179222230096
1182.0, 0.0003898800015040902
1183.0, 0.0003572974874886482
1184.0, 7.917180539878594e-05
1185.0, 4.0641828018381765e-05
1186.0, 0.00016543850299116495
1187.0, 0.0003859784236037658
1188.0, 0.0003325609096678094
1189.0, 0.000304293416036884
1190.0, 0.00018439148819404146
1191.0, 0.0001488000856477366
1192.0, 0.00037779861013775606
1193.0, 0.00038698122114897365
1194.0, 0.00035822934278249884
1195.0, 0.00010522790855367755
1196.0, 0.0001502780519306015
1197.0, 0.00038050787391955107
1198.0, 0.00045798115713439246
1199.0, 0.00041197773218304624
1200.0, 0.00022834952871140536
1201.0, 0.00012556431218620006
1202.0, 0.00021744646260967514
1203.0, 0.00014387206627399353
1204.0, 0.00013090622384610267
1205.0, 0.00022272512453701157
1206.0, 2.0726068781757875e-05
1207.0, 0.000137353916503297
1208.0, 0.00037956574934453505
1209.0, 0.00020786734715474815
1210.0, 0.00022334878042139277
1211.0, 0.00011565108571201982
1212.0, 0.00028498223394600865
1213.0, 0.0007108700615038824
1214.0, 0.0005491881358540895
1215.0, 8.914913647764978e-05
1216.0, 3.398139857503131e-05
1217.0, 0.0001287094690665505
1218.0, 0.00028484680314245104
1219.0, 0.0003697126721221238
1220.0, 0.00034293769000578165
1221.0, 0.000595916228011705
1222.0, 0.0003636816790246019
1223.0, 0.00010596966258411228
1224.0, 7.4324021006297e-05
1225.0, 8.905093939113595e-05
1226.0, 0.00029315895921950674
1227.0, 8.605478951867801e-05
1228.0, 0.0006949117587382412
1229.0, 0.00019653291446333619
1230.0, 0.00013927620968856683
1231.0, 0.0007368299361923956
1232.0, 0.00040310125391511084
1233.0, 0.00029002829640816956
1234.0, 0.00051975777323274
1235.0, 0.00029092461536861297
1236.0, 0.00029018749262374417
1237.0, 0.00031838980794736806
1238.0, 0.0005616916489748748
1239.0, 0.0006095270451316696
1240.0, 0.00037899644141013104
1241.0, 0.0005015075241462278
1242.0, 0.0006217490249394009
1243.0, 0.00042826487179027797
1244.0, 0.00039957352107396145
1245.0, 0.00031111562446099517
1246.0, 0.00024966679283664356
1247.0, 0.0005025921294087065
1248.0, 0.0004577979607590714
1249.0, 0.00035299335451040987
1250.0, 0.00037190477986517374
1251.0, 0.0006244699671290436
1252.0, 0.00055302453586371
1253.0, 0.0005344193258678855
1254.0, 0.000801585487794401
1255.0, 0.0006075127718278959
1256.0, 0.0005896539776057221
1257.0, 0.000513447557037829
1258.0, 0.00036355245599402174
1259.0, 0.0002838052759496376
1260.0, 0.0004933121831549833
1261.0, 0.0005049223135248669
1262.0, 0.00031910345592022404
1263.0, 0.0005903731574210499
1264.0, 0.0006490155985902659
1265.0, 0.0005591499720677383
1266.0, 0.0002634653399228245
1267.0, 0.00045368851934207585
1268.0, 0.00065126124744421
1269.0, 0.0007380377840078091
1270.0, 0.0008760085429956591
1271.0, 0.0007974390624523642
1272.0, 0.0007711523928547947
1273.0, 0.0008427104545856136
1274.0, 0.0005284480257619858
1275.0, 0.0002962111781497504
1276.0, 0.0007292329037943781
1277.0, 0.0006319116337980924
1278.0, 0.0005965174755454669
1279.0, 0.0008313701313212093
1280.0, 0.0005318895614760065
1281.0, 0.0009346961101227483
1282.0, 0.0008599394728416876
1283.0, 0.0008600074069756219
1284.0, 0.00031548840822345607
1285, 0.0
1286, 0.0
1287, 0.0
1288, 0.0
1289, 0.0
1290, 0.0
1291, 0.0
1292, 0.0
1293, 0.0
1294, 0.0
1295, 0.0
1296, 0.0
1297, 0.0
1298, 0.0
1299, 0.0
1300, 0.0
1301, 0.0
1302, 0.0
1303, 0.0
1304, 0.0
1305, 0.0
1306, 0.0
1307, 0.0
1308, 0.0
1309, 0.0
1310, 0.0
1311, 0.0
1312, 0.0
1313, 0.0
1314, 0.0
1315, 0.0
1316, 0.0
1317, 0.0
1318, 0.0
1319, 0.0
1320, 0.0
1321, 0.0
1322, 0.0
1323, 0.0
1324, 0.0
1325, 0.0
1326, 0.0
1327, 0.0
1328, 0.0
1329, 0.0
1330, 0.0
1331, 0.0
1332, 0.0
1333, 0.0
1334, 0.0
1335, 0.0
1336, 0.0
1337, 0.0
1338, 0.0
1339, 0.0
1340, 0.0
1341, 0.0
1342, 0.0
1343, 0.0
1344, 0.0
1345, 0.0
1346, 0.0
1347, 0.0
1348, 0.0
1349, 0.0
1350, 0.0
1351, 0.0
1352, 0.0
1353, 0.0
1354, 0.0
1355, 0.0
1356, 0.0
1357, 0.0
1358, 0.0
1359, 0.0
1360, 0.0
1361, 0.0
1362, 0.0
1363, 0.0
1364, 0.0
1365, 0.0
1366, 0.0
1367, 0.0
1368, 0.0
1369, 0.0
1370, 0.0
1371, 0.0
1372, 0.0
1373, 0.0
1374, 0.0
1375, 0.0
1376, 0.0
1377, 0.0
1378, 0.0
1379, 0.0
1380, 0.0
1381, 0.0
1382, 0.0
1383, 0.0
1384, 0.0
1385, 0.0
1386, 0.0
1387, 0.0
1388, 0.0
1389, 0.0
1390, 0.0
1391, 0.0
1392, 0.0
1393, 0.0
1394, 0.0
1395, 0.0
1396, 0.0
1397, 0.0
1398, 0.0
1399, 0.0
1400, 0.0
1401, 0.0
1402, 0.0
1403, 0.0
1404, 0.0
1405, 0.0
1406, 0.0
1407, 0.0
1408, 0.0
1409, 0.0
1410, 0.0
1411, 0.0
1412, 0.0
1413, 0.0
1414, 0.0
1415, 0.0
1416, 0.0
1417, 0.0
1418, 0.0
1419, 0.0
1420, 0.0
1421, 0.0
1422, 0.0
1423, 0.0
1424, 0.0
1425, 0.0
1426, 0.0
1427, 0.0
1428, 0.0
1429, 0.0
1430, 0.0
1431, 0.0
1432, 0.0
1433, 0.0
1434, 0.0
1435, 0.0
1436, 0.0
1437, 0.0
1438, 0.0
1439, 0.0
1440, 0.0
1441, 0.0
1442, 0.0
1443, 0.0
1444, 0.0
1445, 0.0
1446, 0.0
1447, 0.0
1448, 0.0
1449, 0.0
1450, 0.0
1451, 0.0
1452, 0.0
1453, 0.0
1454, 0.0
1455, 0.0
1456, 0.0
1457, 0.0
1458, 0.0
1459, 0.0
1460, 0.0
1461, 0.0
1462, 0.0
1463, 0.0
1464, 0.0
1465, 0.0
1466, 0.0
1467, 0.0
1468, 0.0
1469, 0.0
1470, 0.0
1471, 0.0
1472, 0.0
1473, 0.0
1474, 0.0
1475, 0.0
1476, 0.0
1477, 0.0
1478, 0.0
1479, 0.0
1480, 0.0
1481, 0.0
1482, 0.0
1483, 0.0
1484, 0.0
1485, 0.0
1486, 0.0
1487, 0.0
1488, 0.0
1489, 0.0
1490, 0.0
1491, 0.0
1492, 0.0
1493, 0.0
1494, 0.0
1495, 0.0
1496, 0.0
1497, 0.0
1498, 0.0
1499, 0.0
1500, 0.0
1501, 0.0
1502, 0.0
1503, 0.0
1504, 0.0
1505, 0.0
1506, 0.0
1507, 0.0
1508, 0.0
1509, 0.0
1510, 0.0
1511, 0.0
1512, 0.0
1513, 0.0
1514, 0.0
1515, 0.0
1516, 0.0
1517, 0.0
1518, 0.0
1519, 0.0
1520, 0.0
1521, 0.0
1522, 0.0
1523, 0.0
1524, 0.0
1525, 0.0
1526, 0.0
1527, 0.0
1528, 0.0
1529, 0.0
1530, 0.0
1531, 0.0
1532, 0.0
1533, 0.0
1534, 0.0
1535, 0.0
1536, 0.0
1537, 0.0
1538, 0.0
1539, 0.0
1540, 0.0
1541, 0.0
1542, 0.0
1543, 0.0
1544, 0.0
1545, 0.0
1546, 0.0
1547, 0.0
1548, 0.0
1549, 0.0
1550, 0.0
1551, 0.0
1552, 0.0
1553, 0.0
1554, 0.0
1555, 0.0
1556, 0.0
1557, 0.0
1558, 0.0
1559, 0.0
1560, 0.0
1561, 0.0
1562, 0.0
1563, 0.0
1564, 0.0
1565, 0.0
1566, 0.0
1567, 0.0
1568, 0.0
1569, 0.0
1570, 0.0
1571, 0.0
1572, 0.0
1573, 0.0
1574, 0.0
1575, 0.0
1576, 0.0
1577, 0.0
1578, 0.0
1579, 0.0
1580, 0.0
1581, 0.0
1582, 0.0
1583, 0.0
1584, 0.0
1585, 0.0
1586, 0.0
1587, 0.0
1588, 0.0
1589, 0.0
1590, 0.0
1591, 0.0
1592, 0.0
1593, 0.0
1594, 0.0
1595, 0.0
1596, 0.0
1597, 0.0
1598, 0.0
1599, 0.0
