30, 0.0
31, 0.0
32, 0.0
33, 0.0
34, 0.0
35, 0.0
36, 0.0
37, 0.0
38, 0.0
39, 0.0
40, 0.0
41, 0.0
42, 0.0
43, 0.0
44, 0.0
45, 0.0
46, 0.0
47, 0.0
48, 0.0
49, 0.0
50, 0.0
51, 0.0
52, 0.0
53, 0.0
54, 0.0
55, 0.0
56, 0.0
57, 0.0
58, 0.0
59, 0.0
60, 0.0
61, 0.0
62, 0.0
63, 0.0
64, 0.0
65, 0.0
66, 0.0
67, 0.0
68, 0.0
69, 0.0
70, 0.0
71, 0.0
72, 0.0
73, 0.0
74, 0.0
75, 0.0
76, 0.0
77, 0.0
78, 0.0
79, 0.0
80, 0.0
81, 0.0
82, 0.0
83, 0.0
84, 0.0
85, 0.0
86, 0.0
87, 0.0
88, 0.0
89, 0.0
90, 0.0
91, 0.0
92.0, 0.044051975623166185
93.0, 0.10946318446253525
94.0, 0.1505806203055102
95.0, 0.2003108280314315
96.0, 0.31053623997884366
97.0, 0.41084957228793256
98.0, 0.49599070850915455
99.0, 0.6502150864792419
100.0, 0.792600811409272
101.0, 0.9161980990578189
102.0, 0.9673801815004838
103.0, 0.9101484525203587
104.0, 0.7464856336366071
105.0, 0.5302714367566924
106.0, 0.3325130336166413
107.0, 0.20192928532665833
108.0, 0.10200334081908921
109.0, 0.035253372584258244
110.0, 0.004122579519174304
111.0, 0.017301080629471333
112.0, 0.00512388862727693
113.0, 0.018816521355019652
114.0, 0.03452626252318441
115.0, 0.03864721106131423
116.0, 0.04966258340912812
117.0, 0.04953277506395175
118.0, 0.036835096659270816
119.0, 0.019986726170728067
120.0, 0.009507862009848121
121.0, 0.007607668363901883
122.0, 0.010676454641913562
123.0, 0.03200553674196756
124.0, 0.02622843557226574
125.0, 0.018154484757761883
126.0, 0.008729344204090342
127.0, 0.01923000563919431
128.0, 0.07295861552326727
129.0, 0.1063499380462107
130.0, 0.15217300981996268
131.0, 0.20910742373899652
132.0, 0.2615446375285741
133.0, 0.32082665760196516
134.0, 0.41221627179118125
135.0, 0.5033034556403233
136.0, 0.5785324709534251
137.0, 0.6588212854169324
138.0, 0.7655691025495088
139.0, 0.8408387572162507
140.0, 0.8922054918587182
141.0, 0.9591522410086182
142.0, 0.9929520428812372
143.0, 0.9983310133828766
144.0, 0.9739874016681125
145.0, 0.9129187074592979
146.0, 0.8203862898781775
147.0, 0.7310048984492268
148.0, 0.627794180488391
149.0, 0.5108241447899035
150.0, 0.42594713732361467
151.0, 0.33739976342758876
152.0, 0.2591550632629233
153.0, 0.1965347576766191
154.0, 0.14310327417438407
155.0, 0.11090572658471724
156.0, 0.07516442389114686
157.0, 0.04508157501166378
158.0, 0.037367823059023364
159.0, 0.01815138411256776
160.0, 0.007706872302558916
161.0, 0.0016740031375589376
162.0, 0.006689825651665936
163.0, 0.003111183227640234
164.0, 0.0030767622764996724
165.0, 0.003982380049295022
166.0, 0.0030651005789168466
167.0, 0.002624127993474783
168.0, 0.0021806586818535595
169.0, 0.005057161265830077
170.0, 0.006172553172074861
171.0, 0.001958373873661432
172.0, 0.01167483497385595
173.0, 0.012275821767139152
174.0, 0.0066613144088044475
175.0, 0.005510157919490404
176.0, 0.014712273799872026
177.0, 0.012775110929926987
178.0, 0.01006233972528301
179.0, 0.013951836953137864
180.0, 0.01735401803623217
181.0, 0.006672307735710956
182.0, 0.0031214204108690876
183.0, 0.008160454596350042
184.0, 0.007540347694865591
185.0, 0.0073140470700758815
186.0, 0.013439651211576037
187.0, 0.015004421745630952
188.0, 0.010104620174526043
189.0, 0.020655048475484793
190.0, 0.02624512662876966
191.0, 0.02996625238156376
192.0, 0.0362225135864832
193.0, 0.043986135055781576
194.0, 0.04483834447606041
195.0, 0.04645881482527027
196.0, 0.049434596245927206
197.0, 0.05027997114382515
198.0, 0.04854834130052971
199.0, 0.05460365401125795
200.0, 0.0629485200021447
201.0, 0.06815505192271341
202.0, 0.07283299627104878
203.0, 0.0747043139591966
204.0, 0.07981419918689785
205.0, 0.08393652068621416
206.0, 0.08284147420862556
207.0, 0.08854329256321647
208.0, 0.09725643816831811
209.0, 0.09507172454895248
210.0, 0.08607994992812808
211.0, 0.09434526178223147
212.0, 0.0965607086353035
213.0, 0.10184155739304471
214.0, 0.10622502334018408
215.0, 0.09869418552662514
216.0, 0.10053513030223836
217.0, 0.09491466353927928
218.0, 0.09358713410583494
219.0, 0.10522301398252601
220.0, 0.09704139593502585
221.0, 0.0926764560921179
222.0, 0.0869368267109761
223.0, 0.08375001265465795
224.0, 0.09414078363692874
225.0, 0.09240757931943529
226.0, 0.08651980962830183
227.0, 0.0838843882375428
228.0, 0.08409440605914192
229.0, 0.07975417932009549
230.0, 0.07800544741763654
231.0, 0.07840646930055929
232.0, 0.07987809162616717
233.0, 0.08219188689036272
234.0, 0.08544342666533382
235.0, 0.0794394849013604
236.0, 0.07432553591702375
237.0, 0.07738662394506005
238.0, 0.07381037353219758
239.0, 0.07662122484411585
240.0, 0.07518335142200303
241.0, 0.07060637978600058
242.0, 0.07229285650532827
243.0, 0.07109603836617417
244.0, 0.0740259379754792
245.0, 0.0752439415815771
246.0, 0.07159118591017127
247.0, 0.06928531938440381
248.0, 0.07030800349402265
249.0, 0.06921872097566988
250.0, 0.06538915316905887
251.0, 0.061032253759254584
252.0, 0.05902426902264174
253.0, 0.053594222058276304
254.0, 0.05084225768277178
255.0, 0.05233209103042135
256.0, 0.052553589486135414
257.0, 0.05300549210605174
258.0, 0.051426012959256494
259.0, 0.048351744130204634
260.0, 0.04572312014170757
261.0, 0.04658090741155691
262.0, 0.045636667072325325
263.0, 0.04385621013056579
264.0, 0.04209864605920054
265.0, 0.041025050230151315
266.0, 0.04474245562121826
267.0, 0.03859608067201645
268.0, 0.031928841563108615
269.0, 0.030776900980532405
270.0, 0.023223027340654498
271.0, 0.025406820008864812
272.0, 0.023247566401408234
273.0, 0.01667952237994816
274.0, 0.015337723790550071
275.0, 0.025851996115691243
276.0, 0.02205683249610752
277.0, 0.012138075030501513
278.0, 0.007612679096357388
279.0, 0.011767853625487134
280.0, 0.009671411145460421
281.0, 0.008719267436963914
282.0, 0.008364806030205878
283.0, 0.007961016791680167
284.0, 0.013733518069184585
285.0, 0.009762087980079173
286.0, 0.009732382572541208
287.0, 0.012914628010288703
288.0, 0.010473948467393806
289.0, 0.00393159433874413
290.0, 0.006123122288381446
291.0, 0.006777634400702223
292.0, 0.0034946941971961817
293.0, 0.00570999266616879
294.0, 0.007623906442727315
295.0, 0.009576405106431457
296.0, 0.005468654648801678
297.0, 0.00014822506769643733
298.0, 0.0079362291133633
299.0, 0.0038142643417689143
300.0, 0.0006700729471305572
301.0, 0.002754390806228935
302.0, 0.0034212921682630383
303.0, 0.0011530751019314695
304.0, 0.0008705808661084066
305.0, 0.0007174595370689219
306.0, 0.0008124662381194655
307.0, 0.003066161544288055
308.0, 0.0006740612596658794
309.0, 0.007032545323215176
310.0, 0.013676092192923907
311.0, 0.013787277513297799
312.0, 0.006115093905162537
313.0, 0.002768628572668722
314.0, 0.005168580591429111
315.0, 0.006532295959498938
316.0, 0.004524691557429598
317.0, 0.005587156025829921
318.0, 0.00648359222311608
319.0, 0.0034057392914767733
320.0, 0.0017285326906306489
321.0, 0.0049626457296775344
322.0, 0.0067203797735928385
323.0, 0.007602755656955636
324.0, 0.008682998313103873
325.0, 0.00701864908575677
326.0, 0.0032478607805144066
327.0, 0.006419849251032909
328.0, 0.009442278621225004
329.0, 0.007580694824693517
330.0, 0.004435877218210048
331.0, 0.004827495915776706
332.0, 0.005278503695716816
333.0, 0.004061082715684967
334.0, 0.0037197330849421464
335.0, 0.00437753548533837
336.0, 0.003353248166552583
337.0, 0.003473404857496356
338.0, 0.00032104026008968035
339.0, 0.0008582647474666495
340.0, 0.0019238190113281413
341.0, 0.007829333226702399
342.0, 0.005126982666660539
343.0, 0.0036096779372429737
344.0, 0.0023239867271086763
345.0, 0.0006067324804173548
346.0, 0.0005551749746251862
347.0, 0.0031789832433113505
348.0, 0.003706133905205195
349.0, 0.0022210615417603595
350.0, 0.0063967729459020375
351.0, 0.0036376054487954113
352.0, 0.004721360397063064
353.0, 0.0073051108262304435
354.0, 0.006298201985443055
355.0, 0.003916046891889564
356.0, 0.0009414510713882204
357.0, 0.003812951873328388
358.0, 0.007970499679285478
359.0, 0.008275870822264665
360.0, 0.00699172825611326
361.0, 0.007204768600618443
362.0, 0.005134150710023499
363.0, 0.004667013773053926
364.0, 0.004303859602257161
365.0, 0.0018352925316489571
366.0, 0.0019033454169782244
367.0, 0.0011579559909655945
368.0, 0.003417355251767954
369.0, 0.00840274998796924
370.0, 0.010255653965075185
371.0, 0.007926075317767957
372.0, 0.009843868636021182
373.0, 0.009177751910584384
374.0, 0.004951612628499822
375.0, 0.0023041449793471318
376.0, 0.003814140179280374
377.0, 0.003940686232429996
378.0, 0.0020869427490346044
379.0, 0.00013672467386036368
380.0, 0.0015196488817195665
381.0, 0.003712108474740447
382.0, 0.00041488482181807737
383.0, 0.0022204159381711886
384.0, 0.0006570914690509196
385.0, 0.001696468404411957
386.0, 0.010768039807646427
387.0, 0.01014634267524709
388.0, 0.007326248305837216
389.0, 0.0033404448904661623
390.0, 0.0015370722281015713
391.0, 0.009617937012694752
392.0, 0.012161160375727141
393.0, 0.011162590237545057
394.0, 0.010850964226788589
395.0, 0.00895019692753071
396.0, 0.001804081082546894
397.0, 0.005135154976477585
398.0, 0.007738551156660848
399.0, 0.00955720585085075
400.0, 0.009057401131817033
401.0, 0.0034208970206899836
402.0, 0.0011043566753341373
403.0, 0.005810691862916434
404.0, 0.0054719789871856
405.0, 0.0022803740703834447
406.0, 0.007081381486795686
407.0, 0.0016136824631325978
408.0, 0.008236902711773086
409.0, 0.008413861590974358
410.0, 0.0038595249391388487
411.0, 0.01019515060685189
412.0, 0.006743679056213203
413.0, 0.005414475918025705
414.0, 0.008964469185023019
415.0, 0.010835268768868258
416.0, 0.006288993914567478
417.0, 0.003230758660125144
418.0, 0.003980893888821904
419.0, 0.007775902046331057
420.0, 0.007089475248950646
421.0, 0.0015220953039356776
422.0, 0.0005878849839880144
423.0, 0.008940820415636503
424.0, 0.0063636874831140685
425.0, 0.006516603131039577
426.0, 0.012095487055704054
427.0, 0.00725905979460309
428.0, 0.005571685882530596
429.0, 0.00513893126597044
430.0, 0.0036876552799218016
431.0, 0.005181385487403777
432.0, 0.011555062314318219
433.0, 0.009234388188740977
434.0, 0.008894800411300984
435.0, 0.008954024020821351
436.0, 0.010048455380428279
437.0, 0.01209506969216127
438.0, 0.009339340888761668
439.0, 0.0030222299950175063
440.0, 0.0022661286848061845
441.0, 0.00231155176337683
442.0, 0.008370753254259412
443.0, 0.005656366978994396
444.0, 0.009281456876215607
445.0, 0.010381434841601736
446.0, 0.008961545695655708
447.0, 0.008402791335052508
448.0, 0.010764821727013109
449.0, 0.001239650233687374
450.0, 0.00848386020521777
451.0, 0.012993532990348776
452.0, 0.007824043584631592
453.0, 0.004839225864459617
454.0, 0.008437193824157745
455.0, 0.012182675350364117
456.0, 0.010112905530979653
457.0, 0.010155822106240536
458.0, 0.015097114474865463
459.0, 0.012675491045775398
460.0, 0.006317943703889938
461.0, 0.008223906816258168
462.0, 0.012224511095641311
463.0, 0.011330312062600009
464.0, 0.00468868126398754
465.0, 0.0023537562604376973
466.0, 0.00565638565613729
467.0, 0.008864191912972975
468.0, 0.010630221582316931
469.0, 0.012011218825970532
470.0, 0.010414544393435452
471.0, 0.008116325097766287
472.0, 0.007749083989229493
473.0, 0.00646263814899178
474.0, 0.007011820986883091
475.0, 0.012776173471684806
476.0, 0.008662079175317883
477.0, 0.007586594198430539
478.0, 0.00896908231417398
479.0, 0.00579162855016062
480.0, 0.0007346032873315644
481.0, 0.0038964816177739507
482.0, 0.0075486696077025515
483.0, 0.005474899358520143
484.0, 0.007645767286544372
485.0, 0.011272443332518024
486.0, 0.005674637708097126
487.0, 0.00846534409593646
488.0, 0.006423921182716279
489.0, 0.0029517216361689175
490.0, 0.005465321138064044
491.0, 0.010658869570460092
492.0, 0.005963957365003142
493.0, 0.007023215366556885
494.0, 0.0034712926130918463
495.0, 0.0026839920568717877
496.0, 0.006771920619791924
497.0, 0.008604735254823083
498.0, 0.008700553844288113
499.0, 0.008803023773577565
500.0, 0.00800856502954027
501.0, 0.008295145270676117
502.0, 0.008758685798760232
503.0, 0.003184390025118557
504.0, 0.0008617276532597732
505.0, 0.001333253522238427
506.0, 0.0019483247177685557
507.0, 0.006781275627055956
508.0, 0.01414032220605274
509.0, 0.002189483677606527
510.0, 0.0010732516042906224
511.0, 0.0054811786756880755
512.0, 0.0016085092107861116
513.0, 0.004374104665027518
514.0, 0.009889279007693898
515.0, 0.003431781358872712
516.0, 0.0035975266346345244
517.0, 0.002226759900186074
518.0, 0.001021902379149097
519.0, 0.005952397153748976
520.0, 0.008606258483945799
521.0, 0.0027175262287954744
522.0, 0.006938330948393574
523.0, 0.008993789804099981
524.0, 0.006280158521500259
525.0, 0.007777999609210953
526.0, 0.011417396008331792
527.0, 0.008624915215892232
528.0, 0.009217790328498485
529.0, 0.010394613425713347
530.0, 0.007614250886051515
531.0, 0.004396714563477531
532.0, 0.012766693484471726
533.0, 0.00555326220200558
534.0, 0.003936470052436506
535.0, 0.005224603869934721
536.0, 0.000717890455052156
537.0, 0.0020974187663282927
538.0, 0.007556097018264079
539.0, 0.008401077724183735
540.0, 0.0069708080617896535
541.0, 0.00632836939733071
542.0, 0.007122171649678286
543.0, 0.00788657268899297
544.0, 0.009873136297802388
545.0, 0.0033872411025564777
546.0, 0.0011732490768969549
547.0, 0.0043877758438093705
548.0, 0.003520467031345044
549.0, 0.007407693050723641
550.0, 0.0016937252201309721
551.0, 0.0014785756739370247
552.0, 0.004687564463789566
553.0, 0.005923385542190332
554.0, 0.006583388908586826
555.0, 0.013430858556101068
556.0, 0.01338777527420119
557.0, 0.007348378909968127
558.0, 0.0021221700855280994
559.0, 0.0036817765732791875
560.0, 0.01035971290635014
561.0, 0.008894806119893727
562.0, 0.0030984613016813442
563.0, 0.004983995712758963
564.0, 0.007628135223756807
565.0, 0.009931788942418
566.0, 0.017509430973638045
567.0, 0.0032592642051177023
568.0, 0.016324962007568004
569.0, 0.015630153455428054
570.0, 0.005063127302860086
571.0, 0.0010290687406409116
572.0, 0.0030279320746733666
573.0, 0.00600226794524864
574.0, 0.006576385331807284
575.0, 0.004519089379737119
576.0, 0.0032900339917438627
577.0, 0.0024065126920141885
578.0, 0.0009440039256830243
579.0, 0.0018746908301737143
580.0, 0.008232104499126631
581.0, 0.005707299325669851
582.0, 0.002282558963650711
583.0, 0.0035019159566205527
584.0, 0.0017431827143430682
585.0, 0.0005536100298085132
586.0, 0.005742329499030919
587.0, 0.004129493990449853
588.0, 0.004541948951371546
589.0, 0.009677453789159534
590.0, 0.0060769292461271196
591.0, 0.0031501861239919384
592.0, 0.0025028996331153716
593.0, 0.0047640083326200055
594.0, 0.004278598875702647
595.0, 0.0018652163106434249
596.0, 0.0032779973614302867
597.0, 0.0016917716504110264
598.0, 0.009315309088438486
599.0, 0.00727882304270202
600.0, 0.0037157267940258914
601.0, 0.006036351428755693
602.0, 0.0064446990232536455
603.0, 0.0011450129265537334
604.0, 0.0037448554326355507
605.0, 0.0020643325791675276
606.0, 0.005215878667746502
607.0, 0.007738867109574101
608.0, 0.002436776696179156
609.0, 0.007625591214610031
610.0, 0.007561673006245704
611.0, 0.00622488167124364
612.0, 0.0035279473646404056
613.0, 0.0013274941274858643
614.0, 0.0017943444645595432
615.0, 0.004030166600347545
616.0, 0.007362051182569281
617.0, 0.007735008730017342
618.0, 0.007348376425640132
619.0, 0.007135642904589215
620.0, 0.008652042001695608
621.0, 0.012750883487252104
622.0, 0.0086027285468593
623.0, 0.0020880852156582837
624.0, 0.00043286078000605624
625.0, 0.003588893287723599
626.0, 0.0076906862259511575
627.0, 0.008329343036849235
628.0, 0.004454963945109778
629.0, 0.0027876828629301346
630.0, 0.002699091972349618
631.0, 0.002416372613209537
632.0, 0.008289251815346269
633.0, 0.010023305222558811
634.0, 0.002593394479500236
635.0, 0.007179166480916306
636.0, 0.0021998376481590616
637.0, 0.0014366175950370449
638.0, 0.00047882167090606187
639.0, 0.0025956128339282634
640.0, 0.003344127712030253
641.0, 0.006453002094517529
642.0, 0.0011336387056182751
643.0, 0.003949033878616477
644.0, 0.006511384926805458
645.0, 0.004540780609408545
646.0, 0.0027964368543462736
647.0, 0.004124260501342745
648.0, 0.00819873542542636
649.0, 0.0045865411855501755
650.0, 0.005907551325079191
651.0, 0.006354149059106342
652.0, 0.0022135997748281965
653.0, 0.001144821647625172
654.0, 0.005519455820058221
655.0, 0.008049270698656113
656.0, 0.005880181907999705
657.0, 0.0011877509172110697
658.0, 0.0006498633497073443
659.0, 0.00362713994687964
660.0, 0.004752178147802251
661.0, 0.003181021857911469
662.0, 0.0056736294452549435
663.0, 0.002422516856380933
664.0, 0.0052095570243162114
665.0, 0.010367977218521335
666.0, 0.007313782518162675
667.0, 0.007841325417927337
668.0, 0.009280186369388158
669.0, 0.015111245004121875
670.0, 0.013876800722470179
671.0, 0.01272688227213871
672.0, 0.01471946921123092
673.0, 0.006647628788748751
674.0, 0.0018987972702646314
675.0, 0.004852146130323042
676.0, 0.003752732525636148
677.0, 0.004467773332625043
678.0, 0.008477564266264065
679.0, 0.010525295238786687
680.0, 0.0104295800572938
681.0, 0.013310144336221042
682.0, 0.007377747392574552
683.0, 0.00925236669653884
684.0, 0.009019677800260268
685.0, 0.0012554685276711744
686.0, 6.495071168874837e-05
687.0, 0.0007130118246726213
688.0, 0.0009710237137991995
689.0, 0.00022601964591343742
690.0, 0.004728767098609294
691.0, 0.006030451978867471
692.0, 0.002750053598350644
693.0, 0.002884153478011822
694.0, 0.008142066157537693
695.0, 0.009814627390332644
696.0, 0.00679550633371458
697.0, 0.00254026705741161
698.0, 0.0006819532935515035
699.0, 0.0008879906781390366
700.0, 0.0010765612440527064
701.0, 0.0027948492185712326
702.0, 0.004698763779026904
703.0, 0.006594892544645436
704.0, 0.006607898899360172
705.0, 0.006916791105453667
706.0, 0.009129702121829402
707.0, 0.009537251742280244
708.0, 0.006256238481360428
709.0, 0.0007623560178173996
710.0, 0.005116840438382742
711.0, 0.00632425532346685
712.0, 0.0013039866477567285
713.0, 0.0013658287619466997
714.0, 0.002997745014901235
715.0, 0.005305202743867177
716.0, 0.0013177655169918376
717.0, 0.0003461100002168596
718.0, 0.0012401161312959414
719.0, 0.0015890765564816483
720.0, 0.00136794930511875
721.0, 0.003482560359950342
722.0, 0.0012842610565446148
723.0, 0.00490174218015902
724.0, 0.004354377777483224
725.0, 0.0028057679279791317
726.0, 0.004601136723830012
727.0, 0.005074153522985365
728.0, 0.00091737785094775
729.0, 0.001647503642415971
730.0, 0.004304891824488724
731.0, 0.00533133832208682
732.0, 0.005240657083594159
733.0, 0.006683914616587261
734.0, 0.00924043901821179
735.0, 0.009317856979571267
736.0, 0.006789834945143982
737.0, 0.0020113907685261057
738.0, 0.0016067938729112646
739.0, 0.00076410569699066
740.0, 0.003840695038021788
741.0, 0.007300428847233194
742.0, 0.004125530407641915
743.0, 0.0053993296953623125
744.0, 0.0066925378122905934
745.0, 0.004416659047585567
746.0, 0.004085041722242774
747.0, 0.0035003792620822093
748.0, 0.0036810878005932354
749.0, 0.0060826137319322515
750.0, 0.004348844957226224
751.0, 0.002120419270057404
752.0, 0.003810354553003418
753.0, 0.007701508094899846
754.0, 0.0033861779651215033
755.0, 0.000953727921360591
756.0, 0.002688882885262812
757.0, 0.007670482630104611
758.0, 0.0065932835364997475
759.0, 0.0022598318557748155
760.0, 0.0022516778183587776
761.0, 0.0069227140688817804
762.0, 0.006458359095837939
763.0, 0.002861661183006615
764.0, 0.0031482696882893465
765.0, 0.004050817243287155
766.0, 0.004759400765504378
767.0, 0.0018640418744200475
768.0, 0.006407895003897767
769.0, 0.0058998103446607775
770.0, 0.002905442657610301
771.0, 0.004075921549443004
772.0, 0.004094212385214321
773.0, 0.0028009831532846132
774.0, 0.0010251901866398664
775.0, 0.0037316598471869465
776.0, 0.0026194888715919576
777.0, 0.004751979760843221
778.0, 0.008790193234224827
779.0, 0.0059588164609054445
780.0, 0.005716586587830864
781.0, 0.0032197501412842724
782.0, 0.004897440414169744
783.0, 0.005936187116935586
784.0, 0.0013235548908500953
785.0, 0.003026292711255437
786.0, 0.011683668343714839
787.0, 0.009941910406002528
788.0, 0.004948610612917684
789.0, 0.009065410852265485
790.0, 0.007375504022871328
791.0, 0.005850920591085055
792.0, 0.0022049110775772445
793.0, 0.0019588574955711007
794.0, 0.00132052638902038
795.0, 0.0031254827198027944
796.0, 0.0025893209960370757
797.0, 0.0008943467922213539
798.0, 0.002050356199537493
799.0, 0.0030837126358528727
800.0, 0.005791495631424326
801.0, 0.005998655349741716
802.0, 0.0030296158450086063
803.0, 0.006420724914125806
804.0, 0.01467308739578807
805.0, 0.007721872049953604
806.0, 0.005455340212383105
807.0, 0.002363503331112071
808.0, 0.0023229725687234568
809.0, 0.0052207060667620805
810.0, 0.0043248871874706045
811.0, 0.0017227915119543886
812.0, 0.000957973700861444
813.0, 0.009278701688839321
814.0, 0.002034234290943474
815.0, 0.004736355784355154
816.0, 0.007411778530765624
817.0, 0.0042614003049302905
818.0, 0.006760154513145901
819.0, 0.008012796087858775
820.0, 0.007556561141977186
821.0, 0.006133916558053853
822.0, 0.0007335664347516841
823.0, 0.004109352951195159
824.0, 0.006361385018573657
825.0, 0.005367549444928999
826.0, 0.007158828012566397
827.0, 0.00725210293604338
828.0, 0.0008967035574571644
829.0, 0.010834127588659273
830.0, 0.005651796233552666
831.0, 0.0008650659580106062
832.0, 0.006303672600984258
833.0, 0.005613486518353706
834.0, 0.002249503490877986
835.0, 0.009753325254502149
836.0, 0.007706338851190627
837.0, 0.0060026992317524204
838.0, 0.0050380026924622
839.0, 0.0033617082841241688
840.0, 0.006526341890138785
841.0, 0.007229130329268839
842.0, 0.0016065176361955054
843.0, 0.000803951751983711
844.0, 0.0023671498915162994
845.0, 0.0033299152935146554
846.0, 0.008107687757478436
847.0, 0.006186261640232741
848.0, 0.0008183912961366636
849.0, 0.0052353360317521115
850.0, 0.011083209871476983
851.0, 0.006242189389085337
852.0, 0.0017599969593826304
853.0, 0.0063112964712496835
854.0, 0.006785895086775497
855.0, 0.005375591936986534
856.0, 0.005673600358956299
857.0, 0.007942873697244984
858.0, 0.005598740869464981
859.0, 0.0024541695588905232
860.0, 0.007664448790280165
861.0, 0.009891671662279566
862.0, 0.009702511544322744
863.0, 0.006261091492941221
864.0, 0.007155025714481908
865.0, 0.010181488525560268
866.0, 0.004127518590760937
867.0, 0.0011582061187609296
868.0, 0.006889257258549901
869.0, 0.004716578534654466
870.0, 0.00031908802435204
871.0, 0.004603930447031064
872.0, 0.0011335154335414105
873.0, 0.005423717109927254
874.0, 0.009281744336209152
875.0, 0.0033243030706444406
876.0, 0.0006591875151894731
877.0, 0.005275866911408294
878.0, 0.005618146145547643
879.0, 0.0019607629394623647
880.0, 0.0064341695400596255
881.0, 0.009719095817614116
882.0, 0.009682019869783601
883.0, 0.006697359610702004
884.0, 0.006142971365547136
885.0, 0.006416286195529807
886.0, 0.003487356492929218
887.0, 0.004813700860175389
888.0, 0.007779763013878499
889.0, 0.005954248764574348
890.0, 0.005151377206314483
891.0, 0.0036988685073964522
892.0, 0.006946549584673518
893.0, 0.013471148856834505
894.0, 0.013958646106775914
895.0, 0.006949276465389461
896.0, 0.004669816403231792
897.0, 0.010150492100093826
898.0, 0.002988368231339639
899.0, 0.0019414179158208046
900.0, 0.0007789169432256607
901.0, 0.003219405366590828
902.0, 0.0077669838958041365
903.0, 0.0072322349744097245
904.0, 0.004463986346656234
905.0, 0.008876959730903081
906.0, 0.007677976575074663
907.0, 0.0014334440857264596
908.0, 0.0026101646444592137
909.0, 0.0030465087969575593
910.0, 0.004440867085884311
911.0, 0.005117201816966864
912.0, 0.005821657987324221
913.0, 0.005857858193421194
914.0, 0.005279108798696649
915.0, 0.008627326315274148
916.0, 0.0013529432237345913
917.0, 0.008640568109225123
918.0, 0.005652467942246794
919.0, 0.002712121245872249
920.0, 0.001880252411443305
921.0, 0.0037724018875809466
922.0, 0.00864388758688524
923.0, 0.00949580670468936
924.0, 0.0027619709701928443
925.0, 0.005263634466104041
926.0, 0.0030303697152580782
927.0, 0.0020924372713187495
928.0, 0.001639094481129943
929.0, 0.00542535464412908
930.0, 0.009699990859263343
931.0, 0.006036866062967071
932.0, 0.0038579205643900745
933.0, 0.010130653982568112
934.0, 0.0023518462661154703
935.0, 0.012085257858070792
936.0, 0.007504219409172929
937.0, 0.004786278757467686
938.0, 0.004831269109689514
939.0, 0.0014882608775250872
940.0, 0.006801051942863968
941.0, 0.015230764104914328
942.0, 0.009752249722746882
943.0, 0.00603474997010777
944.0, 0.008392680552291563
945.0, 0.005969553515965943
946.0, 0.0005358505962361521
947.0, 0.004723230364195308
948.0, 0.007460544040154929
949.0, 0.007954954856011748
950.0, 0.0056708391408948145
951.0, 0.003554960383322273
952.0, 0.0050782253545807975
953.0, 0.00628655895491237
954.0, 0.005052052293391014
955.0, 0.004995300048944471
956.0, 0.007476776827737871
957.0, 0.008280377984898094
958.0, 0.008235435939452775
959.0, 0.005906992705144006
960.0, 0.00687591046457503
961.0, 0.008026132147344147
962.0, 0.00803410038694677
963.0, 0.010571532873836529
964.0, 0.00644359847985835
965.0, 0.006329565644441363
966.0, 0.002921895633268977
967.0, 0.0004676233896666983
968.0, 0.0066116485153907495
969.0, 0.00582579460447684
970.0, 0.007575261496542806
971.0, 0.0021009998687344317
972.0, 0.0008128972804873611
973.0, 0.011417903490428708
974.0, 0.009028511075557619
975.0, 0.0072961661441754595
976.0, 0.00832079384910065
977.0, 0.015007464010902366
978.0, 0.01111542363537294
979.0, 0.007391038880236091
980.0, 0.005189037821992048
981.0, 0.0021097853307243983
982.0, 0.003954363938381437
983.0, 0.008721407262017753
984.0, 0.008164019406968228
985.0, 0.006529473022863988
986.0, 0.006859605301075227
987.0, 0.003183089134244833
988.0, 0.006124050876599055
989.0, 0.003238627906938457
990.0, 0.012963926470971818
991.0, 0.010477182661675029
992.0, 0.004649359955416614
993.0, 0.0050226029133581766
994.0, 0.006204505966569088
995.0, 0.011439073815482505
996.0, 0.013713775574962048
997.0, 0.008900121170027791
998.0, 0.007965204779017968
999.0, 0.004498804217968878
1000.0, 0.005224073346488715
1001.0, 0.005989846078532443
1002.0, 0.006737341348239535
1003.0, 0.00522138262677432
1004.0, 0.006331996193162582
1005.0, 0.007387423208816471
1006.0, 0.006584532232483634
1007.0, 0.01092773884536507
1008.0, 0.005884355283381201
1009.0, 0.0050130557074061265
1010.0, 0.0007873188017708459
1011.0, 0.005118218940247489
1012.0, 0.006384594430797867
1013.0, 0.004650576176393778
1014.0, 0.00633375775056199
1015.0, 0.006501678218608602
1016.0, 0.007626264328148438
1017.0, 0.015060537634397268
1018.0, 0.016034468790853625
1019.0, 0.012013679967195432
1020.0, 0.009672891161498583
1021.0, 0.008051254477174035
1022.0, 0.01054542439970367
1023.0, 0.00971032119934437
1024.0, 0.00803187520059082
1025.0, 0.004054671090507884
1026.0, 0.003172466698386759
1027.0, 0.005585338655369807
1028.0, 0.0077710074631363
1029.0, 0.008585923437366362
1030.0, 0.005877707737090308
1031.0, 0.009669217525963798
1032.0, 0.006897656657789675
1033.0, 0.006559320259512196
1034.0, 0.004381431192844089
1035.0, 0.005532372482130871
1036.0, 0.0019521183910441275
1037.0, 0.0017820465966935733
1038.0, 0.0019360397783473476
1039.0, 0.003046927685330233
1040.0, 0.0049886849287786115
1041.0, 0.0030633411671210104
1042.0, 0.007092835286985821
1043.0, 0.0075139582329558155
1044.0, 0.009204298394270735
1045.0, 0.007368869400819466
1046.0, 0.008687050918837374
1047.0, 0.0026119785514172908
1048.0, 0.006969713451828634
1049.0, 0.011520256177854602
1050.0, 0.0111358855331348
1051.0, 0.011799214755845656
1052.0, 0.010876938704842375
1053.0, 0.005471210937495594
1054.0, 0.0042315907321307505
1055.0, 0.0097548146282974
1056.0, 0.005500171985135552
1057.0, 0.0011066405413199668
1058.0, 0.005615267004317353
1059.0, 0.007316945181452801
1060.0, 0.010627790240151884
1061.0, 0.0039485165739933815
1062.0, 0.0017869783138557559
1063.0, 0.004297631651325928
1064.0, 0.006286275287273765
1065.0, 0.007715021186079548
1066.0, 0.00843398330177303
1067.0, 0.009899808214058267
1068.0, 0.011515586245212208
1069.0, 0.009589382185780869
1070.0, 0.005936685193671577
1071.0, 0.0034238315362199317
1072.0, 0.0017206410944855053
1073.0, 0.005629164608583539
1074.0, 0.006264789900243028
1075.0, 0.009396213348061871
1076.0, 0.010392773098324917
1077.0, 0.0065875253784304765
1078.0, 0.007750005351351393
1079.0, 0.010729010143499506
1080.0, 0.0072584558267922575
1081.0, 0.008474894321521606
1082.0, 0.010210625381729592
1083.0, 0.010458077002211002
1084.0, 0.010758555719288534
1085.0, 0.007352928504084082
1086.0, 0.005889377777775686
1087.0, 0.010500495068420655
1088.0, 0.010452640200384935
1089.0, 0.00907175574819294
1090.0, 0.010236978811645484
1091.0, 0.007904627401774644
1092.0, 0.0027177806673550505
1093.0, 0.002101603623034792
1094.0, 0.006385940347018507
1095.0, 0.012553062536899934
1096.0, 0.008615109872826135
1097.0, 0.0015963792602404958
1098.0, 0.0034103276452785813
1099.0, 0.0006544284417861057
1100.0, 0.009096240144685951
1101.0, 0.0026701777865870027
1102.0, 0.002628168952461014
1103.0, 0.0026179647542148624
1104.0, 0.0011295612906975477
1105.0, 0.0038946443771181198
1106.0, 0.011908013038584837
1107.0, 0.009578500072881045
1108.0, 0.0013300155417487547
1109.0, 0.0034996467571508827
1110.0, 0.004769286094098968
1111.0, 0.004341423889620948
1112.0, 0.009736381093876246
1113.0, 0.005843917798330948
1114.0, 0.012683505022134993
1115.0, 0.00848186301824278
1116.0, 0.0053793133446396494
1117.0, 0.00633568359365769
1118.0, 0.007576908686145166
1119.0, 0.010664769293836982
1120.0, 0.008580725144764266
1121.0, 0.005145623288007632
1122.0, 0.009193807685619546
1123.0, 0.008788847663408716
1124.0, 0.004624087970675105
1125.0, 0.0012762765707041927
1126.0, 0.006963439367778926
1127.0, 0.005782369190160429
1128.0, 0.0025179420614798004
1129.0, 0.001631640025777497
1130.0, 0.007961145971637426
1131.0, 0.005692310479944947
1132.0, 0.001627657277534624
1133.0, 0.0016855886169325363
1134.0, 0.0062055717534972125
1135.0, 0.008210865330908507
1136.0, 0.004293207342781609
1137.0, 0.0022150719430301356
1138.0, 0.0033352470441955512
1139.0, 0.0028388339022200467
1140.0, 0.0052564627892376274
1141.0, 0.00712965573372837
1142.0, 0.0036330498529717477
1143.0, 0.004051680912072188
1144.0, 0.01060397918261723
1145.0, 0.007440062062023323
1146.0, 0.009886667360540122
1147.0, 0.008316659574613777
1148.0, 0.008916932729347817
1149.0, 0.008761160750557506
1150.0, 0.004634196338310823
1151.0, 0.008281510194062662
1152.0, 0.009360212113105663
1153.0, 0.0013606540369087926
1154.0, 0.003680348178057513
1155.0, 0.009400486599573644
1156.0, 0.0012395367915993356
1157.0, 0.003206808165144328
1158.0, 0.0013000878344624856
1159.0, 0.0058409218636385285
1160.0, 0.008729016005223685
1161.0, 0.0004905079806333235
1162.0, 0.00030159056834627935
1163.0, 0.008695573181227911
1164.0, 0.002671517021931075
1165.0, 0.005185009165836538
1166.0, 0.00947127131740536
1167.0, 0.010370657848158578
1168.0, 0.005219428181164642
1169.0, 0.0005194731707031737
1170.0, 0.008007951842432274
1171.0, 0.01180364288997648
1172.0, 0.002469694491352271
1173.0, 0.0015162324314816962
1174.0, 0.007717249929810546
1175.0, 0.003736977377659158
1176.0, 0.009193886878833142
1177.0, 0.015755487152083993
1178.0, 0.007379899960772843
1179.0, 0.009561234093126779
1180.0, 0.009112562169935183
1181.0, 0.007179727428964045
1182.0, 0.0016302628363058325
1183.0, 0.005908403169740776
1184.0, 0.006245261032505526
1185.0, 0.0030107029031382205
1186.0, 0.008675136398154336
1187.0, 0.008493827271548859
1188.0, 0.0035276193376212934
1189.0, 0.004222891634691526
1190.0, 0.0028788353876738827
1191.0, 0.0038151578478238263
1192.0, 0.002628409808062104
1193.0, 0.006607178226301393
1194.0, 0.00392826227496721
1195.0, 0.010883216170340387
1196.0, 0.0034635716561991553
1197.0, 0.0058357380510589306
1198.0, 0.009610239068294979
1199.0, 0.006839600559727222
1200.0, 0.004909301978750966
1201.0, 0.005827775361123539
1202.0, 0.005870029606427581
1203.0, 0.006852516633229545
1204.0, 0.0054783805154403524
1205.0, 0.004402864737815845
1206.0, 0.00540618451375948
1207.0, 0.00709715716277252
1208.0, 0.005475680581025953
1209.0, 0.0036297455831665647
1210.0, 0.007528102753170532
1211.0, 0.006973893122261552
1212.0, 0.0028562267083683773
1213.0, 0.004684699763492311
1214.0, 0.0114807214944042
1215.0, 0.00821507752767111
1216.0, 0.006259378626162421
1217.0, 0.0029973150497284748
1218.0, 0.006343301694792402
1219.0, 0.005300997656084461
1220.0, 0.001392676905706984
1221.0, 0.0009571024396540728
1222.0, 0.009536599846399658
1223.0, 0.009451321063114564
1224.0, 0.007615276922239804
1225.0, 0.005325793748486119
1226.0, 0.00622617950810464
1227.0, 0.006168255875440268
1228.0, 0.00831191835020223
1229.0, 0.007486626670601286
1230.0, 0.00530528492749117
1231.0, 0.0044201354012317565
1232.0, 0.003586613129348451
1233.0, 0.0009825219946636818
1234.0, 0.0005577557418182256
1235.0, 0.00037864130130314344
1236.0, 0.0029988844697326775
1237.0, 0.007203810936187959
1238.0, 0.006761084832331871
1239.0, 0.0043624092140086175
1240.0, 0.0034368475755129605
1241.0, 0.00655192779646862
1242.0, 0.004127154118427957
1243.0, 0.0036048179579096
1244.0, 0.0052799271127827235
1245.0, 0.005936890416717651
1246.0, 0.003007742382637985
1247.0, 0.008693714583577317
1248.0, 0.0047323041092487365
1249.0, 0.005176735781081425
1250.0, 0.01277011626239493
1251.0, 0.009936140528383207
1252.0, 0.015615875129542597
1253.0, 0.018146939936858994
1254.0, 0.00661401720669459
1255.0, 0.004910871148483155
1256.0, 0.004056068573893098
1257.0, 0.0006249025659785833
1258.0, 0.005924039092158499
1259.0, 0.005247798833026524
1260.0, 0.001536899029077964
1261.0, 0.0033858710647317143
1262.0, 0.000443503513209379
1263.0, 0.0041451687332622915
1264.0, 0.005351875666954686
1265.0, 0.007114404658151223
1266.0, 0.007535214656852582
1267.0, 0.005382289436337019
1268.0, 0.008177902818348728
1269.0, 0.0016060757342471355
1270.0, 0.0022829259041513062
1271.0, 0.0007154940757523885
1272.0, 0.0009245812477794478
1273.0, 0.008289383072101626
1274.0, 0.005245647928001568
1275.0, 0.00309937050404871
1276.0, 0.004065926209666116
1277.0, 0.004649225422617715
1278.0, 0.004036735025331343
1279.0, 0.004406833122268774
1280.0, 0.005848569972542246
1281.0, 0.004899161636327598
1282.0, 0.003383029976905334
1283.0, 0.0019381094630623536
1284, 0.0
1285, 0.0
1286, 0.0
1287, 0.0
1288, 0.0
1289, 0.0
1290, 0.0
1291, 0.0
1292, 0.0
1293, 0.0
1294, 0.0
1295, 0.0
1296, 0.0
1297, 0.0
1298, 0.0
1299, 0.0
1300, 0.0
1301, 0.0
1302, 0.0
1303, 0.0
1304, 0.0
1305, 0.0
1306, 0.0
1307, 0.0
1308, 0.0
1309, 0.0
1310, 0.0
1311, 0.0
1312, 0.0
1313, 0.0
1314, 0.0
1315, 0.0
1316, 0.0
1317, 0.0
1318, 0.0
1319, 0.0
1320, 0.0
1321, 0.0
1322, 0.0
1323, 0.0
1324, 0.0
1325, 0.0
1326, 0.0
1327, 0.0
1328, 0.0
1329, 0.0
1330, 0.0
1331, 0.0
1332, 0.0
1333, 0.0
1334, 0.0
1335, 0.0
1336, 0.0
1337, 0.0
1338, 0.0
1339, 0.0
1340, 0.0
1341, 0.0
1342, 0.0
1343, 0.0
1344, 0.0
1345, 0.0
1346, 0.0
1347, 0.0
1348, 0.0
1349, 0.0
1350, 0.0
1351, 0.0
1352, 0.0
1353, 0.0
1354, 0.0
1355, 0.0
1356, 0.0
1357, 0.0
1358, 0.0
1359, 0.0
1360, 0.0
1361, 0.0
1362, 0.0
1363, 0.0
1364, 0.0
1365, 0.0
1366, 0.0
1367, 0.0
1368, 0.0
1369, 0.0
1370, 0.0
1371, 0.0
1372, 0.0
1373, 0.0
1374, 0.0
1375, 0.0
1376, 0.0
1377, 0.0
1378, 0.0
1379, 0.0
1380, 0.0
1381, 0.0
1382, 0.0
1383, 0.0
1384, 0.0
1385, 0.0
1386, 0.0
1387, 0.0
1388, 0.0
1389, 0.0
1390, 0.0
1391, 0.0
1392, 0.0
1393, 0.0
1394, 0.0
1395, 0.0
1396, 0.0
1397, 0.0
1398, 0.0
1399, 0.0
1400, 0.0
1401, 0.0
1402, 0.0
1403, 0.0
1404, 0.0
1405, 0.0
1406, 0.0
1407, 0.0
1408, 0.0
1409, 0.0
1410, 0.0
1411, 0.0
1412, 0.0
1413, 0.0
1414, 0.0
1415, 0.0
1416, 0.0
1417, 0.0
1418, 0.0
1419, 0.0
1420, 0.0
1421, 0.0
1422, 0.0
1423, 0.0
1424, 0.0
1425, 0.0
1426, 0.0
1427, 0.0
1428, 0.0
1429, 0.0
1430, 0.0
1431, 0.0
1432, 0.0
1433, 0.0
1434, 0.0
1435, 0.0
1436, 0.0
1437, 0.0
1438, 0.0
1439, 0.0
1440, 0.0
1441, 0.0
1442, 0.0
1443, 0.0
1444, 0.0
1445, 0.0
1446, 0.0
1447, 0.0
1448, 0.0
1449, 0.0
1450, 0.0
1451, 0.0
1452, 0.0
1453, 0.0
1454, 0.0
1455, 0.0
1456, 0.0
1457, 0.0
1458, 0.0
1459, 0.0
1460, 0.0
1461, 0.0
1462, 0.0
1463, 0.0
1464, 0.0
1465, 0.0
1466, 0.0
1467, 0.0
1468, 0.0
1469, 0.0
1470, 0.0
1471, 0.0
1472, 0.0
1473, 0.0
1474, 0.0
1475, 0.0
1476, 0.0
1477, 0.0
1478, 0.0
1479, 0.0
1480, 0.0
1481, 0.0
1482, 0.0
1483, 0.0
1484, 0.0
1485, 0.0
1486, 0.0
1487, 0.0
1488, 0.0
1489, 0.0
1490, 0.0
1491, 0.0
1492, 0.0
1493, 0.0
1494, 0.0
1495, 0.0
1496, 0.0
1497, 0.0
1498, 0.0
1499, 0.0
1500, 0.0
1501, 0.0
1502, 0.0
1503, 0.0
1504, 0.0
1505, 0.0
1506, 0.0
1507, 0.0
1508, 0.0
1509, 0.0
1510, 0.0
1511, 0.0
1512, 0.0
1513, 0.0
1514, 0.0
1515, 0.0
1516, 0.0
1517, 0.0
1518, 0.0
1519, 0.0
1520, 0.0
1521, 0.0
1522, 0.0
1523, 0.0
1524, 0.0
1525, 0.0
1526, 0.0
1527, 0.0
1528, 0.0
1529, 0.0
1530, 0.0
1531, 0.0
1532, 0.0
1533, 0.0
1534, 0.0
1535, 0.0
1536, 0.0
1537, 0.0
1538, 0.0
1539, 0.0
1540, 0.0
1541, 0.0
1542, 0.0
1543, 0.0
1544, 0.0
1545, 0.0
1546, 0.0
1547, 0.0
1548, 0.0
1549, 0.0
1550, 0.0
1551, 0.0
1552, 0.0
1553, 0.0
1554, 0.0
1555, 0.0
1556, 0.0
1557, 0.0
1558, 0.0
1559, 0.0
1560, 0.0
1561, 0.0
1562, 0.0
1563, 0.0
1564, 0.0
1565, 0.0
1566, 0.0
1567, 0.0
1568, 0.0
1569, 0.0
1570, 0.0
1571, 0.0
1572, 0.0
1573, 0.0
1574, 0.0
1575, 0.0
1576, 0.0
1577, 0.0
1578, 0.0
1579, 0.0
1580, 0.0
1581, 0.0
1582, 0.0
1583, 0.0
1584, 0.0
1585, 0.0
1586, 0.0
1587, 0.0
1588, 0.0
1589, 0.0
1590, 0.0
1591, 0.0
1592, 0.0
1593, 0.0
1594, 0.0
1595, 0.0
1596, 0.0
1597, 0.0
1598, 0.0
1599, 0.0
