30, 0.0
31, 0.0
32, 0.0
33, 0.0
34, 0.0
35, 0.0
36, 0.0
37, 0.0
38, 0.0
39, 0.0
40, 0.0
41, 0.0
42, 0.0
43, 0.0
44, 0.0
45, 0.0
46, 0.0
47, 0.0
48, 0.0
49, 0.0
50, 0.0
51, 0.0
52, 0.0
53, 0.0
54, 0.0
55, 0.0
56, 0.0
57, 0.0
58, 0.0
59, 0.0
60, 0.0
61, 0.0
62, 0.0
63, 0.0
64, 0.0
65, 0.0
66, 0.0
67, 0.0
68, 0.0
69, 0.0
70, 0.0
71, 0.0
72, 0.0
73, 0.0
74, 0.0
75, 0.0
76, 0.0
77, 0.0
78, 0.0
79, 0.0
80, 0.0
81, 0.0
82, 0.0
83, 0.0
84, 0.0
85, 0.0
86, 0.0
87, 0.0
88, 0.0
89, 0.0
90, 0.0
91, 0.0
92, 0.0
93, 0.0
94, 0.0
95, 0.0
96, 0.0
97, 0.0
98, 0.0
99, 0.0
100.0, 0.00046628359098548473
101.0, 0.0014984037568015005
102.0, 0.00029417085352737406
103.0, 0.0022986089243707216
104.0, 0.003935860014843399
105.0, 0.007651197662769762
106.0, 0.014576517934709703
107.0, 0.02030447423897906
108.0, 0.024170341396970205
109.0, 0.029004075165525556
110.0, 0.030631113063250903
111.0, 0.025230866812203195
112.0, 0.010739888207459917
113.0, 0.008364846610988632
114.0, 0.010839070502973934
115.0, 0.012721415519992877
116.0, 0.012585683256957296
117.0, 0.01119157399708201
118.0, 0.008570733469996187
119.0, 0.00648776816756615
120.0, 0.0043124804269303665
121.0, 0.0038384878082755028
122.0, 0.006270191682135512
123.0, 0.009882653261478339
124.0, 0.00649223649425469
125.0, 0.004375568764328366
126.0, 0.0022568086769003464
127.0, 0.0012796139336455155
128.0, 0.005807161340782053
129.0, 0.004321595274362159
130.0, 0.003439671963481005
131.0, 0.003505175064147248
132.0, 0.0031926866062625516
133.0, 0.001110372361579973
134.0, 0.0010644084666989514
135.0, 0.00122887559072892
136.0, 0.0013539418923940191
137.0, 0.0023755339873250065
138.0, 0.004058761303043044
139.0, 0.002868046123612822
140.0, 0.004116352907388298
141.0, 0.0030289261522816677
142.0, 0.0013109071888237885
143.0, 0.00030084410496535497
144.0, 0.00042563068724960713
145.0, 0.00023008692551502498
146.0, 0.00028080628435243665
147.0, 0.0014311282976638476
148.0, 0.002634829030023425
149.0, 0.0024920844344698
150.0, 0.0013975561413288066
151.0, 0.001008641210322046
152.0, 0.004284850054624946
153.0, 0.006505492220207575
154.0, 0.005554415201297149
155.0, 0.005224356372985797
156.0, 0.004482833462123757
157.0, 0.0034823756384356353
158.0, 0.004050294134171037
159.0, 0.004951602722891073
160.0, 0.004047518198653187
161.0, 0.007237099770873189
162.0, 0.008712939183571763
163.0, 0.009034681481879164
164.0, 0.010769946368267558
165.0, 0.014512719463462132
166.0, 0.015308262820795844
167.0, 0.010348100313487525
168.0, 0.011799370051111386
169.0, 0.014806163517962274
170.0, 0.015560321310376575
171.0, 0.012881252383579171
172.0, 0.014343688164380825
173.0, 0.012010167492701486
174.0, 0.010250994949221387
175.0, 0.010881801782872643
176.0, 0.012866303859049244
177.0, 0.00927977587230591
178.0, 0.008924514855020622
179.0, 0.010247390937865477
180.0, 0.011578829422572264
181.0, 0.011168271605930617
182.0, 0.007937113795653997
183.0, 0.010547953372865718
184.0, 0.013080486716550179
185.0, 0.015726358935932463
186.0, 0.01654645081515942
187.0, 0.015427582206691113
188.0, 0.020891281807392453
189.0, 0.02377169371536931
190.0, 0.028780968310705618
191.0, 0.031911426935897394
192.0, 0.03241362782781041
193.0, 0.03373428853933977
194.0, 0.032767793338267424
195.0, 0.03246626457695186
196.0, 0.031613966022903714
197.0, 0.029526210194928335
198.0, 0.026565517006645327
199.0, 0.02574106350062111
200.0, 0.026736789020822077
201.0, 0.027857570175470647
202.0, 0.027292685662021574
203.0, 0.024881871061293817
204.0, 0.02179448394658995
205.0, 0.011817331608728731
206.0, 0.005410602113835239
207.0, 0.0022887247365512217
208.0, 0.0017716527461311045
209.0, 0.002562258700006932
210.0, 0.0023245813636037674
211.0, 0.0015271308863106584
212.0, 0.0015668110592792954
213.0, 0.0011254252672370936
214.0, 0.00039122619456792834
215.0, 0.0007488347158213077
216.0, 0.0004127669158210739
217.0, 0.00037862255282030956
218.0, 0.000720689981174114
219.0, 0.0016365046149374191
220.0, 0.002503793005486434
221.0, 0.0009519099025034483
222.0, 0.0014401452034982628
223.0, 0.0007928583133181334
224.0, 0.0016575703463432177
225.0, 0.002502137141280651
226.0, 0.0002465124140747205
227.0, 0.0004989197320467898
228.0, 0.0016580395056255903
229.0, 0.0032739512521126127
230.0, 0.005210111577632467
231.0, 0.006825220687073687
232.0, 0.006829903757547422
233.0, 0.008633454745751137
234.0, 0.01466530044829315
235.0, 0.019364120552595215
236.0, 0.023957862451595296
237.0, 0.03169362590484759
238.0, 0.0416493810672653
239.0, 0.056402201680463504
240.0, 0.0662688348277409
241.0, 0.07317242876213852
242.0, 0.07689935177029444
243.0, 0.07486585152098567
244.0, 0.07169525518137627
245.0, 0.06439263837749921
246.0, 0.054017619982203544
247.0, 0.04675369351876922
248.0, 0.04419409385283324
249.0, 0.03644577258710052
250.0, 0.03583282601111615
251.0, 0.03172300929470602
252.0, 0.029646023009132962
253.0, 0.02984972942079823
254.0, 0.029986204838227826
255.0, 0.03068678874990864
256.0, 0.02827894916978973
257.0, 0.0302167697613309
258.0, 0.032499034297902074
259.0, 0.03270147558921817
260.0, 0.03213171653144736
261.0, 0.037388608652424306
262.0, 0.03375457485847807
263.0, 0.03221160447440801
264.0, 0.03369437846676231
265.0, 0.03607144544554852
266.0, 0.03698176514379042
267.0, 0.04085136124340637
268.0, 0.04376516511982743
269.0, 0.04546149291753945
270.0, 0.04812816631429649
271.0, 0.053631509240643443
272.0, 0.05825782075586163
273.0, 0.06758683561643429
274.0, 0.07665073594205861
275.0, 0.08598711186992432
276.0, 0.09717931463283977
277.0, 0.11143907396815156
278.0, 0.12404737578949833
279.0, 0.14267987989241657
280.0, 0.15665865789785874
281.0, 0.1751486699489808
282.0, 0.20507727760916938
283.0, 0.24364026234761765
284.0, 0.28717400871232507
285.0, 0.33373149488542797
286.0, 0.39709398938755586
287.0, 0.4759637856716497
288.0, 0.5657049292018311
289.0, 0.6682989003459807
290.0, 0.7891380820694266
291.0, 0.9029561071533173
292.0, 0.974213361936269
293.0, 0.9862822197563372
294.0, 0.9352679279315725
295.0, 0.8120779038236146
296.0, 0.6675186893373458
297.0, 0.5264948628546271
298.0, 0.4029073182862786
299.0, 0.3045134240015282
300.0, 0.23234502304651047
301.0, 0.18146654872389545
302.0, 0.14690976302773023
303.0, 0.11895882569247283
304.0, 0.09696998437126436
305.0, 0.0823902601085349
306.0, 0.07638767364588749
307.0, 0.06772568978537992
308.0, 0.062395296701124744
309.0, 0.06251564534454349
310.0, 0.06669134329794929
311.0, 0.07253709024335013
312.0, 0.07821070863307515
313.0, 0.08974550739351325
314.0, 0.10410728383099047
315.0, 0.1208893623553163
316.0, 0.14585815922174591
317.0, 0.18418823534089798
318.0, 0.23407290511711185
319.0, 0.29670332941131744
320.0, 0.35434654351028916
321.0, 0.398395797978138
322.0, 0.4161291683695451
323.0, 0.39801601682028476
324.0, 0.34779573381532614
325.0, 0.282203294694806
326.0, 0.2255171687400599
327.0, 0.17801365877304848
328.0, 0.14040707890351925
329.0, 0.11329130586157987
330.0, 0.09274670711860347
331.0, 0.08119574108014155
332.0, 0.07290545503450575
333.0, 0.06753438707026353
334.0, 0.06366220449536514
335.0, 0.05986903464967382
336.0, 0.061335003536742344
337.0, 0.05794321341076401
338.0, 0.056517927057583885
339.0, 0.056331609279693745
340.0, 0.05608361003647959
341.0, 0.055578883611238354
342.0, 0.058880209943757464
343.0, 0.06090120353444716
344.0, 0.06666804976652493
345.0, 0.07530985719452199
346.0, 0.08473513247080121
347.0, 0.09376057864315905
348.0, 0.10969425408108344
349.0, 0.1292891457980498
350.0, 0.15111992345015257
351.0, 0.17784369868780686
352.0, 0.21183177643347606
353.0, 0.25428564538198417
354.0, 0.31169643535988667
355.0, 0.37244769369902314
356.0, 0.4418109488100083
357.0, 0.5128463829654311
358.0, 0.5717381338107852
359.0, 0.6021047588959297
360.0, 0.5990787137442797
361.0, 0.5606930608201269
362.0, 0.5003544826186963
363.0, 0.4307053339492644
364.0, 0.35998686148781217
365.0, 0.2904476956471364
366.0, 0.2380405785589945
367.0, 0.1966947401064356
368.0, 0.1614485796153349
369.0, 0.13253036335127913
370.0, 0.11051058427421158
371.0, 0.09450806633220925
372.0, 0.08076408059753044
373.0, 0.0741997916146325
374.0, 0.06586085079468444
375.0, 0.05713049678899787
376.0, 0.050070490658537706
377.0, 0.04414484215318483
378.0, 0.039716994477119114
379.0, 0.03605604923741083
380.0, 0.03341026099726328
381.0, 0.03203300857782592
382.0, 0.031726276990194834
383.0, 0.03197225163836167
384.0, 0.03444757501488507
385.0, 0.030375717589449566
386.0, 0.02990298725418637
387.0, 0.029727097189521136
388.0, 0.027629990329629404
389.0, 0.025949536586544652
390.0, 0.025662590274540428
391.0, 0.028059118909534494
392.0, 0.02826705608045158
393.0, 0.02696235256352324
394.0, 0.02482048654649113
395.0, 0.02175427005404161
396.0, 0.020003508821431086
397.0, 0.01571484816778234
398.0, 0.01257630966742066
399.0, 0.012168955008365116
400.0, 0.011430668501671706
401.0, 0.006227857457150917
402.0, 0.006001044950666722
403.0, 0.006813123544788225
404.0, 0.00620304178636365
405.0, 0.005386802499777386
406.0, 0.005111004382110063
407.0, 0.005214663828617404
408.0, 0.0048887993381835915
409.0, 0.004829498137333858
410.0, 0.003905673632155866
411.0, 0.0031238571394333384
412.0, 0.002949718165662613
413.0, 0.0034817263986448447
414.0, 0.005144719269698807
415.0, 0.002466373259535976
416.0, 0.003390942434585894
417.0, 0.0038889921217381096
418.0, 0.003007515312981203
419.0, 0.002217847400764756
420.0, 0.0040134494784332285
421.0, 0.004893524100675166
422.0, 0.0031785954540579655
423.0, 0.0018735328668932794
424.0, 0.0018658521989138664
425.0, 0.0022220606241610988
426.0, 0.0008664495744733089
427.0, 0.001019584913633182
428.0, 0.002902879867132
429.0, 0.0033743305519463624
430.0, 0.002194683089550864
431.0, 0.0019022320094002586
432.0, 0.005476166240358196
433.0, 0.001399434425576101
434.0, 0.000330780074829544
435.0, 0.0008179743469594453
436.0, 0.0012505137720466547
437.0, 0.0009472903263575889
438.0, 0.0003198467695743997
439.0, 0.0003436013445810741
440.0, 0.001870638716659451
441.0, 0.0018199214066306974
442.0, 0.0023044370955237407
443.0, 0.0031400286442771754
444.0, 0.0037072523901255077
445.0, 0.007140381442289293
446.0, 0.011409770054305705
447.0, 0.01089564393113646
448.0, 0.01464284711965948
449.0, 0.021147036269443992
450.0, 0.027289746271344978
451.0, 0.03576805575186094
452.0, 0.044892469910086025
453.0, 0.04309745031050367
454.0, 0.036811708111841895
455.0, 0.027838500550416614
456.0, 0.018399525810496763
457.0, 0.011804802269584452
458.0, 0.006887498799541781
459.0, 0.00575089901651244
460.0, 0.006388376107599896
461.0, 0.006126530791760407
462.0, 0.0039604593490276865
463.0, 0.001449886131507118
464.0, 0.0036213179952410976
465.0, 0.0017180594948831957
466.0, 0.00289476850321848
467.0, 0.003210073787641463
468.0, 0.0035756550304069726
469.0, 0.0053101166093140915
470.0, 0.005463456020744175
471.0, 0.004544286770115767
472.0, 0.003555852924415827
473.0, 0.004214104919441592
474.0, 0.004744173992357402
475.0, 0.004653826558327528
476.0, 0.005614580788153089
477.0, 0.005926575545825153
478.0, 0.00753993210878004
479.0, 0.009403026231121233
480.0, 0.01079677984034097
481.0, 0.01165005440853954
482.0, 0.012537361322647515
483.0, 0.014492130586894218
484.0, 0.014521514489999705
485.0, 0.013325311463204351
486.0, 0.010479556010782374
487.0, 0.009143542522215553
488.0, 0.009863789578394986
489.0, 0.007674829652472369
490.0, 0.004162783484024234
491.0, 0.004912578833844044
492.0, 0.004136386093758202
493.0, 0.003451936744786731
494.0, 0.003067096963996301
495.0, 0.0016605206499800203
496.0, 0.0015126804047065141
497.0, 0.0006998281181707265
498.0, 0.00025017195417151685
499.0, 0.002492245820160175
500.0, 0.0032144504966194797
501.0, 0.0004020049188533781
502.0, 0.0008209381195656419
503.0, 0.0019534508672248954
504.0, 0.001835708560818846
505.0, 0.0015679940683607642
506.0, 0.001975742655532561
507.0, 0.0024746892197051763
508.0, 0.0021190576649170777
509.0, 0.003557884149263446
510.0, 0.0016813431382246152
511.0, 0.002927825489486166
512.0, 0.005123326067846969
513.0, 0.004862949936454103
514.0, 0.002458829919405987
515.0, 0.00423647700487498
516.0, 0.0048247998093413945
517.0, 0.00392010583993656
518.0, 0.004296537021394098
519.0, 0.005060238579091482
520.0, 0.005784304668160687
521.0, 0.006744306619427032
522.0, 0.006621013124338903
523.0, 0.0047985488023940615
524.0, 0.005252458666416155
525.0, 0.0037082632790564284
526.0, 0.0019434358363959472
527.0, 0.0030470009086007816
528.0, 0.006828849312749632
529.0, 0.0064666207313161745
530.0, 0.00594334800273856
531.0, 0.006818226905417925
532.0, 0.00813265962169424
533.0, 0.008046527885203738
534.0, 0.006097403369415536
535.0, 0.006084199732074659
536.0, 0.007262726998065499
537.0, 0.008236583565102347
538.0, 0.008587463863363636
539.0, 0.00826370430351771
540.0, 0.010034388443167485
541.0, 0.016995988190229676
542.0, 0.018138186250945258
543.0, 0.024178410203374363
544.0, 0.02737029888891763
545.0, 0.03496679639023521
546.0, 0.045132380167751285
547.0, 0.0536621919655888
548.0, 0.0626324095501677
549.0, 0.0727348583676909
550.0, 0.0809249156123875
551.0, 0.08533244465636333
552.0, 0.08922511841566451
553.0, 0.0894299425333186
554.0, 0.08078857834611572
555.0, 0.06974727695212232
556.0, 0.06066287755252285
557.0, 0.051833847634108254
558.0, 0.043919588354458576
559.0, 0.03773159821172136
560.0, 0.03368299915990965
561.0, 0.03119051938928768
562.0, 0.027467642683862956
563.0, 0.02876599781874201
564.0, 0.029391100062614577
565.0, 0.030357309022523746
566.0, 0.031037187264573052
567.0, 0.03182568045360078
568.0, 0.03553824458300655
569.0, 0.03903042938119452
570.0, 0.04299365639700756
571.0, 0.04905431677746481
572.0, 0.05269538009463574
573.0, 0.052013360921796814
574.0, 0.04900259597779911
575.0, 0.0479772455119012
576.0, 0.04272562978866349
577.0, 0.036947863213095386
578.0, 0.03288852492135967
579.0, 0.0285710317991462
580.0, 0.023880722931981752
581.0, 0.020078172738071984
582.0, 0.015735234296308197
583.0, 0.017754068555572943
584.0, 0.013646497339302533
585.0, 0.01508903124176133
586.0, 0.015415701307835317
587.0, 0.012571087798072691
588.0, 0.012246441511623936
589.0, 0.009944538501239383
590.0, 0.00939113760308468
591.0, 0.01252876468264397
592.0, 0.012236265288965032
593.0, 0.011292276113109304
594.0, 0.012137306128260942
595.0, 0.0124613251173115
596.0, 0.01195008362479994
597.0, 0.013868015007229393
598.0, 0.011470529731223011
599.0, 0.011602674596474936
600.0, 0.01259463713008516
601.0, 0.012185339166814968
602.0, 0.012534365467977437
603.0, 0.012872606396265003
604.0, 0.011831900517430733
605.0, 0.014019958491140044
606.0, 0.013039101705774481
607.0, 0.012916377080196084
608.0, 0.014923561196791108
609.0, 0.010988555816839059
610.0, 0.012318576482663912
611.0, 0.01368008185415907
612.0, 0.012890805040622545
613.0, 0.012226577520388615
614.0, 0.013027570872603549
615.0, 0.013903151132070222
616.0, 0.011924411111852435
617.0, 0.01390477503523426
618.0, 0.01659757337473592
619.0, 0.018582184525251406
620.0, 0.019781396118060294
621.0, 0.020735746604536618
622.0, 0.02357305851948416
623.0, 0.030553172218593282
624.0, 0.030826706374504673
625.0, 0.03366042321037597
626.0, 0.03281339356689139
627.0, 0.034669010283620204
628.0, 0.03576882812007331
629.0, 0.0336670357067982
630.0, 0.03450040486730388
631.0, 0.030017111526850795
632.0, 0.025864107176696245
633.0, 0.021721207368989314
634.0, 0.018610970635293128
635.0, 0.01713857722241062
636.0, 0.016052789131714977
637.0, 0.013157153643251467
638.0, 0.013343430722973657
639.0, 0.013289280696398075
640.0, 0.015955682105871366
641.0, 0.016398944488724736
642.0, 0.017235880176500667
643.0, 0.020163855863776423
644.0, 0.021620926828819168
645.0, 0.02260733414328445
646.0, 0.0231600969759669
647.0, 0.023316512212908945
648.0, 0.02315475985270665
649.0, 0.020392654288083352
650.0, 0.017270177947990982
651.0, 0.01846153879528284
652.0, 0.014749057657717184
653.0, 0.01441807732952955
654.0, 0.015883810294364236
655.0, 0.011990813196838543
656.0, 0.009343130731223833
657.0, 0.00941624938009349
658.0, 0.007023676550946193
659.0, 0.005738112432755132
660.0, 0.006644096592657371
661.0, 0.00514504755419532
662.0, 0.0029540615988242103
663.0, 0.002864953549323771
664.0, 0.004119104144953889
665.0, 0.003852480516981556
666.0, 0.001857572398623068
667.0, 0.0027416254987464262
668.0, 0.001873495013509953
669.0, 0.0013887206981473958
670.0, 0.0014347660981112811
671.0, 0.0013139383436642912
672.0, 0.0011483975816661076
673.0, 0.0023791997975131833
674.0, 0.0019584833962691377
675.0, 0.003236005703769557
676.0, 0.002289306675725177
677.0, 0.0025775567373543286
678.0, 0.0025628566625031032
679.0, 0.0018778676368664733
680.0, 0.0033217019421596192
681.0, 0.0014569131664350875
682.0, 0.0005070145978715491
683.0, 0.0006202855750366784
684.0, 0.0008356379769864674
685.0, 0.0009181023341768605
686.0, 0.0018701384156884853
687.0, 0.00356130456599882
688.0, 0.0010438729662686666
689.0, 0.0015856757788820896
690.0, 0.002599260526354261
691.0, 0.0024380280711098013
692.0, 0.0013198307440537421
693.0, 0.0003853549476403716
694.0, 0.0005539831988239836
695.0, 0.0014929488000679462
696.0, 0.0012638677239332947
697.0, 0.001984736176109644
698.0, 0.0024966687066738788
699.0, 0.0025426594290724426
700.0, 0.00322498634406933
701.0, 0.0037432850781659857
702.0, 0.002225493813414148
703.0, 0.003508753308152048
704.0, 0.0036299864070637204
705.0, 0.0021193378658104015
706.0, 0.001785264553432778
707.0, 0.0035485363986533383
708.0, 0.005085953260464919
709.0, 0.0052730146307111364
710.0, 0.00871424919258449
711.0, 0.008046002935843665
712.0, 0.010579219230651679
713.0, 0.010707424587617488
714.0, 0.010833845579193944
715.0, 0.011733301562941723
716.0, 0.012106335959118884
717.0, 0.01099796542867641
718.0, 0.012139159690546231
719.0, 0.014066534303041655
720.0, 0.01594514907239077
721.0, 0.013557352127938358
722.0, 0.010084464778201222
723.0, 0.0074309576582371065
724.0, 0.0050081019842542025
725.0, 0.003236446211521413
726.0, 0.0061225826732734835
727.0, 0.0021873248016841874
728.0, 0.0005748913331266279
729.0, 0.0016382926468672286
730.0, 0.0019151924559148601
731.0, 0.0008355171168487079
732.0, 0.0012323673026882484
733.0, 0.0005821236578661184
734.0, 7.50583329580687e-05
735.0, 0.00011138195718979991
736.0, 0.0005535869181630634
737.0, 0.003883431339965572
738.0, 0.005747806565350966
739.0, 0.002932326257058998
740.0, 0.0019034643439291969
741.0, 0.004587247236899584
742.0, 0.002853262703951684
743.0, 0.0012829610519222536
744.0, 0.0014470272933462648
745.0, 0.0019325033262169468
746.0, 0.0018877229390053436
747.0, 0.0015440285964840614
748.0, 0.0005023874687143824
749.0, 0.002407477561770571
750.0, 0.0037775750435060803
751.0, 0.006073099539323586
752.0, 0.0036537674353956996
753.0, 0.0006603538795834487
754.0, 0.0006802164422940193
755.0, 0.0011163326466043211
756.0, 0.0020831707359439144
757.0, 0.0014952168828374715
758.0, 0.0015164916784416243
759.0, 0.0006685780761851838
760.0, 0.00038607973410092377
761.0, 0.0010711552856151189
762.0, 0.001986438214808929
763.0, 0.0024733845564624897
764.0, 0.002870159122416298
765.0, 0.0005703837487578921
766.0, 0.001491210333612214
767.0, 0.0022610689792246018
768.0, 0.001940209785674425
769.0, 0.0009452654129171343
770.0, 0.0007296041840432007
771.0, 0.0025115312717516386
772.0, 0.000799299771357264
773.0, 0.0011336559648176948
774.0, 0.0006771967731820699
775.0, 0.001171089658778972
776.0, 0.0024703745617135463
777.0, 0.0022959846901752174
778.0, 0.00038722305682602025
779.0, 0.0017729655486558122
780.0, 0.0052414295267731205
781.0, 0.003391420792968385
782.0, 0.0042292952323220966
783.0, 0.0036183912716831867
784.0, 0.002635520363613769
785.0, 0.003266492818855137
786.0, 0.004699478863593793
787.0, 0.003770519435523301
788.0, 0.00476481495310912
789.0, 0.004590360524204822
790.0, 0.004885397924664581
791.0, 0.005832756949411844
792.0, 0.0057189700691537195
793.0, 0.005237279994739728
794.0, 0.006313125357036308
795.0, 0.007086107944926189
796.0, 0.004034388606891282
797.0, 0.006038960346524602
798.0, 0.0077900474696521015
799.0, 0.006789907063479666
800.0, 0.006384063059171641
801.0, 0.009074602349810439
802.0, 0.011845529717630714
803.0, 0.008691177338276592
804.0, 0.013906854448808783
805.0, 0.01199698143600496
806.0, 0.010878881971077939
807.0, 0.011580778310363804
808.0, 0.012934476028620561
809.0, 0.011501281747522117
810.0, 0.008135580677066361
811.0, 0.011691170026237874
812.0, 0.011700291721317422
813.0, 0.006241689234342086
814.0, 0.005180811857621297
815.0, 0.003787081999322241
816.0, 0.0017047531591543729
817.0, 0.001077037323758955
818.0, 0.0025587926249650604
819.0, 0.003378341544498417
820.0, 0.0020707153231263498
821.0, 0.001275783978075195
822.0, 0.00034983089665495013
823.0, 9.760505088436692e-05
824.0, 0.0009946806023110799
825.0, 0.001249657829076399
826.0, 0.0009957579062189375
827.0, 0.0032031663354150325
828.0, 0.003043941170153855
829.0, 0.004005035660964818
830.0, 0.0024790240098640053
831.0, 0.003306137849112912
832.0, 0.0034299514292727043
833.0, 0.003549660901720864
834.0, 0.004207904792831218
835.0, 0.003877912371451989
836.0, 0.005132652443858525
837.0, 0.0019877905476694156
838.0, 0.004118523587399997
839.0, 0.0018463925439938644
840.0, 0.0016798849890185827
841.0, 0.004757086157204772
842.0, 0.006276867935841859
843.0, 0.0032832829827556674
844.0, 0.0015108035963250055
845.0, 0.0030028543332866003
846.0, 0.003293387172175704
847.0, 0.002944539987234458
848.0, 0.0011830775924510043
849.0, 0.0007543441851170082
850.0, 0.0015574186816550628
851.0, 0.0029760935596351164
852.0, 0.0062087872067269215
853.0, 0.006255756377170842
854.0, 0.006800410855400851
855.0, 0.006595786177664898
856.0, 0.008600900076298627
857.0, 0.009105643082064588
858.0, 0.009523172554331955
859.0, 0.011775374259726967
860.0, 0.013848708767954741
861.0, 0.012327426403500872
862.0, 0.010630462672264562
863.0, 0.012513089644071797
864.0, 0.009949284629378077
865.0, 0.010229322773697397
866.0, 0.009263979272173253
867.0, 0.007284314143423559
868.0, 0.007538585122924971
869.0, 0.007778697886605475
870.0, 0.005050246473935013
871.0, 0.007643603494152973
872.0, 0.007080590287775637
873.0, 0.007049877028469334
874.0, 0.005234533056931346
875.0, 0.004092385135978377
876.0, 0.004445837210577855
877.0, 0.0047781788819133975
878.0, 0.006999196598125925
879.0, 0.003568039593402322
880.0, 0.0073431264549320896
881.0, 0.006017174929739893
882.0, 0.005327368455843186
883.0, 0.008337292803159419
884.0, 0.011426284237178792
885.0, 0.011961299833653804
886.0, 0.012314284364060053
887.0, 0.011753583045321831
888.0, 0.013371924200557892
889.0, 0.013592069953776764
890.0, 0.0138183729635196
891.0, 0.014590355460988885
892.0, 0.015645984909870663
893.0, 0.016515120534127195
894.0, 0.0172704427389726
895.0, 0.018573430410246377
896.0, 0.020389896508744662
897.0, 0.024704370458383657
898.0, 0.027784307516201444
899.0, 0.02928306953797316
900.0, 0.0343852799556864
901.0, 0.037621192637396876
902.0, 0.04140802983829488
903.0, 0.04993521164468201
904.0, 0.05351098212713452
905.0, 0.06390153761191544
906.0, 0.07333801520072109
907.0, 0.08186011350237409
908.0, 0.09653164503579895
909.0, 0.11229874945266582
910.0, 0.137877701915123
911.0, 0.175734400475362
912.0, 0.21724696138801217
913.0, 0.2629849622820989
914.0, 0.32874890397459394
915.0, 0.40359693816167574
916.0, 0.5044140643929038
917.0, 0.6099995056978126
918.0, 0.6984431420980762
919.0, 0.7488563097114713
920.0, 0.7471970489173435
921.0, 0.6911295321948071
922.0, 0.5920174216354062
923.0, 0.4759692542573023
924.0, 0.37287003335220936
925.0, 0.3043843984793702
926.0, 0.2476325009517663
927.0, 0.20245274978205638
928.0, 0.17108646110341058
929.0, 0.14880886464285134
930.0, 0.13069095573822945
931.0, 0.12039572892695646
932.0, 0.10930238355136575
933.0, 0.10753783603835151
934.0, 0.1058681258801258
935.0, 0.10296360306752643
936.0, 0.10500437508628581
937.0, 0.11157104964848026
938.0, 0.1186938221051506
939.0, 0.12639411775525733
940.0, 0.14011239310015597
941.0, 0.15910983434473974
942.0, 0.17491975962593553
943.0, 0.19933965237333814
944.0, 0.23481351972127976
945.0, 0.27907849044164645
946.0, 0.3278131924244694
947.0, 0.38175711774115473
948.0, 0.4394750000609683
949.0, 0.492801709123377
950.0, 0.5438460660932759
951.0, 0.5629235705331735
952.0, 0.545080058715275
953.0, 0.49999242587057635
954.0, 0.44494216972744655
955.0, 0.37865724629287695
956.0, 0.310703327676343
957.0, 0.2530176763504502
958.0, 0.20610729880258294
959.0, 0.16978823589544176
960.0, 0.13228895874849875
961.0, 0.11589684754446322
962.0, 0.09621418786032646
963.0, 0.08300065360856443
964.0, 0.07140382255675626
965.0, 0.05850453634373985
966.0, 0.04784178835925731
967.0, 0.04207124715378544
968.0, 0.0370644281553662
969.0, 0.03522849047482522
970.0, 0.03110196612474148
971.0, 0.031001687457990004
972.0, 0.02321059536771804
973.0, 0.020303302240676644
974.0, 0.017868101780589295
975.0, 0.014034146002336422
976.0, 0.01184029055705223
977.0, 0.011048770148136313
978.0, 0.011017551930166807
979.0, 0.0077054779919735715
980.0, 0.005336913025424394
981.0, 0.006425276478368642
982.0, 0.003518396266726744
983.0, 0.002969387132345298
984.0, 0.002458577809518058
985.0, 0.0014200349886509594
986.0, 0.0023078806697115514
987.0, 0.0017048537875762086
988.0, 0.002233421603636443
989.0, 0.0037853327841662022
990.0, 0.0028468077133802
991.0, 0.0010444004155953355
992.0, 0.0007293572752002889
993.0, 0.0004784910018497316
994.0, 0.000676595891183716
995.0, 0.0017908747137987502
996.0, 0.002331394117626985
997.0, 0.002085159640009251
998.0, 0.00613031450031259
999.0, 0.007538933291788833
1000.0, 0.010218354511098817
1001.0, 0.011663153445854373
1002.0, 0.012390473968201053
1003.0, 0.01271077674392425
1004.0, 0.012784621911780123
1005.0, 0.01224992759823793
1006.0, 0.010991605367995361
1007.0, 0.0106759757323182
1008.0, 0.009798562086216983
1009.0, 0.012036500409223834
1010.0, 0.013630390364425617
1011.0, 0.01714941649618042
1012.0, 0.020622887562303405
1013.0, 0.024070132108234922
1014.0, 0.02940085767485406
1015.0, 0.03570887649310786
1016.0, 0.04050619901336164
1017.0, 0.04770800651396558
1018.0, 0.05535642328781422
1019.0, 0.06762028050006931
1020.0, 0.06556181841865201
1021.0, 0.06134044673187025
1022.0, 0.05875825068654408
1023.0, 0.052343331710119796
1024.0, 0.04563686500662425
1025.0, 0.04237832362713537
1026.0, 0.03764254270552151
1027.0, 0.03269618445072165
1028.0, 0.02692408317579337
1029.0, 0.02317629371526165
1030.0, 0.021043915091951002
1031.0, 0.018436098600356027
1032.0, 0.015800529160231357
1033.0, 0.012493356517410606
1034.0, 0.010355735834210492
1035.0, 0.009947423208456254
1036.0, 0.009202129436971922
1037.0, 0.00887771459984286
1038.0, 0.009708848812236898
1039.0, 0.0076793490781990915
1040.0, 0.00695476894564969
1041.0, 0.006149030204746781
1042.0, 0.004193382913023573
1043.0, 0.004994247919403097
1044.0, 0.005334297583634355
1045.0, 0.005643005876803757
1046.0, 0.008155257115493968
1047.0, 0.0070801464168724635
1048.0, 0.010163836487836347
1049.0, 0.009300525091647744
1050.0, 0.010590064859142479
1051.0, 0.013050301784991062
1052.0, 0.014681868991921669
1053.0, 0.016323165075773576
1054.0, 0.019882810406574372
1055.0, 0.02535622490362486
1056.0, 0.03193272633830026
1057.0, 0.03957090095070052
1058.0, 0.04774600511878672
1059.0, 0.060087109495030794
1060.0, 0.07104005497028518
1061.0, 0.08801895090021114
1062.0, 0.10630885197447351
1063.0, 0.12448031754088362
1064.0, 0.13946157661186862
1065.0, 0.1430431275890062
1066.0, 0.1347063930463343
1067.0, 0.12106510606382716
1068.0, 0.10232496122778624
1069.0, 0.07931013365319597
1070.0, 0.06173396578315183
1071.0, 0.04949029486065987
1072.0, 0.04151523928236514
1073.0, 0.03626684594846278
1074.0, 0.029074117622138834
1075.0, 0.02549579690558209
1076.0, 0.02318537371849724
1077.0, 0.019893630322400657
1078.0, 0.01941278708096591
1079.0, 0.017149716901442624
1080.0, 0.014549767679216934
1081.0, 0.015810120089632666
1082.0, 0.015616405110758005
1083.0, 0.013942395507183425
1084.0, 0.013199895977563
1085.0, 0.011414581007763313
1086.0, 0.010308866990563114
1087.0, 0.009339154563824554
1088.0, 0.007748142343943093
1089.0, 0.006681363698872736
1090.0, 0.004219892644686655
1091.0, 0.00666915706670897
1092.0, 0.00880712606843105
1093.0, 0.004706436610036128
1094.0, 0.006768225410402381
1095.0, 0.005902652234725048
1096.0, 0.006305175791578213
1097.0, 0.007433915003774044
1098.0, 0.007619777301209344
1099.0, 0.006580630394634117
1100.0, 0.004938882580294661
1101.0, 0.00669276996690794
1102.0, 0.012989403953865582
1103.0, 0.012645864916083691
1104.0, 0.01696414107175876
1105.0, 0.015507277614980108
1106.0, 0.017722389014864406
1107.0, 0.02003921942537603
1108.0, 0.024186106023573167
1109.0, 0.026995067307325163
1110.0, 0.0267587325100757
1111.0, 0.027148909276063053
1112.0, 0.026062286369769566
1113.0, 0.024265302289120057
1114.0, 0.020296460659380077
1115.0, 0.018862578877160384
1116.0, 0.01815266050320307
1117.0, 0.018272564222336977
1118.0, 0.01900027560057874
1119.0, 0.020576403775612654
1120.0, 0.02019454581873636
1121.0, 0.018486103629693315
1122.0, 0.019025123678639753
1123.0, 0.02083006937785172
1124.0, 0.021550797943628328
1125.0, 0.022087159791034816
1126.0, 0.025802311893329887
1127.0, 0.018343824697694744
1128.0, 0.012950372879081318
1129.0, 0.012133754387223326
1130.0, 0.01002385121818445
1131.0, 0.006019639071548092
1132.0, 0.0028902419645304893
1133.0, 0.001828242726942861
1134.0, 0.001664065915006502
1135.0, 0.0009612785956365894
1136.0, 0.00039295233493533176
1137.0, 0.0010410049900317216
1138.0, 0.0002406011166772337
1139.0, 0.0007417245170330171
1140.0, 0.0008004287740642239
1141.0, 0.0007678068117275473
1142.0, 0.0011148482045306395
1143.0, 0.000744344016144612
1144.0, 0.0005841412296448833
1145.0, 0.001006300686740962
1146.0, 0.0006057645703155629
1147.0, 0.0016941956333595123
1148.0, 7.37448996805518e-05
1149.0, 7.194334895111831e-05
1150.0, 0.002258738762673773
1151.0, 0.0007306284802822497
1152.0, 0.0008217594800787201
1153.0, 0.0007647734610861814
1154.0, 0.0003199577520655882
1155.0, 0.00031539316562200127
1156.0, 0.0005524928078848303
1157.0, 0.0007720444342801384
1158.0, 0.0011799414312237304
1159.0, 0.0008487484578463348
1160.0, 0.0018870729684263717
1161.0, 0.0029632431133331744
1162.0, 0.003457288987937332
1163.0, 0.003959481476004875
1164.0, 0.003539389878124127
1165.0, 0.003845219545114564
1166.0, 0.0023283501521944258
1167.0, 0.0007931250917235485
1168.0, 0.0012051390282727668
1169.0, 0.0027805277103815137
1170.0, 0.004145244744687998
1171.0, 0.004199209003602052
1172.0, 0.00459660559689714
1173.0, 0.0058532171512130264
1174.0, 0.004430179677419073
1175.0, 0.0038395081502703575
1176.0, 0.0033659970364657
1177.0, 0.0029668905194391733
1178.0, 0.0022432138928748274
1179.0, 0.002002853373644496
1180.0, 0.001458365538776794
1181.0, 0.0008190252594462845
1182.0, 0.0011663115894983299
1183.0, 0.0012505499665208689
1184.0, 0.0018225101804127198
1185.0, 0.0014754227165598753
1186.0, 0.001169924663687018
1187.0, 0.0005456860740214761
1188.0, 0.0013949451061519976
1189.0, 0.0021532769175753967
1190.0, 0.001879916272671939
1191.0, 0.001253981631311679
1192.0, 0.0006529591349738848
1193.0, 0.0012556529379488808
1194.0, 0.0021297746833856285
1195.0, 0.001787291682088595
1196.0, 0.0026419498953420507
1197.0, 0.00022376086811433052
1198.0, 0.0002377723714261491
1199.0, 0.001925930233411363
1200.0, 0.0023193717293359074
1201.0, 0.0014591052317308975
1202.0, 0.004737445358913557
1203.0, 0.00342844430037151
1204.0, 0.0013524703721416575
1205.0, 0.005510636524143583
1206.0, 0.006309546543232051
1207.0, 0.0006978986967884777
1208.0, 0.0015299118527834618
1209.0, 0.002589085289889292
1210.0, 0.0002046316849065084
1211.0, 0.0016761017705233532
1212.0, 0.008050819571082194
1213.0, 0.004508201661628347
1214.0, 0.004322262307459791
1215.0, 0.0011989784483629178
1216.0, 0.004408093418804838
1217.0, 0.005745621279303403
1218.0, 0.0032313638992929345
1219.0, 0.0028198274110980315
1220.0, 0.004269505312493407
1221.0, 0.004222711648005751
1222.0, 0.005712172173373791
1223.0, 0.005519701266407523
1224.0, 0.005242914870957491
1225.0, 0.00425722834344202
1226.0, 0.002269478517320347
1227.0, 0.004045560985911212
1228.0, 0.004483398401354774
1229.0, 0.005141494352061909
1230.0, 0.007794417341762409
1231.0, 0.009019388551702008
1232.0, 0.010318865421652182
1233.0, 0.013108875350514795
1234.0, 0.014211287089355509
1235.0, 0.013196131818238805
1236.0, 0.012886132125029846
1237.0, 0.010785498695591275
1238.0, 0.015018782511936914
1239.0, 0.013986859922437072
1240.0, 0.009679635995031605
1241.0, 0.011005064334174662
1242.0, 0.016001529597478945
1243.0, 0.011283898966653863
1244.0, 0.011919998680914468
1245.0, 0.014194433554591194
1246.0, 0.014837377438948156
1247.0, 0.01594816794587227
1248.0, 0.016855259768331198
1249.0, 0.01809337768710306
1250.0, 0.016587238086169645
1251.0, 0.014113289882564564
1252.0, 0.0163747450228423
1253.0, 0.012844427691533131
1254.0, 0.015124188531414355
1255.0, 0.015314516317987543
1256.0, 0.015554216066961791
1257.0, 0.016402545538835377
1258.0, 0.016313560793557426
1259.0, 0.01368774241890083
1260.0, 0.01150658831544753
1261.0, 0.01038396531617173
1262.0, 0.010002203175466538
1263.0, 0.012774867773777922
1264.0, 0.014622832689093897
1265.0, 0.01234410102852595
1266.0, 0.012255953063403295
1267.0, 0.014481726592104347
1268.0, 0.01197557528310542
1269.0, 0.014612658926868916
1270.0, 0.017374776555635057
1271.0, 0.017739440572846665
1272.0, 0.01805082498423017
1273.0, 0.01910153335338518
1274.0, 0.01710950493544075
1275.0, 0.013952349313620537
1276.0, 0.01393265402867316
1277.0, 0.01474057758323557
1278.0, 0.01358355717156754
1279.0, 0.014136131218105936
1280.0, 0.014259102383336855
1281.0, 0.010633034917164564
1282.0, 0.012566776963576774
1283.0, 0.01327474791339118
1284.0, 0.008770362645063548
1285.0, 0.012743509312639753
1286.0, 0.011379324239422785
1287.0, 0.009783426227290781
1288.0, 0.008401449239725047
1289.0, 0.00926960075335662
1290.0, 0.012695632317899958
1291.0, 0.012737658498820924
1292.0, 0.010607516865289086
1293.0, 0.013826711843706265
1294.0, 0.014376488608434457
1295.0, 0.014831700959468863
1296.0, 0.015223123378587465
1297.0, 0.01512974938505612
1298.0, 0.010451033638745624
1299.0, 0.012497331372233671
1300.0, 0.010301769251690233
1301.0, 0.009251197826658165
1302.0, 0.0132021369666685
1303.0, 0.015878648717334656
1304.0, 0.015030681219592399
1305.0, 0.014580092396104617
1306.0, 0.01351798244787758
1307.0, 0.011298244897463915
1308.0, 0.012138876616644777
1309.0, 0.013064679336572831
1310.0, 0.011937742381778827
1311.0, 0.012687234353435904
1312.0, 0.0148246747967412
1313.0, 0.014559188754403683
1314.0, 0.013191231334281862
1315.0, 0.01749766826979367
1316.0, 0.016407891627873594
1317.0, 0.015394701752959376
1318.0, 0.01747129940694672
1319.0, 0.018423957565297536
1320.0, 0.016538608278291272
1321.0, 0.01631182556300715
1322.0, 0.017450878628585142
1323.0, 0.014540415160041498
1324.0, 0.009549542720447316
1325.0, 0.009278312060360606
1326.0, 0.010716406479532344
1327.0, 0.010209095108848704
1328.0, 0.00794749728903787
1329.0, 0.0054566316980511256
1330.0, 0.006098796537249909
1331.0, 0.004378112182268852
1332.0, 0.00800284647399312
1333.0, 0.0034143531176233912
1334.0, 0.0028356214449671677
1335.0, 0.005269603670136426
1336.0, 0.0032228115842260472
1337.0, 0.004015262913564886
1338.0, 0.005565856942775558
1339.0, 0.003663041237786849
1340.0, 0.002223921100610752
1341.0, 0.0011820563650203875
1342.0, 0.0017074367852030871
1343.0, 0.0013961676924117775
1344.0, 0.004314252616111986
1345.0, 0.007189906983519932
1346.0, 0.00853302058008076
1347.0, 0.005077203686473583
1348.0, 0.005859563898655478
1349.0, 0.0034715380227648184
1350.0, 0.006127236700482489
1351.0, 0.005010432365272618
1352.0, 0.0019887515623742483
1353.0, 0.0032588576778345892
1354.0, 0.0053846706600902735
1355.0, 0.003619506113651311
1356.0, 0.0009867258968012107
1357.0, 0.0004164513325699115
1358.0, 0.0005324289994957658
1359.0, 0.0026833248096557486
1360.0, 0.005015897357675216
1361.0, 0.0003777805728612722
1362.0, 0.002084459326244125
1363.0, 0.005831078216959723
1364.0, 0.0029166555510441662
1365.0, 0.007911100286956919
1366.0, 0.004297045232050496
1367.0, 0.002114038488156732
1368.0, 0.0013063644399105697
1369.0, 0.0011203052487728108
1370.0, 0.0006315630635517756
1371.0, 0.0005442387252612337
1372.0, 0.0007837027680195772
1373.0, 0.0013036799925415124
1374.0, 0.002542458946964893
1375.0, 0.004316865658416977
1376.0, 0.006048981245915883
1377.0, 0.007167617883952584
1378.0, 0.007216654754722791
1379.0, 0.0070913659240586825
1380.0, 0.0048196288303036985
1381.0, 0.0068897892013986
1382.0, 0.001375902092106519
1383.0, 0.006381755521476195
1384.0, 0.002196572848680616
1385.0, 0.005551104484156595
1386.0, 0.003372493105308268
1387.0, 0.0031931705741720107
1388.0, 0.007934478395285322
1389.0, 0.006006415440127549
1390.0, 0.0017447675226218073
1391.0, 0.004721747452867034
1392.0, 0.006661076156627274
1393.0, 0.004997728057781982
1394.0, 0.004830187144895629
1395.0, 0.003172457899690957
1396.0, 0.0014888123470127629
1397.0, 0.000682947144145077
1398.0, 0.0009339872333520485
1399.0, 0.0015600586326594995
1400.0, 0.001371852567713783
1401.0, 0.0010810757869312137
1402.0, 0.004692734443354062
1403.0, 0.0019927168333356863
1404.0, 0.0036967658851025723
1405.0, 0.0010952091222290652
1406.0, 0.0019445549138632954
1407.0, 0.001955196652774081
1408.0, 0.0009716460171308532
1409.0, 0.001612780059962775
1410.0, 0.0020728050916992377
1411.0, 0.003008335922539252
1412.0, 0.002719000847392332
1413.0, 0.0023631545617833712
1414.0, 0.0034438851124016017
1415.0, 0.002167246769578446
1416.0, 0.00023972789995003045
1417.0, 0.000570308664403172
1418.0, 0.0006789757872133397
1419.0, 0.0032147806579055317
1420.0, 0.0027477789377225283
1421.0, 0.004760409852762466
1422.0, 0.0057981529675403855
1423.0, 0.0017899671660167287
1424.0, 0.004074130093523652
1425.0, 0.0012365183392932001
1426.0, 0.004199480418154001
1427.0, 0.003424215388986943
1428.0, 0.001848241375972559
1429.0, 0.004833803172312766
1430.0, 0.007734722814098792
1431.0, 0.0067726961511781585
1432.0, 0.006980248451635306
1433.0, 0.009680824884367856
1434.0, 0.009432540463948225
1435.0, 0.008513870400487088
1436.0, 0.010092198056535709
1437.0, 0.011013312954218956
1438.0, 0.014289779125713121
1439.0, 0.015064946907688809
1440.0, 0.017134655999221808
1441.0, 0.020555668526175436
1442.0, 0.02302021083510362
1443.0, 0.021248767459686346
1444.0, 0.023481692606061682
1445.0, 0.021775284304090366
1446.0, 0.022258018985820464
1447.0, 0.023486896041091148
1448.0, 0.024825552231571305
1449.0, 0.025290334931075388
1450.0, 0.024743752695794523
1451.0, 0.025365194687509324
1452.0, 0.02589734360744487
1453.0, 0.02595365536440464
1454.0, 0.024226720495423383
1455.0, 0.024805838458908044
1456.0, 0.02713495935257873
1457.0, 0.028303609636605196
1458.0, 0.025447663235175298
1459.0, 0.021859700450815773
1460.0, 0.023295469134758155
1461.0, 0.02136682215541781
1462.0, 0.02344584822400373
1463.0, 0.019560128930100923
1464.0, 0.015465885549607131
1465.0, 0.016095764876714536
1466.0, 0.015814900588756536
1467.0, 0.012194278377759098
1468.0, 0.014679161671238969
1469.0, 0.008213981977788574
1470.0, 0.010831211649793301
1471.0, 0.01797451410191783
1472.0, 0.018250574778446254
1473.0, 0.00942704314405512
1474.0, 0.010628670140615384
1475.0, 0.009911932623349388
1476.0, 0.013057919577837819
1477.0, 0.013496214050069535
1478.0, 0.00909003430832508
1479.0, 0.0083675586663942
1480.0, 0.009414676378840721
1481.0, 0.010311393406342463
1482.0, 0.010104318279873105
1483.0, 0.00836832227850015
1484.0, 0.00816807430872756
1485.0, 0.006075991197313519
1486.0, 0.0049390901786195195
1487.0, 0.006271487882836292
1488.0, 0.005749873807601525
1489.0, 0.007835585742679705
1490.0, 0.006655634278964711
1491.0, 0.006460865100628817
1492.0, 0.0048267803333459265
1493.0, 0.003655589610398668
1494.0, 0.0028379589725142664
1495.0, 0.0022933083185482117
1496.0, 0.00156485123747656
1497.0, 0.0005531212718863325
1498.0, 0.0013616841937888523
1499.0, 0.0007373094866098056
1500.0, 0.000996952367009838
1501.0, 0.003326437952523391
1502.0, 0.0017222897816255105
1503.0, 0.00225546006767706
1504.0, 0.003157885003072427
1505.0, 0.0019046197771287051
1506.0, 0.0008252914388038007
1507.0, 0.001506923266025821
1508.0, 0.001643468689841981
1509.0, 0.0006951748563027492
1510.0, 0.0009797537525568561
1511.0, 0.0013700470653423083
1512.0, 0.0022066564610671116
1513.0, 0.003779338969573713
1514.0, 0.0010349492885751133
1515.0, 0.0029045418849666313
1516.0, 0.003545157798445665
1517.0, 0.0027694400247361916
1518.0, 0.007163945452368702
1519.0, 0.004973274006871719
1520.0, 0.0025829601124774644
1521.0, 0.0040348829462542755
1522.0, 0.002467291537505443
1523.0, 0.0012873915195409508
1524.0, 0.0018150907156189628
1525.0, 0.009433709314136746
1526.0, 0.0028482071463458406
1527.0, 0.0003934235131531949
1528.0, 0.0050364515361903586
1529.0, 0.0027220516215050138
1530.0, 0.004264253650683141
1531.0, 0.0038873225694115304
1532.0, 0.001761031298055164
1533.0, 0.0038062239645578425
1534.0, 0.0030006735911577783
1535.0, 0.000868857849673701
1536.0, 0.006062898955296966
1537.0, 0.005925134837924857
1538.0, 0.0024138015340438444
1539.0, 0.001681437602366442
1540.0, 0.002676811925065329
1541.0, 0.0041074022624731105
1542.0, 0.0027186378667359828
1543.0, 0.003683724594439302
1544.0, 0.004298421762641519
1545.0, 0.001748962234527069
1546.0, 0.0009244263449318952
1547.0, 0.0010741859207939086
1548.0, 0.0043143835088578315
1549.0, 0.006507497308677851
1550.0, 0.004251519677643088
1551.0, 0.0025530188093739878
1552.0, 0.007783268135633346
1553.0, 0.00527193532133988
1554.0, 0.006375868916533159
1555.0, 0.005023761284044153
1556.0, 0.006908806312664596
1557.0, 0.0037663489398876513
1558.0, 0.005081140929457461
1559.0, 0.0005194335116350565
1560.0, 0.001391715038695624
1561.0, 0.003099104340976206
1562.0, 0.0006897288946851633
1563.0, 0.003484594253649045
1564.0, 0.002253297540424589
1565.0, 0.003057050804597683
1566.0, 0.00300979116737605
1567.0, 0.0012252233737376824
1568.0, 0.0011941320326037685
1569.0, 0.0031802843777918853
1570.0, 0.0015268043569428309
1571, 0.0
1572, 0.0
1573, 0.0
1574, 0.0
1575, 0.0
1576, 0.0
1577, 0.0
1578, 0.0
1579, 0.0
1580, 0.0
1581, 0.0
1582, 0.0
1583, 0.0
1584, 0.0
1585, 0.0
1586, 0.0
1587, 0.0
1588, 0.0
1589, 0.0
1590, 0.0
1591, 0.0
1592, 0.0
1593, 0.0
1594, 0.0
1595, 0.0
1596, 0.0
1597, 0.0
1598, 0.0
1599, 0.0
