30, 0.0
31, 0.0
32, 0.0
33, 0.0
34, 0.0
35, 0.0
36, 0.0
37, 0.0
38, 0.0
39, 0.0
40, 0.0
41, 0.0
42, 0.0
43, 0.0
44, 0.0
45, 0.0
46, 0.0
47, 0.0
48, 0.0
49, 0.0
50, 0.0
51, 0.0
52, 0.0
53, 0.0
54, 0.0
55, 0.0
56, 0.0
57, 0.0
58, 0.0
59, 0.0
60, 0.0
61, 0.0
62, 0.0
63, 0.0
64, 0.0
65, 0.0
66, 0.0
67, 0.0
68, 0.0
69, 0.0
70, 0.0
71, 0.0
72, 0.0
73, 0.0
74, 0.0
75, 0.0
76, 0.0
77, 0.0
78, 0.0
79, 0.0
80, 0.0
81, 0.0
82, 0.0
83, 0.0
84, 0.0
85, 0.0
86, 0.0
87, 0.0
88, 0.0
89, 0.0
90, 0.0
91, 0.0
92, 0.0
93, 0.0
94, 0.0
95, 0.0
96, 0.0
97, 0.0
98, 0.0
99, 0.0
100, 0.0
101, 0.0
102, 0.0
103, 0.0
104, 0.0
105, 0.0
106, 0.0
107, 0.0
108, 0.0
109, 0.0
110, 0.0
111, 0.0
112, 0.0
113, 0.0
114, 0.0
115, 0.0
116, 0.0
117, 0.0
118, 0.0
119, 0.0
120, 0.0
121, 0.0
122, 0.0
123, 0.0
124, 0.0
125, 0.0
126, 0.0
127, 0.0
128, 0.0
129, 0.0
130, 0.0
131, 0.0
132, 0.0
133.0, 0.00017572748800514365
134.0, 0.001898545997859428
135.0, 0.0006285872540675756
136.0, 0.0005476752229646656
137.0, 0.0014238285090128918
138.0, 0.0026384928720940485
139.0, 0.00497005063062008
140.0, 0.007402960921023438
141.0, 0.006593004387491957
142.0, 0.00402679958939529
143.0, 0.001399925281245815
144.0, 0.00016997432820846863
145.0, 0.0008911367879705376
146.0, 0.0011617231679348005
147.0, 0.0025180412699138026
148.0, 0.003607475574193577
149.0, 0.0026243029981339247
150.0, 0.0008093515502972069
151.0, 0.0021283848126802587
152.0, 0.004599995931479509
153.0, 0.005492371693453947
154.0, 0.00406263959630124
155.0, 0.0028962382828587145
156.0, 0.0012173475367944374
157.0, 0.0009495042451935544
158.0, 0.0007652014129471584
159.0, 0.0003649742408989134
160.0, 0.00021419024102257262
161.0, 0.0011667303798330582
162.0, 0.0017355736746398126
163.0, 0.0032734014940330497
164.0, 0.005372486209823594
165.0, 0.007571918335318143
166.0, 0.010290776501835757
167.0, 0.009552704275474099
168.0, 0.009931464846457886
169.0, 0.009349475735699017
170.0, 0.008477211278983826
171.0, 0.00998123974758514
172.0, 0.009027326398529338
173.0, 0.008238952941957714
174.0, 0.008037025607167778
175.0, 0.008395473834223692
176.0, 0.009286963797501777
177.0, 0.011181633433289278
178.0, 0.00930394366761831
179.0, 0.01013797404526067
180.0, 0.011001686562777257
181.0, 0.011151951291077704
182.0, 0.01240947440679503
183.0, 0.012371121722296693
184.0, 0.01273609019850505
185.0, 0.013541740990288082
186.0, 0.014842865847459988
187.0, 0.016775662760750133
188.0, 0.019818827887331098
189.0, 0.021507017374283507
190.0, 0.02427232627805312
191.0, 0.027195705718421472
192.0, 0.029025731515698216
193.0, 0.028835023717308107
194.0, 0.03005945621103332
195.0, 0.031367598067282725
196.0, 0.031764150441709126
197.0, 0.03094375729558386
198.0, 0.029052979773638063
199.0, 0.026690778650821843
200.0, 0.02792013282970395
201.0, 0.0297661920311753
202.0, 0.031273058048400214
203.0, 0.03058346021678256
204.0, 0.025191713395931924
205.0, 0.01635428573653058
206.0, 0.008766882335733953
207.0, 0.004132238167832873
208.0, 0.001682204291337632
209.0, 0.00042237647389519964
210.0, 0.0014097153513443566
211.0, 0.0003670203717295241
212.0, 0.0012095381315828852
213.0, 0.0014982060601827238
214.0, 0.0010606423259876007
215.0, 0.0018049213473632154
216.0, 0.002016357105859244
217.0, 0.00204600524587771
218.0, 0.001125354999825233
219.0, 0.0008451951242125929
220.0, 0.0018977436387135548
221.0, 0.0016541666508397513
222.0, 0.0022549879475461895
223.0, 0.0017260714981689302
224.0, 0.001112823625820298
225.0, 0.0011851176606943246
226.0, 0.0020823706903538896
227.0, 0.001984055172675335
228.0, 0.0043681905707060814
229.0, 0.007056666465102925
230.0, 0.01008745167027705
231.0, 0.013545376436295846
232.0, 0.017095830544379555
233.0, 0.02446965729708357
234.0, 0.03256026143883442
235.0, 0.04269012822111186
236.0, 0.055796445681985614
237.0, 0.07101858933048442
238.0, 0.08212927517858401
239.0, 0.09110608242960357
240.0, 0.09457592337734178
241.0, 0.0941821038719982
242.0, 0.09031331450744758
243.0, 0.08219475140894694
244.0, 0.07496252880167407
245.0, 0.065381278396707
246.0, 0.057682271724186676
247.0, 0.051076679463552425
248.0, 0.044899571527037656
249.0, 0.0413763069078421
250.0, 0.03679067967735814
251.0, 0.03661252090365539
252.0, 0.03581507686659472
253.0, 0.0340741154360647
254.0, 0.033195069794297316
255.0, 0.0316776960054858
256.0, 0.031185209490660396
257.0, 0.032057913337421695
258.0, 0.03413792978965038
259.0, 0.036045251673270134
260.0, 0.03578719651200033
261.0, 0.03692819026715915
262.0, 0.03752195584080233
263.0, 0.03810242978120173
264.0, 0.03933130865448913
265.0, 0.04139560372767012
266.0, 0.04352888232130905
267.0, 0.04574946094739145
268.0, 0.04875637618087547
269.0, 0.05177853439871618
270.0, 0.05603907692274989
271.0, 0.062117112518347076
272.0, 0.06445821353459774
273.0, 0.0727082769698745
274.0, 0.08302945774675924
275.0, 0.0943793749154223
276.0, 0.10672103090565038
277.0, 0.12131426654586888
278.0, 0.14432300074763194
279.0, 0.1702670151481275
280.0, 0.20388039226938118
281.0, 0.2471334481962739
282.0, 0.3005673131448482
283.0, 0.36371261782249253
284.0, 0.4395968282319074
285.0, 0.5149245296886897
286.0, 0.6041101899603261
287.0, 0.7112999378693315
288.0, 0.8310637598932913
289.0, 0.946485654275468
290.0, 0.9902871202409419
291.0, 0.9998571028159776
292.0, 0.9929809736530606
293.0, 0.9482210163211493
294.0, 0.8396907513331503
295.0, 0.7094112712330405
296.0, 0.5820106074994199
297.0, 0.4655875086980887
298.0, 0.364765552283867
299.0, 0.2821973953279623
300.0, 0.2188451540751512
301.0, 0.1780229687691852
302.0, 0.13230238871298558
303.0, 0.10525954305844769
304.0, 0.08941592046690608
305.0, 0.07727175348937741
306.0, 0.0688732910841171
307.0, 0.06330026499590456
308.0, 0.06277154780295628
309.0, 0.06578832689671821
310.0, 0.07332473777070356
311.0, 0.08648614244102037
312.0, 0.1053233596866416
313.0, 0.1258419654308018
314.0, 0.15180944555833983
315.0, 0.18406960917848839
316.0, 0.2273390230688283
317.0, 0.2837301042099332
318.0, 0.3462844028723965
319.0, 0.398585862764626
320.0, 0.42151766688774583
321.0, 0.4155475347032984
322.0, 0.3853350822684843
323.0, 0.33941322146115377
324.0, 0.29108020025621273
325.0, 0.2367288341862096
326.0, 0.1894723476494605
327.0, 0.14786905656701502
328.0, 0.11569500068788874
329.0, 0.09691904786925336
330.0, 0.08040904427330428
331.0, 0.06847242349540758
332.0, 0.06007764520335146
333.0, 0.05528118454890567
334.0, 0.052449646025858755
335.0, 0.049028496188585666
336.0, 0.044807259085110324
337.0, 0.04459177402659977
338.0, 0.04509180910442399
339.0, 0.04594504631023356
340.0, 0.047373969450169535
341.0, 0.05009374991520026
342.0, 0.057132299730712016
343.0, 0.0634426872440356
344.0, 0.07578565408527031
345.0, 0.0904308748055966
346.0, 0.10719387961727507
347.0, 0.1311559555470037
348.0, 0.162012747124998
349.0, 0.19784315593926313
350.0, 0.24188308901893782
351.0, 0.2955145495317802
352.0, 0.3579885727828079
353.0, 0.4268617805457988
354.0, 0.5032818426046507
355.0, 0.58670372675165
356.0, 0.6577332436246275
357.0, 0.7029097126081432
358.0, 0.7169133751893894
359.0, 0.702909028334242
360.0, 0.6548997383916307
361.0, 0.5890194474633826
362.0, 0.5159079838482697
363.0, 0.43976561761120875
364.0, 0.3659557788596123
365.0, 0.3021084358842789
366.0, 0.24829448586723685
367.0, 0.20573599971643977
368.0, 0.17050959336528781
369.0, 0.141550520481295
370.0, 0.1188662541806574
371.0, 0.10264279282029898
372.0, 0.08755862652738484
373.0, 0.07666774380819075
374.0, 0.06822039840115614
375.0, 0.06086569028181456
376.0, 0.05407985208131374
377.0, 0.048628934442512324
378.0, 0.048432784795657886
379.0, 0.04707128017675258
380.0, 0.04631379949400943
381.0, 0.044909836699815374
382.0, 0.04269101920891793
383.0, 0.04159998248503264
384.0, 0.0424536227126161
385.0, 0.03908644971866017
386.0, 0.036471810536727885
387.0, 0.03514495622494186
388.0, 0.03328604830566279
389.0, 0.028774511583980734
390.0, 0.02938902563790923
391.0, 0.030289989583711197
392.0, 0.029021428864136868
393.0, 0.026864306374711384
394.0, 0.02506050560786788
395.0, 0.024029199471214083
396.0, 0.024661158204835176
397.0, 0.02437838071807277
398.0, 0.02254454938470791
399.0, 0.02171358664927189
400.0, 0.021866512035986118
401.0, 0.021060777582749282
402.0, 0.02185206983855087
403.0, 0.020381396673273468
404.0, 0.020225266554804142
405.0, 0.02007733497490538
406.0, 0.01920187301956129
407.0, 0.018120566843835145
408.0, 0.018698783297080794
409.0, 0.016390937661093237
410.0, 0.0156796205800548
411.0, 0.014354594316403787
412.0, 0.0132295477721299
413.0, 0.013513908368344865
414.0, 0.011170220412276544
415.0, 0.0102929991998076
416.0, 0.009714079554184846
417.0, 0.008904542520914925
418.0, 0.007464365310481776
419.0, 0.005667283296717387
420.0, 0.004990644063654366
421.0, 0.0062510666818934735
422.0, 0.0065865303364423785
423.0, 0.005356698894960376
424.0, 0.004919483569040431
425.0, 0.006267833799040308
426.0, 0.006380118392436919
427.0, 0.0033893875245093593
428.0, 0.0025613065042912864
429.0, 0.0019960318691668874
430.0, 0.0018606735554993618
431.0, 0.002361814160913254
432.0, 0.003008455821586219
433.0, 0.002713435150488295
434.0, 0.001272781333183912
435.0, 0.0017698906481522798
436.0, 0.0020303141265199686
437.0, 0.0017961688296002944
438.0, 0.0027251546007528962
439.0, 0.0034340106990497945
440.0, 0.004023085291204847
441.0, 0.004840889404635543
442.0, 0.006333315848190635
443.0, 0.007944771476675768
444.0, 0.009334009228911335
445.0, 0.012493219737059195
446.0, 0.014254237908743674
447.0, 0.018119682460825577
448.0, 0.026327622215057314
449.0, 0.03481854861397476
450.0, 0.04023837307167478
451.0, 0.04497384217164187
452.0, 0.03935767180259561
453.0, 0.03402695386291588
454.0, 0.02640115629789609
455.0, 0.0201299492464667
456.0, 0.01556844899453167
457.0, 0.00880405015607764
458.0, 0.007601830432605941
459.0, 0.004831474718084013
460.0, 0.0026141986976194434
461.0, 0.0015561323992029927
462.0, 0.001058072869802453
463.0, 0.00027500060106487936
464.0, 0.0001402383224043768
465.0, 0.0012958416356986702
466.0, 0.0017484349908507165
467.0, 0.001165030532295232
468.0, 0.0012397055885953513
469.0, 0.002182640189396786
470.0, 3.2020986816763404e-05
471.0, 0.0005655121583087201
472.0, 0.0016643364120463766
473.0, 0.0018659137445953802
474.0, 0.0012133463443433576
475.0, 0.0006080434520685236
476.0, 0.000936237804994897
477.0, 0.00022823222323082644
478.0, 0.0019118778175385234
479.0, 0.002130908567334328
480.0, 0.002738154101704834
481.0, 0.003372190622830289
482.0, 0.002677036304492377
483.0, 0.002445955413321498
484.0, 0.003595141595006695
485.0, 0.0030142245541302805
486.0, 0.00204228946420722
487.0, 0.0012818855372192105
488.0, 0.0013564315401162728
489.0, 0.0029377320861309984
490.0, 0.001509699371348094
491.0, 0.0014581953617611855
492.0, 0.0007971634810920344
493.0, 0.00020704644789978221
494.0, 0.00028263678799518663
495.0, 0.0008386806116271488
496.0, 0.0009041556491793107
497.0, 0.00018646463393973183
498.0, 0.00026866074401822067
499.0, 0.0010344159883048359
500.0, 0.0016934097409333046
501.0, 0.001806427322993599
502.0, 0.0019777814441957376
503.0, 0.0017698466929346407
504.0, 0.0016654364199640416
505.0, 0.0010552864745973325
506.0, 0.0005351148517243984
507.0, 0.0005917735914961449
508.0, 0.0010080394313961558
509.0, 0.00034173054435860783
510.0, 0.0006834354939393542
511.0, 0.0005333434073444863
512.0, 0.00045414461576749496
513.0, 0.0004695185231719176
514.0, 0.00038894313410912863
515.0, 0.00030903145956517116
516.0, 0.0013254175889735613
517.0, 0.0006902431932511398
518.0, 0.0007675505880048082
519.0, 0.0006449527653004332
520.0, 0.0005039084082137949
521.0, 0.0011855020344433917
522.0, 0.00018658580118642478
523.0, 0.00022927038429554244
524.0, 0.0009464247552217925
525.0, 0.0007976525020919577
526.0, 0.0007849604227408002
527.0, 0.001473360428550941
528.0, 0.0012773208155195637
529.0, 0.001493633220285357
530.0, 0.001442881515293662
531.0, 0.0024543617857600178
532.0, 0.0031274003589191243
533.0, 0.004310454063435057
534.0, 0.00658043966212
535.0, 0.004628694346115154
536.0, 0.006008637618744184
537.0, 0.00847411623615979
538.0, 0.011186130944487234
539.0, 0.01307006543423478
540.0, 0.014925046093627693
541.0, 0.0187442547087087
542.0, 0.02105627918186049
543.0, 0.024859471764460774
544.0, 0.029808316952432027
545.0, 0.03536233422944929
546.0, 0.04346473415183285
547.0, 0.05363674311530959
548.0, 0.059619330510102424
549.0, 0.06745007017826707
550.0, 0.07564906463856322
551.0, 0.07814390598694834
552.0, 0.07730770340568839
553.0, 0.07405690094817388
554.0, 0.06771037328507862
555.0, 0.060547396161384597
556.0, 0.05379586467894021
557.0, 0.04690861736482569
558.0, 0.04053839397504875
559.0, 0.03632845230495597
560.0, 0.03401769196009368
561.0, 0.03184058242937591
562.0, 0.03296922992834168
563.0, 0.03208262198617251
564.0, 0.03308457433082824
565.0, 0.03532191648269052
566.0, 0.03866579368212141
567.0, 0.04280486055337061
568.0, 0.04687040697503366
569.0, 0.053043778329473656
570.0, 0.05772631862259027
571.0, 0.06154186603863857
572.0, 0.06287389336448765
573.0, 0.06050420821995429
574.0, 0.05522625780919042
575.0, 0.05047050125595481
576.0, 0.04271659618588151
577.0, 0.03670147785258923
578.0, 0.03067930980506273
579.0, 0.026086292340660264
580.0, 0.021628231586741
581.0, 0.015687347562493587
582.0, 0.013380199449715654
583.0, 0.01070265526712479
584.0, 0.011087255266252745
585.0, 0.009085451890420069
586.0, 0.007647832405694397
587.0, 0.00760345039636128
588.0, 0.0064529791379189586
589.0, 0.0071603030207035455
590.0, 0.006978369122554478
591.0, 0.005568839020383659
592.0, 0.004779858271297234
593.0, 0.0058591312985799195
594.0, 0.007179371863719372
595.0, 0.005833570218826045
596.0, 0.006798902222685139
597.0, 0.005861243764034947
598.0, 0.006091213326623815
599.0, 0.0058651062243141195
600.0, 0.0052400138837489126
601.0, 0.004855517665204516
602.0, 0.004741699919151512
603.0, 0.003900960935746669
604.0, 0.00650370493383671
605.0, 0.005322568859971691
606.0, 0.005983751817335962
607.0, 0.006246451762393012
608.0, 0.004279624892813722
609.0, 0.004374966139255961
610.0, 0.003943724272384639
611.0, 0.0062182940110506076
612.0, 0.005617028401707709
613.0, 0.0054210338207871574
614.0, 0.006325701011015684
615.0, 0.007151718746789543
616.0, 0.007168460988606076
617.0, 0.008448259127408915
618.0, 0.009888820624908742
619.0, 0.010628210996799652
620.0, 0.011681774928733422
621.0, 0.012888857235291394
622.0, 0.014232334223673603
623.0, 0.016723352523836325
624.0, 0.018738144828421042
625.0, 0.02095915469935489
626.0, 0.02376439306532093
627.0, 0.02549929550636712
628.0, 0.026469146595021118
629.0, 0.02645222190056407
630.0, 0.023462098940208828
631.0, 0.020732949123816315
632.0, 0.019484441404518164
633.0, 0.01603844465306733
634.0, 0.012982065524736774
635.0, 0.010992056888437268
636.0, 0.00914691812975607
637.0, 0.006688301783224792
638.0, 0.005988707197324034
639.0, 0.005586758180793603
640.0, 0.006244711863774703
641.0, 0.006623855541272601
642.0, 0.006866034281663568
643.0, 0.007609269648855415
644.0, 0.008760681497363894
645.0, 0.008622770250290433
646.0, 0.008075325341889688
647.0, 0.006020566051609389
648.0, 0.005776868878496323
649.0, 0.005618562446063918
650.0, 0.004840384280837902
651.0, 0.005612530306851216
652.0, 0.007183485249378165
653.0, 0.003696782762731944
654.0, 0.0053757727572626484
655.0, 0.0039745402491264455
656.0, 0.00241315843374466
657.0, 0.0027919614581821657
658.0, 0.003048021203591313
659.0, 0.0027699547256303777
660.0, 0.004191371966831235
661.0, 0.002119570315255357
662.0, 0.0010523002666056654
663.0, 0.0016957663607104784
664.0, 0.0025513714523417437
665.0, 0.0022983759863334768
666.0, 0.0021679143180513994
667.0, 0.0029692362226006177
668.0, 0.002933840544200342
669.0, 0.003273127284946632
670.0, 0.004418225657592343
671.0, 0.004978063677289128
672.0, 0.003815979531654621
673.0, 0.0022608117700371757
674.0, 0.003015688386155948
675.0, 0.003997000806046851
676.0, 0.0038929121048204246
677.0, 0.004090876750148227
678.0, 0.003975032890407207
679.0, 0.0033742354890075057
680.0, 0.0037720470659615406
681.0, 0.005147169887073679
682.0, 0.0027217064740304078
683.0, 0.003955216593493171
684.0, 0.0056355130449908435
685.0, 0.005146500771505814
686.0, 0.0043222818357833166
687.0, 0.005920465884778986
688.0, 0.005063425394174434
689.0, 0.004513449758460465
690.0, 0.004919869264043899
691.0, 0.004174773273595527
692.0, 0.0048699441120339014
693.0, 0.006084449587610499
694.0, 0.005678765874172551
695.0, 0.004822688922429603
696.0, 0.00425630366392914
697.0, 0.004427275131878642
698.0, 0.004389205960459881
699.0, 0.0041564963904358225
700.0, 0.0038754329466933685
701.0, 0.003737407215173516
702.0, 0.003816958896540847
703.0, 0.0037048437234437188
704.0, 0.004350815859745013
705.0, 0.005163960265294656
706.0, 0.005651215105673082
707.0, 0.006474533021982403
708.0, 0.007618699398512736
709.0, 0.008016812929804355
710.0, 0.006748664459085525
711.0, 0.009067032775925098
712.0, 0.008150332171028524
713.0, 0.00965545572704089
714.0, 0.012955563950335196
715.0, 0.013386584822282147
716.0, 0.011036768420096418
717.0, 0.011725449795215054
718.0, 0.011442091190230307
719.0, 0.009858871987598411
720.0, 0.008473306803083483
721.0, 0.006359162845637052
722.0, 0.005530174978863318
723.0, 0.0060491761639235924
724.0, 0.005946294599348043
725.0, 0.003988848188634678
726.0, 0.0006268071179639082
727.0, 0.002398456746032393
728.0, 0.0016092225789908305
729.0, 0.0015249801908771591
730.0, 0.0014161193411235916
731.0, 0.0012256260327914623
732.0, 0.002931105823422214
733.0, 0.003149260005699219
734.0, 0.0007335127732136504
735.0, 0.001496883648277625
736.0, 0.001084691766328709
737.0, 0.00045754406436503126
738.0, 0.0003921449570153159
739.0, 0.0007374040603073354
740.0, 0.0013370764579851634
741.0, 0.0014388493320326716
742.0, 0.00215219586992549
743.0, 0.0015404895096321754
744.0, 0.0008579182145855831
745.0, 0.0006697814803425248
746.0, 0.0005675403217745949
747.0, 0.00011539462955128759
748.0, 0.00018079050789217483
749.0, 0.0013177645148840559
750.0, 0.0017558299583713458
751.0, 0.0019401226002329736
752.0, 0.002095140834010524
753.0, 0.002191346779530251
754.0, 0.0019551883423024477
755.0, 0.0013254982678617291
756.0, 0.0012894673878198408
757.0, 0.00017910251441299993
758.0, 2.7478504388602025e-05
759.0, 0.0005205792495132577
760.0, 0.0004712784661038189
761.0, 0.0006830801867977358
762.0, 0.001348738141110228
763.0, 0.0006437225982673789
764.0, 0.00041539952670437
765.0, 0.000835799313683692
766.0, 0.00044956686121387494
767.0, 0.000770170764028383
768.0, 0.0017469166279326085
769.0, 0.0022874139657338382
770.0, 0.0018504516225363549
771.0, 0.0013798385363186538
772.0, 0.0005480189029680716
773.0, 0.0014100701099529667
774.0, 0.0005345154746244668
775.0, 0.00022284037368051467
776.0, 0.0007657301680116433
777.0, 0.0014605846034816893
778.0, 0.0015894091322896813
779.0, 0.0009338965809078165
780.0, 0.00026643793282403244
781.0, 0.001828835367688996
782.0, 0.0007326018536632133
783.0, 0.0011304550621668256
784.0, 0.0012918218186884212
785.0, 0.0004377953121859141
786.0, 8.800304336934274e-05
787.0, 0.00023119660934758327
788.0, 0.0014681657322702856
789.0, 0.0017536100547726754
790.0, 0.0015943627662018125
791.0, 0.0010763481035719169
792.0, 0.0008291657351135621
793.0, 0.0011415529857228264
794.0, 0.0016156943551362871
795.0, 0.001699703365478382
796.0, 0.0023231439798508256
797.0, 0.0021701006003780102
798.0, 0.0026234908242984568
799.0, 0.002554194596030157
800.0, 0.0016075176997514926
801.0, 0.0023596024737043255
802.0, 0.005410500318222097
803.0, 0.00390624569601167
804.0, 0.00271072915805103
805.0, 0.00674794930642648
806.0, 0.008503107338203487
807.0, 0.007759223232583215
808.0, 0.005327335403422977
809.0, 0.00408999609568382
810.0, 0.0053100985301612145
811.0, 0.004796595224033884
812.0, 0.003675175607417849
813.0, 0.0040507304643535545
814.0, 0.0041670328417677685
815.0, 0.004477968066862798
816.0, 0.004651683067751459
817.0, 0.005577332939146026
818.0, 0.00596204206946956
819.0, 0.001852280431325933
820.0, 0.004765519526749747
821.0, 0.0031216833084683764
822.0, 0.0042054816129065715
823.0, 0.005193740312324609
824.0, 0.0050312206305856725
825.0, 0.004995185062977265
826.0, 0.005767389258790546
827.0, 0.005900071863561663
828.0, 0.005983570831092494
829.0, 0.005444951227776489
830.0, 0.006423475843738344
831.0, 0.0061837740293495475
832.0, 0.005909472965155284
833.0, 0.006991214006816932
834.0, 0.008306334836524014
835.0, 0.007421291300678933
836.0, 0.005788605324353172
837.0, 0.007378935026383145
838.0, 0.007014151211079314
839.0, 0.00535240456760858
840.0, 0.005786981090465407
841.0, 0.004875389364618784
842.0, 0.0030444644483760305
843.0, 0.003676959824487361
844.0, 0.0030842348805010635
845.0, 0.0009223466044778438
846.0, 0.0016827053180059883
847.0, 0.002304830706748957
848.0, 0.0014395896655659095
849.0, 0.0006924392750590642
850.0, 0.0006571957339955866
851.0, 0.0010467557017854621
852.0, 0.0019018855893516142
853.0, 0.0017688131580220002
854.0, 0.001150352160853051
855.0, 0.0004476387044264704
856.0, 0.00022373495388424092
857.0, 0.0008525242473539785
858.0, 0.0010082735686507427
859.0, 0.0008381601157258757
860.0, 0.0018888569196373016
861.0, 0.00285096170433319
862.0, 0.001101550841364385
863.0, 0.0016233439932316221
864.0, 0.001323748265323114
865.0, 0.0011251290196634541
866.0, 0.001631163209096208
867.0, 0.0019768400463984794
868.0, 0.0016890084602336982
869.0, 0.0019348152222596544
870.0, 0.002107408739772475
871.0, 0.002044874813931887
872.0, 0.0013489158284469914
873.0, 0.0014958271075014237
874.0, 0.001941700544330302
875.0, 0.0024039061932294653
876.0, 0.003190524055089492
877.0, 0.004147975444813347
878.0, 0.00405075581408129
879.0, 0.005499936191641835
880.0, 0.003872067218621188
881.0, 0.003593233972624514
882.0, 0.005493117099845631
883.0, 0.00824076744265925
884.0, 0.008900314885806008
885.0, 0.008779805063131554
886.0, 0.012012375739777667
887.0, 0.013015737996363474
888.0, 0.015334900046407723
889.0, 0.01337305763290639
890.0, 0.015399892247975371
891.0, 0.01639639340751729
892.0, 0.017650724458114053
893.0, 0.019838258206993975
894.0, 0.022088301641108348
895.0, 0.025015305714896772
896.0, 0.027997706544334956
897.0, 0.0322537655492925
898.0, 0.035405710665961126
899.0, 0.03883441337686548
900.0, 0.04339085464575834
901.0, 0.049216871183657945
902.0, 0.056257254862464155
903.0, 0.06445549811141435
904.0, 0.07350808579393336
905.0, 0.08274371776730592
906.0, 0.09479120837782067
907.0, 0.11056185935782593
908.0, 0.1327390336795646
909.0, 0.16012458963724033
910.0, 0.19483940184004853
911.0, 0.23844739917880878
912.0, 0.2928104620581818
913.0, 0.3638580538393975
914.0, 0.44875861853813537
915.0, 0.5417588021384953
916.0, 0.6459769482605195
917.0, 0.7387759403262247
918.0, 0.7940401442728187
919.0, 0.8052215528598572
920.0, 0.7676195296900771
921.0, 0.6819429133647944
922.0, 0.5759810052391963
923.0, 0.46566314715833573
924.0, 0.3718811716859504
925.0, 0.30000264436271773
926.0, 0.2415275902166291
927.0, 0.20224305617901686
928.0, 0.17388177083837153
929.0, 0.15032204628437773
930.0, 0.13446535998992853
931.0, 0.12535322610590746
932.0, 0.12106546235816569
933.0, 0.11844193267456712
934.0, 0.11854006528487616
935.0, 0.12150633728388985
936.0, 0.12740309349013587
937.0, 0.13638235561236467
938.0, 0.14848835657023127
939.0, 0.1644622228609736
940.0, 0.18617178576357277
941.0, 0.21394254361719786
942.0, 0.24865165597037783
943.0, 0.29213839438068695
944.0, 0.3508584942947652
945.0, 0.41633743285126934
946.0, 0.4910672067135591
947.0, 0.5696469550218314
948.0, 0.6425533213724112
949.0, 0.7063141822681905
950.0, 0.7440372231899017
951.0, 0.7425900596342309
952.0, 0.7019360477961738
953.0, 0.6422268676428279
954.0, 0.5616942437101049
955.0, 0.47662031212383854
956.0, 0.3998511227876217
957.0, 0.3317345763793005
958.0, 0.26965364299159117
959.0, 0.22098715349673928
960.0, 0.1824568221356898
961.0, 0.15604537612310942
962.0, 0.1322751995908106
963.0, 0.11075996904868064
964.0, 0.09438573187367515
965.0, 0.08129539609201192
966.0, 0.07026659854873869
967.0, 0.06238832045766746
968.0, 0.055964050700226364
969.0, 0.04703371690959848
970.0, 0.04383399706410293
971.0, 0.040119942484371895
972.0, 0.03510758418368115
973.0, 0.031787415968769286
974.0, 0.029321681103798715
975.0, 0.02709171061963521
976.0, 0.025512448081531865
977.0, 0.024237277458831512
978.0, 0.02233173880686204
979.0, 0.02158260769706316
980.0, 0.018749057599510278
981.0, 0.015932113292505334
982.0, 0.01666031152857996
983.0, 0.015505478725130256
984.0, 0.013393049593732956
985.0, 0.012560769591605828
986.0, 0.01232759167552845
987.0, 0.011704232502381704
988.0, 0.009720879458255399
989.0, 0.00968358051746317
990.0, 0.009364896982453226
991.0, 0.008733881453569013
992.0, 0.008526195901754607
993.0, 0.008435701608860487
994.0, 0.008265038916088534
995.0, 0.008311604497624548
996.0, 0.008659047794184126
997.0, 0.008456761256834828
998.0, 0.007146983706006764
999.0, 0.007822771282271162
1000.0, 0.00787111898770076
1001.0, 0.007805263605201981
1002.0, 0.008101914714150815
1003.0, 0.008122937134583029
1004.0, 0.00809645901683086
1005.0, 0.007869774776238769
1006.0, 0.007142817691697726
1007.0, 0.008019241354573301
1008.0, 0.0061919890340536386
1009.0, 0.008341639669799833
1010.0, 0.009309674880449254
1011.0, 0.011120045117338436
1012.0, 0.011933583716943925
1013.0, 0.01312417962732538
1014.0, 0.014939427709060748
1015.0, 0.016833482005533456
1016.0, 0.019711728775848904
1017.0, 0.023719700980885244
1018.0, 0.02636242355603207
1019.0, 0.023641205703133897
1020.0, 0.024308937437815755
1021.0, 0.023079110646513076
1022.0, 0.022675700649429514
1023.0, 0.02047737183461006
1024.0, 0.01733612680847026
1025.0, 0.016186527604593114
1026.0, 0.01558457338818166
1027.0, 0.012537300614826566
1028.0, 0.011721003769996872
1029.0, 0.010127805440752332
1030.0, 0.00980107938406762
1031.0, 0.008811064171112501
1032.0, 0.00753548209403547
1033.0, 0.008983459893786919
1034.0, 0.008942768239332976
1035.0, 0.008091461307563707
1036.0, 0.011941795619729996
1037.0, 0.012020620630970112
1038.0, 0.008770563837904342
1039.0, 0.00976015379607012
1040.0, 0.009355244052389045
1041.0, 0.007897487009131135
1042.0, 0.00811209075261296
1043.0, 0.009042231334742508
1044.0, 0.009768428501397294
1045.0, 0.010803590894558839
1046.0, 0.012726467763452154
1047.0, 0.014182083772973404
1048.0, 0.012382495697132304
1049.0, 0.01613672457434872
1050.0, 0.016820586622542395
1051.0, 0.01948986334881077
1052.0, 0.022703872118909677
1053.0, 0.026001115296435926
1054.0, 0.03025129803960344
1055.0, 0.03494685560040497
1056.0, 0.04121450367162349
1057.0, 0.05111879767680734
1058.0, 0.06003833625870718
1059.0, 0.07407588260940838
1060.0, 0.09106958756371766
1061.0, 0.11390858377715701
1062.0, 0.1272746756827804
1063.0, 0.14467704689359218
1064.0, 0.15619855636716584
1065.0, 0.15522714605312254
1066.0, 0.14434887325582707
1067.0, 0.1282257426286444
1068.0, 0.11035336292228771
1069.0, 0.0901903513027665
1070.0, 0.07225426726167529
1071.0, 0.05676120060741118
1072.0, 0.04550707382604682
1073.0, 0.03475793231717692
1074.0, 0.029144640420237088
1075.0, 0.024423641912143135
1076.0, 0.019924976907509787
1077.0, 0.01683885373947835
1078.0, 0.013629320274050933
1079.0, 0.011999904468126836
1080.0, 0.011340804262379245
1081.0, 0.00821393010224729
1082.0, 0.009234761607669154
1083.0, 0.007770185253090179
1084.0, 0.0059813197527130435
1085.0, 0.0034421345381218963
1086.0, 0.002444872233057821
1087.0, 0.0032870144061996724
1088.0, 0.003955470574546703
1089.0, 0.003389719499456649
1090.0, 0.001718911396786029
1091.0, 0.0007553118722733765
1092.0, 0.00035825940416267955
1093.0, 0.0026766361458648146
1094.0, 0.0008230998823452073
1095.0, 0.0010397599757588707
1096.0, 0.0023068695336478395
1097.0, 0.0027075832131036232
1098.0, 0.0020468993474525837
1099.0, 0.0014057459879146506
1100.0, 0.0019988365916292048
1101.0, 0.003946105350581976
1102.0, 0.005109388916663127
1103.0, 0.005126274379227976
1104.0, 0.005709328749569773
1105.0, 0.006469067786730665
1106.0, 0.006232280057427732
1107.0, 0.007466845490764577
1108.0, 0.009222462892641147
1109.0, 0.009616865161433782
1110.0, 0.009064966805226867
1111.0, 0.009258625007107738
1112.0, 0.009622798242879219
1113.0, 0.0073431411208470816
1114.0, 0.008422698827334554
1115.0, 0.006115833258611111
1116.0, 0.007483999396283344
1117.0, 0.008380737428112241
1118.0, 0.011092631382867603
1119.0, 0.01280122110456157
1120.0, 0.013520667454397204
1121.0, 0.014554981931048242
1122.0, 0.01584702595580088
1123.0, 0.016820614027003803
1124.0, 0.0153211242526355
1125.0, 0.0175131084315141
1126.0, 0.013930362982032025
1127.0, 0.014987620323287884
1128.0, 0.011325047348814942
1129.0, 0.006511627095757743
1130.0, 0.004600882297909512
1131.0, 0.003987602043658757
1132.0, 0.0025425269360056565
1133.0, 0.0008743259718349227
1134.0, 0.0005911540659339935
1135.0, 0.0015369452061402696
1136.0, 0.0008565758456276453
1137.0, 0.0007195834504933633
1138.0, 0.00325845857482396
1139.0, 0.0031818031460354463
1140.0, 0.004614781510772508
1141.0, 0.0033182810294409516
1142.0, 0.0022350391719745833
1143.0, 0.0012210554552775721
1144.0, 0.0010268918417824055
1145.0, 0.001736040522383693
1146.0, 0.0012284500543068573
1147.0, 0.003151634210360965
1148.0, 0.002430576771124412
1149.0, 0.0020072022021168034
1150.0, 0.00046908303237817796
1151.0, 0.0014800216760110156
1152.0, 0.0023151330560746515
1153.0, 0.002056805856545203
1154.0, 0.002042248231769503
1155.0, 0.0016682667311780832
1156.0, 0.0013553266324633194
1157.0, 0.0018012737835953873
1158.0, 0.0013942683205196737
1159.0, 0.00016303426381310997
1160.0, 0.00018119274635403375
1161.0, 0.00023885709847477513
1162.0, 0.0004908714163271051
1163.0, 0.001404150543884196
1164.0, 0.0008034127758993174
1165.0, 0.0010657438706456039
1166.0, 0.000844068845129902
1167.0, 0.0005665021071790297
1168.0, 0.0004552508147561054
1169.0, 0.00019942521905998191
1170.0, 0.0003620050653730659
1171.0, 0.0004361094634817551
1172.0, 0.00024634266562448845
1173.0, 0.0018542200168665088
1174.0, 0.0025034117413733755
1175.0, 0.0015703124561324002
1176.0, 0.0009193681104721343
1177.0, 0.0010803198173271872
1178.0, 0.0010607497389410435
1179.0, 0.0007048157358304613
1180.0, 0.0005537387939263079
1181.0, 0.0013084057905319016
1182.0, 0.001883327243740164
1183.0, 0.00035207821315060386
1184.0, 7.160501447767426e-05
1185.0, 0.00033260038980966237
1186.0, 0.002393237415639126
1187.0, 0.0003288886819692989
1188.0, 0.0005367526795100413
1189.0, 0.001376756840091071
1190.0, 0.0013439013249684389
1191.0, 0.0014286720156745343
1192.0, 0.0009797732386350086
1193.0, 0.0005803593070347389
1194.0, 0.0007307510911134591
1195.0, 0.0006022110197452433
1196.0, 0.001209079413794973
1197.0, 0.0008059098069050343
1198.0, 0.0007944967726450674
1199.0, 0.002320549084954433
1200.0, 0.0009238649958375703
1201.0, 0.0021124277856663775
1202.0, 0.0011323026330939923
1203.0, 0.0005910632633297382
1204.0, 0.0011022761696321006
1205.0, 0.001044424081770446
1206.0, 0.0003343538881424934
1207.0, 0.0001738591983236629
1208.0, 0.0004960871062964981
1209.0, 0.0005391342170647006
1210.0, 0.00086565810265558
1211.0, 0.0009225480889356956
1212.0, 0.0014983241698233998
1213.0, 0.001458793402519356
1214.0, 0.0011694388402681037
1215.0, 0.0014767883094149122
1216.0, 0.0008287775028731687
1217.0, 0.001014834791889592
1218.0, 0.00166043705912816
1219.0, 0.0015730190052454195
1220.0, 0.0016672620390339934
1221.0, 0.00205166342910174
1222.0, 0.001363640475282689
1223.0, 0.0033331919136689123
1224.0, 0.0015659651164697161
1225.0, 0.0027723589165246114
1226.0, 0.00026203979611922603
1227.0, 0.0013923146217916407
1228.0, 0.001136090867637313
1229.0, 0.00033215588088842876
1230.0, 0.001975464583240399
1231.0, 0.002606071846477312
1232.0, 0.002061388268125089
1233.0, 0.002203887004831881
1234.0, 0.0021897377823940595
1235.0, 0.0014839462833436713
1236.0, 0.0015822582228357707
1237.0, 0.002472211629410823
1238.0, 0.0010650525971219278
1239.0, 0.0025667563801981684
1240.0, 0.002823487495228109
1241.0, 0.0012492084528164036
1242.0, 0.0028848877931904595
1243.0, 0.001410692367129302
1244.0, 0.0019424036642347335
1245.0, 0.0029691777138887063
1246.0, 0.0029071664733252905
1247.0, 0.003057460211567172
1248.0, 0.00330875539182224
1249.0, 0.0030201427312359867
1250.0, 0.0026225153242767116
1251.0, 0.0033420816681977252
1252.0, 0.0017528143986072645
1253.0, 0.002195589685400735
1254.0, 0.001809907337250834
1255.0, 0.0028280928440500815
1256.0, 0.00206205599305445
1257.0, 0.002544149478083859
1258.0, 0.003194923737725164
1259.0, 0.0025123537453460073
1260.0, 0.0013591089266291752
1261.0, 0.0015433690952485284
1262.0, 0.0027343329784145264
1263.0, 0.003232742871760199
1264.0, 0.003608591531070249
1265.0, 0.004138815105241865
1266.0, 0.004135781212168388
1267.0, 0.004439275265189161
1268.0, 0.00402319170306712
1269.0, 0.0039221334593886265
1270.0, 0.0037788060486063507
1271.0, 0.0028122096844452322
1272.0, 0.0029908652021860124
1273.0, 0.002836429759594167
1274.0, 0.003060194090616012
1275.0, 0.004700175272610581
1276.0, 0.004197658849741393
1277.0, 0.0024974758190982782
1278.0, 0.00479086025096326
1279.0, 0.002461788075156568
1280.0, 0.0034455587960068135
1281.0, 0.004683805018443102
1282.0, 0.0034876871445153838
1283.0, 0.0038940499108330424
1284.0, 0.005401960345555082
1285.0, 0.003446649799639783
1286.0, 0.0036363523916264247
1287.0, 0.0040254644156755195
1288.0, 0.004285325309263235
1289.0, 0.004581441607934307
1290.0, 0.004916775324049689
1291.0, 0.00544034402844848
1292.0, 0.0058723847718611145
1293.0, 0.005935768718359073
1294.0, 0.005988687854308621
1295.0, 0.005495642345641978
1296.0, 0.004157528405194501
1297.0, 0.004934394308779544
1298.0, 0.004316386825379883
1299.0, 0.007341518732284269
1300.0, 0.005448200426338923
1301.0, 0.005735120884076637
1302.0, 0.004944821393701139
1303.0, 0.005961490487910322
1304.0, 0.006084031836327063
1305.0, 0.006472190203084963
1306.0, 0.007257917898743876
1307.0, 0.006579222230132786
1308.0, 0.006410272002117158
1309.0, 0.006350178435779556
1310.0, 0.005677823652197812
1311.0, 0.005927474218262459
1312.0, 0.005783528317336138
1313.0, 0.004304206316188693
1314.0, 0.007550726020840557
1315.0, 0.006445870612420259
1316.0, 0.006573338375065158
1317.0, 0.006598263680267742
1318.0, 0.006821409044042426
1319.0, 0.008184066137184
1320.0, 0.009591275989831576
1321.0, 0.008801749383587718
1322.0, 0.007406890065857612
1323.0, 0.005727412771792508
1324.0, 0.0037605810179737464
1325.0, 0.005557355939172701
1326.0, 0.004932613339175844
1327.0, 0.006422507476597081
1328.0, 0.003972710458768842
1329.0, 0.004654310368425375
1330.0, 0.00569598645180154
1331.0, 0.006263515026498459
1332.0, 0.003893596138696217
1333.0, 0.004312748976151901
1334.0, 0.005553111803401846
1335.0, 0.0039480279135242075
1336.0, 0.004101326275694984
1337.0, 0.005514230515856806
1338.0, 0.00523127319837956
1339.0, 0.004900592271143557
1340.0, 0.004889570162775923
1341.0, 0.004330143085023696
1342.0, 0.005875535409955573
1343.0, 0.003466790836235884
1344.0, 0.0028673695618807106
1345.0, 0.002553430741427814
1346.0, 0.002245373855827187
1347.0, 0.00239463468732393
1348.0, 0.0025075999749277615
1349.0, 0.0019474210223899184
1350.0, 0.0024748255261732494
1351.0, 0.004307267048761255
1352.0, 0.0029751209182079076
1353.0, 0.0016003468612794916
1354.0, 0.0025128222843458503
1355.0, 0.004070871760927751
1356.0, 0.004611044854090495
1357.0, 0.0037297098984046904
1358.0, 0.0026983221831606468
1359.0, 0.0032505555966311477
1360.0, 0.0034298542572680888
1361.0, 0.0035385175937076574
1362.0, 0.002585097750895938
1363.0, 0.0033532742390088997
1364.0, 0.0028430557594476525
1365.0, 0.002478929359770761
1366.0, 0.0031388550490204247
1367.0, 0.0030890099993653537
1368.0, 0.003229567596150862
1369.0, 0.0021143484168695548
1370.0, 0.0031852519300548067
1371.0, 0.0034027083944854868
1372.0, 0.003632259914428459
1373.0, 0.004258515123156654
1374.0, 0.0027536667465488337
1375.0, 0.0026944577077858177
1376.0, 0.004375249095164922
1377.0, 0.0018517863401950629
1378.0, 0.004139966484584407
1379.0, 0.004171674372144967
1380.0, 0.004503134068181282
1381.0, 0.005715695612149225
1382.0, 0.003425530772255041
1383.0, 0.003890503296090171
1384.0, 0.0026830972252291406
1385.0, 0.0019942539438228962
1386.0, 0.0018655901967829928
1387.0, 0.0017783209485755626
1388.0, 0.0032002766845840047
1389.0, 0.004923190185438339
1390.0, 0.003911445173007381
1391.0, 0.002377538350093868
1392.0, 0.00162531011056268
1393.0, 0.001598020956407959
1394.0, 0.0026215967978624657
1395.0, 0.0028843562378353745
1396.0, 0.001956278691388105
1397.0, 0.002969750022697414
1398.0, 0.004547394400555815
1399.0, 0.001520408397294982
1400.0, 0.0002515406249574547
1401.0, 0.0024743040321571377
1402.0, 0.0038865915877697764
1403.0, 0.0012965255000701227
1404.0, 0.0031596805245155475
1405.0, 0.002964237475226511
1406.0, 0.0016971354169939606
1407.0, 0.0005286854557554746
1408.0, 0.002610025881046039
1409.0, 0.001866265424241059
1410.0, 0.0018858939699606563
1411.0, 0.002424869406481229
1412.0, 0.0016864391547304336
1413.0, 0.0016031423191431578
1414.0, 0.0015159804334109793
1415.0, 0.00033123832007265184
1416.0, 0.0002824065321705648
1417.0, 0.001284463342308557
1418.0, 0.0030791567204004828
1419.0, 0.002697882831939967
1420.0, 0.00047523606078029386
1421.0, 0.002041166372861762
1422.0, 0.0013142451993569937
1423.0, 0.0008886431889887619
1424.0, 0.00024048871032635044
1425.0, 0.0007088772246158593
1426.0, 0.0009413847857100904
1427.0, 0.0017217208825372134
1428.0, 0.0012986704608812442
1429.0, 0.001711148194685558
1430.0, 0.001692781697430111
1431.0, 0.0015651802066503054
1432.0, 0.0011471169282169103
1433.0, 0.0006230960474190819
1434.0, 0.0011267198437628436
1435.0, 0.0012643042099355255
1436.0, 0.0005871788146824672
1437.0, 0.0015845929147284314
1438.0, 0.0027364519274846156
1439.0, 0.0030915161399854077
1440.0, 0.00445159819023976
1441.0, 0.005840386579167484
1442.0, 0.002886448411399682
1443.0, 0.0028364196347514716
1444.0, 0.000787020856338813
1445.0, 0.002032971110872443
1446.0, 0.0037176608055456365
1447.0, 0.0016425598640074147
1448.0, 0.0008607026241861347
1449.0, 0.0019614583217995593
1450.0, 0.003915291220417305
1451.0, 0.0018272973286056844
1452.0, 0.0011702994500618973
1453.0, 0.002237345669252737
1454.0, 0.0028085819788075603
1455.0, 0.003668306607419284
1456.0, 0.0039323439912751675
1457.0, 0.0025357846909698795
1458.0, 0.0016419601229159682
1459.0, 0.002950883463419779
1460.0, 0.003453554008735348
1461.0, 0.0013603798591756192
1462.0, 0.0027985770076390457
1463.0, 0.0030150234402960114
1464.0, 0.0023527256318848027
1465.0, 0.003212468924789494
1466.0, 0.001566643468156888
1467.0, 0.0013610785686430816
1468.0, 0.004376324574862365
1469.0, 0.004582542716424037
1470.0, 0.0007977741526107149
1471.0, 0.0020124947784996424
1472.0, 0.00046771452934900987
1473.0, 0.000435390521388042
1474.0, 0.002276787244634121
1475.0, 0.0028778576609928266
1476.0, 0.004803792387680826
1477.0, 0.004149919503475002
1478.0, 0.003106553095763289
1479.0, 0.004066163891531756
1480.0, 0.002910276266120099
1481.0, 0.0016473268147034702
1482.0, 0.0028314040798403874
1483.0, 0.0024513437440929296
1484.0, 0.002794633292349188
1485.0, 0.005189449668048812
1486.0, 0.0035321379764049563
1487.0, 0.004089442416564655
1488.0, 0.00326963654105161
1489.0, 0.004310528394224762
1490.0, 0.0052502507199571734
1491.0, 0.0033202869000768854
1492.0, 0.0025555009692806744
1493.0, 0.004324160293316083
1494.0, 0.002091915588403849
1495.0, 0.006029432457345166
1496.0, 0.002319018626500833
1497.0, 0.0037363228777481296
1498.0, 0.0034486887795489255
1499.0, 0.004210330598211918
1500.0, 0.004159216189396632
1501.0, 0.005761835733085744
1502.0, 0.005937880767053929
1503.0, 0.004885859983898031
1504.0, 0.004581874558391294
1505.0, 0.003804294998408448
1506.0, 0.0021496548489281235
1507.0, 0.0017060170579749465
1508.0, 0.0018290971981074432
1509.0, 0.0018381551216433735
1510.0, 0.0024850915557924277
1511.0, 0.0031498703467928526
1512.0, 0.003816220238768825
1513.0, 0.004132848985277123
1514.0, 0.003853636950397534
1515.0, 0.004416808088450171
1516.0, 0.004204302942198618
1517.0, 0.0027844474023266705
1518.0, 0.004307825610050381
1519.0, 0.004333514625488508
1520.0, 0.0016687581074523324
1521.0, 0.0026097174521617205
1522.0, 0.0020427402638070876
1523.0, 0.0028270553817921866
1524.0, 0.000336371191651819
1525.0, 0.0015911583311907763
1526.0, 0.0022328579249834687
1527.0, 0.003979410069928918
1528.0, 0.002941075090150097
1529.0, 0.0032753423517700667
1530.0, 0.004079389491645171
1531.0, 0.0026112489358922912
1532.0, 0.002285323722640637
1533.0, 0.0009238287710643516
1534.0, 0.0012167624510523141
1535.0, 0.001736542144260608
1536.0, 0.0022870756335829304
1537.0, 0.001307871074180352
1538.0, 0.0013373773988270875
1539.0, 0.002734203237860343
1540.0, 0.0021189303216069544
1541.0, 0.0019708866432573057
1542.0, 0.002672799176360151
1543.0, 0.0015371299336913308
1544.0, 0.001038255136861506
1545.0, 0.00201541387750842
1546.0, 0.0034059061025324606
1547.0, 0.0033492019015141515
1548.0, 0.005059934434065517
1549.0, 0.004181157067248896
1550.0, 0.0030770891911867564
1551.0, 0.0035484241926156236
1552.0, 0.0022779837335378367
1553.0, 0.002484946960748845
1554.0, 0.0047125988842115244
1555.0, 0.004333626716651406
1556.0, 0.002748805388583435
1557.0, 0.0005370692794624714
1558.0, 0.0016005307592375615
1559.0, 0.001107843465291369
1560.0, 0.0034907102687835043
1561.0, 0.0018923961595608942
1562.0, 0.0013656518884066372
1563.0, 0.002522945391751342
1564.0, 0.0006998936191156811
1565.0, 0.001162090154696612
1566.0, 0.002844268478882796
1567.0, 0.004192181488329373
1568.0, 0.005097700472039716
1569.0, 0.001952764611555209
1570.0, 4.7690074302681364e-05
1571, 0.0
1572, 0.0
1573, 0.0
1574, 0.0
1575, 0.0
1576, 0.0
1577, 0.0
1578, 0.0
1579, 0.0
1580, 0.0
1581, 0.0
1582, 0.0
1583, 0.0
1584, 0.0
1585, 0.0
1586, 0.0
1587, 0.0
1588, 0.0
1589, 0.0
1590, 0.0
1591, 0.0
1592, 0.0
1593, 0.0
1594, 0.0
1595, 0.0
1596, 0.0
1597, 0.0
1598, 0.0
1599, 0.0
