30, 0.0
31, 0.0
32, 0.0
33, 0.0
34, 0.0
35, 0.0
36, 0.0
37, 0.0
38, 0.0
39, 0.0
40, 0.0
41, 0.0
42, 0.0
43, 0.0
44, 0.0
45, 0.0
46, 0.0
47, 0.0
48, 0.0
49, 0.0
50, 0.0
51, 0.0
52, 0.0
53, 0.0
54, 0.0
55, 0.0
56, 0.0
57, 0.0
58, 0.0
59, 0.0
60, 0.0
61, 0.0
62, 0.0
63, 0.0
64, 0.0
65, 0.0
66, 0.0
67, 0.0
68, 0.0
69, 0.0
70, 0.0
71, 0.0
72, 0.0
73, 0.0
74, 0.0
75, 0.0
76, 0.0
77, 0.0
78, 0.0
79, 0.0
80, 0.0
81, 0.0
82, 0.0
83, 0.0
84, 0.0
85, 0.0
86, 0.0
87, 0.0
88, 0.0
89, 0.0
90, 0.0
91, 0.0
92, 0.0
93, 0.0
94, 0.0
95, 0.0
96, 0.0
97, 0.0
98, 0.0
99, 0.0
100, 0.0
101, 0.0
102, 0.0
103, 0.0
104, 0.0
105, 0.0
106, 0.0
107, 0.0
108, 0.0
109, 0.0
110, 0.0
111, 0.0
112.0, 0.00012160533151523833
113.0, 0.005188494144649981
114.0, 0.0023195551842122653
115.0, 0.006021841235898477
116.0, 0.014373479392790569
117.0, 0.017308718286340393
118.0, 0.010666727625101572
119.0, 0.007339890537728664
120.0, 0.003470139715267794
121.0, 0.002033039614638377
122.0, 0.005629896961889919
123.0, 0.011855141300632732
124.0, 0.011232722710136405
125.0, 0.009077456295926125
126.0, 0.006850288616979668
127.0, 0.005610108575423537
128.0, 0.006281288472607628
129.0, 0.015431433349146048
130.0, 0.018686496948322615
131.0, 0.016946430539767857
132.0, 0.014703269019785147
133.0, 0.01592770751203158
134.0, 0.008942612763278453
135.0, 0.014120322895489111
136.0, 0.014316119166518843
137.0, 0.012818539231786913
138.0, 0.014911101321767865
139.0, 0.020138427666473703
140.0, 0.02401711993443783
141.0, 0.025221124123380966
142.0, 0.024474316865111565
143.0, 0.02273598572874407
144.0, 0.020965379912546232
145.0, 0.019219286730286344
146.0, 0.014720702388368959
147.0, 0.012619882109193459
148.0, 0.012306565579801278
149.0, 0.011139212316213207
150.0, 0.008182908197328528
151.0, 0.00872493275916176
152.0, 0.0142581321542062
153.0, 0.015144450503715478
154.0, 0.009580367709799491
155.0, 0.010456269246394506
156.0, 0.008134571839230217
157.0, 0.0028431563530500175
158.0, 0.004289737593947032
159.0, 0.008081280577361002
160.0, 0.00378802595930406
161.0, 0.004298473747988772
162.0, 0.0022008498906359317
163.0, 0.005058743042193977
164.0, 0.007822929126743424
165.0, 0.007103844329234321
166.0, 0.010159706477075883
167.0, 0.01608295036944757
168.0, 0.010858563768930874
169.0, 0.0067477604010636036
170.0, 0.009065522688840439
171.0, 0.01459941122573643
172.0, 0.008979998400201684
173.0, 0.014784574344250663
174.0, 0.013106286564345548
175.0, 0.010410400968110823
176.0, 0.012777932286523741
177.0, 0.0009858667119340041
178.0, 0.008882685274208034
179.0, 0.013267846062710757
180.0, 0.012122988836416214
181.0, 0.010116396362956212
182.0, 0.01567282463073461
183.0, 0.017192211230223065
184.0, 0.027125462784645338
185.0, 0.028946903179455218
186.0, 0.029067582949021994
187.0, 0.03672211572162592
188.0, 0.04169196484310071
189.0, 0.051912758509794266
190.0, 0.043235486791107114
191.0, 0.03711606962549562
192.0, 0.0410967079914445
193.0, 0.04269468440008824
194.0, 0.0431093670354235
195.0, 0.041324621828558304
196.0, 0.035851564803186395
197.0, 0.03260681586984693
198.0, 0.03527485888597937
199.0, 0.031083433322217732
200.0, 0.030657261568161308
201.0, 0.036585189418813994
202.0, 0.0374421552452484
203.0, 0.033542196830891324
204.0, 0.036935844443182965
205.0, 0.02913421704572283
206.0, 0.024260121207969373
207.0, 0.02049886851819418
208.0, 0.015164843889326768
209.0, 0.009297674904131265
210.0, 0.015209378752135011
211.0, 0.003598473647355882
212.0, 0.006736050402905947
213.0, 0.010252909003612658
214.0, 0.008694840336471044
215.0, 0.007136824932391039
216.0, 0.003277089254215006
217.0, 0.010236541206902715
218.0, 0.014026029498679258
219.0, 0.013303739934970362
220.0, 0.011837829713675129
221.0, 0.016565525680678494
222.0, 0.011765072284185347
223.0, 0.007549168579913127
224.0, 0.007623608363219803
225.0, 0.008714292494045064
226.0, 0.005747375288667528
227.0, 0.011246374320256025
228.0, 0.007686634660510842
229.0, 0.013753091345387889
230.0, 0.014529054897616762
231.0, 0.004918012583335409
232.0, 0.003451744755927128
233.0, 0.00985951645598579
234.0, 0.013356974885488595
235.0, 0.013020876739795129
236.0, 0.013139103953705721
237.0, 0.017508882055542456
238.0, 0.01988986723366845
239.0, 0.02134327659875219
240.0, 0.020227731100691863
241.0, 0.01863006878686297
242.0, 0.01794329946030408
243.0, 0.018282650670719273
244.0, 0.018530899878666015
245.0, 0.016620780808716283
246.0, 0.012000771082023373
247.0, 0.00876343633089934
248.0, 0.00894672916952452
249.0, 0.008104306372212804
250.0, 0.0030042337094685237
251.0, 0.0057523175983521324
252.0, 0.008072998363055934
253.0, 0.008450324256916712
254.0, 0.008296424396826343
255.0, 0.0031024428395755696
256.0, 0.004236288064713812
257.0, 0.0026424224055880447
258.0, 0.0020080663127948137
259.0, 0.005381904294634846
260.0, 0.0118207404227475
261.0, 0.002006829952272445
262.0, 0.004028233132741843
263.0, 0.008032519661824753
264.0, 0.008281923872931751
265.0, 0.003968923395913699
266.0, 0.0014111879175815988
267.0, 0.006945226826296448
268.0, 0.011773395146603197
269.0, 0.008618284112740912
270.0, 0.0039802846515454475
271.0, 0.007923690663705765
272.0, 0.017067737479573956
273.0, 0.02022538250923636
274.0, 0.023338518638266498
275.0, 0.03291566369279221
276.0, 0.04381244085354064
277.0, 0.044409206903231434
278.0, 0.0521282648628083
279.0, 0.06336105089788627
280.0, 0.07912121543191798
281.0, 0.1044423406789736
282.0, 0.14230915598494595
283.0, 0.19149444193279394
284.0, 0.2530213053421617
285.0, 0.28425229470697166
286.0, 0.3039898734929323
287.0, 0.3220036181230826
288.0, 0.3433907732582946
289.0, 0.37022255236064183
290.0, 0.383202333251574
291.0, 0.3701862979227953
292.0, 0.33237078463357067
293.0, 0.2853151285229476
294.0, 0.2456277109530225
295.0, 0.20451068031654324
296.0, 0.16364451727495932
297.0, 0.13143315935561634
298.0, 0.09527131328955332
299.0, 0.062547555094982
300.0, 0.05212261836274136
301.0, 0.03378752588078869
302.0, 0.015083911161020671
303.0, 0.012459585477982368
304.0, 0.00932255565576743
305.0, 0.0008014479649199887
306.0, 0.0026684419720031088
307.0, 0.01106517496582243
308.0, 0.016518796910407873
309.0, 0.029699185051157796
310.0, 0.05079934074500279
311.0, 0.07525987098382128
312.0, 0.09691402558428924
313.0, 0.14262948482943208
314.0, 0.16854996787389975
315.0, 0.20357900774202609
316.0, 0.25620675021313727
317.0, 0.3182445658511203
318.0, 0.3647314942630932
319.0, 0.37524432189074985
320.0, 0.3593323287622467
321.0, 0.3257245068827327
322.0, 0.28583551556992237
323.0, 0.24577402586921845
324.0, 0.19236028584703574
325.0, 0.14139920643927947
326.0, 0.10365919870210767
327.0, 0.07703525778095803
328.0, 0.05683449950511432
329.0, 0.04035911027247364
330.0, 0.03803091287749229
331.0, 0.02601168652377219
332.0, 0.020571082345741704
333.0, 0.016125294317071243
334.0, 0.012641587215358104
335.0, 0.014962761867320977
336.0, 0.019788731575744598
337.0, 0.01647059579973448
338.0, 0.016718605097296047
339.0, 0.02091271112006481
340.0, 0.025483751788519117
341.0, 0.025975737498204116
342.0, 0.026286829544504422
343.0, 0.03272532555386222
344.0, 0.03763884899702692
345.0, 0.044565542744972
346.0, 0.057105263504141274
347.0, 0.07607625387954889
348.0, 0.09903050238991268
349.0, 0.12083516869584167
350.0, 0.1531269883636685
351.0, 0.19151478220148951
352.0, 0.2291785551829518
353.0, 0.26210840992220386
354.0, 0.2976014755736834
355.0, 0.34611050604332205
356.0, 0.37461709537639726
357.0, 0.3848965728827883
358.0, 0.37559646289647414
359.0, 0.3357040509385828
360.0, 0.3117149977038599
361.0, 0.27704001200448114
362.0, 0.2408538711483643
363.0, 0.20377109663658663
364.0, 0.17053382608939768
365.0, 0.15129591274756413
366.0, 0.1259290600033454
367.0, 0.1172637039290401
368.0, 0.10887795078963783
369.0, 0.09453656690550509
370.0, 0.07917600537703993
371.0, 0.07656595411002733
372.0, 0.0720599564822535
373.0, 0.05446862590565266
374.0, 0.05649605602426054
375.0, 0.05933401067172686
376.0, 0.05153606298591246
377.0, 0.047464126952486044
378.0, 0.04012880174280365
379.0, 0.04469028666747955
380.0, 0.04493481184491593
381.0, 0.03968092737087032
382.0, 0.03672948496990791
383.0, 0.04681677886769598
384.0, 0.049394341326681315
385.0, 0.06436337606849482
386.0, 0.06289201949461944
387.0, 0.05994710776380205
388.0, 0.06568444634336125
389.0, 0.07173625045204292
390.0, 0.058272106379100345
391.0, 0.06533022426879442
392.0, 0.06308791889358085
393.0, 0.05787210547311084
394.0, 0.051334986552435305
395.0, 0.037278067077029145
396.0, 0.035613758790135445
397.0, 0.04141228170138135
398.0, 0.037496281162018696
399.0, 0.0330131912913899
400.0, 0.03503349532149364
401.0, 0.04274452634488741
402.0, 0.04593846376845227
403.0, 0.040561964604839
404.0, 0.04517669671624903
405.0, 0.045069399203820956
406.0, 0.040437314868018964
407.0, 0.04175508049559631
408.0, 0.042943894751119906
409.0, 0.04611185828525005
410.0, 0.04752829061396475
411.0, 0.047821799979864674
412.0, 0.048930295468889745
413.0, 0.05318889708696567
414.0, 0.062408606881713555
415.0, 0.06497832805556607
416.0, 0.06572839603136327
417.0, 0.06547964475553444
418.0, 0.06330575160650583
419.0, 0.058229346276053744
420.0, 0.05099865494666719
421.0, 0.0431153082551999
422.0, 0.03916452943026693
423.0, 0.03262525024252776
424.0, 0.02832549858103709
425.0, 0.02915940994050129
426.0, 0.028044132687572713
427.0, 0.02498920967831466
428.0, 0.024626713296325074
429.0, 0.02502812867901558
430.0, 0.023530173928613302
431.0, 0.020097403747256673
432.0, 0.01873262820318077
433.0, 0.028806924981852677
434.0, 0.01289441998631643
435.0, 0.020248420975074836
436.0, 0.025174094930061817
437.0, 0.02174591388354358
438.0, 0.027738949965856467
439.0, 0.03227216473102597
440.0, 0.029876371158956253
441.0, 0.030234167320661524
442.0, 0.0384295813852892
443.0, 0.0514584590283785
444.0, 0.06074070082084687
445.0, 0.0568800721388053
446.0, 0.06484356064266347
447.0, 0.0677918105215772
448.0, 0.07879947469010648
449.0, 0.09053036667123264
450.0, 0.09024093178740178
451.0, 0.07399142647620074
452.0, 0.05117375595283416
453.0, 0.04362019304959524
454.0, 0.02999086824089183
455.0, 0.02203735828776265
456.0, 0.02136381817420344
457.0, 0.01106494276930018
458.0, 0.0034845617584182125
459.0, 0.004667048746255086
460.0, 0.005703097683487459
461.0, 0.0036516748462088683
462.0, 0.002077009526904382
463.0, 0.00510437195730579
464.0, 0.003960893016444693
465.0, 0.012022124767310143
466.0, 0.009837510315311363
467.0, 0.008211739641229262
468.0, 0.008694875101537837
469.0, 0.0071951586709579785
470.0, 0.000342900012437028
471.0, 0.000590381260232509
472.0, 0.003827359229601041
473.0, 0.00401185508004807
474.0, 0.0026853000933571227
475.0, 0.002707996409515914
476.0, 0.00481932161084738
477.0, 0.0038147414338480356
478.0, 0.0019894593623837327
479.0, 0.006503306974402973
480.0, 0.00780859330414139
481.0, 0.008556236306802165
482.0, 0.013146841471174764
483.0, 0.002063400400495897
484.0, 0.012670690146166692
485.0, 0.006942867492903719
486.0, 0.004649675648610758
487.0, 0.0057234871746347895
488.0, 0.0052545557141580835
489.0, 0.00444217244948126
490.0, 0.0019970752745075457
491.0, 0.004398751428484938
492.0, 0.003495281652714179
493.0, 0.002121534897296155
494.0, 0.0043769810305283865
495.0, 0.011581840723239735
496.0, 0.018564662348215744
497.0, 0.016201725934839258
498.0, 0.024740900845295656
499.0, 0.029754682424651496
500.0, 0.03321242315546443
501.0, 0.03807717545935995
502.0, 0.03492228928146776
503.0, 0.03915277172545491
504.0, 0.04378503262422143
505.0, 0.04632607221309024
506.0, 0.05178311293184988
507.0, 0.058315436937874277
508.0, 0.059579843153305646
509.0, 0.06335471432588477
510.0, 0.05993383824348296
511.0, 0.06841005714021696
512.0, 0.06245580196400502
513.0, 0.0546826632146085
514.0, 0.059665447413426616
515.0, 0.05917498746331687
516.0, 0.04883345599207057
517.0, 0.051789339261739537
518.0, 0.05967760470914226
519.0, 0.0607468386522452
520.0, 0.054361528395722135
521.0, 0.0516292467784647
522.0, 0.06614546513458584
523.0, 0.06120430165187603
524.0, 0.062392442658905534
525.0, 0.06969435912506208
526.0, 0.07154214058024622
527.0, 0.06768473680141067
528.0, 0.07722441971938385
529.0, 0.07499923951293888
530.0, 0.08145157789942643
531.0, 0.08711888762755489
532.0, 0.09332347294732689
533.0, 0.10019070055758922
534.0, 0.10561142463666702
535.0, 0.10768016349005508
536.0, 0.12471511025612168
537.0, 0.13437685776858657
538.0, 0.13846082545483138
539.0, 0.14654674622115174
540.0, 0.16039934557494057
541.0, 0.1714556753468681
542.0, 0.181610158506442
543.0, 0.1971713243763301
544.0, 0.19598730927159103
545.0, 0.20105134786087975
546.0, 0.21527018954312307
547.0, 0.2269743688591505
548.0, 0.22674313230050236
549.0, 0.24674200269645616
550.0, 0.24173373221770217
551.0, 0.24803279282344534
552.0, 0.24485751963092087
553.0, 0.22820996563992194
554.0, 0.2158780054178781
555.0, 0.21976545347423443
556.0, 0.20713354489316738
557.0, 0.1997962855900974
558.0, 0.18380191820048564
559.0, 0.17209139283744193
560.0, 0.17078187724523597
561.0, 0.16893468556154242
562.0, 0.16355654984202223
563.0, 0.1678440811381405
564.0, 0.16657072322644864
565.0, 0.16865143599635596
566.0, 0.17372783338645878
567.0, 0.17395989711357218
568.0, 0.16299863906681566
569.0, 0.16974958195760798
570.0, 0.16960265078759473
571.0, 0.16751209936783393
572.0, 0.16976135970674178
573.0, 0.16712210533997282
574.0, 0.1522812818226953
575.0, 0.14298915853495142
576.0, 0.14898069820111443
577.0, 0.15357675839116508
578.0, 0.14248628103441707
579.0, 0.13266837523743827
580.0, 0.12814798220989154
581.0, 0.12099749535348671
582.0, 0.11740927098849711
583.0, 0.10639964428602502
584.0, 0.10761449031070262
585.0, 0.1043225274800749
586.0, 0.10339936400694981
587.0, 0.10273617304857467
588.0, 0.0923645719255468
589.0, 0.09330149286648833
590.0, 0.08498270893962825
591.0, 0.08599769521691963
592.0, 0.08340590097898883
593.0, 0.07987970031371995
594.0, 0.07783986733482813
595.0, 0.07484782389721645
596.0, 0.08292548990042911
597.0, 0.08682794468807505
598.0, 0.084860289821222
599.0, 0.08303688010611622
600.0, 0.08088374433252862
601.0, 0.08144413012773007
602.0, 0.09373009883558053
603.0, 0.11131468253742409
604.0, 0.1094406417757063
605.0, 0.11746390907306467
606.0, 0.12309970447561011
607.0, 0.12663633917663702
608.0, 0.13178862199392632
609.0, 0.1356194536464577
610.0, 0.1363340792099732
611.0, 0.14369437853512917
612.0, 0.14362420826993927
613.0, 0.15023544458289234
614.0, 0.15827796143478648
615.0, 0.1593457449187144
616.0, 0.15932564863511897
617.0, 0.16905686199451941
618.0, 0.1686176234491727
619.0, 0.1723420603347837
620.0, 0.17077841553741682
621.0, 0.1736924234093692
622.0, 0.18419513972719598
623.0, 0.18238419072040815
624.0, 0.1886070145631123
625.0, 0.204397588212343
626.0, 0.2020338019367347
627.0, 0.19350971613678702
628.0, 0.1965640186796691
629.0, 0.20282458420876462
630.0, 0.1785915771564696
631.0, 0.18641210254613616
632.0, 0.1847450027784767
633.0, 0.18764157975934076
634.0, 0.1874965833413575
635.0, 0.1836617873983803
636.0, 0.1803506306854843
637.0, 0.1808758661263669
638.0, 0.18280028249401478
639.0, 0.17997644202002994
640.0, 0.17267946825397357
641.0, 0.17055230695608575
642.0, 0.1734868210969695
643.0, 0.17742931221199723
644.0, 0.17878846684630406
645.0, 0.16888752887319358
646.0, 0.16772854628507225
647.0, 0.16040967485240068
648.0, 0.15718131598579316
649.0, 0.1503213456135964
650.0, 0.13703090511571353
651.0, 0.12719387008210317
652.0, 0.12312752320780922
653.0, 0.11311598775268533
654.0, 0.09725907060536745
655.0, 0.09240878379314256
656.0, 0.0852084948874042
657.0, 0.07654588415813252
658.0, 0.07884721188352206
659.0, 0.0690895710582118
660.0, 0.06045119038599746
661.0, 0.06298142763083266
662.0, 0.052734232488014225
663.0, 0.045224389112166676
664.0, 0.04585222533702754
665.0, 0.04338416961535177
666.0, 0.029324226066214563
667.0, 0.02787956492088597
668.0, 0.021960027985604886
669.0, 0.0156507577352005
670.0, 0.015701352924538416
671.0, 0.013086046724475537
672.0, 0.003163710796617181
673.0, 0.002639933324706155
674.0, 0.000276582451821351
675.0, 0.0015381557392316414
676.0, 0.003058696286228412
677.0, 0.004063291689881953
678.0, 0.004380900011332896
679.0, 0.004193457628629153
680.0, 0.003684496827453542
681.0, 0.0022178586939466532
682.0, 0.00038628687883874864
683.0, 0.0018711355965853502
684.0, 0.0027922738858757214
685.0, 0.003592489155122234
686.0, 0.003947692292587252
687.0, 0.0031976020022983394
688.0, 0.005452643818940949
689.0, 0.009475836398792835
690.0, 0.0031047630151914956
691.0, 0.0009175217730704701
692.0, 0.0007626761588257644
693.0, 0.0027779278125792005
694.0, 0.006835804207061978
695.0, 0.0066576300313701715
696.0, 0.005045345390304032
697.0, 0.024064591982272475
698.0, 0.024833988401571003
699.0, 0.013943494466101623
700.0, 0.012208595108021062
701.0, 0.01618535807015985
702.0, 0.00375747956873038
703.0, 0.009167403877567343
704.0, 0.020174027280847648
705.0, 0.025226572513823757
706.0, 0.03315463640569327
707.0, 0.034053349601590684
708.0, 0.031243855083958806
709.0, 0.036724803559329916
710.0, 0.04704633804074727
711.0, 0.036828619737800806
712.0, 0.05381791162703511
713.0, 0.05909520150758457
714.0, 0.06282176561942926
715.0, 0.0667912476311221
716.0, 0.0688558297345083
717.0, 0.06788418845298834
718.0, 0.04946689859418717
719.0, 0.04647993078770997
720.0, 0.039069904801257015
721.0, 0.04081209431012305
722.0, 0.03091640587867071
723.0, 0.0226370082273594
724.0, 0.03249325078767835
725.0, 0.0199341564694673
726.0, 0.01905706796170203
727.0, 0.030253442903527696
728.0, 0.023511168648891884
729.0, 0.019469075146301418
730.0, 0.020536065567024576
731.0, 0.021576556114230903
732.0, 0.021650662895557157
733.0, 0.01847165340199716
734.0, 0.010306403066979691
735.0, 0.009600264112876445
736.0, 0.005937129480928358
737.0, 0.005247763338059037
738.0, 0.005710642233664134
739.0, 0.004280064350254084
740.0, 0.006996931310675176
741.0, 0.00719826969783755
742.0, 0.007252704897490657
743.0, 0.007191527411177541
744.0, 0.009522716609321174
745.0, 0.009964979276393837
746.0, 0.011472564516633954
747.0, 0.017649217157630216
748.0, 0.01525162450286493
749.0, 0.02013380041288677
750.0, 0.018588050734277006
751.0, 0.012050052680228083
752.0, 0.010350688518209748
753.0, 0.011100973345031644
754.0, 0.009903852306266886
755.0, 0.00876832449815392
756.0, 0.011621439777280232
757.0, 0.007929301472746952
758.0, 0.006176921042173995
759.0, 0.004985215059222764
760.0, 0.0037108296311146394
761.0, 0.007754168181327537
762.0, 0.015101160284052857
763.0, 0.011688763256779037
764.0, 0.0009925342871473283
765.0, 0.008537040768783817
766.0, 0.007606861311698892
767.0, 0.004795845531700393
768.0, 0.003838362197511486
769.0, 0.0031609204409098327
770.0, 0.00440502001543684
771.0, 0.015652404023352908
772.0, 0.018407231532621478
773.0, 0.01670901330231146
774.0, 0.014640280282230448
775.0, 0.011948449065698334
776.0, 0.012519802235754524
777.0, 0.015766435006398703
778.0, 0.018831212162768937
779.0, 0.02313195113114654
780.0, 0.023206378694640775
781.0, 0.02511818298983156
782.0, 0.024037818676080874
783.0, 0.024456880735492327
784.0, 0.025086333342238042
785.0, 0.026410310793455304
786.0, 0.028877392194730025
787.0, 0.026884889418729126
788.0, 0.029973433111699643
789.0, 0.023672788115624725
790.0, 0.03575739422363259
791.0, 0.03886872168118612
792.0, 0.042394277067256576
793.0, 0.05088676101593982
794.0, 0.05096855534440417
795.0, 0.038555363945784696
796.0, 0.05440351060832722
797.0, 0.051836922573241906
798.0, 0.0551937555039499
799.0, 0.056459571421346305
800.0, 0.06922983311169274
801.0, 0.08725523241581126
802.0, 0.09178284995075392
803.0, 0.0934011861464988
804.0, 0.09656095340305276
805.0, 0.12283040358323581
806.0, 0.127563794725374
807.0, 0.14353674751588769
808.0, 0.15388278214595325
809.0, 0.15980224693844053
810.0, 0.17802039852062795
811.0, 0.19309498315661497
812.0, 0.20555699538822578
813.0, 0.216957281653043
814.0, 0.23943129901668084
815.0, 0.24995448973492504
816.0, 0.25717227158474704
817.0, 0.2681496214576076
818.0, 0.27566745463696857
819.0, 0.27049697013425467
820.0, 0.2710693299400885
821.0, 0.2558138035172702
822.0, 0.2428600928138409
823.0, 0.2257944906886015
824.0, 0.20961706039481082
825.0, 0.1940384899149397
826.0, 0.17816326787659603
827.0, 0.16654676141842964
828.0, 0.15585071444452753
829.0, 0.13661055585822277
830.0, 0.12006063976916242
831.0, 0.12032949040224925
832.0, 0.11612863348135527
833.0, 0.10310972584007791
834.0, 0.09006778754751561
835.0, 0.0800130872444333
836.0, 0.06316299768327062
837.0, 0.06351870029128004
838.0, 0.05097166665319379
839.0, 0.04552694493663838
840.0, 0.041308785339164406
841.0, 0.029896597285968583
842.0, 0.020498115552322102
843.0, 0.02343340942517812
844.0, 0.02029161945893153
845.0, 0.013070944127589393
846.0, 0.014187582670128603
847.0, 0.00829764432149958
848.0, 0.0036085913553613944
849.0, 0.004317303211351042
850.0, 0.006360485399811773
851.0, 0.008743539586262901
852.0, 0.015008288011409373
853.0, 0.0022935861745719643
854.0, 0.008913607831485855
855.0, 0.005235718170426016
856.0, 0.006070343397980934
857.0, 0.003571921798653752
858.0, 0.0006148734100684203
859.0, 0.0020144489635451793
860.0, 0.005978501984276537
861.0, 0.00917611719089495
862.0, 0.003876617285224893
863.0, 0.0039249414510138785
864.0, 0.0021914040332504164
865.0, 0.0024752523626617937
866.0, 0.004362582743748314
867.0, 0.00366381498103641
868.0, 0.001277225421994875
869.0, 0.003847682731563731
870.0, 0.000954745277597503
871.0, 0.008909921370357482
872.0, 0.003374793278477459
873.0, 0.0012906990149763103
874.0, 0.0007568108285949042
875.0, 0.006364587022496856
876.0, 0.009855149628786548
877.0, 0.0010669162355059847
878.0, 0.0005012159721056495
879.0, 0.0013840221353914198
880.0, 0.007286001757118311
881.0, 0.016438765481498557
882.0, 0.011933545100326556
883.0, 0.011647491377649321
884.0, 0.01263837048935351
885.0, 0.008319735708940179
886.0, 0.010824398569783351
887.0, 0.022521795277007182
888.0, 0.008260125843802205
889.0, 0.019031363630084962
890.0, 0.023922942092848388
891.0, 0.030019114357751477
892.0, 0.037389422115160005
893.0, 0.03973503720536802
894.0, 0.03781097574841924
895.0, 0.04291929510708432
896.0, 0.051656704610002394
897.0, 0.05881060322539285
898.0, 0.06471984028164308
899.0, 0.08180342368016504
900.0, 0.09884156594631929
901.0, 0.10155126909254236
902.0, 0.10403016518232804
903.0, 0.12396873122738186
904.0, 0.14187655194331952
905.0, 0.15500152120857338
906.0, 0.17298629391246587
907.0, 0.20185569975793738
908.0, 0.23085802080406218
909.0, 0.2681785085997829
910.0, 0.32565724552873704
911.0, 0.39691035546556386
912.0, 0.47132839190483516
913.0, 0.5656515129395812
914.0, 0.6913095515219079
915.0, 0.784799630915212
916.0, 0.9004462620603128
917.0, 0.9766182848869155
918.0, 0.9993030158083775
919.0, 0.969439004052822
920.0, 0.89492606992573
921.0, 0.7948022471510657
922.0, 0.6971773112919434
923.0, 0.6068279760993286
924.0, 0.5351188866696414
925.0, 0.47726651580218993
926.0, 0.42750667866848874
927.0, 0.3930288626637217
928.0, 0.36163435354319823
929.0, 0.32257149602508095
930.0, 0.2815314016017246
931.0, 0.24761295095737115
932.0, 0.2105088992629454
933.0, 0.20040952208219043
934.0, 0.18312215245696886
935.0, 0.16630512867741898
936.0, 0.15481011215646598
937.0, 0.14663084636950904
938.0, 0.1382524652906934
939.0, 0.13038901595258084
940.0, 0.12672908489876428
941.0, 0.12230696639626759
942.0, 0.12433663545258178
943.0, 0.13075977428429708
944.0, 0.13866230526972678
945.0, 0.1480268039824662
946.0, 0.15992241970602106
947.0, 0.16629884725779606
948.0, 0.16912271040243393
949.0, 0.17941141810529654
950.0, 0.15552517903370738
951.0, 0.1666906546239706
952.0, 0.16436983651715686
953.0, 0.14572150688190388
954.0, 0.1276107960979125
955.0, 0.10973411154836327
956.0, 0.09204863346411264
957.0, 0.08265456049436551
958.0, 0.0794905699682386
959.0, 0.05501055580638285
960.0, 0.07116097742583014
961.0, 0.06324002851944799
962.0, 0.0546575990004697
963.0, 0.060345483774994275
964.0, 0.05341743368563662
965.0, 0.04592090035786155
966.0, 0.04830771657199411
967.0, 0.044801691123510234
968.0, 0.03234666368918563
969.0, 0.05345163160068362
970.0, 0.04960843959723677
971.0, 0.03954220867166843
972.0, 0.045035274932510715
973.0, 0.05489445181771653
974.0, 0.05275296563683896
975.0, 0.04696316660737537
976.0, 0.045811140296198066
977.0, 0.04201858848605581
978.0, 0.04961318051028269
979.0, 0.05192176317202047
980.0, 0.05388126105171864
981.0, 0.05238633417360544
982.0, 0.04094344272864508
983.0, 0.04555209397383597
984.0, 0.047061779799706334
985.0, 0.04150969744311389
986.0, 0.047286155381407236
987.0, 0.052984020815813285
988.0, 0.04899071156633993
989.0, 0.04016886944736962
990.0, 0.055097002545546114
991.0, 0.05245327706124005
992.0, 0.05544054519840089
993.0, 0.06039346113396105
994.0, 0.06339937329384192
995.0, 0.07407340667145007
996.0, 0.10150824543828917
997.0, 0.1331303076601663
998.0, 0.14608219542045256
999.0, 0.17060660508259665
1000.0, 0.18754059016211438
1001.0, 0.21775217795191446
1002.0, 0.24833061840426696
1003.0, 0.2603220367051728
1004.0, 0.2584324836212866
1005.0, 0.2563899591597346
1006.0, 0.2490461243882798
1007.0, 0.21926401651953098
1008.0, 0.2000274720110271
1009.0, 0.16768829603655822
1010.0, 0.14925110399861014
1011.0, 0.13705338178602924
1012.0, 0.12374342851534628
1013.0, 0.1240269867450498
1014.0, 0.11865670335746345
1015.0, 0.1066499459276621
1016.0, 0.11704705835822457
1017.0, 0.10390842255704508
1018.0, 0.1192154441488386
1019.0, 0.09659990596564973
1020.0, 0.08997673282660397
1021.0, 0.08943740418904113
1022.0, 0.08560272811473281
1023.0, 0.07816228937517315
1024.0, 0.06863537633869063
1025.0, 0.058662459886358785
1026.0, 0.05384370885312578
1027.0, 0.05879733781484498
1028.0, 0.04542585076817812
1029.0, 0.06010181582858713
1030.0, 0.0542208797886267
1031.0, 0.045673508282371954
1032.0, 0.04673057274384468
1033.0, 0.04180764877039279
1034.0, 0.03888228026704198
1035.0, 0.04536201156840919
1036.0, 0.043134445314076536
1037.0, 0.028828545847287758
1038.0, 0.04269780196814011
1039.0, 0.022363188717320445
1040.0, 0.0277023599514908
1041.0, 0.03210837762634537
1042.0, 0.02550076711038629
1043.0, 0.0308315213365223
1044.0, 0.025244230633942103
1045.0, 0.012169086046410715
1046.0, 0.02017440172070728
1047.0, 0.022391860259374632
1048.0, 0.013188519440621356
1049.0, 0.017933890413144186
1050.0, 0.016973052563539908
1051.0, 0.012037925201043258
1052.0, 0.007053893665202529
1053.0, 0.01435025258758899
1054.0, 0.017896005217146058
1055.0, 0.022769608174243103
1056.0, 0.033103727102352126
1057.0, 0.03113860529436863
1058.0, 0.039487854058205187
1059.0, 0.04371997242824578
1060.0, 0.05011828750406487
1061.0, 0.0589613126954015
1062.0, 0.06787262213111273
1063.0, 0.07215768307362776
1064.0, 0.07623764196190183
1065.0, 0.07991559158040965
1066.0, 0.07275520421441539
1067.0, 0.06148159776446133
1068.0, 0.06808586805011643
1069.0, 0.04214539834837744
1070.0, 0.04031565565593368
1071.0, 0.03585599160690201
1072.0, 0.034216573645873744
1073.0, 0.03333831485505251
1074.0, 0.031417004728210816
1075.0, 0.028390381262920518
1076.0, 0.024252015157066237
1077.0, 0.01977390279662106
1078.0, 0.016215230247914828
1079.0, 0.012737006464459482
1080.0, 0.008492838115282886
1081.0, 0.006221602671519326
1082.0, 0.00484394739138457
1083.0, 0.006626401950261295
1084.0, 0.0023316085665289147
1085.0, 0.008082908534215694
1086.0, 0.013191525591705004
1087.0, 0.011416206345425438
1088.0, 0.009443275382144666
1089.0, 0.009674144707824186
1090.0, 0.01004121020722048
1091.0, 0.004398925394418649
1092.0, 0.0069745759129645315
1093.0, 0.004346426823062256
1094.0, 0.008562955770644594
1095.0, 0.010048864835740178
1096.0, 0.009851161489945531
1097.0, 0.012044150265311518
1098.0, 0.011750692897459617
1099.0, 0.008585453725955877
1100.0, 0.010071121089077208
1101.0, 0.010170881759063019
1102.0, 0.010006185868105838
1103.0, 0.015456826239552437
1104.0, 0.014146934512617112
1105.0, 0.013503109337018936
1106.0, 0.01824904630447026
1107.0, 0.022810349231100795
1108.0, 0.0234305598802297
1109.0, 0.019504774049708823
1110.0, 0.014442459361560507
1111.0, 0.014033762118335841
1112.0, 0.01669709388906746
1113.0, 0.007020507697928101
1114.0, 0.012877253992813663
1115.0, 0.020410963251232456
1116.0, 0.022142917442981937
1117.0, 0.019246661179575585
1118.0, 0.016160406826131866
1119.0, 0.011696623415258645
1120.0, 0.008443911556498677
1121.0, 0.008470637168649497
1122.0, 0.008648713855781144
1123.0, 0.008586634641258108
1124.0, 0.015357051234542589
1125.0, 0.009805126610966903
1126.0, 0.02115890221028556
1127.0, 0.015003881564098372
1128.0, 0.017501103776728238
1129.0, 0.007330886419663611
1130.0, 0.008871043506901927
1131.0, 0.010023534205719022
1132.0, 0.003830042942810856
1133.0, 0.0037473363171714675
1134.0, 0.009333244464704014
1135.0, 0.004319999110056015
1136.0, 0.0038001122683069353
1137.0, 0.020828475518623345
1138.0, 0.01661523774731222
1139.0, 0.007850381498166331
1140.0, 0.00367924730111815
1141.0, 0.0070084930396959386
1142.0, 0.010531807295351775
1143.0, 0.00659517626043122
1144.0, 0.0026863186054707565
1145.0, 0.0052928045535270574
1146.0, 0.009090788447483242
1147.0, 0.01914898242353017
1148.0, 0.025177702185279573
1149.0, 0.0055166830517673765
1150.0, 0.004387935177982905
1151.0, 0.002733308058699892
1152.0, 0.00445188755051633
1153.0, 0.0038801952015460684
1154.0, 0.002570669113240258
1155.0, 0.008889732441957574
1156.0, 0.015956858710588356
1157.0, 0.012987609625711084
1158.0, 0.0066433100094960874
1159.0, 0.0033809983147411447
1160.0, 0.0022613351554584323
1161.0, 0.012863672235324256
1162.0, 0.01790921613247395
1163.0, 0.018964571938976885
1164.0, 0.018786186951176415
1165.0, 0.0074131814049328
1166.0, 0.005263036630240383
1167.0, 0.007541286723846519
1168.0, 0.006109724905803177
1169.0, 0.00934494894756709
1170.0, 0.015269004185203362
1171.0, 0.010725273124884067
1172.0, 0.035209353800354413
1173.0, 0.021631369504542936
1174.0, 0.020582916557292552
1175.0, 0.010843773368267126
1176.0, 0.01187308318886172
1177.0, 0.008618908928754361
1178.0, 0.013232052039787693
1179.0, 0.010775127693529441
1180.0, 0.009503337711999234
1181.0, 0.018301730140511042
1182.0, 0.020799024545592088
1183.0, 0.014389205475279734
1184.0, 0.012304981490228573
1185.0, 0.020630245133761726
1186.0, 0.01557470742814275
1187.0, 0.014795333630044673
1188.0, 0.015805642542991577
1189.0, 0.01654365829755366
1190.0, 0.015857405727069007
1191.0, 0.018813338369388234
1192.0, 0.015094560033342455
1193.0, 0.017929496701620657
1194.0, 0.026742421109010244
1195.0, 0.02060101445715514
1196.0, 0.021840726878232606
1197.0, 0.006352562241466563
1198.0, 0.02285270347492008
1199.0, 0.023696922222717468
1200.0, 0.01609042756983875
1201.0, 0.02159355287847786
1202.0, 0.01600419684207224
1203.0, 0.014398116070836625
1204.0, 0.01105261054575541
1205.0, 0.009333386789757958
1206.0, 0.010624461351094449
1207.0, 0.012919551200070222
1208.0, 0.01625670886076014
1209.0, 0.011916461462414948
1210.0, 0.014301531033793563
1211.0, 0.01764296291118512
1212.0, 0.016182871387272195
1213.0, 0.019227913349427358
1214.0, 0.008906924496275608
1215.0, 0.0042417939052637075
1216.0, 0.007159434535622872
1217.0, 0.01576385650003495
1218.0, 0.02269318300974681
1219.0, 0.02224087766834199
1220.0, 0.013673988605954153
1221.0, 0.008759769102955514
1222.0, 0.01781806815967843
1223.0, 0.007945319384654523
1224.0, 0.016865088679280958
1225.0, 0.019993201642639142
1226.0, 0.010792414451187803
1227.0, 0.007163161618396435
1228.0, 0.012199137859523325
1229.0, 0.015913098481468015
1230.0, 0.015795307857487506
1231.0, 0.010574738484170357
1232.0, 0.009110638913869379
1233.0, 0.012571172486655057
1234.0, 0.010887601149155476
1235.0, 0.00970899671103758
1236.0, 0.02390869251550547
1237.0, 0.023100785878104345
1238.0, 0.0031526556377935557
1239.0, 0.009540380784650552
1240.0, 0.002384701933206695
1241.0, 0.0013339641246406506
1242.0, 0.0029127221216589724
1243.0, 0.006995668563242884
1244.0, 0.011287224535667611
1245.0, 0.011879991121189122
1246.0, 0.011048354431126717
1247.0, 0.013349097761139952
1248.0, 0.01704177732152243
1249.0, 0.017074853875804923
1250.0, 0.013462833102540317
1251.0, 0.008831855773358379
1252.0, 0.02646403118063965
1253.0, 0.016349191585067143
1254.0, 0.0020947311873180602
1255.0, 0.018827987724807947
1256.0, 0.014271533697006728
1257.0, 0.010947907618241933
1258.0, 0.01725843776931102
1259.0, 0.015591072493975405
1260.0, 0.012589606242696477
1261.0, 0.016438989379548727
1262.0, 0.017265896177936356
1263.0, 0.014666458659481716
1264.0, 0.016375903512308842
1265.0, 0.015193170829626875
1266.0, 0.017855026018172897
1267.0, 0.011597914259709966
1268.0, 0.012348902248196448
1269.0, 0.011863449551173591
1270.0, 0.010120393064020058
1271.0, 0.010624321207317648
1272.0, 0.011835136720520865
1273.0, 0.011610681211965545
1274.0, 0.008368096673041683
1275.0, 0.006498105114492327
1276.0, 0.0078032778246968255
1277.0, 0.006692102766674174
1278.0, 0.005769490684104843
1279.0, 0.01358001989002975
1280.0, 0.008887443919244179
1281.0, 0.016293562876823018
1282.0, 0.03238847537161523
1283.0, 0.015549985332805782
1284.0, 0.017633875764232955
1285.0, 0.007332250574204042
1286.0, 0.016694549673760568
1287.0, 0.01975152342055305
1288.0, 0.00956854421852095
1289.0, 0.00644057791106186
1290.0, 0.00812534690047788
1291.0, 0.007447931083805133
1292.0, 0.011201633273575672
1293.0, 0.01743993420968229
1294.0, 0.02382557809081848
1295.0, 0.018938493929753872
1296.0, 0.008551882938869996
1297.0, 0.015201315422009974
1298.0, 0.009369910611240338
1299.0, 0.008404111239991335
1300.0, 0.008526338357351003
1301.0, 0.0062755150607094745
1302.0, 0.002668237620600242
1303.0, 0.010651636456062
1304.0, 0.007607199197786593
1305.0, 0.006145964357561843
1306.0, 0.01252225044671249
1307.0, 0.012208912739054396
1308.0, 0.008861662693491718
1309.0, 0.0022003369146157145
1310.0, 0.0035500045293772684
1311.0, 0.005291339289042017
1312.0, 0.0012338517695806598
1313.0, 0.0059125893856279785
1314.0, 0.00998107641238567
1315.0, 0.007421111599162712
1316.0, 0.017847755604551048
1317.0, 0.009318300421789388
1318.0, 0.01519769999907479
1319.0, 0.012017509376197257
1320.0, 0.0039840703383088654
1321.0, 0.010471483001898537
1322.0, 0.01582057273963699
1323.0, 0.012808746533769816
1324.0, 0.012580707042126871
1325.0, 0.003138983057861541
1326.0, 0.007389153127215144
1327.0, 0.014270848381182612
1328.0, 0.0037628719932075545
1329.0, 0.017279070274777483
1330.0, 0.0040532010810913925
1331.0, 0.015269224671537188
1332.0, 0.019198857028943476
1333.0, 0.0051357787286061
1334.0, 0.007569628687031232
1335.0, 0.009748456294261304
1336.0, 0.010011365989300877
1337.0, 0.015304810772894705
1338.0, 0.013462481100139943
1339.0, 0.010845722863988059
1340.0, 0.014760292284697725
1341.0, 0.014436716000218296
1342.0, 0.021286358998142452
1343.0, 0.0071985593374630135
1344.0, 0.021118281289086882
1345.0, 0.015146855224715176
1346.0, 0.012319904623836022
1347.0, 0.015697533666175344
1348.0, 0.01550434681216161
1349.0, 0.030464118787053407
1350.0, 0.026371573524223944
1351.0, 0.022483468225153163
1352.0, 0.02653920759034362
1353.0, 0.022348621575709403
1354.0, 0.026757794805231272
1355.0, 0.028531873632076456
1356.0, 0.017572339048120045
1357.0, 0.013165831147826832
1358.0, 0.015580887519240097
1359.0, 0.010996617003936192
1360.0, 0.006249211578485304
1361.0, 0.02176641272712151
1362.0, 0.024110636399060987
1363.0, 0.026112593422833806
1364.0, 0.025931817677994205
1365.0, 0.021983292898449656
1366.0, 0.021918961107717728
1367.0, 0.0248464597517797
1368.0, 0.01678974192142686
1369.0, 0.020392233627483214
1370.0, 0.018664670331665932
1371.0, 0.0245690442121575
1372.0, 0.019786268691396058
1373.0, 0.011461882570078649
1374.0, 0.006865408158494271
1375.0, 0.004707135465168356
1376.0, 0.013711877957662304
1377.0, 0.01616429179981191
1378.0, 0.015767709248277723
1379.0, 0.01972722749881443
1380.0, 0.020075702738777453
1381.0, 0.011500582262458817
1382.0, 0.005168643565071761
1383.0, 0.024109686171747764
1384.0, 0.01721180896498182
1385.0, 0.017919123996800224
1386.0, 0.014838641906315998
1387.0, 0.015221317939963471
1388.0, 0.019668178512082312
1389.0, 0.019125106681941742
1390.0, 0.018650748927037674
1391.0, 0.01891906916528068
1392.0, 0.016531470285036418
1393.0, 0.016089925210462888
1394.0, 0.01564628326952224
1395.0, 0.01214556618579625
1396.0, 0.010659541965553894
1397.0, 0.006917157481654275
1398.0, 0.024105596815477942
1399.0, 0.015465548949096066
1400.0, 0.0072926412446638125
1401.0, 0.025355582228896438
1402.0, 0.010945594405353053
1403.0, 0.02860331310135636
1404.0, 0.031822028235436055
1405.0, 0.01583068944109909
1406.0, 0.011040957732338255
1407.0, 0.015873742960628982
1408.0, 0.02020250442377687
1409.0, 0.012267970913512468
1410.0, 0.0037379642920750402
1411.0, 0.004253823075423102
1412.0, 0.01175129832608272
1413.0, 0.016895780184693003
1414.0, 0.017150202092449253
1415.0, 0.012694186850734061
1416.0, 0.006302331619495523
1417.0, 0.015222546231401339
1418.0, 0.012785931285776382
1419.0, 0.011097956742422595
1420.0, 0.01748184047101912
1421.0, 0.005873278860546916
1422.0, 0.011804264976062885
1423.0, 0.023047998810435243
1424.0, 0.0028970380422788447
1425.0, 0.0025744815603427253
1426.0, 0.018221504542554102
1427.0, 0.016286485760810605
1428.0, 0.012428303379050223
1429.0, 0.015745238272022104
1430.0, 0.01569587929646506
1431.0, 0.010937844237197384
1432.0, 0.010656359324640884
1433.0, 0.018683390128317347
1434.0, 0.020247825097209092
1435.0, 0.01804588310020656
1436.0, 0.02383084190247436
1437.0, 0.02089926164938539
1438.0, 0.012082057473214532
1439.0, 0.01121753792381315
1440.0, 0.008967532238545127
1441.0, 0.00701944982753393
1442.0, 0.014950058595143381
1443.0, 0.028295215925871385
1444.0, 0.043635945590469544
1445.0, 0.023807081882387296
1446.0, 0.033019547692826216
1447.0, 0.031216682697896875
1448.0, 0.029861917858656575
1449.0, 0.017946109371419123
1450.0, 0.019436966710694958
1451.0, 0.01307803687858735
1452.0, 0.020628998283851434
1453.0, 0.026068697097578013
1454.0, 0.030168404608133508
1455.0, 0.027744317558314847
1456.0, 0.018797577248638567
1457.0, 0.02452443985187236
1458.0, 0.027788623722735058
1459.0, 0.012320126761774944
1460.0, 0.010958235582985719
1461.0, 0.013228322705948946
1462.0, 0.010652725433703908
1463.0, 0.020048967940206934
1464.0, 0.019132922343644432
1465.0, 0.02098296985694476
1466.0, 0.021486408979047984
1467.0, 0.009926254035598972
1468.0, 0.020796854832125036
1469.0, 0.012033125718876905
1470.0, 0.0093272289383521
1471.0, 0.030963579769428803
1472.0, 0.020482277690375687
1473.0, 0.027025854024906024
1474.0, 0.015615963162883162
1475.0, 0.003936714389734413
1476.0, 0.022722281526401995
1477.0, 0.014068980602631152
1478.0, 0.002809780692112094
1479.0, 0.012130107664569395
1480.0, 0.012982479830981445
1481.0, 0.011772732099412517
1482.0, 0.014969848183240599
1483.0, 0.013498743375194315
1484.0, 0.01728423326029227
1485.0, 0.01888989762676468
1486.0, 0.015315125997637475
1487.0, 0.011572260959277714
1488.0, 0.025178219012880747
1489.0, 0.02526223534155683
1490.0, 0.0016535033047365088
1491.0, 0.007591350893326616
1492.0, 0.023033135542654598
1493.0, 0.009667032270137592
1494.0, 0.010948659695554957
1495.0, 0.01556346346469528
1496.0, 0.011953012603939552
1497.0, 0.010316688617773611
1498.0, 0.008677152440271776
1499.0, 0.006735258860670642
1500.0, 0.001731895687225479
1501.0, 0.005862005844824963
1502.0, 0.00898240209917701
1503.0, 0.015406022958108516
1504.0, 0.019728655991211833
1505.0, 0.024641812463505237
1506.0, 0.019177686104916082
1507.0, 0.02215734018315125
1508.0, 0.022664716108375303
1509.0, 0.016646890152239985
1510.0, 0.017591666050699433
1511.0, 0.017001817806272745
1512.0, 0.016281898970452593
1513.0, 0.005018162948839416
1514.0, 0.008845379532539136
1515.0, 0.015910127007968074
1516.0, 0.01604857717013986
1517.0, 0.012426685193108192
1518.0, 0.025992570462390924
1519.0, 0.023972505717865446
1520.0, 0.02634962927878175
1521.0, 0.01395123658615845
1522.0, 0.01502186121787817
1523.0, 0.008332035997194159
1524.0, 0.013991220151397065
1525.0, 0.01662015062803565
1526.0, 0.011779560589335464
1527.0, 0.00479194086856025
1528.0, 0.019239565768982232
1529.0, 0.01529312555135228
1530.0, 0.01513448692751369
1531.0, 0.018869438255733006
1532.0, 0.021445163405569595
1533.0, 0.017087129765723137
1534.0, 0.015827336136978037
1535.0, 0.014963088186130203
1536.0, 0.01988615453306962
1537.0, 0.024173932981114643
1538.0, 0.016982456371392892
1539.0, 0.019363387826004202
1540.0, 0.022924582969900936
1541.0, 0.013988211995364503
1542.0, 0.016307536642159157
1543.0, 0.021349370790425655
1544.0, 0.02313561993809106
1545.0, 0.024423642376495303
1546.0, 0.011664247965180787
1547.0, 0.017138804338367945
1548.0, 0.002441226281388218
1549.0, 0.013929750344385906
1550.0, 0.026296354818497843
1551.0, 0.015389989225683774
1552.0, 0.006872829185337992
1553.0, 0.02573549997907319
1554.0, 0.01872376162032469
1555.0, 0.023315551742397238
1556.0, 0.025376952216133918
1557.0, 0.013971005661883855
1558.0, 0.020941072937166277
1559.0, 0.017351764400870606
1560.0, 0.013807422068024695
1561.0, 0.005932050454167875
1562.0, 0.018312897591666526
1563.0, 0.013575341766129186
1564.0, 0.008186704204063337
1565.0, 0.01388434000281694
1566.0, 0.004518265391177476
1567.0, 0.011075536836690675
1568.0, 0.010944337838558528
1569.0, 0.003066980347957911
1570.0, 2.081963879881992e-05
1571, 0.0
1572, 0.0
1573, 0.0
1574, 0.0
1575, 0.0
1576, 0.0
1577, 0.0
1578, 0.0
1579, 0.0
1580, 0.0
1581, 0.0
1582, 0.0
1583, 0.0
1584, 0.0
1585, 0.0
1586, 0.0
1587, 0.0
1588, 0.0
1589, 0.0
1590, 0.0
1591, 0.0
1592, 0.0
1593, 0.0
1594, 0.0
1595, 0.0
1596, 0.0
1597, 0.0
1598, 0.0
1599, 0.0
