30, 0.0
31, 0.0
32, 0.0
33, 0.0
34, 0.0
35, 0.0
36, 0.0
37, 0.0
38, 0.0
39, 0.0
40, 0.0
41, 0.0
42, 0.0
43, 0.0
44, 0.0
45, 0.0
46, 0.0
47, 0.0
48, 0.0
49, 0.0
50, 0.0
51, 0.0
52, 0.0
53, 0.0
54, 0.0
55, 0.0
56, 0.0
57, 0.0
58, 0.0
59, 0.0
60, 0.0
61, 0.0
62, 0.0
63, 0.0
64, 0.0
65, 0.0
66, 0.0
67, 0.0
68, 0.0
69, 0.0
70, 0.0
71, 0.0
72, 0.0
73, 0.0
74, 0.0
75, 0.0
76, 0.0
77, 0.0
78, 0.0
79, 0.0
80, 0.0
81, 0.0
82, 0.0
83, 0.0
84, 0.0
85, 0.0
86, 0.0
87, 0.0
88, 0.0
89, 0.0
90, 0.0
91.0, 0.0048978078103119665
92.0, 0.013065120633195083
93.0, 0.028940186537522207
94.0, 0.04756406192633287
95.0, 0.05998476220391489
96.0, 0.08260423376337002
97.0, 0.1213933293144115
98.0, 0.17089979913573378
99.0, 0.23284812603054475
100.0, 0.3146936158167824
101.0, 0.40988793393200007
102.0, 0.5125320802476045
103.0, 0.6144585116002665
104.0, 0.6943557096342422
105.0, 0.7406081190867281
106.0, 0.7586235957411804
107.0, 0.7550614736691824
108.0, 0.7434466170796195
109.0, 0.7377944400287267
110.0, 0.7236246251584098
111.0, 0.6852615943031463
112.0, 0.6131959661100664
113.0, 0.512268671653056
114.0, 0.3972989607087679
115.0, 0.2861031362194168
116.0, 0.19557839329463922
117.0, 0.12583393037518778
118.0, 0.08338686753256609
119.0, 0.0620675461917364
120.0, 0.05204532346333505
121.0, 0.044575640359255285
122.0, 0.03708629526568688
123.0, 0.03197881915639933
124.0, 0.029739065097337297
125.0, 0.030203415593857995
126.0, 0.032032442110670245
127.0, 0.03852594357711406
128.0, 0.052286328414803455
129.0, 0.06428597939250903
130.0, 0.08108202208456709
131.0, 0.10247161585298063
132.0, 0.12600761344264155
133.0, 0.15108861583163555
134.0, 0.17165919215377187
135.0, 0.17684579105205134
136.0, 0.16396564757672827
137.0, 0.13678195084060576
138.0, 0.10417231223196463
139.0, 0.07249456506321238
140.0, 0.04516517133921354
141.0, 0.02480545449453924
142.0, 0.01161924656403586
143.0, 0.0028487262257219426
144.0, 0.01038036774547718
145.0, 0.01629696550107502
146.0, 0.01804970010492567
147.0, 0.020291253987291934
148.0, 0.022130808532959165
149.0, 0.020488447752238306
150.0, 0.014468024307316373
151.0, 0.01087466551949392
152.0, 0.004014208962322749
153.0, 0.006151000496722044
154.0, 0.014032202411973605
155.0, 0.024450656105994967
156.0, 0.03527878883450606
157.0, 0.04650859488435348
158.0, 0.05951640518052869
159.0, 0.07430964012302947
160.0, 0.08965088414343968
161.0, 0.1076416334350422
162.0, 0.12977991752427584
163.0, 0.15278404481740118
164.0, 0.1773369963737374
165.0, 0.2050853997382408
166.0, 0.23629640525992296
167.0, 0.2693384028720585
168.0, 0.30854138513358387
169.0, 0.34811164629160196
170.0, 0.3912508786559836
171.0, 0.4441715836289279
172.0, 0.49635067373015285
173.0, 0.5531886070374366
174.0, 0.6153464336203721
175.0, 0.680251281853095
176.0, 0.7421563697580467
177.0, 0.8063108405990485
178.0, 0.865749596941546
179.0, 0.9160542065790283
180.0, 0.9591372290704088
181.0, 0.9869602619896733
182.0, 0.9989825851313353
183.0, 0.9922442669040231
184.0, 0.9652542913136904
185.0, 0.9232502787990724
186.0, 0.8669588827692218
187.0, 0.8008810501396152
188.0, 0.7312205356012709
189.0, 0.6614562997412684
190.0, 0.5964489655445102
191.0, 0.5360189231994571
192.0, 0.48093483017383554
193.0, 0.4328808464237334
194.0, 0.38976973077829197
195.0, 0.3512616084659274
196.0, 0.3176540436639234
197.0, 0.28882970697797605
198.0, 0.26293665726782356
199.0, 0.23844852146621118
200.0, 0.21855287341806168
201.0, 0.20196200274609136
202.0, 0.1823534649599182
203.0, 0.16557267571761042
204.0, 0.15161630253394892
205.0, 0.13775084649098918
206.0, 0.12281976468314598
207.0, 0.11077016540347925
208.0, 0.09962752230385538
209.0, 0.0899212349273708
210.0, 0.08211382168139703
211.0, 0.07481494051747616
212.0, 0.0678590814626145
213.0, 0.06294104610949808
214.0, 0.059523155936951545
215.0, 0.05610180111945867
216.0, 0.053789079783096626
217.0, 0.05110091357979373
218.0, 0.048570853716265905
219.0, 0.0470248162216302
220.0, 0.04613081807227884
221.0, 0.04232349727529588
222.0, 0.04039954964444368
223.0, 0.040315034175308906
224.0, 0.03697237551504686
225.0, 0.0344445669810971
226.0, 0.031858767312736624
227.0, 0.029049221178474312
228.0, 0.026666698790873324
229.0, 0.025474382131095125
230.0, 0.023753344479616884
231.0, 0.020822219545624496
232.0, 0.018390664691098423
233.0, 0.018970987792024333
234.0, 0.016906404308121327
235.0, 0.01672544166024389
236.0, 0.016545735620226182
237.0, 0.014852933099440762
238.0, 0.01584581202525926
239.0, 0.01445549780137956
240.0, 0.012482602661708064
241.0, 0.01132598421831365
242.0, 0.010459614657572858
243.0, 0.009939452094606827
244.0, 0.008829925516346841
245.0, 0.008499374322252043
246.0, 0.00882616379526985
247.0, 0.007526855082488857
248.0, 0.0061530484945921116
249.0, 0.005705795106211608
250.0, 0.005000352949248948
251.0, 0.0032319288422999032
252.0, 0.0027349446916686607
253.0, 0.0020410256980872114
254.0, 0.0008430482787339524
255.0, 0.00029680251125538144
256.0, 0.00040438114342882393
257.0, 0.0006328728246936291
258.0, 7.731639179669531e-05
259.0, 0.0007502862979849971
260.0, 0.00032893384982846737
261.0, 0.00160590575917624
262.0, 0.0005686602254412183
263.0, 0.0006888235908418778
264.0, 0.0005072315338060535
265.0, 0.0011933013205583354
266.0, 0.0002582980653820359
267.0, 0.00035159594876202696
268.0, 0.00020527038178403333
269.0, 0.0006704543186640383
270.0, 0.0002946128716301759
271.0, 0.00024021892085791428
272.0, 0.00035258884176340223
273.0, 0.0008462570282120124
274.0, 0.0024045489953216518
275.0, 0.0021153702755851607
276.0, 0.0031456735636051472
277.0, 0.00417780131535095
278.0, 0.00405838711125961
279.0, 0.0030657527689431294
280.0, 0.0030235643203338513
281.0, 0.003272860128482538
282.0, 0.0028434023073546917
283.0, 0.0017583945435741984
284.0, 0.0015033935847614493
285.0, 0.0027979766227226636
286.0, 0.002610699916900881
287.0, 0.0018145486662065312
288.0, 0.0027687867550560763
289.0, 0.0033548312519541784
290.0, 0.0029120993605018792
291.0, 0.0021138791550716885
292.0, 0.0018276106592217802
293.0, 0.0025481464652096037
294.0, 0.003926164531264443
295.0, 0.0023220418436704264
296.0, 0.001304903345522495
297.0, 0.0022419438595958855
298.0, 0.0013613684620015852
299.0, 0.002134070339482196
300.0, 0.0008252113924020062
301.0, 0.00042590624049816276
302.0, 0.0012696602682332908
303.0, 0.0010984025208273702
304.0, 0.0008037589397455225
305.0, 0.000963806159057973
306.0, 0.001809551203878857
307.0, 0.0029187604566663257
308.0, 0.002532141161560248
309.0, 0.00209343882939621
310.0, 0.0016316928954871318
311.0, 0.001375911315649319
312.0, 0.0019499127477639719
313.0, 0.0018192320645085344
314.0, 0.0014681495652195723
315.0, 0.0017769983447753015
316.0, 0.0020727056845986137
317.0, 0.0004300267209976088
318.0, 0.0013758930534159505
319.0, 0.0013314560015769328
320.0, 0.0004439342440948266
321.0, 0.0008715118842896521
322.0, 0.0005070874172613425
323.0, 0.0008305813156363046
324.0, 0.000166990665256898
325.0, 0.0002579970057884316
326.0, 0.0008531834241104238
327.0, 0.001089811461322575
328.0, 0.001441910309727835
329.0, 0.0011808749876514057
330.0, 0.0009136630370401546
331.0, 0.001661130607371638
332.0, 0.0026020125177581913
333.0, 0.0007441501444336053
334.0, 0.0001747791393167653
335.0, 0.00047099637600650886
336.0, 0.0004421858103620649
337.0, 0.0012820715311619953
338.0, 0.0010842295511629472
339.0, 0.00039767529937891045
340.0, 0.00024940399403233543
341.0, 0.0012614320784862672
342.0, 0.0010200697404946287
343.0, 0.0007760952086884559
344.0, 0.0010648674072741898
345.0, 0.0011982154667708016
346.0, 0.0004372031889622451
347.0, 0.0014542422712427163
348.0, 0.0010040304491509926
349.0, 8.116123269286796e-05
350.0, 0.00038837973880724526
351.0, 0.001280272142487829
352.0, 0.0018716486641963727
353.0, 0.0011532435637641146
354.0, 0.0013088329143152433
355.0, 0.002554200200342433
356.0, 0.0025028429001599834
357.0, 0.0008301149053855532
358.0, 0.0016904767118440219
359.0, 0.0024113805384784006
360.0, 0.001490737652315183
361.0, 0.001459396830988047
362.0, 0.002209270076353295
363.0, 0.002444719741680902
364.0, 0.0022249329336415363
365.0, 0.0020553935095860044
366.0, 0.002378476212466954
367.0, 0.0016916671140926203
368.0, 0.0021949354824086376
369.0, 0.002654479606660114
370.0, 0.0020094607591939883
371.0, 0.003204752412286007
372.0, 0.003576867750372231
373.0, 0.003102872119639883
374.0, 0.0030841197024866155
375.0, 0.0036699039809279196
376.0, 0.0033164408724604957
377.0, 0.004204178829129184
378.0, 0.0031095237274345344
379.0, 0.0023584008653232246
380.0, 0.00314698954941806
381.0, 0.002547480962703729
382.0, 0.002641591143388443
383.0, 0.0029996536403685495
384.0, 0.0027577854318626602
385.0, 0.0023098145301755652
386.0, 0.002790718021975246
387.0, 0.0025839443619211856
388.0, 0.0022196080964986616
389.0, 0.0022307990353859176
390.0, 0.0021195866183821538
391.0, 0.0011828906869632038
392.0, 0.001928511193793595
393.0, 0.00312201148376696
394.0, 0.0024091058831247295
395.0, 0.0010443638800929425
396.0, 0.0025861356485487037
397.0, 0.0011500668522023616
398.0, 0.00103747035417995
399.0, 0.0014104764390597921
400.0, 0.0009402032598592409
401.0, 0.00035766615402595706
402.0, 0.0017823470686053958
403.0, 0.0014425112846132792
404.0, 0.0016524419691051192
405.0, 0.0025349482674927636
406.0, 0.0017210032421323457
407.0, 0.0004136167580362131
408.0, 0.0006859197314024938
409.0, 0.0011480369229041232
410.0, 0.0010517609205728513
411.0, 0.0009417795326502713
412.0, 0.0019287920807371415
413.0, 0.001043662596481872
414.0, 0.0008360577011450749
415.0, 0.0015365591437785575
416.0, 0.0017321464082135317
417.0, 0.002194050130687786
418.0, 0.002012660845511128
419.0, 0.0015834070858013235
420.0, 0.0018050480054589491
421.0, 0.0021661901502865624
422.0, 0.00124033703675885
423.0, 0.0009673220836209952
424.0, 0.0016576244833628197
425.0, 0.0015703592707910577
426.0, 0.0011264206275354409
427.0, 0.002265241320035794
428.0, 0.0020602976938343493
429.0, 0.00212266008157409
430.0, 0.0023117232154739645
431.0, 0.002526120483231645
432.0, 0.002966890245640631
433.0, 0.002588176527736707
434.0, 0.002859548913433855
435.0, 0.0026467270733188104
436.0, 0.0024012926580701177
437.0, 0.0025691051557616075
438.0, 0.001853405882452355
439.0, 0.001326574955147145
440.0, 0.0016996764848879308
441.0, 0.0015132059200605368
442.0, 0.001028902134146293
443.0, 0.002757498481155463
444.0, 0.0024460550496698936
445.0, 0.00238965845819958
446.0, 0.002060780288204155
447.0, 0.0012698987374843997
448.0, 0.001026540008219841
449.0, 0.0008594466202491526
450.0, 0.0017611666502011529
451.0, 0.0021639715695155057
452.0, 0.001980369706841239
453.0, 0.00196727387117123
454.0, 0.0011934178595711803
455.0, 0.0021967387459058017
456.0, 0.0016893913375411098
457.0, 0.0009209665244521227
458.0, 0.002149072491019308
459.0, 0.004380391787313737
460.0, 0.003509357543430372
461.0, 0.002498714515571147
462.0, 0.0022871967997459336
463.0, 0.0027154573882190356
464.0, 0.003039591892398838
465.0, 0.001286438379230916
466.0, 0.0017546148545855194
467.0, 0.0020105710696747534
468.0, 0.0014814390558944037
469.0, 0.001733911940827493
470.0, 0.0022173607129616552
471.0, 0.0023416393531331845
472.0, 0.002828080651650252
473.0, 0.0031506971460874608
474.0, 0.002931032175675337
475.0, 0.002530659841720013
476.0, 0.001978498339230854
477.0, 0.001792149566800545
478.0, 0.0015162222463760357
479.0, 0.001617416249115463
480.0, 0.0020664364608301822
481.0, 0.0012677059152178078
482.0, 0.001954067345118437
483.0, 0.0024824024057308342
484.0, 0.001695855671110677
485.0, 0.0008455646860985186
486.0, 0.0011823548150062299
487.0, 0.00033501700541900005
488.0, 0.0010740422514654538
489.0, 0.0012668580803031299
490.0, 0.0009290593847678559
491.0, 0.0010944734354256796
492.0, 0.0015427673424034066
493.0, 0.0013599959051463742
494.0, 0.0011329573270405793
495.0, 0.0011307356051895525
496.0, 0.0014601537622794256
497.0, 0.0020937277092706315
498.0, 0.0022735922366956813
499.0, 0.001952224233051009
500.0, 0.0011481901888391883
501.0, 0.0013945409937980943
502.0, 0.0025609887626287437
503.0, 0.0017697386279606317
504.0, 0.0017179255262534348
505.0, 0.001502053558557074
506.0, 0.0007918718187996929
507.0, 0.0006274975610737613
508.0, 0.0014441783458821486
509.0, 0.0010573978214236401
510.0, 0.00081782433797313
511.0, 0.001611183864133518
512.0, 0.0012796534625558412
513.0, 0.00022175372345099517
514.0, 0.0018713154486517487
515.0, 0.0001261814516215844
516.0, 0.0009037944088065486
517.0, 0.002062874190910318
518.0, 0.0018882898823677824
519.0, 0.0008343462115949229
520.0, 0.0006123747011042771
521.0, 0.0018221406025906372
522.0, 0.0015591442839030056
523.0, 0.0003736142801270051
524.0, 0.0005257015873251392
525.0, 0.0005978208305926812
526.0, 0.0007758999645998339
527.0, 0.0018378822396467572
528.0, 0.0006284852957872393
529.0, 0.00036393499910349796
530.0, 0.0002395516202692606
531.0, 0.00020272013429823932
532.0, 7.828907083169958e-05
533.0, 0.0007870137254458804
534.0, 0.0006017047894205479
535.0, 1.836678352374458e-05
536.0, 0.00043838773390740614
537.0, 0.0011720355538529883
538.0, 0.0009185958276690872
539.0, 0.0033035008514547192
540.0, 0.0024408597443739757
541.0, 4.2351585110316685e-05
542.0, 0.0005573956720161342
543.0, 0.00041276614369174737
544.0, 0.0013608427688820046
545.0, 0.00039069787612720737
546.0, 0.0005393659883607183
547.0, 0.001975818584555038
548.0, 0.0019766685396299865
549.0, 0.0011357046221939758
550.0, 0.0019803367664484556
551.0, 0.003369420128606426
552.0, 0.005001911200265474
553.0, 0.006584864574792836
554.0, 0.007371288101646166
555.0, 0.006695742969684123
556.0, 0.005743235246637535
557.0, 0.004723533131490223
558.0, 0.0037946825939131853
559.0, 0.0032210877576976625
560.0, 0.0031468374274380654
561.0, 0.0030750107083022497
562.0, 0.001461648756947285
563.0, 0.0005931542622135745
564.0, 0.0011961788333995243
565.0, 0.0019601794409652928
566.0, 0.001717715540249386
567.0, 0.001297303655919787
568.0, 0.001559881016099122
569.0, 0.00179612685225273
570.0, 0.0011477977431892288
571.0, 0.00011287504455893017
572.0, 0.0005807438594406412
573.0, 0.001082188728614422
574.0, 0.002083498591883122
575.0, 0.0019549512678265135
576.0, 0.0018201333953400145
577.0, 0.0019557394378684327
578.0, 0.0008532855378451392
579.0, 0.0010805562065837535
580.0, 0.0016727572136994208
581.0, 0.0011834295784510646
582.0, 0.0006593636608319832
583.0, 0.0008898698609461034
584.0, 0.0011020041726898097
585.0, 0.0010161617162676273
586.0, 0.0002844590022509579
587.0, 4.498452705128131e-05
588.0, 0.0002222172602868959
589.0, 0.00020950031177883617
590.0, 0.00027681969813384016
591.0, 0.0006021462694445792
592.0, 0.0007098679706169415
593.0, 0.001286172474583806
594.0, 0.0006733219023399413
595.0, 2.1935288034779526e-05
596.0, 0.00037717316411105576
597.0, 0.0005676657616283832
598.0, 6.16487464660005e-05
599.0, 0.0003241233642010098
600.0, 0.0010058045420596475
601.0, 0.0023977153367986353
602.0, 0.0016249335956426783
603.0, 0.0012489172926796613
604.0, 0.0008118281204955104
605.0, 0.0008264111197832175
606.0, 0.0007933773391461974
607.0, 0.0015879050419428332
608.0, 0.0032040165457418667
609.0, 0.001920297123791899
610.0, 0.0002920732378294454
611.0, 0.0006102062723601527
612.0, 0.0009001593471756511
613.0, 0.00031766560294946213
614.0, 0.00019250885879872623
615.0, 0.00038839000679203846
616.0, 0.00023717578406469715
617.0, 0.0011394769072477647
618.0, 0.0024461773803065604
619.0, 0.002557232757327934
620.0, 0.002148264942722208
621.0, 0.002235338814333802
622.0, 0.0033633120546060972
623.0, 0.005753805174061671
624.0, 0.007329137181497161
625.0, 0.007656346996698293
626.0, 0.009006346143925033
627.0, 0.012422871732523672
628.0, 0.01372153611227049
629.0, 0.018607325836308367
630.0, 0.023903845808004573
631.0, 0.02998927439135067
632.0, 0.03814756432074394
633.0, 0.048135241999019314
634.0, 0.058214573809904094
635.0, 0.0631671149430617
636.0, 0.05977534098534864
637.0, 0.04827436583291351
638.0, 0.0341757153167339
639.0, 0.02250726629206492
640.0, 0.014581764769069772
641.0, 0.009784187505615851
642.0, 0.006107813391070117
643.0, 0.004036428037582378
644.0, 0.003957237313993432
645.0, 0.0038401460360850946
646.0, 0.0026442443168384648
647.0, 0.002243810309990471
648.0, 0.002295736617051909
649.0, 0.002274603426455025
650.0, 0.002467710123693344
651.0, 0.002088954120726479
652.0, 0.0013088475512531253
653.0, 0.001250695637739768
654.0, 0.0018630787282348162
655.0, 0.0012873218463037442
656.0, 0.0002827183712834537
657.0, 0.0005337919360139401
658.0, 0.0014554286326829212
659.0, 0.0014153492947732234
660.0, 0.0005717146917011792
661.0, 0.0017542619530160949
662.0, 0.001062564801102929
663.0, 0.0009620001774136393
664.0, 0.0019306878632695443
665.0, 0.002951738255246188
666.0, 0.003728892499789028
667.0, 0.004491077645584895
668.0, 0.003536769433249516
669.0, 0.004969173422789624
670.0, 0.007346449616576583
671.0, 0.009556310629057013
672.0, 0.01188010660759075
673.0, 0.014899242939819844
674.0, 0.020041318065796884
675.0, 0.0242076349956766
676.0, 0.025077952592726695
677.0, 0.02179727590786318
678.0, 0.015689574645730526
679.0, 0.009795909163540187
680.0, 0.00688087400451324
681.0, 0.0051797762189712965
682.0, 0.0031054521804537967
683.0, 0.0025079622836140297
684.0, 0.0021589062730517435
685.0, 0.0020554894374667687
686.0, 0.0035203667871252925
687.0, 0.0037927354260837475
688.0, 0.0031031633590342575
689.0, 0.0010124701241808044
690.0, 0.000616704137344524
691.0, 0.0010152709964054438
692.0, 0.0007598560536976577
693.0, 0.0006862948456010527
694.0, 0.0008219120836377621
695.0, 0.0006077404550699497
696.0, 0.00015798992736337794
697.0, 0.0003418376000173236
698.0, 0.00016018876083805515
699.0, 9.740081555372249e-05
700.0, 5.351856712390011e-05
701.0, 0.0003678175448600898
702.0, 0.00021983582867295232
703.0, 5.8286995615504906e-05
704.0, 0.00019536565503951335
705.0, 9.128245459449208e-05
706.0, 0.000674220171430409
707.0, 0.0009160101686753646
708.0, 0.0010699070367452843
709.0, 0.00022538502293108437
710.0, 0.00011818411953266195
711.0, 0.00011158862577771639
712.0, 0.00046190695231788806
713.0, 0.0005851415887499436
714.0, 0.00017026533320853
715.0, 0.0015254408958539905
716.0, 0.0007391077380060262
717.0, 0.0008929204560866578
718.0, 0.00036650124933612356
719.0, 0.0003701540202530893
720.0, 0.0009732774217155062
721.0, 0.0003218710372938025
722.0, 0.0011118942808107939
723.0, 0.0014277337749800142
724.0, 0.0010039613291782513
725.0, 0.0013512352841538778
726.0, 0.0011645194474809747
727.0, 0.0005571019042241291
728.0, 0.0017266470153756155
729.0, 0.002813744473094002
730.0, 0.0046592811519441234
731.0, 0.003660416466822787
732.0, 0.002731150674903446
733.0, 0.0026321850315674513
734.0, 0.002189164960456939
735.0, 0.0011403667611831628
736.0, 0.0006336765363663063
737.0, 0.001359433381421544
738.0, 0.0016655139228888437
739.0, 0.0009416397485465001
740.0, 0.0010966092359613161
741.0, 0.002181769913724675
742.0, 0.0022459794579127216
743.0, 0.0010198709499810458
744.0, 0.0015398730650441578
745.0, 0.00272170042201973
746.0, 0.002640496163413085
747.0, 0.0020821139811070047
748.0, 0.0017400299431119307
749.0, 0.0017523269548791092
750.0, 0.002401721190689033
751.0, 0.001840002005062789
752.0, 0.0011644259441536864
753.0, 0.0008704596601543162
754.0, 0.0012547717466170442
755.0, 0.001643416603769887
756.0, 0.0012393896634113005
757.0, 0.001041198653804575
758.0, 0.003853619749384213
759.0, 0.0010682679066925118
760.0, 0.00027656956547303315
761.0, 0.0003172467577989749
762.0, 0.0011168997286695333
763.0, 0.0020924356643679024
764.0, 0.002018135755884925
765.0, 0.0015867960653905566
766.0, 0.0015308427674164456
767.0, 0.0016186510573227167
768.0, 0.0029914696694974168
769.0, 0.0018526876985709504
770.0, 9.393204392141582e-05
771.0, 0.001294145493491297
772.0, 0.003248365914182808
773.0, 0.0006699521424201493
774.0, 0.0002486719752803544
775.0, 0.00127740251724737
776.0, 0.0008470017046197205
777.0, 0.0005398861179949849
778.0, 0.0009089107751632775
779.0, 0.00020892376912947736
780.0, 0.0002074023337029198
781.0, 0.0003669891115416185
782.0, 0.00031315358184612417
783.0, 0.0002607222305732368
784.0, 0.0005803526122377092
785.0, 0.0009838423941226746
786.0, 0.0008455965451133981
787.0, 0.0004281092475213966
788.0, 0.0003379269502541983
789.0, 0.00016173947777413204
790.0, 0.0007399093014878244
791.0, 0.001930338706263198
792.0, 0.0018497755799874445
793.0, 0.0008612459759460745
794.0, 0.0005902834635338469
795.0, 0.0012251777064602718
796.0, 0.0008963275599545194
797.0, 0.00019128832825192858
798.0, 0.00018994176953560094
799.0, 0.0008154171684654711
800.0, 0.0009647040800452087
801.0, 0.0012224474204059156
802.0, 0.001729332692547422
803.0, 0.0012241297078057181
804.0, 0.0008851204243923106
805.0, 0.0006105466590755823
806.0, 0.001060796697090427
807.0, 0.0026286294857022297
808.0, 0.0027751488038267754
809.0, 0.0019335015585996986
810.0, 0.0018069468949169936
811.0, 0.0013971592315121192
812.0, 0.001811504517562372
813.0, 0.0017063440791522627
814.0, 0.0020143454081099437
815.0, 0.0019936024152160353
816.0, 0.0015974425847646262
817.0, 0.0022421344089036226
818.0, 0.003224770228750357
819.0, 0.002415978458048004
820.0, 0.0022390226344294736
821.0, 0.0025946866094060444
822.0, 0.003922244998387423
823.0, 0.00397226979742544
824.0, 0.003951939108786996
825.0, 0.005332346870221427
826.0, 0.0072237444931252
827.0, 0.008207172742588873
828.0, 0.009598452696859133
829.0, 0.014420172367062686
830.0, 0.02006708620236977
831.0, 0.02251260120063954
832.0, 0.02131617260466608
833.0, 0.016754042460092402
834.0, 0.011532164301921001
835.0, 0.008633792947537487
836.0, 0.004951652924003157
837.0, 0.003547579961986557
838.0, 0.003377429052835252
839.0, 0.0027689690559716076
840.0, 0.0018475797820765995
841.0, 0.0017192066419567254
842.0, 0.002268576222951789
843.0, 0.0022961272190006113
844.0, 0.0022790132957772715
845.0, 0.0015015374203690749
846.0, 0.002398592372489692
847.0, 0.0026558014761582397
848.0, 0.002227483114527158
849.0, 0.0015611092561321081
850.0, 0.0009518236917415206
851.0, 0.0011702508527599064
852.0, 0.001973133767213197
853.0, 0.0009259333050515948
854.0, 0.0011769966145541296
855.0, 0.003120431798658338
856.0, 0.0022321495634599706
857.0, 0.000932093654536946
858.0, 0.0023516659158560756
859.0, 0.002873381100078096
860.0, 0.00022107389893962352
861.0, 0.0011714594426902012
862.0, 0.001066898430671168
863.0, 0.0010723170054690507
864.0, 0.002101682780879077
865.0, 0.0013024690770904593
866.0, 0.0005207231000883035
867.0, 0.0006492950939281025
868.0, 0.0006783488530021496
869.0, 0.0006044891811953449
870.0, 0.0004312525550677507
871.0, 0.0013080345330220501
872.0, 0.0017271967554311415
873.0, 0.0010721393757551314
874.0, 0.0009461452674632597
875.0, 0.002064817001075243
876.0, 0.0019314770295506623
877.0, 0.0003994414316286265
878.0, 0.0005332228436392458
879.0, 0.0004445094714682013
880.0, 0.000492926518662257
881.0, 0.0004868271654869795
882.0, 0.0008800950138729057
883.0, 0.0006324668144149311
884.0, 0.00035249454121188815
885.0, 0.0009867724264802514
886.0, 0.0014843989232901228
887.0, 0.0005638064764526831
888.0, 0.0010294808694711788
889.0, 0.00020509595555310336
890.0, 0.001266887517691053
891.0, 0.0008309544784080747
892.0, 0.0003405126875464869
893.0, 0.000130016143744125
894.0, 7.84565119366655e-05
895.0, 0.0001719780490618371
896.0, 0.0006111601164530007
897.0, 0.00044896842737848953
898.0, 0.0002426638330656288
899.0, 0.0004118765054521735
900.0, 0.000374493736345792
901.0, 0.0005069498120047144
902.0, 0.0002536216067812602
903.0, 0.001215800566002476
904.0, 0.0017264580064033635
905.0, 0.0012354419517200585
906.0, 0.0015061183026125451
907.0, 0.00028835837023322755
908.0, 0.0006173861372530187
909.0, 0.00035170166035664876
910.0, 0.0005460719132048213
911.0, 0.0005783004298336682
912.0, 0.0004916694447244748
913.0, 0.000521880904632348
914.0, 0.0005745373424006155
915.0, 0.0016022212005801536
916.0, 0.0017116362663521431
917.0, 0.0013765292669314245
918.0, 0.0006857781349258229
919.0, 0.0008083192918339333
920.0, 0.0016880581849827653
921.0, 0.0018884280428931475
922.0, 0.0011026043942165447
923.0, 0.0006935623905942468
924.0, 0.0014497070577157596
925.0, 0.0015528318070420059
926.0, 0.0022768107064833265
927.0, 0.0014893825203467583
928.0, 0.001702760519651932
929.0, 0.0014449252251680614
930.0, 0.0011857337823685038
931.0, 0.0011489863214367135
932.0, 0.0011062813708192956
933.0, 0.0015874623588000313
934.0, 0.0017698162896455372
935.0, 0.0002871808238780041
936.0, 0.0002465587955664598
937.0, 0.0009065623487973275
938.0, 0.000529356733730316
939.0, 0.0011616897862310263
940.0, 0.0018443638704966018
941.0, 0.0013897788164963225
942.0, 0.000647705254584666
943.0, 0.0007078101390932891
944.0, 0.0015838956174442987
945.0, 0.0008710764341497761
946.0, 0.00017812729695825615
947.0, 0.00042050209460692256
948.0, 0.0011529027383382338
949.0, 0.0019181206942251753
950.0, 0.0019140661898704456
951.0, 0.0017317565668051613
952.0, 0.0009130449384597849
953.0, 0.00033648444707208916
954.0, 0.0017959590468577754
955.0, 0.0007422443786762065
956.0, 0.0004718901662137596
957.0, 0.0006370547170160859
958.0, 0.0006000344051473606
959.0, 0.0008572159596485328
960.0, 0.0007048049868330837
961.0, 0.0007977070993629772
962.0, 0.0008618620914964279
963.0, 0.00019344836374456147
964.0, 1.8335497852507393e-06
965.0, 0.00019174426768651533
966.0, 0.001068346397078963
967.0, 0.0006940885473504551
968.0, 0.0008250303224709749
969.0, 0.0007406182718501109
970.0, 0.0008531879644063234
971.0, 0.00048700259174672947
972.0, 0.001024188453964832
973.0, 0.0009036947002662616
974.0, 0.0009523281920523901
975.0, 0.0009717940210128755
976.0, 0.0016957146107886584
977.0, 0.0015234709668742875
978.0, 0.0009534776308260044
979.0, 0.0008977738016538616
980.0, 0.0011302629608706573
981.0, 0.0014559813957010154
982.0, 0.002125516032536493
983.0, 0.0022306178285994233
984.0, 0.001318873561057987
985.0, 0.0010626378387691019
986.0, 0.0013555332508411498
987.0, 0.0011713992717616354
988.0, 0.0021839316827197393
989.0, 0.0014469558660293559
990.0, 0.00018582220744445632
991.0, 0.00021394926761780794
992.0, 0.0016709650684598684
993.0, 0.003172755323480159
994.0, 0.0035922257725275485
995.0, 0.0027822770959242153
996.0, 0.0016939264172178912
997.0, 0.0028207723083430777
998.0, 0.0037325088476736
999.0, 0.0037837210114134326
1000.0, 0.003155910488822
1001.0, 0.003722889404742852
1002.0, 0.0034720354321975577
1003.0, 0.0036274042643470827
1004.0, 0.004399199313284646
1005.0, 0.004753004648368144
1006.0, 0.004984172222671541
1007.0, 0.005066583911348224
1008.0, 0.005754125719364712
1009.0, 0.006989542240240636
1010.0, 0.008364552197372161
1011.0, 0.008933216816667445
1012.0, 0.011869133250815452
1013.0, 0.01381226161496249
1014.0, 0.016019623390992638
1015.0, 0.019604127450120884
1016.0, 0.02379878061220911
1017.0, 0.028441716438342656
1018.0, 0.03425251936737514
1019.0, 0.04271300031537365
1020.0, 0.05259611891672227
1021.0, 0.06410100144611501
1022.0, 0.08087943092299331
1023.0, 0.1020480953440554
1024.0, 0.13073149832497855
1025.0, 0.16070362824083984
1026.0, 0.19472484826809514
1027.0, 0.22670790879438443
1028.0, 0.2467934935880301
1029.0, 0.2517880283245916
1030.0, 0.23139742701767269
1031.0, 0.19158246272958596
1032.0, 0.14705458984756895
1033.0, 0.10935920335172104
1034.0, 0.07901292282946515
1035.0, 0.058270936018974075
1036.0, 0.04285387690911629
1037.0, 0.031988543906227206
1038.0, 0.024848632895601845
1039.0, 0.019973267860401
1040.0, 0.01624088381624815
1041.0, 0.01312400710663773
1042.0, 0.011135264342267503
1043.0, 0.009632842354967029
1044.0, 0.008819575804021722
1045.0, 0.006690771690093681
1046.0, 0.005752409781411932
1047.0, 0.005617232426904031
1048.0, 0.00598648770318008
1049.0, 0.00396368949798693
1050.0, 0.002485105084702747
1051.0, 0.0026338502340182116
1052.0, 0.0023805310054089064
1053.0, 0.0015047930326456457
1054.0, 0.0011613513384083414
1055.0, 0.0014004698081160143
1056.0, 0.001290491241262074
1057.0, 0.0029160046328508284
1058.0, 0.002947812606844936
1059.0, 0.0005344979479789497
1060.0, 0.0005544621379667015
1061.0, 0.0024366191994921707
1062.0, 0.0012565046921537214
1063.0, 0.0005533750383520364
1064.0, 0.0010941680654761878
1065.0, 0.0005048734362374284
1066.0, 1.7702759131221162e-05
1067.0, 0.0009113501082404886
1068.0, 0.0017749560905349227
1069.0, 0.000598081555097064
1070.0, 0.000719513187788
1071.0, 0.002035739444050157
1072.0, 0.0018965745311931121
1073.0, 0.0012468962339515128
1074.0, 0.001085027314118573
1075.0, 0.0003289236039490072
1076.0, 0.00017374496963757646
1077.0, 0.0002932593206743211
1078.0, 0.0003873399201220803
1079.0, 0.00013077213001305216
1080.0, 0.00018847182627202317
1081.0, 0.0023797743255754
1082.0, 0.0019979924016042976
1083.0, 6.279604948758391e-05
1084.0, 0.000985222067341141
1085.0, 0.0009731722868909394
1086.0, 0.0006948079735943676
1087.0, 0.002058267979712782
1088.0, 0.002416565237890398
1089.0, 0.0018265912249916566
1090.0, 0.0015428594911778314
1091.0, 0.001442594107323394
1092.0, 0.0011149944147900628
1093.0, 0.0015010560239581354
1094.0, 0.0022817860668074307
1095.0, 0.0006962146777468938
1096.0, 0.00011544425843564772
1097.0, 0.0002540696984140869
1098.0, 0.00015479231477515186
1099.0, 0.00013046884708693934
1100.0, 0.0006010304784090998
1101.0, 0.0007497599135690928
1102.0, 0.00015824475719749585
1103.0, 0.0003231061096867607
1104.0, 0.0003608891180552797
1105.0, 0.0004500362670450453
1106.0, 0.0001315154839029275
1107.0, 0.0015905145589578036
1108.0, 0.00189944602992366
1109.0, 0.0011406909483880213
1110.0, 0.0016444969566900046
1111.0, 0.0005136012886682415
1112.0, 0.0012240196708704697
1113.0, 0.0001925296571590796
1114.0, 0.0010388618244819056
1115.0, 0.0018429854540590845
1116.0, 0.0011849627132446165
1117.0, 0.0002500099736923348
1118.0, 0.0009819884806043654
1119.0, 0.0007559303627370394
1120.0, 0.0012627091530936906
1121.0, 0.002528541121459296
1122.0, 0.0008844038194398139
1123.0, 0.00016082406843302027
1124.0, 0.0017903612651033315
1125.0, 0.00209273144258302
1126.0, 0.0019195752803891361
1127.0, 0.001315736393508428
1128.0, 0.0022250934454749152
1129.0, 0.0029754545622379227
1130.0, 0.001188772987773614
1131.0, 0.001016837505693835
1132.0, 0.0009269329899246765
1133.0, 0.0011598378813484148
1134.0, 0.0012919631988782597
1135.0, 0.001562752613527367
1136.0, 0.0020936070566566563
1137.0, 0.0021829081752341994
1138.0, 0.0023546729213868873
1139.0, 0.002315579181071963
1140.0, 0.0026644885080676726
1141.0, 0.0024171879686803025
1142.0, 0.0017817051347827674
1143.0, 0.000511126908740607
1144.0, 0.0002727640516023276
1145.0, 0.0034879427863172517
1146.0, 0.0028258190082468587
1147.0, 0.0026805080437210284
1148.0, 0.0017257762674482509
1149.0, 0.0005873840935833855
1150.0, 0.0008860823481702339
1151.0, 0.0015132509809957866
1152.0, 0.0021454592894418326
1153.0, 0.0020885440530603646
1154.0, 0.0009356269914424991
1155.0, 0.0009474164452061339
1156.0, 0.0015454719648859225
1157.0, 0.0019775635129511294
1158.0, 0.002077130427912219
1159.0, 0.0020137230628679103
1160.0, 0.002997430564615055
1161.0, 0.002000846201638492
1162.0, 0.0026956110650675283
1163.0, 0.0024933182968316656
1164.0, 0.0028320531056260554
1165.0, 0.0025252466543954303
1166.0, 0.0029896298189646714
1167.0, 0.0038762420807823767
1168.0, 0.003427800227421795
1169.0, 0.002768643153819979
1170.0, 0.0021737485734867786
1171.0, 0.0017655021582846653
1172.0, 0.0031196516550878774
1173.0, 0.003455871354899793
1174.0, 0.0020782904030566085
1175.0, 0.0017116919257830262
1176.0, 0.0024525860925873554
1177.0, 0.0023792519935437275
1178.0, 0.002085744487065405
1179.0, 0.0020539039907890733
1180.0, 0.0023913135712923844
1181.0, 0.001984678443493826
1182.0, 0.0012478597296858086
1183.0, 0.0007716391745202884
1184.0, 0.002222845100829662
1185.0, 0.0030495171826249324
1186.0, 0.0026695143523726107
1187.0, 0.001835392823258772
1188.0, 0.0017253420817862895
1189.0, 0.0020244221515951927
1190.0, 0.0014839055363836224
1191.0, 0.00177739638041475
1192.0, 0.0012592337189897486
1193.0, 0.001020360156791581
1194.0, 0.0018717066066359415
1195.0, 0.0009910304199668516
1196.0, 0.0009922715936188623
1197.0, 0.0008340917719951249
1198.0, 0.001183486695840505
1199.0, 0.001738978684089693
1200.0, 0.0027554956116581097
1201.0, 0.0011934999002992486
1202.0, 0.0015679872244645863
1203.0, 0.0024223813060373495
1204.0, 0.0015699408373012667
1205.0, 0.0015314031642100167
1206.0, 0.0017341661421977142
1207.0, 0.0011262518604184372
1208.0, 0.0010824218263272881
1209.0, 0.0012573495211054616
1210.0, 0.0005915993399364927
1211.0, 1.9697524864496044e-05
1212.0, 0.0005025885095218559
1213.0, 0.0014772664005178282
1214.0, 0.0020752587094352275
1215.0, 0.0011118063213167075
1216.0, 0.0017984351085879148
1217.0, 0.0007654456725337882
1218.0, 0.00048007455831063485
1219.0, 0.00027168481318857264
1220.0, 0.00040573175451495696
1221.0, 0.0008716241569331661
1222.0, 0.0012968556868395683
1223.0, 0.0008525047546670293
1224.0, 0.0022804061101146505
1225.0, 0.0024011228902872874
1226.0, 0.003651755958143684
1227.0, 0.0030485844652177324
1228.0, 0.001671134165981335
1229.0, 0.0005352960247755916
1230.0, 0.0005653536963270006
1231.0, 0.0015002854256313696
1232.0, 0.0003164847820190811
1233.0, 0.0016671363633329079
1234.0, 0.0032559932836627586
1235.0, 0.002434041935060822
1236.0, 0.0017367744226393486
1237.0, 0.001979955984191434
1238.0, 0.002106566988239013
1239.0, 0.0026465106811793013
1240.0, 0.001966360320602692
1241.0, 0.0014918766949948013
1242.0, 0.0017180998956192607
1243.0, 0.0015999228500453199
1244.0, 0.0008027084237833275
1245.0, 0.0004573239299834199
1246.0, 0.00036611976313186926
1247.0, 0.0009734642869981695
1248.0, 0.00035065144058217095
1249.0, 0.00046012653051194757
1250.0, 0.00038234152736923977
1251.0, 0.00046467636459969236
1252.0, 0.0003066977657454009
1253.0, 0.00012954568479339978
1254.0, 0.0003000899150838192
1255.0, 0.0006330619798743338
1256.0, 0.00015922531184787763
1257.0, 0.001053931215831518
1258.0, 0.0007333177449203985
1259.0, 0.00109382006166328
1260.0, 0.0015095351398282085
1261.0, 0.0014287989973751883
1262.0, 0.0019860305099281203
1263.0, 0.003058937463207444
1264.0, 0.003204109017858826
1265.0, 0.0039791013765655536
1266.0, 0.004334498393153802
1267.0, 0.003456891573837123
1268.0, 0.0022555140960688874
1269.0, 0.004293314672873122
1270.0, 0.00420611301164678
1271.0, 0.0042366796580630955
1272.0, 0.0057035452329885685
1273.0, 0.005112185142685764
1274.0, 0.005412477791716216
1275.0, 0.005695913632239578
1276.0, 0.005116685706203571
1277.0, 0.00592248562829449
1278.0, 0.0068040712679330395
1279.0, 0.005248136281230983
1280.0, 0.0038316172221192542
1281.0, 0.003844455252318874
1282.0, 0.0031980255232068114
1283.0, 0.001404548443698292
1284, 0.0
1285, 0.0
1286, 0.0
1287, 0.0
1288, 0.0
1289, 0.0
1290, 0.0
1291, 0.0
1292, 0.0
1293, 0.0
1294, 0.0
1295, 0.0
1296, 0.0
1297, 0.0
1298, 0.0
1299, 0.0
1300, 0.0
1301, 0.0
1302, 0.0
1303, 0.0
1304, 0.0
1305, 0.0
1306, 0.0
1307, 0.0
1308, 0.0
1309, 0.0
1310, 0.0
1311, 0.0
1312, 0.0
1313, 0.0
1314, 0.0
1315, 0.0
1316, 0.0
1317, 0.0
1318, 0.0
1319, 0.0
1320, 0.0
1321, 0.0
1322, 0.0
1323, 0.0
1324, 0.0
1325, 0.0
1326, 0.0
1327, 0.0
1328, 0.0
1329, 0.0
1330, 0.0
1331, 0.0
1332, 0.0
1333, 0.0
1334, 0.0
1335, 0.0
1336, 0.0
1337, 0.0
1338, 0.0
1339, 0.0
1340, 0.0
1341, 0.0
1342, 0.0
1343, 0.0
1344, 0.0
1345, 0.0
1346, 0.0
1347, 0.0
1348, 0.0
1349, 0.0
1350, 0.0
1351, 0.0
1352, 0.0
1353, 0.0
1354, 0.0
1355, 0.0
1356, 0.0
1357, 0.0
1358, 0.0
1359, 0.0
1360, 0.0
1361, 0.0
1362, 0.0
1363, 0.0
1364, 0.0
1365, 0.0
1366, 0.0
1367, 0.0
1368, 0.0
1369, 0.0
1370, 0.0
1371, 0.0
1372, 0.0
1373, 0.0
1374, 0.0
1375, 0.0
1376, 0.0
1377, 0.0
1378, 0.0
1379, 0.0
1380, 0.0
1381, 0.0
1382, 0.0
1383, 0.0
1384, 0.0
1385, 0.0
1386, 0.0
1387, 0.0
1388, 0.0
1389, 0.0
1390, 0.0
1391, 0.0
1392, 0.0
1393, 0.0
1394, 0.0
1395, 0.0
1396, 0.0
1397, 0.0
1398, 0.0
1399, 0.0
1400, 0.0
1401, 0.0
1402, 0.0
1403, 0.0
1404, 0.0
1405, 0.0
1406, 0.0
1407, 0.0
1408, 0.0
1409, 0.0
1410, 0.0
1411, 0.0
1412, 0.0
1413, 0.0
1414, 0.0
1415, 0.0
1416, 0.0
1417, 0.0
1418, 0.0
1419, 0.0
1420, 0.0
1421, 0.0
1422, 0.0
1423, 0.0
1424, 0.0
1425, 0.0
1426, 0.0
1427, 0.0
1428, 0.0
1429, 0.0
1430, 0.0
1431, 0.0
1432, 0.0
1433, 0.0
1434, 0.0
1435, 0.0
1436, 0.0
1437, 0.0
1438, 0.0
1439, 0.0
1440, 0.0
1441, 0.0
1442, 0.0
1443, 0.0
1444, 0.0
1445, 0.0
1446, 0.0
1447, 0.0
1448, 0.0
1449, 0.0
1450, 0.0
1451, 0.0
1452, 0.0
1453, 0.0
1454, 0.0
1455, 0.0
1456, 0.0
1457, 0.0
1458, 0.0
1459, 0.0
1460, 0.0
1461, 0.0
1462, 0.0
1463, 0.0
1464, 0.0
1465, 0.0
1466, 0.0
1467, 0.0
1468, 0.0
1469, 0.0
1470, 0.0
1471, 0.0
1472, 0.0
1473, 0.0
1474, 0.0
1475, 0.0
1476, 0.0
1477, 0.0
1478, 0.0
1479, 0.0
1480, 0.0
1481, 0.0
1482, 0.0
1483, 0.0
1484, 0.0
1485, 0.0
1486, 0.0
1487, 0.0
1488, 0.0
1489, 0.0
1490, 0.0
1491, 0.0
1492, 0.0
1493, 0.0
1494, 0.0
1495, 0.0
1496, 0.0
1497, 0.0
1498, 0.0
1499, 0.0
1500, 0.0
1501, 0.0
1502, 0.0
1503, 0.0
1504, 0.0
1505, 0.0
1506, 0.0
1507, 0.0
1508, 0.0
1509, 0.0
1510, 0.0
1511, 0.0
1512, 0.0
1513, 0.0
1514, 0.0
1515, 0.0
1516, 0.0
1517, 0.0
1518, 0.0
1519, 0.0
1520, 0.0
1521, 0.0
1522, 0.0
1523, 0.0
1524, 0.0
1525, 0.0
1526, 0.0
1527, 0.0
1528, 0.0
1529, 0.0
1530, 0.0
1531, 0.0
1532, 0.0
1533, 0.0
1534, 0.0
1535, 0.0
1536, 0.0
1537, 0.0
1538, 0.0
1539, 0.0
1540, 0.0
1541, 0.0
1542, 0.0
1543, 0.0
1544, 0.0
1545, 0.0
1546, 0.0
1547, 0.0
1548, 0.0
1549, 0.0
1550, 0.0
1551, 0.0
1552, 0.0
1553, 0.0
1554, 0.0
1555, 0.0
1556, 0.0
1557, 0.0
1558, 0.0
1559, 0.0
1560, 0.0
1561, 0.0
1562, 0.0
1563, 0.0
1564, 0.0
1565, 0.0
1566, 0.0
1567, 0.0
1568, 0.0
1569, 0.0
1570, 0.0
1571, 0.0
1572, 0.0
1573, 0.0
1574, 0.0
1575, 0.0
1576, 0.0
1577, 0.0
1578, 0.0
1579, 0.0
1580, 0.0
1581, 0.0
1582, 0.0
1583, 0.0
1584, 0.0
1585, 0.0
1586, 0.0
1587, 0.0
1588, 0.0
1589, 0.0
1590, 0.0
1591, 0.0
1592, 0.0
1593, 0.0
1594, 0.0
1595, 0.0
1596, 0.0
1597, 0.0
1598, 0.0
1599, 0.0
