30, 0.0
31, 0.0
32, 0.0
33, 0.0
34, 0.0
35, 0.0
36, 0.0
37, 0.0
38, 0.0
39, 0.0
40, 0.0
41, 0.0
42, 0.0
43, 0.0
44, 0.0
45, 0.0
46, 0.0
47, 0.0
48, 0.0
49, 0.0
50, 0.0
51, 0.0
52, 0.0
53, 0.0
54, 0.0
55, 0.0
56, 0.0
57, 0.0
58, 0.0
59, 0.0
60, 0.0
61, 0.0
62, 0.0
63, 0.0
64, 0.0
65, 0.0
66, 0.0
67, 0.0
68, 0.0
69, 0.0
70, 0.0
71, 0.0
72, 0.0
73, 0.0
74, 0.0
75, 0.0
76, 0.0
77, 0.0
78, 0.0
79, 0.0
80, 0.0
81, 0.0
82, 0.0
83, 0.0
84, 0.0
85, 0.0
86, 0.0
87, 0.0
88, 0.0
89, 0.0
90, 0.0
91, 0.0
92, 0.0
93, 0.0
94, 0.0
95, 0.0
96, 0.0
97, 0.0
98, 0.0
99, 0.0
100, 0.0
101, 0.0
102, 0.0
103, 0.0
104, 0.0
105, 0.0
106, 0.0
107, 0.0
108, 0.0
109, 0.0
110, 0.0
111, 0.0
112, 0.0
113, 0.0
114, 0.0
115, 0.0
116, 0.0
117, 0.0
118, 0.0
119, 0.0
120, 0.0
121, 0.0
122, 0.0
123, 0.0
124, 0.0
125, 0.0
126.0, 0.0009110805378233118
127.0, 0.003643396080277208
128.0, 0.021237579089825105
129.0, 0.059271754663501514
130.0, 0.09690855306947808
131.0, 0.11500287983712609
132.0, 0.11006842315504892
133.0, 0.09795083560393339
134.0, 0.0917988665413459
135.0, 0.09692268046631093
136.0, 0.13099173265776617
137.0, 0.175571270692876
138.0, 0.23951452146354954
139.0, 0.30108478463719246
140.0, 0.31505196543021796
141.0, 0.27041022103036644
142.0, 0.22499395741393502
143.0, 0.21296827565891743
144.0, 0.20561762856561333
145.0, 0.16180072891449182
146.0, 0.14014468757829823
147.0, 0.12413769811829749
148.0, 0.09734054700318866
149.0, 0.07559134852721677
150.0, 0.07745717108272245
151.0, 0.11077515083241346
152.0, 0.12120606150538929
153.0, 0.1223922210291124
154.0, 0.13574565954471543
155.0, 0.16538197147105754
156.0, 0.19160967339640958
157.0, 0.2348158637137477
158.0, 0.188042691503063
159.0, 0.15264691259238874
160.0, 0.1606536699403278
161.0, 0.19444456728782808
162.0, 0.23939676413209837
163.0, 0.26927524314744083
164.0, 0.2992361602709562
165.0, 0.3274537859787745
166.0, 0.3408570020332021
167.0, 0.30284132257399604
168.0, 0.30069900758726464
169.0, 0.30143642701945245
170.0, 0.3012428620224702
171.0, 0.29154321333000077
172.0, 0.2523181777082755
173.0, 0.22476419574482545
174.0, 0.21033624082040364
175.0, 0.20202836631417798
176.0, 0.19679568957993404
177.0, 0.19467392586483043
178.0, 0.19593588272132492
179.0, 0.2012882677628784
180.0, 0.20783010312197972
181.0, 0.21559387839329708
182.0, 0.22541522414852708
183.0, 0.23819770163100057
184.0, 0.26724037310868665
185.0, 0.30148229527546383
186.0, 0.3415581651598867
187.0, 0.3759952289768828
188.0, 0.37889158465480854
189.0, 0.41111919357632787
190.0, 0.4436371943337697
191.0, 0.46977862861077874
192.0, 0.49557135363263377
193.0, 0.5292651804460666
194.0, 0.5491553576385131
195.0, 0.5674102965677214
196.0, 0.5857781744844175
197.0, 0.6050023504287477
198.0, 0.6236292918068479
199.0, 0.6360854586737343
200.0, 0.6547082209689787
201.0, 0.6685866809761606
202.0, 0.6665271538963983
203.0, 0.6311969571964222
204.0, 0.545544659676815
205.0, 0.4362108842326438
206.0, 0.35808132220051225
207.0, 0.3062873189341832
208.0, 0.27183862457689434
209.0, 0.24794377277235144
210.0, 0.2416122470559991
211.0, 0.2177219372138476
212.0, 0.195884759666855
213.0, 0.1821074827280111
214.0, 0.173705539986108
215.0, 0.1600107428554082
216.0, 0.13163532120535898
217.0, 0.11818837428661641
218.0, 0.1073246662031716
219.0, 0.09508569194833091
220.0, 0.08262042294690217
221.0, 0.07736600753159216
222.0, 0.06661242948142337
223.0, 0.05892648369161143
224.0, 0.05412317236123853
225.0, 0.051235122654226244
226.0, 0.04941942934301338
227.0, 0.0426701884263328
228.0, 0.038356267653637914
229.0, 0.0342624033904882
230.0, 0.030518931007548458
231.0, 0.02819539502146536
232.0, 0.02807736330799136
233.0, 0.025655221952060634
234.0, 0.02381511824282338
235.0, 0.023224171117843
236.0, 0.022672224349077685
237.0, 0.019457790330800986
238.0, 0.019715810541848015
239.0, 0.01794900740722113
240.0, 0.023738329125743553
241.0, 0.028026039099738376
242.0, 0.02198936226125605
243.0, 0.024330384424767242
244.0, 0.021120240902438154
245.0, 0.014298312775324989
246.0, 0.01449787315970958
247.0, 0.01845313691671664
248.0, 0.010234521452192771
249.0, 0.015642803188257115
250.0, 0.005925981463895267
251.0, 0.004338331555771474
252.0, 0.00859286079755314
253.0, 0.01058661145386939
254.0, 0.010301792294123995
255.0, 0.004964298451380336
256.0, 0.001406882633097587
257.0, 0.0014643704594327286
258.0, 0.0042912881437386155
259.0, 0.006654447381180649
260.0, 0.0017346507807818635
261.0, 0.009557179895261475
262.0, 0.00986759798735753
263.0, 0.00760855087064073
264.0, 0.008076607387023949
265.0, 0.006470832283797913
266.0, 0.010631731879088654
267.0, 0.013422748084446332
268.0, 0.019123619972766143
269.0, 0.026518932568892907
270.0, 0.03050086927020814
271.0, 0.022354753815739783
272.0, 0.027782999852800742
273.0, 0.03190896011094356
274.0, 0.02824019657748217
275.0, 0.018149036419684458
276.0, 0.010167504825169215
277.0, 0.004731491216487875
278.0, 0.0021111558173639903
279.0, 0.005561306882558702
280.0, 0.008760246276928948
281.0, 0.007321530663247131
282.0, 0.008304023314847421
283.0, 0.002062062354816523
284.0, 0.0003890400199768712
285.0, 0.0004887145826576381
286.0, 0.002174950855098198
287.0, 0.007259726483504002
288.0, 0.017886346512643696
289.0, 0.02642671294828777
290.0, 0.03213648748351196
291.0, 0.037738938620898846
292.0, 0.04664726570177733
293.0, 0.061184277875667006
294.0, 0.06984795335137015
295.0, 0.07405427995299366
296.0, 0.08054547912759155
297.0, 0.09415768386817891
298.0, 0.112924117038499
299.0, 0.12298898715810741
300.0, 0.14419543760082648
301.0, 0.15805125909470888
302.0, 0.1795800856428
303.0, 0.20509635115407887
304.0, 0.22408175148449447
305.0, 0.24055776736535722
306.0, 0.25442683168505204
307.0, 0.2601973812542603
308.0, 0.2703484081792387
309.0, 0.2858896454768711
310.0, 0.297668038274496
311.0, 0.30957020981777855
312.0, 0.32868451010828803
313.0, 0.3385760841262528
314.0, 0.3501762825649278
315.0, 0.3682656430025914
316.0, 0.3815962413898334
317.0, 0.37855264836548785
318.0, 0.3769220429569742
319.0, 0.37340209820637377
320.0, 0.3628321766625919
321.0, 0.346677541569443
322.0, 0.34034037419950003
323.0, 0.3198478676456788
324.0, 0.3073774870833296
325.0, 0.29343395539029943
326.0, 0.27492082941171475
327.0, 0.2568075953526094
328.0, 0.2575012620664933
329.0, 0.2424684128075562
330.0, 0.23417972987456057
331.0, 0.2211200429962938
332.0, 0.20660283421279607
333.0, 0.20108290395026535
334.0, 0.1909484946587902
335.0, 0.18871004780856176
336.0, 0.1867383242704607
337.0, 0.18405241617789858
338.0, 0.18496172994481896
339.0, 0.1953468088753795
340.0, 0.20299856483685086
341.0, 0.20367164423096176
342.0, 0.20860398617199513
343.0, 0.21614148809173545
344.0, 0.22257047465758556
345.0, 0.2260719942322184
346.0, 0.2388616522965936
347.0, 0.238885311767224
348.0, 0.24651129652217868
349.0, 0.2569883018440914
350.0, 0.265051482152062
351.0, 0.2748819894740874
352.0, 0.2866631253925092
353.0, 0.29110445603922636
354.0, 0.29668058494604593
355.0, 0.30327071985374066
356.0, 0.3080126426131266
357.0, 0.3087292523138116
358.0, 0.3060787045845734
359.0, 0.30562882760334187
360.0, 0.3000126442316145
361.0, 0.29883669268057267
362.0, 0.3041512102162654
363.0, 0.28852312277330383
364.0, 0.289475438416167
365.0, 0.2758354590553341
366.0, 0.2725932062448224
367.0, 0.27429930197796054
368.0, 0.2720946934111465
369.0, 0.2840244013735448
370.0, 0.2777696663927982
371.0, 0.2708391393376545
372.0, 0.27680600823558443
373.0, 0.27821546580527967
374.0, 0.26042824926596303
375.0, 0.2562420384555246
376.0, 0.261527568099517
377.0, 0.26468293324305314
378.0, 0.2655606137760905
379.0, 0.2610168575869002
380.0, 0.2520731952394785
381.0, 0.25502851472338556
382.0, 0.2523014363363283
383.0, 0.24925490494761673
384.0, 0.25081297202618774
385.0, 0.25474271552761374
386.0, 0.2601485563473333
387.0, 0.2802968760568443
388.0, 0.26760181846726944
389.0, 0.28734946422768276
390.0, 0.27868344074810963
391.0, 0.2563953836625381
392.0, 0.2569803720870538
393.0, 0.25981813465467696
394.0, 0.24730866428521014
395.0, 0.24822142204074882
396.0, 0.25185245015240815
397.0, 0.25131826197253565
398.0, 0.24577521123168475
399.0, 0.24192355173805566
400.0, 0.232017408450257
401.0, 0.2352898437493721
402.0, 0.2521660337923581
403.0, 0.272673946265863
404.0, 0.2811317636128577
405.0, 0.2615598614119431
406.0, 0.26612053950415127
407.0, 0.2413746303317162
408.0, 0.23531590414251546
409.0, 0.23764995155611662
410.0, 0.23032538841843928
411.0, 0.22662206814945624
412.0, 0.228447807346677
413.0, 0.24325729563750312
414.0, 0.2381790512247132
415.0, 0.22713840527129744
416.0, 0.22068043459251369
417.0, 0.20152505803714438
418.0, 0.19810255564088924
419.0, 0.193429319730403
420.0, 0.18812504493938698
421.0, 0.1818508445010731
422.0, 0.17660106766323133
423.0, 0.17547118855524033
424.0, 0.16212401227599554
425.0, 0.15247328215915723
426.0, 0.14870314161837103
427.0, 0.1402947991324096
428.0, 0.1268080307759699
429.0, 0.11876527227981616
430.0, 0.11381602112991748
431.0, 0.10558140216926301
432.0, 0.10425651999133982
433.0, 0.09771803501824755
434.0, 0.08634861924380521
435.0, 0.08024409502492015
436.0, 0.07804213493595316
437.0, 0.08112299214566585
438.0, 0.07088691271581002
439.0, 0.06329730716277937
440.0, 0.056725961331179096
441.0, 0.045548788684752727
442.0, 0.04631347966556425
443.0, 0.03139455505945801
444.0, 0.026713632018445677
445.0, 0.01778622437619156
446.0, 0.009014154936566173
447.0, 0.00785114007329336
448.0, 0.010467850756019154
449.0, 0.0033063034671692343
450.0, 0.003349046969821832
451.0, 0.004899290276742237
452.0, 0.008581798107474628
453.0, 0.014685998646890325
454.0, 0.020731477476578466
455.0, 0.02384150252173268
456.0, 0.018144076349214694
457.0, 0.01538994384901074
458.0, 0.018744289817446077
459.0, 0.020869353669495702
460.0, 0.013036938792180664
461.0, 0.011915110161911541
462.0, 0.007121619384488704
463.0, 0.0039947318119402525
464.0, 0.003846096416454275
465.0, 0.00777403656507158
466.0, 0.013347862010298769
467.0, 0.010657732419712466
468.0, 0.008641851765882516
469.0, 0.010578866338319406
470.0, 0.012132329906423918
471.0, 0.010646478738138659
472.0, 0.007467769350309036
473.0, 0.007299712358386114
474.0, 0.002218703188319264
475.0, 0.0019655793371296253
476.0, 0.005322701334853257
477.0, 0.005262172479812766
478.0, 0.0023081658332821135
479.0, 0.0026390015843105684
480.0, 0.00257781698812596
481.0, 0.025364692001269052
482.0, 0.019864167651790752
483.0, 0.02248831802797845
484.0, 0.03290679283114537
485.0, 0.03613468794510449
486.0, 0.038338397020484645
487.0, 0.046562433202325185
488.0, 0.05312595285776041
489.0, 0.05963030206482791
490.0, 0.06797177285422963
491.0, 0.0750792795794922
492.0, 0.07582199047260071
493.0, 0.08965811187518827
494.0, 0.10101347518229539
495.0, 0.1050611302402019
496.0, 0.10986051735164057
497.0, 0.11868746058086728
498.0, 0.12866261517343403
499.0, 0.1336220182232443
500.0, 0.15147457633720013
501.0, 0.1597210955573083
502.0, 0.16748660098763105
503.0, 0.17960061676245825
504.0, 0.19177908496888849
505.0, 0.1935870347394997
506.0, 0.2029635112928892
507.0, 0.21622749278228975
508.0, 0.22464539006423415
509.0, 0.2336305531037276
510.0, 0.24899090222770112
511.0, 0.26748826049841706
512.0, 0.2655543926412073
513.0, 0.2721372391401947
514.0, 0.2845175853861156
515.0, 0.3062651633659347
516.0, 0.3318687171863573
517.0, 0.35695465288570144
518.0, 0.38159851212879314
519.0, 0.38812189203961733
520.0, 0.43998015937275586
521.0, 0.45824056189673207
522.0, 0.4795840330252079
523.0, 0.5142491060276275
524.0, 0.5450956360821463
525.0, 0.5659617588933212
526.0, 0.5993864283097542
527.0, 0.6387286174581994
528.0, 0.6786209941736064
529.0, 0.7154698158760412
530.0, 0.7515578153651666
531.0, 0.7902627255053464
532.0, 0.8071684744703821
533.0, 0.8358420506283756
534.0, 0.8460175390989956
535.0, 0.856540662336169
536.0, 0.8638110077900967
537.0, 0.8588304908262107
538.0, 0.8527116310331624
539.0, 0.8431174839159007
540.0, 0.8230499919812077
541.0, 0.8038299118499167
542.0, 0.7820997280774622
543.0, 0.7569828064875584
544.0, 0.7316284139709825
545.0, 0.7046325014968353
546.0, 0.6707982828125858
547.0, 0.6463127314441881
548.0, 0.6229948770969482
549.0, 0.6004971310259516
550.0, 0.5814468229584605
551.0, 0.5668059152596531
552.0, 0.5526257462331807
553.0, 0.5358039812398597
554.0, 0.5220910516133502
555.0, 0.5096331270963403
556.0, 0.49914842490214556
557.0, 0.4920006443631606
558.0, 0.48679068898151534
559.0, 0.4829563730604391
560.0, 0.47849078625353275
561.0, 0.4767758459031186
562.0, 0.47709666445867127
563.0, 0.4776657264372612
564.0, 0.47715558651563245
565.0, 0.4758687650697124
566.0, 0.4805086164048619
567.0, 0.4851966545867074
568.0, 0.48820654874890085
569.0, 0.4900549369921209
570.0, 0.4904978289568154
571.0, 0.48816159612917265
572.0, 0.48378068118224904
573.0, 0.47765255334818585
574.0, 0.46710055569131476
575.0, 0.45449576601538044
576.0, 0.4430895393279307
577.0, 0.4319832692521982
578.0, 0.4152503849168695
579.0, 0.3922471488085204
580.0, 0.38324738141010595
581.0, 0.3674291195871786
582.0, 0.35041261147640074
583.0, 0.3344047684275025
584.0, 0.31888538902630725
585.0, 0.30430536034205347
586.0, 0.28903758457690476
587.0, 0.2849152716698863
588.0, 0.2774140180755138
589.0, 0.2654554447811298
590.0, 0.2592659166745554
591.0, 0.2614885409631883
592.0, 0.24974037477562755
593.0, 0.22902980207589602
594.0, 0.24114222782587655
595.0, 0.24534797580056564
596.0, 0.2310556942032524
597.0, 0.21710757325567143
598.0, 0.22134400362207257
599.0, 0.21999972666411355
600.0, 0.21118801568424955
601.0, 0.2050402425237788
602.0, 0.19610744952108955
603.0, 0.19242160733010985
604.0, 0.18979613821316552
605.0, 0.17967400150869695
606.0, 0.17335552921513617
607.0, 0.17110851912055441
608.0, 0.16186558834272347
609.0, 0.15212779756230604
610.0, 0.1454285055685667
611.0, 0.141542458417944
612.0, 0.13689956829082184
613.0, 0.12694921469906972
614.0, 0.1325009253679682
615.0, 0.11919501656844637
616.0, 0.10523557804452044
617.0, 0.10098026180140303
618.0, 0.0997427181105488
619.0, 0.08967178232463173
620.0, 0.07933460732109703
621.0, 0.09089006704666765
622.0, 0.08404551387452404
623.0, 0.07339437644843362
624.0, 0.06902773719244157
625.0, 0.06809783665679209
626.0, 0.06272626023874955
627.0, 0.05742590792432691
628.0, 0.06223319172000598
629.0, 0.05805641238932333
630.0, 0.05258043755129664
631.0, 0.05076002876027352
632.0, 0.051950599668397095
633.0, 0.05336232369596863
634.0, 0.05597658329935862
635.0, 0.054661761771592855
636.0, 0.05761654803632806
637.0, 0.05658118333023479
638.0, 0.06023623285923545
639.0, 0.061368809175879904
640.0, 0.053846131717544855
641.0, 0.05732778492912985
642.0, 0.06383754898273343
643.0, 0.06266259826137971
644.0, 0.06380630237293744
645.0, 0.07091696936785682
646.0, 0.07613457185684595
647.0, 0.07623758477703156
648.0, 0.0832092516217549
649.0, 0.08639008014217098
650.0, 0.09946430615400151
651.0, 0.10493189035512668
652.0, 0.10852752687349405
653.0, 0.11489647262168774
654.0, 0.12689521306415694
655.0, 0.14489989552373245
656.0, 0.15769329672523338
657.0, 0.18453640574018898
658.0, 0.21002519140296375
659.0, 0.24126381197869431
660.0, 0.2842338454330053
661.0, 0.34207132169555826
662.0, 0.41005359863430535
663.0, 0.46563596602010543
664.0, 0.5534536100680519
665.0, 0.5924908075194588
666.0, 0.6176089274471748
667.0, 0.6603380860023473
668.0, 0.7251687247829616
669.0, 0.7987256511808658
670.0, 0.8776500329972282
671.0, 0.9458195353517389
672.0, 0.9653456917457297
673.0, 0.9885559704794387
674.0, 0.9985578351921134
675.0, 0.9946703566158521
676.0, 0.9823612780709424
677.0, 0.9473346018323385
678.0, 0.8763040632675451
679.0, 0.7968655952514679
680.0, 0.7320304936446709
681.0, 0.6572611846077695
682.0, 0.5731345406997509
683.0, 0.49353756921945335
684.0, 0.4280132080204022
685.0, 0.3718786287761861
686.0, 0.3229476073505412
687.0, 0.2781496120154136
688.0, 0.24756147108291748
689.0, 0.23592255640104945
690.0, 0.23465594422902644
691.0, 0.23114004135586405
692.0, 0.22452584228956932
693.0, 0.2066712347758056
694.0, 0.2021203530799422
695.0, 0.19439227019338937
696.0, 0.18534941342194147
697.0, 0.1799184761248746
698.0, 0.17409353880832418
699.0, 0.1585329451776176
700.0, 0.15673615484012796
701.0, 0.1483062873080842
702.0, 0.14656576306673644
703.0, 0.14552235484207296
704.0, 0.14618904647703929
705.0, 0.14762831828271128
706.0, 0.14595577128936194
707.0, 0.14077832836059312
708.0, 0.14411347300293742
709.0, 0.1418698995648784
710.0, 0.13696604731114723
711.0, 0.13669818410907308
712.0, 0.13685028903292193
713.0, 0.13142775061579143
714.0, 0.12430350027034252
715.0, 0.13075214392069023
716.0, 0.12957401240465505
717.0, 0.126972926463463
718.0, 0.11738447172780804
719.0, 0.10731153399682439
720.0, 0.10221204385058894
721.0, 0.1015136853149473
722.0, 0.10165534184016042
723.0, 0.10831010707817981
724.0, 0.09580679635035197
725.0, 0.08805145105379154
726.0, 0.09033668303506869
727.0, 0.09321096717845466
728.0, 0.09100291338884221
729.0, 0.08852399775171697
730.0, 0.08686575649659908
731.0, 0.08521913301041215
732.0, 0.08202977406803862
733.0, 0.07972742454174783
734.0, 0.07834022312168896
735.0, 0.0761300845815678
736.0, 0.07372647635024655
737.0, 0.07473623738453142
738.0, 0.07317598363284857
739.0, 0.06982027021008898
740.0, 0.07259158647113363
741.0, 0.06754155162335529
742.0, 0.06517944755536649
743.0, 0.06380340676888369
744.0, 0.05677472339212784
745.0, 0.0596464729258844
746.0, 0.06798455152622694
747.0, 0.0785694405788199
748.0, 0.08024129609302445
749.0, 0.06819042968320675
750.0, 0.06630302380771626
751.0, 0.07182034413548374
752.0, 0.059254647146302415
753.0, 0.04595385154926075
754.0, 0.05259113039484012
755.0, 0.050635381805258825
756.0, 0.05401708627255989
757.0, 0.05590189439708338
758.0, 0.05653483875456464
759.0, 0.05790896642467298
760.0, 0.05854971895658081
761.0, 0.05857654791495414
762.0, 0.05393372944127875
763.0, 0.05651917539503993
764.0, 0.059854276621039655
765.0, 0.05882255605085415
766.0, 0.059021049105577574
767.0, 0.06157766245986124
768.0, 0.05920581894716542
769.0, 0.06381994566371589
770.0, 0.059280360297452886
771.0, 0.05713084824474652
772.0, 0.059328141845448025
773.0, 0.06573152150777045
774.0, 0.06992357884811858
775.0, 0.06958140831941363
776.0, 0.07048349753371552
777.0, 0.06809614620297393
778.0, 0.06292474149878798
779.0, 0.0748795417434121
780.0, 0.07412044762343337
781.0, 0.0741854368861848
782.0, 0.07330748487342154
783.0, 0.07012651884215398
784.0, 0.0772147269933198
785.0, 0.07103006811200999
786.0, 0.07218235538387566
787.0, 0.07016322690263462
788.0, 0.06108665300487688
789.0, 0.06227218802061687
790.0, 0.0659379512934327
791.0, 0.06004303862354913
792.0, 0.053230516386841564
793.0, 0.05605319073749853
794.0, 0.05837992844156282
795.0, 0.05032403917705899
796.0, 0.06037891557604235
797.0, 0.05029385007332871
798.0, 0.03383152000250928
799.0, 0.03309095490280572
800.0, 0.032187819679292524
801.0, 0.017938658313084506
802.0, 0.02700625003929656
803.0, 0.01592113633927556
804.0, 0.014696983500978741
805.0, 0.009955977488250195
806.0, 0.007558083135565967
807.0, 0.007855305640498886
808.0, 0.0005116014167131919
809.0, 0.0022825592815728167
810.0, 0.008852469335820463
811.0, 0.0030727418448844926
812.0, 0.005680308474518578
813.0, 0.007731792880304397
814.0, 0.012080197954932977
815.0, 0.017129128796258046
816.0, 0.01756299873482334
817.0, 0.021264976000733102
818.0, 0.025007512366354546
819.0, 0.02999979596235328
820.0, 0.02993410441646951
821.0, 0.02966067207660168
822.0, 0.028358645109048397
823.0, 0.027515376955369673
824.0, 0.028524362246582897
825.0, 0.02723158860994375
826.0, 0.021594730408626195
827.0, 0.030223342834644215
828.0, 0.03029376676360679
829.0, 0.025891186832306887
830.0, 0.019915232247777703
831.0, 0.016673951865709486
832.0, 0.01971988672008806
833.0, 0.02540099958517485
834.0, 0.017261472281726836
835.0, 0.005730347739126003
836.0, 0.006048074281221363
837.0, 0.009913769905733099
838.0, 0.010331897746875237
839.0, 0.008116068104726763
840.0, 0.005737596258589582
841.0, 0.005210020024131813
842.0, 0.00935223074122618
843.0, 0.010076797853657917
844.0, 0.0016821594013413268
845.0, 0.005768419938225387
846.0, 0.0035303897424167757
847.0, 0.010953525682611969
848.0, 0.016992790447764222
849.0, 0.012507057729787512
850.0, 0.01702751943520083
851.0, 0.01799830276257196
852.0, 0.017071616713492603
853.0, 0.024917563972054222
854.0, 0.0213427394955703
855.0, 0.026216896338004662
856.0, 0.03383977666024482
857.0, 0.036963636649577664
858.0, 0.04269563908053971
859.0, 0.05702868190206489
860.0, 0.050619764884908935
861.0, 0.05932683092607318
862.0, 0.05320087132048089
863.0, 0.06159159210029891
864.0, 0.07535847302897583
865.0, 0.08187972183366118
866.0, 0.08455833806788143
867.0, 0.09449529002364819
868.0, 0.10359608081593925
869.0, 0.11576465299743284
870.0, 0.1229094597499639
871.0, 0.13116233527103877
872.0, 0.13886576915028992
873.0, 0.14668161960892473
874.0, 0.1559572252577954
875.0, 0.16651316616070705
876.0, 0.17634007768306867
877.0, 0.1839753791864977
878.0, 0.19111593760229495
879.0, 0.19770684414236342
880.0, 0.20470746561317882
881.0, 0.21154881764394493
882.0, 0.21944971164331006
883.0, 0.22932972188845405
884.0, 0.23711460721934097
885.0, 0.23664273267690344
886.0, 0.24636321810687314
887.0, 0.26178678750227996
888.0, 0.26162354411178285
889.0, 0.283921525498078
890.0, 0.28055299108200515
891.0, 0.2662536267248693
892.0, 0.2664109601570185
893.0, 0.2789597270719708
894.0, 0.30216491667537365
895.0, 0.28288216570993546
896.0, 0.294328704152931
897.0, 0.2815127268033804
898.0, 0.2859095215191694
899.0, 0.28021989026635524
900.0, 0.2746449821226521
901.0, 0.28195375247059806
902.0, 0.28572068290144376
903.0, 0.27516357865740215
904.0, 0.26219480983267596
905.0, 0.26814605875769215
906.0, 0.26453419330795086
907.0, 0.2678760198178779
908.0, 0.2657403143506075
909.0, 0.2616589313280977
910.0, 0.2602299940874718
911.0, 0.25604841943361006
912.0, 0.251114406315717
913.0, 0.24803901370769743
914.0, 0.24616336717017148
915.0, 0.2406553023020494
916.0, 0.23927014065190827
917.0, 0.2331288543026892
918.0, 0.2263391574237524
919.0, 0.22314277525214335
920.0, 0.22122674986963028
921.0, 0.22148441446748118
922.0, 0.2101446400318219
923.0, 0.20466124553016504
924.0, 0.2044888573060696
925.0, 0.20740968760464507
926.0, 0.20375291463620032
927.0, 0.19810810295397682
928.0, 0.19464017604393324
929.0, 0.1924005409323997
930.0, 0.1945111789945413
931.0, 0.2015048876219
932.0, 0.19790183953104204
933.0, 0.19346720376046353
934.0, 0.18562872614749182
935.0, 0.1887309523599942
936.0, 0.1938963419801124
937.0, 0.19663423846960154
938.0, 0.1961764090463588
939.0, 0.19012914204989548
940.0, 0.2064367299931419
941.0, 0.20210638236826134
942.0, 0.20591873072877653
943.0, 0.21419185254262726
944.0, 0.21451059044514112
945.0, 0.21839548996075786
946.0, 0.22622371748799985
947.0, 0.23130324024408727
948.0, 0.23642030868059616
949.0, 0.24756257074208096
950.0, 0.24462463422349376
951.0, 0.2508309897070418
952.0, 0.2556403387663081
953.0, 0.2602269648707601
954.0, 0.2722250407714957
955.0, 0.27799921754893064
956.0, 0.28047391903509705
957.0, 0.2908394530377288
958.0, 0.2969106183087107
959.0, 0.312618338094218
960.0, 0.311175702867738
961.0, 0.3309432506115706
962.0, 0.3395824765778396
963.0, 0.34579978651706156
964.0, 0.3569172887664777
965.0, 0.3722496836905661
966.0, 0.3861069314950098
967.0, 0.394250541602547
968.0, 0.40052698615731047
969.0, 0.42080159424392044
970.0, 0.4259890244966244
971.0, 0.4444508296460871
972.0, 0.4538504945347806
973.0, 0.4678296304669546
974.0, 0.4755135269765771
975.0, 0.47702738024072966
976.0, 0.48079778401477286
977.0, 0.4816996985140024
978.0, 0.490974547479935
979.0, 0.48123998756653485
980.0, 0.48480263084596287
981.0, 0.4759506699467118
982.0, 0.4641267194912883
983.0, 0.45493578923111627
984.0, 0.44458241704179496
985.0, 0.4325269878515787
986.0, 0.42528878520919394
987.0, 0.4243670498156772
988.0, 0.4162991506655131
989.0, 0.4068394820488612
990.0, 0.39719336117037224
991.0, 0.373392501426959
992.0, 0.3672340950041107
993.0, 0.3611431496300033
994.0, 0.3511742708851537
995.0, 0.35312156503059255
996.0, 0.3649870832618522
997.0, 0.3546574703707924
998.0, 0.33184032466449404
999.0, 0.35329451177032956
1000.0, 0.3327099452561311
1001.0, 0.3282646419907268
1002.0, 0.31506883706606054
1003.0, 0.29971829040871073
1004.0, 0.29484522662516105
1005.0, 0.300245076792434
1006.0, 0.30120791421803433
1007.0, 0.2859931481728113
1008.0, 0.2934905378007758
1009.0, 0.2979073754948357
1010.0, 0.2995123844760171
1011.0, 0.2909857038447634
1012.0, 0.2913397956767266
1013.0, 0.29251592285343103
1014.0, 0.2910480668761534
1015.0, 0.28739004624015896
1016.0, 0.2831472518142009
1017.0, 0.28575263147604735
1018.0, 0.2845902852417222
1019.0, 0.28168689198374025
1020.0, 0.28795230977909
1021.0, 0.28259440493498095
1022.0, 0.28443270576452945
1023.0, 0.28723564168730065
1024.0, 0.2865560121166373
1025.0, 0.2858775841208532
1026.0, 0.2865551742623579
1027.0, 0.2848572879013007
1028.0, 0.2863248368784939
1029.0, 0.28803583442164615
1030.0, 0.28869699315915387
1031.0, 0.2971923845952491
1032.0, 0.30093029900732055
1033.0, 0.30442680006691375
1034.0, 0.30833293834607994
1035.0, 0.31455096370066427
1036.0, 0.32106575827541917
1037.0, 0.32520028753052915
1038.0, 0.34019289469940384
1039.0, 0.3328116073440829
1040.0, 0.34787527786496664
1041.0, 0.35332869063918165
1042.0, 0.3549821953535875
1043.0, 0.3597226325082771
1044.0, 0.36215345729081266
1045.0, 0.3642111888063405
1046.0, 0.36765378383901276
1047.0, 0.36974355181008534
1048.0, 0.3720435692677699
1049.0, 0.37051421504327997
1050.0, 0.37702489760481944
1051.0, 0.37447485188204505
1052.0, 0.370514902013377
1053.0, 0.37260710030808597
1054.0, 0.3804625648245669
1055.0, 0.3885175843663829
1056.0, 0.3937220276231916
1057.0, 0.3930762215093964
1058.0, 0.3881949492569639
1059.0, 0.3945506379342769
1060.0, 0.3953809776776189
1061.0, 0.39602185169915316
1062.0, 0.4048274143231487
1063.0, 0.40082146190212575
1064.0, 0.40577872126630055
1065.0, 0.4110755656672141
1066.0, 0.41537322155741047
1067.0, 0.4184737309843446
1068.0, 0.4185037334908606
1069.0, 0.4212152853729516
1070.0, 0.42894044133495374
1071.0, 0.43348609588993336
1072.0, 0.43202978892520144
1073.0, 0.4372033594920519
1074.0, 0.4364427068602468
1075.0, 0.42045767558598846
1076.0, 0.41274988019747544
1077.0, 0.41197186171559097
1078.0, 0.41136931676258875
1079.0, 0.4143141693417464
1080.0, 0.4158686620074541
1081.0, 0.4086282619346863
1082.0, 0.4030226901187006
1083.0, 0.39122538559162645
1084.0, 0.4015765424886221
1085.0, 0.40276071603131
1086.0, 0.3986612708226636
1087.0, 0.3976710525303443
1088.0, 0.40309796874655784
1089.0, 0.4041488485656726
1090.0, 0.3990171936403709
1091.0, 0.40453239343996156
1092.0, 0.40716180190284584
1093.0, 0.40686144477147135
1094.0, 0.39455000198176804
1095.0, 0.39682781270712025
1096.0, 0.39514898086300554
1097.0, 0.392170683619366
1098.0, 0.39467213375042853
1099.0, 0.39184821186446794
1100.0, 0.3883721202813027
1101.0, 0.39189673090791965
1102.0, 0.3918556889981499
1103.0, 0.3931575247224836
1104.0, 0.38907493812564015
1105.0, 0.38688184982947144
1106.0, 0.39076568111604465
1107.0, 0.3919621271800168
1108.0, 0.38843249359143417
1109.0, 0.38839435750050477
1110.0, 0.3834588483893826
1111.0, 0.3750357531102312
1112.0, 0.37231162016998537
1113.0, 0.37406052037493903
1114.0, 0.3728927944926263
1115.0, 0.368134571591256
1116.0, 0.3521732505086871
1117.0, 0.35197799142648567
1118.0, 0.3461765977387557
1119.0, 0.339525549285401
1120.0, 0.3391143758113937
1121.0, 0.3312364835215827
1122.0, 0.3255126617018979
1123.0, 0.32478797510865826
1124.0, 0.32136601966201384
1125.0, 0.3184486957691374
1126.0, 0.31110103231335157
1127.0, 0.30585472022570676
1128.0, 0.30645203851540753
1129.0, 0.3040384960979906
1130.0, 0.2962612199895987
1131.0, 0.29335723701542915
1132.0, 0.2831712081610697
1133.0, 0.27559529658888676
1134.0, 0.2736584660689457
1135.0, 0.27228110722439713
1136.0, 0.2716956259482761
1137.0, 0.2742253126042588
1138.0, 0.27587193427877943
1139.0, 0.26655403065585687
1140.0, 0.24904140466083166
1141.0, 0.19945757737738104
1142.0, 0.17762833019329474
1143.0, 0.17444401898469752
1144.0, 0.17202174889745792
1145.0, 0.16818923758745205
1146.0, 0.1640034567687443
1147.0, 0.1575323547790058
1148.0, 0.14804204541142038
1149.0, 0.1379204532882803
1150.0, 0.1281737957188613
1151.0, 0.11233649455754802
1152.0, 0.10354986152051716
1153.0, 0.0928634570104148
1154.0, 0.0841237136934898
1155.0, 0.07561765865746634
1156.0, 0.06154080344539408
1157.0, 0.05391174382553421
1158.0, 0.04946630423896693
1159.0, 0.03518164418730996
1160.0, 0.019810567785607018
1161.0, 0.01964522403142771
1162.0, 0.01217996070985771
1163.0, 0.009738756285986928
1164.0, 0.0022237838288404793
1165.0, 0.0004846511310015962
1166.0, 0.002872637689934369
1167.0, 0.006100276332152845
1168.0, 0.010353060104707735
1169.0, 0.009525510430726842
1170.0, 0.00880094539843632
1171.0, 0.008270218770588006
1172.0, 0.0055737341078442625
1173.0, 0.005099151696120777
1174.0, 0.005347831639502387
1175.0, 0.007376056626766881
1176.0, 0.005038628633859432
1177.0, 0.008656041526358743
1178.0, 0.011354220076482444
1179.0, 0.008825679446130049
1180.0, 0.011276326730122199
1181.0, 0.01421434753995339
1182.0, 0.00919245725857421
1183.0, 0.004912592876453412
1184.0, 0.00598491500392077
1185.0, 0.005560047613411706
1186.0, 0.003876770611924602
1187.0, 0.0034781043949677123
1188.0, 0.0045406823104458295
1189.0, 0.007486024240108297
1190.0, 0.005691481337265786
1191.0, 0.00674310915879282
1192.0, 0.006804432342599373
1193.0, 0.005512442912317092
1194.0, 0.008104837663266447
1195.0, 0.006430032022121172
1196.0, 0.0029646270989862862
1197.0, 0.004019092454541433
1198.0, 0.004263483882730933
1199.0, 0.0029712239303727596
1200.0, 0.013127565673356807
1201.0, 0.01273459114198991
1202.0, 0.0041979636343049955
1203.0, 0.00436191271028592
1204.0, 0.005606578426230728
1205.0, 0.002601071677075127
1206.0, 0.001962923811370411
1207.0, 0.004485511572140813
1208.0, 0.005577249147365481
1209.0, 0.0034475876117480444
1210.0, 0.007743197008887379
1211.0, 0.014016822293001385
1212.0, 0.0071974357119858785
1213.0, 0.011772875016595824
1214.0, 0.004011566404991262
1215.0, 0.005687386893102807
1216.0, 0.019099700289162434
1217.0, 0.004420017859294801
1218.0, 0.010514223911795994
1219.0, 0.003906960238557971
1220.0, 0.0038450218064354966
1221.0, 0.010426663254491934
1222.0, 0.01000606774771669
1223.0, 0.010879066741541158
1224.0, 0.014987039008822436
1225.0, 0.010945878165416003
1226.0, 0.015458967955076792
1227.0, 0.017319179524321722
1228.0, 0.005314433451282999
1229.0, 0.01653301122387695
1230.0, 0.010083951821396604
1231.0, 0.018924638692504516
1232.0, 0.014933809183850344
1233.0, 0.01623320554637122
1234.0, 0.015312861599267738
1235.0, 0.015459146559955556
1236.0, 0.017112975315986684
1237.0, 0.01202494375457219
1238.0, 0.006759061635730734
1239.0, 0.013968161120242243
1240.0, 0.017254490906259703
1241.0, 0.014497495868046146
1242.0, 0.003279129635603408
1243.0, 0.011653981833755085
1244.0, 0.011134720483795536
1245.0, 0.014794884296793282
1246.0, 0.01708150158820678
1247.0, 0.015702721714883277
1248.0, 0.012115331276345325
1249.0, 0.01117375273093354
1250.0, 0.01070208720222062
1251.0, 0.009679859035797302
1252.0, 0.009092152194143362
1253.0, 0.006281450169212896
1254.0, 0.002977293808320987
1255.0, 0.0007516420681327724
1256.0, 0.002283405390954219
1257.0, 0.003161960481121717
1258.0, 0.004705148892073718
1259.0, 0.005579084414419073
1260.0, 0.007658980356309197
1261.0, 0.012667694432548825
1262.0, 0.01569109448130745
1263.0, 0.008890236678983624
1264.0, 0.009532304691865848
1265.0, 0.01282806011825181
1266.0, 0.007440657722506204
1267.0, 0.0053117880997884705
1268.0, 0.004998397819572923
1269.0, 0.0009688255504512206
1270.0, 0.005071586206732526
1271.0, 0.003617531935229615
1272.0, 0.0039591061362557025
1273.0, 0.006169159802559069
1274.0, 0.006313793815566315
1275.0, 0.0100411036433825
1276.0, 0.012410271221256887
1277.0, 0.016332275461542787
1278.0, 0.020000308572717503
1279.0, 0.01987561323187921
1280.0, 0.019151938545393023
1281.0, 0.017377080954604832
1282.0, 0.010574497514118859
1283.0, 0.006414599067616608
1284.0, 0.005476979617969258
1285.0, 0.004781428353545895
1286.0, 0.009834008265397015
1287.0, 0.010397047390549733
1288.0, 0.004702743226813593
1289.0, 0.010797712503186513
1290.0, 0.016731405841755153
1291.0, 0.011469383182826521
1292.0, 0.007086419296184446
1293.0, 0.007515901637811405
1294.0, 0.006453757320418642
1295.0, 0.005265414132997275
1296.0, 0.004272154011987413
1297.0, 0.0027103440901758155
1298.0, 0.007130860082164343
1299.0, 0.0056035993038082085
1300.0, 0.0046643710648548945
1301.0, 0.005884437083035487
1302.0, 0.0031867160276321275
1303.0, 0.007149570879172862
1304.0, 0.006497776633169262
1305.0, 0.011448565879940578
1306.0, 0.00702362694579262
1307.0, 0.009550945755668007
1308.0, 0.009188801529283388
1309.0, 0.007388920848020091
1310.0, 0.0040404886597332655
1311.0, 0.0065154858687915
1312.0, 0.014451496680013968
1313.0, 0.013547475250577803
1314.0, 0.011966622976288113
1315.0, 0.001615676416670303
1316.0, 0.00346731954856879
1317.0, 0.012257237931856032
1318.0, 0.008167561940994895
1319.0, 0.008851859537064053
1320.0, 0.01325570763168554
1321.0, 0.01653223673484769
1322.0, 0.00794080815364917
1323.0, 0.00432018078354632
1324.0, 0.00488958681437377
1325.0, 0.012162152349240726
1326.0, 0.014032995312538429
1327.0, 0.008433195651882634
1328.0, 0.007162219542337713
1329.0, 0.007080977148445317
1330.0, 0.0031688487063829887
1331.0, 0.003590234760904698
1332.0, 0.010136820600625865
1333.0, 0.009064432945077236
1334.0, 0.0004072964459389106
1335.0, 0.002094988600013207
1336.0, 0.00277883413102244
1337.0, 0.006062891013842327
1338.0, 0.007956287573735898
1339.0, 0.00714937572106887
1340.0, 0.006108040036371616
1341.0, 0.003957221595665016
1342.0, 0.0012576114500830703
1343.0, 0.0024919867812596645
1344.0, 0.0071459768590994704
1345.0, 0.008779043939860141
1346.0, 0.009085770891872354
1347.0, 0.011263854527216849
1348.0, 0.0021719427751500115
1349.0, 0.007368744166099204
1350.0, 0.011355074246551203
1351.0, 0.012332165037624906
1352.0, 0.0006915128715346032
1353.0, 0.004415576263670823
1354.0, 0.0033273949216167734
1355.0, 0.0012365759668703541
1356.0, 0.006034230862962605
1357.0, 0.004297889265496726
1358.0, 0.0038981771392310872
1359.0, 0.005050279575475932
1360.0, 0.006802623025973279
1361.0, 0.00699532836582276
1362.0, 0.004414289506801554
1363.0, 0.00529594691283965
1364.0, 0.009222777453775526
1365.0, 0.008771748734610757
1366.0, 0.004822824042084747
1367.0, 0.0008074039274859805
1368.0, 0.004155390960465449
1369.0, 0.0023887304404578815
1370.0, 0.0008524088466880854
1371.0, 0.008703805646900374
1372.0, 0.004416091594074646
1373.0, 0.006938403828325097
1374.0, 0.008957258946239744
1375.0, 0.009721923956582841
1376.0, 0.006257849156340175
1377.0, 0.007912242664189068
1378.0, 0.007573898200102118
1379.0, 0.00743227921194294
1380.0, 0.014268208944427816
1381.0, 0.017972957757225287
1382.0, 0.015821675969264558
1383.0, 0.00830879538683114
1384.0, 0.012211090845107688
1385.0, 0.010805496917112497
1386.0, 0.009396218875488891
1387.0, 0.016918872617844048
1388.0, 0.007646059892570158
1389.0, 0.01432059327398809
1390.0, 0.01582121306043664
1391.0, 0.019114633032083567
1392.0, 0.017749859150957763
1393.0, 0.016458262842217228
1394.0, 0.0201599270591826
1395.0, 0.023761975611199252
1396.0, 0.02052835155517747
1397.0, 0.01463115833888979
1398.0, 0.01564441174415749
1399.0, 0.015157082894909227
1400.0, 0.011175706155812433
1401.0, 0.0189699613123115
1402.0, 0.017808094268418652
1403.0, 0.022709337218726706
1404.0, 0.021204018925777945
1405.0, 0.018556569755836364
1406.0, 0.012486815531583975
1407.0, 0.015442370050463158
1408.0, 0.014458804680272563
1409.0, 0.013284879279487806
1410.0, 0.016498762628385615
1411.0, 0.019602508673364345
1412.0, 0.020528946502513946
1413.0, 0.021725247536969514
1414.0, 0.019311567285010125
1415.0, 0.01863569330360322
1416.0, 0.019660737131924073
1417.0, 0.02151403749528259
1418.0, 0.02276385666622688
1419.0, 0.022965539715459234
1420.0, 0.0232335915866991
1421.0, 0.021777255844386906
1422.0, 0.02744282446245944
1423.0, 0.027432824212064423
1424.0, 0.023998095509191648
1425.0, 0.020803645863376106
1426.0, 0.015280267094909927
1427.0, 0.008713139783807281
1428.0, 0.010909723411104572
1429.0, 0.01828072159239062
1430.0, 0.014633369705442554
1431.0, 0.015730153687473967
1432.0, 0.014602949502376112
1433.0, 0.021951445870976236
1434.0, 0.017077396026975118
1435.0, 0.013713542962671918
1436.0, 0.020114622659639786
1437.0, 0.019285283229575508
1438.0, 0.015986350964968938
1439.0, 0.01771870305187272
1440.0, 0.017790029592728743
1441.0, 0.018512456252774912
1442.0, 0.016159947901893457
1443.0, 0.013068617149503185
1444.0, 0.016662358847692304
1445.0, 0.016244356911803096
1446.0, 0.020184652037093416
1447.0, 0.02092166420868958
1448.0, 0.020348468937275904
1449.0, 0.020938569071761184
1450.0, 0.024415810029402685
1451.0, 0.028753782659751155
1452.0, 0.027317013141309535
1453.0, 0.023354012875359067
1454.0, 0.02818045092874657
1455.0, 0.022203284654368147
1456.0, 0.02024262048974952
1457.0, 0.01868680101578061
1458.0, 0.016418100183775403
1459.0, 0.02009069211592526
1460.0, 0.024418506180232193
1461.0, 0.022115366649930194
1462.0, 0.01737814230371871
1463.0, 0.017028179343092368
1464.0, 0.01844339125787648
1465.0, 0.01600440280467911
1466.0, 0.016784827591550314
1467.0, 0.014344745660847468
1468.0, 0.014408129804162655
1469.0, 0.01093167263224877
1470.0, 0.01596307444762695
1471.0, 0.010978424665789011
1472.0, 0.01470328105127533
1473.0, 0.01767660105988463
1474.0, 0.016971801999776825
1475.0, 0.01447355426481149
1476.0, 0.015832890841927308
1477.0, 0.016554396004164917
1478.0, 0.015132101359169025
1479.0, 0.019197758159991387
1480.0, 0.017645188845689806
1481.0, 0.01951538295099785
1482.0, 0.019216776696313293
1483.0, 0.017502541908913764
1484.0, 0.01898680633278291
1485.0, 0.017846391975187885
1486.0, 0.013220582868685746
1487.0, 0.008880189591642041
1488.0, 0.008312877121370186
1489.0, 0.006499292295743258
1490.0, 0.004986582051045792
1491.0, 0.0052924822037718035
1492.0, 0.004081448340207048
1493.0, 0.009094424170232283
1494.0, 0.010037354737567615
1495.0, 0.015919151157760606
1496.0, 0.013125832781685307
1497.0, 0.004523689919241086
1498.0, 0.013363017487849975
1499.0, 0.01109792933331593
1500.0, 0.008418286595531394
1501.0, 0.011435149980761786
1502.0, 0.010424022111346489
1503.0, 0.014861044156093114
1504.0, 0.01357727646178723
1505.0, 0.014062774068542696
1506.0, 0.01792249369571609
1507.0, 0.018033932414457665
1508.0, 0.01620686696382501
1509.0, 0.014071294429689131
1510.0, 0.010404225461413518
1511.0, 0.006654076969755249
1512.0, 0.005648187426318273
1513.0, 0.008344991304258864
1514.0, 0.009478770339187273
1515.0, 0.00890053327166849
1516.0, 0.01097865469550956
1517.0, 0.00914661322576446
1518.0, 0.018522916247251022
1519.0, 0.005314988840948608
1520.0, 0.008146312072340359
1521.0, 0.012546557238687936
1522.0, 0.005456677149984609
1523.0, 0.010940741789598894
1524.0, 0.005601631644555538
1525.0, 0.0011445711270687007
1526.0, 0.006192487699323396
1527.0, 0.003570659172986995
1528.0, 0.009213161084220614
1529.0, 0.00775685063637826
1530.0, 0.00884534019981898
1531.0, 0.007519303375159187
1532.0, 0.010101408869270207
1533.0, 0.01178915478218311
1534.0, 0.008376913651822686
1535.0, 0.0033189398042373086
1536.0, 0.006940044141522107
1537.0, 0.010982506835188928
1538.0, 0.00741080459631302
1539.0, 0.008019472680041315
1540.0, 0.01423885763060832
1541.0, 0.017205430281139036
1542.0, 0.013761796871631744
1543.0, 0.006722832931562021
1544.0, 0.009649083178577052
1545.0, 0.007577089827600464
1546.0, 0.007167112953224607
1547.0, 0.011409549608112452
1548.0, 0.003492229725013846
1549.0, 0.009630373488770402
1550.0, 0.009214404255832889
1551.0, 0.012216178490717608
1552.0, 0.008663591076965882
1553.0, 0.007212076092728681
1554.0, 0.012272166940339987
1555.0, 0.014087465935546916
1556.0, 0.010332374683410804
1557.0, 0.012773332497705629
1558.0, 0.004567727891769352
1559.0, 0.003956427279242844
1560.0, 0.009748545980747729
1561.0, 0.00861624537860726
1562.0, 0.010099542508248897
1563.0, 0.011809736940988337
1564.0, 0.004805172277268514
1565.0, 0.005599252224724566
1566.0, 0.007179023822983984
1567.0, 0.009221898336003077
1568.0, 0.006679971694582432
1569.0, 0.005413298885240728
1570.0, 0.005228349555184697
1571, 0.0
1572, 0.0
1573, 0.0
1574, 0.0
1575, 0.0
1576, 0.0
1577, 0.0
1578, 0.0
1579, 0.0
1580, 0.0
1581, 0.0
1582, 0.0
1583, 0.0
1584, 0.0
1585, 0.0
1586, 0.0
1587, 0.0
1588, 0.0
1589, 0.0
1590, 0.0
1591, 0.0
1592, 0.0
1593, 0.0
1594, 0.0
1595, 0.0
1596, 0.0
1597, 0.0
1598, 0.0
1599, 0.0
