30, 0.0
31, 0.0
32, 0.0
33, 0.0
34, 0.0
35, 0.0
36, 0.0
37, 0.0
38, 0.0
39, 0.0
40, 0.0
41, 0.0
42, 0.0
43, 0.0
44, 0.0
45, 0.0
46, 0.0
47, 0.0
48, 0.0
49, 0.0
50, 0.0
51, 0.0
52, 0.0
53, 0.0
54, 0.0
55, 0.0
56, 0.0
57, 0.0
58, 0.0
59, 0.0
60, 0.0
61, 0.0
62, 0.0
63, 0.0
64, 0.0
65, 0.0
66, 0.0
67, 0.0
68, 0.0
69, 0.0
70, 0.0
71, 0.0
72, 0.0
73, 0.0
74, 0.0
75, 0.0
76, 0.0
77, 0.0
78, 0.0
79, 0.0
80, 0.0
81, 0.0
82, 0.0
83, 0.0
84, 0.0
85, 0.0
86, 0.0
87, 0.0
88, 0.0
89, 0.0
90, 0.0
91, 0.0
92, 0.0
93, 0.0
94, 0.0
95, 0.0
96, 0.0
97, 0.0
98, 0.0
99, 0.0
100, 0.0
101, 0.0
102, 0.0
103, 0.0
104, 0.0
105, 0.0
106, 0.0
107, 0.0
108, 0.0
109, 0.0
110, 0.0
111, 0.0
112, 0.0
113, 0.0
114, 0.0
115, 0.0
116, 0.0
117, 0.0
118, 0.0
119, 0.0
120, 0.0
121, 0.0
122, 0.0
123, 0.0
124, 0.0
125, 0.0
126, 0.0
127, 0.0
128, 0.0
129, 0.0
130, 0.0
131, 0.0
132.0, 0.0005237105444248931
133.0, 0.006095723559474106
134.0, 0.02216397806067183
135.0, 0.05503744053003114
136.0, 0.1262991067294779
137.0, 0.2309587269823643
138.0, 0.3840800641606271
139.0, 0.5569710762479315
140.0, 0.6839473356255803
141.0, 0.6854229311738964
142.0, 0.659268694525124
143.0, 0.5862633237828266
144.0, 0.47853424022012286
145.0, 0.3647318731714124
146.0, 0.2796834765019044
147.0, 0.19754680228926824
148.0, 0.12229414675411207
149.0, 0.07170562676812631
150.0, 0.057321625220307315
151.0, 0.06843979384976537
152.0, 0.05248106861673846
153.0, 0.02506886534284641
154.0, 0.015264145264431542
155.0, 0.02560918555432542
156.0, 0.022320020568879308
157.0, 0.02813927679226219
158.0, 0.04217244354083115
159.0, 0.08218524145265801
160.0, 0.1501317785654021
161.0, 0.2294400221716401
162.0, 0.23081457828992819
163.0, 0.25535801041178874
164.0, 0.2950698073419625
165.0, 0.32039360660104993
166.0, 0.3096301043228491
167.0, 0.2911464483613166
168.0, 0.27513357409763817
169.0, 0.25909182010062753
170.0, 0.23846001982231407
171.0, 0.209260699675386
172.0, 0.16894502215321425
173.0, 0.12776195704722276
174.0, 0.09833415965646257
175.0, 0.07367183026324987
176.0, 0.05711161789199883
177.0, 0.05605464271475863
178.0, 0.0466685760526737
179.0, 0.04043157943992511
180.0, 0.03038785171693942
181.0, 0.021490776138834787
182.0, 0.0191376017002556
183.0, 0.018907711316034206
184.0, 0.03469768185397106
185.0, 0.05097206267667554
186.0, 0.0687366706879252
187.0, 0.08998735058496693
188.0, 0.11588274780071908
189.0, 0.14723392812750688
190.0, 0.17155917888233313
191.0, 0.2046521288504012
192.0, 0.2419646294200241
193.0, 0.27059732103618156
194.0, 0.29662145542746793
195.0, 0.31953949085880606
196.0, 0.3382488072932665
197.0, 0.35524534711458633
198.0, 0.37201587374866907
199.0, 0.3860920968667434
200.0, 0.4130166519413266
201.0, 0.4299897710610377
202.0, 0.43191516332608426
203.0, 0.41551424333512654
204.0, 0.3802491072189431
205.0, 0.3398917428637222
206.0, 0.3181665991401433
207.0, 0.319039068590904
208.0, 0.32781921002932424
209.0, 0.33373700522523836
210.0, 0.35763125093104026
211.0, 0.3758478932171451
212.0, 0.3917996049569264
213.0, 0.40048599915524963
214.0, 0.40330703888607056
215.0, 0.40686836395219633
216.0, 0.3689682145377388
217.0, 0.35521706355760746
218.0, 0.345076555654601
219.0, 0.3258189584929803
220.0, 0.2948664012341512
221.0, 0.2743530270765312
222.0, 0.25538703400969687
223.0, 0.25093051432605384
224.0, 0.25369154507999264
225.0, 0.2526269949411987
226.0, 0.23688799318686918
227.0, 0.2197548985789564
228.0, 0.21035303138124908
229.0, 0.20512353960309349
230.0, 0.20478000143196617
231.0, 0.20828275674333088
232.0, 0.20086081356184216
233.0, 0.2074784027534618
234.0, 0.21515556995190782
235.0, 0.21881484001108384
236.0, 0.2198617882706534
237.0, 0.22630406474080061
238.0, 0.24395703054275175
239.0, 0.24789836952606065
240.0, 0.2521044400233202
241.0, 0.25962889498715475
242.0, 0.2651193217187151
243.0, 0.24997283347102073
244.0, 0.25478814291163066
245.0, 0.26065730328549885
246.0, 0.25540954463222865
247.0, 0.24158081484974867
248.0, 0.23497317111505583
249.0, 0.22686653228132342
250.0, 0.20870290055985427
251.0, 0.1951166274936541
252.0, 0.190582495348138
253.0, 0.18908419132403595
254.0, 0.16683676760691107
255.0, 0.1607173577083961
256.0, 0.1577176107378227
257.0, 0.16481162237109706
258.0, 0.16940835742729798
259.0, 0.1490883060799828
260.0, 0.13288304927343622
261.0, 0.12121343024964372
262.0, 0.1072807742833503
263.0, 0.09426224364362071
264.0, 0.08364723450333608
265.0, 0.06985447007177956
266.0, 0.06253621123599447
267.0, 0.05283680417679313
268.0, 0.039818945071619136
269.0, 0.029270810407140167
270.0, 0.028182814901593495
271.0, 0.033956183151326876
272.0, 0.021882187543475706
273.0, 0.01756142050436314
274.0, 0.015369563696537426
275.0, 0.011213133098165998
276.0, 0.007237001078962571
277.0, 0.0037602166209588644
278.0, 0.0059229994344910586
279.0, 0.010492871244820588
280.0, 0.019440995414390802
281.0, 0.029035958584645832
282.0, 0.019607213798920803
283.0, 0.029987057386268303
284.0, 0.029816494988280717
285.0, 0.02699962937836839
286.0, 0.021927038988305024
287.0, 0.013187969258041735
288.0, 0.018800486326837403
289.0, 0.01482413740203258
290.0, 0.007988459375113409
291.0, 0.008864182441313418
292.0, 0.01666904990702026
293.0, 0.01832226498035445
294.0, 0.01980132907801095
295.0, 0.025669279225897706
296.0, 0.027037110081053594
297.0, 0.031391348383813376
298.0, 0.04234109909597414
299.0, 0.04574452701617686
300.0, 0.06400590369832246
301.0, 0.06756564257947534
302.0, 0.07244083578609474
303.0, 0.0789070833545457
304.0, 0.08476351455524664
305.0, 0.11380404921528274
306.0, 0.12000297493156502
307.0, 0.1409289438402957
308.0, 0.15772545178303743
309.0, 0.1683959591021263
310.0, 0.18627242949807388
311.0, 0.19090247152119685
312.0, 0.21235902243147622
313.0, 0.21838506888428957
314.0, 0.22393710871646635
315.0, 0.23421073240270865
316.0, 0.23017109767282956
317.0, 0.231336714186619
318.0, 0.2340405622815961
319.0, 0.22921126053364707
320.0, 0.21850937180196495
321.0, 0.20349500446555624
322.0, 0.17793774464436246
323.0, 0.16830581709555217
324.0, 0.15757139636579276
325.0, 0.1442910651467911
326.0, 0.13379222412347397
327.0, 0.12996838770400912
328.0, 0.12205743020352967
329.0, 0.1051301999644188
330.0, 0.10310936595941575
331.0, 0.09791969251121353
332.0, 0.08784452605882015
333.0, 0.083095530084592
334.0, 0.08372525420971438
335.0, 0.1038895529412355
336.0, 0.0896327039080515
337.0, 0.08225772752126943
338.0, 0.08733590342605102
339.0, 0.07478634581076624
340.0, 0.09412218836288581
341.0, 0.09721523997964886
342.0, 0.09683071468550762
343.0, 0.10042790878136573
344.0, 0.10816200969092377
345.0, 0.11361984253787409
346.0, 0.12697903310209685
347.0, 0.14059475703989696
348.0, 0.14479999437359697
349.0, 0.14977212783954505
350.0, 0.16018819991813638
351.0, 0.16502881618497753
352.0, 0.17262828632888313
353.0, 0.18772495127875674
354.0, 0.19031215520364375
355.0, 0.19176526797851398
356.0, 0.20004521940217354
357.0, 0.19801296985809758
358.0, 0.1978684083239204
359.0, 0.19701718304507398
360.0, 0.19451202980510043
361.0, 0.18879106634872825
362.0, 0.17979133809309372
363.0, 0.17089066630179797
364.0, 0.17196338046832213
365.0, 0.16758035480438638
366.0, 0.15492062324786188
367.0, 0.14228825870291312
368.0, 0.13747860627152686
369.0, 0.1348401843168946
370.0, 0.12535597926217829
371.0, 0.12217340492469812
372.0, 0.11899259057108014
373.0, 0.11625411216361667
374.0, 0.11284710092589866
375.0, 0.09431278193524034
376.0, 0.09314962703649306
377.0, 0.09042309028810668
378.0, 0.08902443571484342
379.0, 0.08895582039933292
380.0, 0.08781115842689004
381.0, 0.08188813469581749
382.0, 0.08909370296614443
383.0, 0.08858268650937655
384.0, 0.08798535617042628
385.0, 0.08590503003226319
386.0, 0.07882013063885733
387.0, 0.07224406642196662
388.0, 0.0676026821140406
389.0, 0.06371254628392153
390.0, 0.060502427466895346
391.0, 0.05905661226695285
392.0, 0.058941807733245255
393.0, 0.054460193818651755
394.0, 0.051608723583910915
395.0, 0.05102243857902631
396.0, 0.04818221228670972
397.0, 0.04440291314347615
398.0, 0.04354260726094431
399.0, 0.04787329427077385
400.0, 0.04084644970850149
401.0, 0.029492572180799304
402.0, 0.030294112215516034
403.0, 0.034702065010908514
404.0, 0.03207236422253957
405.0, 0.03251210001730062
406.0, 0.03397750635624019
407.0, 0.03805687669456635
408.0, 0.046801024576979926
409.0, 0.05604730926612558
410.0, 0.06319706610643364
411.0, 0.07318841118563979
412.0, 0.09060677793278397
413.0, 0.10235491065881794
414.0, 0.10940812253587541
415.0, 0.11344807755242009
416.0, 0.11526082432530547
417.0, 0.11441326465146394
418.0, 0.1203897153374509
419.0, 0.12831358183649502
420.0, 0.1296254171802196
421.0, 0.13224047024084193
422.0, 0.13503889345257103
423.0, 0.12411629567580343
424.0, 0.12629251052226909
425.0, 0.12210234257043245
426.0, 0.13586318039356785
427.0, 0.1325971849620055
428.0, 0.10916528102679454
429.0, 0.09860238029020313
430.0, 0.07843513704698951
431.0, 0.057487615466796566
432.0, 0.055355950737892366
433.0, 0.053859517220863504
434.0, 0.04049004416852366
435.0, 0.020040075959058917
436.0, 0.02765483099709426
437.0, 0.028275872028333374
438.0, 0.024997555176109604
439.0, 0.013176317189836596
440.0, 0.0038314619056705936
441.0, 0.007158307393355748
442.0, 0.006032665386059873
443.0, 0.003503261768409602
444.0, 0.006305081568318206
445.0, 0.011689247912200796
446.0, 0.015470857426502773
447.0, 0.016213805874289368
448.0, 0.018096189234468388
449.0, 0.021348575325881657
450.0, 0.019697390440616806
451.0, 0.01660749975225231
452.0, 0.01927698541536677
453.0, 0.021648238368740018
454.0, 0.00592189239092971
455.0, 0.0011724062623973703
456.0, 0.0029368928755022596
457.0, 0.007499331604129649
458.0, 0.01103095549803193
459.0, 0.013874351522133522
460.0, 0.01821722435168199
461.0, 0.018319829913542366
462.0, 0.011415559235818901
463.0, 0.010229436180717283
464.0, 0.013725188450395387
465.0, 0.014316317122551802
466.0, 0.008678550811727387
467.0, 0.010007546410943657
468.0, 0.0067236371692143936
469.0, 0.010848020511872804
470.0, 0.016588397367056276
471.0, 0.01958967940420901
472.0, 0.019736774218484285
473.0, 0.02118769468525578
474.0, 0.019208120626558793
475.0, 0.015493008625084898
476.0, 0.015589537568369224
477.0, 0.019771402197337445
478.0, 0.021819751175345767
479.0, 0.016330555811676827
480.0, 0.020390281017247488
481.0, 0.018707120784536735
482.0, 0.017761159320927023
483.0, 0.02003168853004786
484.0, 0.02442180470273256
485.0, 0.0297118671861877
486.0, 0.038102014210250106
487.0, 0.04061963582961398
488.0, 0.04514478329256786
489.0, 0.048482952875282405
490.0, 0.05439418003303249
491.0, 0.0622873182248591
492.0, 0.06578081281442646
493.0, 0.07090248363544067
494.0, 0.0789673927978466
495.0, 0.08345196774658262
496.0, 0.08647331682273003
497.0, 0.09287266094884254
498.0, 0.10191852508260596
499.0, 0.09621008250437971
500.0, 0.10782616547594942
501.0, 0.11347332320819002
502.0, 0.1274511949103677
503.0, 0.13998926391374195
504.0, 0.14344576182786808
505.0, 0.14611446407036324
506.0, 0.1538862186492175
507.0, 0.1569594936760337
508.0, 0.1636388356914529
509.0, 0.17245002194047174
510.0, 0.18378930218831563
511.0, 0.19538287841349258
512.0, 0.1906390430148112
513.0, 0.1970746845659458
514.0, 0.1982517613435065
515.0, 0.20685069249670524
516.0, 0.21896864911426675
517.0, 0.2285937635708235
518.0, 0.23650631925123713
519.0, 0.2448105187131495
520.0, 0.2574631706878017
521.0, 0.27514305085451574
522.0, 0.290699615098143
523.0, 0.30940256145488254
524.0, 0.3355629323047905
525.0, 0.34772874685631167
526.0, 0.37990317720969313
527.0, 0.4151464526682217
528.0, 0.4414083684960698
529.0, 0.46610925604738307
530.0, 0.49210343759457714
531.0, 0.5140515609038155
532.0, 0.5556302710057448
533.0, 0.5764240191356882
534.0, 0.6011226248861964
535.0, 0.6122593188785254
536.0, 0.6140230837761871
537.0, 0.6153119219483187
538.0, 0.6064876114241108
539.0, 0.6100016341995983
540.0, 0.6045248362761305
541.0, 0.5906427866971724
542.0, 0.5705290009128062
543.0, 0.5494110238372686
544.0, 0.5319646272728265
545.0, 0.5139740395038632
546.0, 0.4944261834738854
547.0, 0.4711682136422229
548.0, 0.4496382382417882
549.0, 0.4320229199894262
550.0, 0.41761570529376424
551.0, 0.40346974256724744
552.0, 0.38391957988650166
553.0, 0.37369821823464755
554.0, 0.35504154410677286
555.0, 0.3401696238624801
556.0, 0.3309771097631615
557.0, 0.3214608875566061
558.0, 0.3083160982659581
559.0, 0.30828074211795226
560.0, 0.29930234177477966
561.0, 0.2890168513341498
562.0, 0.28786103628869814
563.0, 0.2859202821386861
564.0, 0.2727902941305541
565.0, 0.28439126388374153
566.0, 0.2905206039655243
567.0, 0.2806521756520629
568.0, 0.28746015619782295
569.0, 0.294487301073407
570.0, 0.2949279343497636
571.0, 0.30440301333952047
572.0, 0.3111853867213029
573.0, 0.29384965288474496
574.0, 0.2938839221528042
575.0, 0.28926716820681775
576.0, 0.28555074142108317
577.0, 0.2878802270789221
578.0, 0.2785192743790851
579.0, 0.21753568164699855
580.0, 0.19920523517683195
581.0, 0.17332168866497272
582.0, 0.15166050902519693
583.0, 0.13762564602265664
584.0, 0.12439521486043167
585.0, 0.10396920932251655
586.0, 0.08752266129004001
587.0, 0.07481008759935781
588.0, 0.06258661556784399
589.0, 0.051896115951705804
590.0, 0.043099013560495586
591.0, 0.03484158661478341
592.0, 0.024853421377905756
593.0, 0.02061710649208478
594.0, 0.01654332005619116
595.0, 0.014082191351767824
596.0, 0.012142023145390231
597.0, 0.012219817341942725
598.0, 0.017249279222072252
599.0, 0.02733979161918807
600.0, 0.02612057147629186
601.0, 0.02606915273329764
602.0, 0.02927707756346407
603.0, 0.022939599480545664
604.0, 0.012957468254019373
605.0, 0.012321777200700322
606.0, 0.007467258373060497
607.0, 0.014162297268438408
608.0, 0.0059927363422753125
609.0, 0.006638422322694407
610.0, 0.01075395784567923
611.0, 0.01091730637845956
612.0, 0.006360237504291464
613.0, 0.0012980220296120216
614.0, 0.0036968334590589784
615.0, 0.002367568287313089
616.0, 0.0052951200524372554
617.0, 0.005183254970083448
618.0, 0.0024214335101884494
619.0, 0.003506099890873767
620.0, 0.004644847718764306
621.0, 0.007043891203053954
622.0, 0.005711564120015343
623.0, 0.007275641742990854
624.0, 0.009509569403278116
625.0, 0.0114753223160724
626.0, 0.01592423828574403
627.0, 0.025852800182992394
628.0, 0.01046813183593094
629.0, 0.012439743567059403
630.0, 0.011773961063745491
631.0, 0.016544332053485294
632.0, 0.021934294255258058
633.0, 0.019411294934398835
634.0, 0.024322476188900263
635.0, 0.029743857966089856
636.0, 0.035028625478753274
637.0, 0.035508654132641176
638.0, 0.03635625612583531
639.0, 0.03963616330635024
640.0, 0.04303504624260427
641.0, 0.04413794985978917
642.0, 0.0541578063985231
643.0, 0.0565140378427963
644.0, 0.06725172427371107
645.0, 0.06975307779548144
646.0, 0.06958047251909258
647.0, 0.07659657679242518
648.0, 0.08108468514772488
649.0, 0.08123131830820668
650.0, 0.08858626233519369
651.0, 0.09197711685344788
652.0, 0.10102448662409488
653.0, 0.11313816262939956
654.0, 0.12137881618981204
655.0, 0.12690008575517753
656.0, 0.14968012578070622
657.0, 0.16673567239234552
658.0, 0.17147256610150996
659.0, 0.18640075432978964
660.0, 0.20423785837186592
661.0, 0.22288784748426896
662.0, 0.25354050751963936
663.0, 0.28642791289293384
664.0, 0.325703265609025
665.0, 0.36619483118739377
666.0, 0.4069401129018945
667.0, 0.45887960651969406
668.0, 0.5194005570509668
669.0, 0.5824322467859514
670.0, 0.6640836764255852
671.0, 0.722196257105473
672.0, 0.8020970494942968
673.0, 0.8618104393552213
674.0, 0.9068259744098929
675.0, 0.9411742608868503
676.0, 0.9513260535733468
677.0, 0.9144893947602789
678.0, 0.8642542776476031
679.0, 0.7809570427353044
680.0, 0.6987230274314813
681.0, 0.6111369530063785
682.0, 0.5317490465365551
683.0, 0.46601994702209093
684.0, 0.40309656293732343
685.0, 0.3524548091888195
686.0, 0.3137226758539541
687.0, 0.2587871323423488
688.0, 0.22384712588606165
689.0, 0.2027515249080493
690.0, 0.18348220026425224
691.0, 0.1622044988798853
692.0, 0.14079397339306815
693.0, 0.12315200018377329
694.0, 0.12583922379867596
695.0, 0.13426027816293543
696.0, 0.12146288719044412
697.0, 0.10303070379011654
698.0, 0.09437744330107048
699.0, 0.08228417602286223
700.0, 0.08143908887274297
701.0, 0.07696202313925579
702.0, 0.07729873379172943
703.0, 0.06760864229387821
704.0, 0.06588345916729171
705.0, 0.07356417205875404
706.0, 0.07247809291983223
707.0, 0.059362129572611326
708.0, 0.05531782650658906
709.0, 0.06079943308674021
710.0, 0.05978084425811851
711.0, 0.05605965024465341
712.0, 0.05289312355536512
713.0, 0.05112199809567622
714.0, 0.052346777776195036
715.0, 0.06386639001126149
716.0, 0.05238731484180596
717.0, 0.057587043203560354
718.0, 0.0528037519712175
719.0, 0.04691513594395401
720.0, 0.04425918152791215
721.0, 0.0403517603973094
722.0, 0.03946831307188261
723.0, 0.03922115959911106
724.0, 0.038812313300668096
725.0, 0.04262413209626487
726.0, 0.04269040707862516
727.0, 0.04174635877419531
728.0, 0.04227822427923559
729.0, 0.041053069376006356
730.0, 0.03922344747809113
731.0, 0.04531922913210977
732.0, 0.04561565884190573
733.0, 0.04573739465300099
734.0, 0.044262901730352716
735.0, 0.04199196019344233
736.0, 0.03706657324234713
737.0, 0.02601756099907796
738.0, 0.03653267279010511
739.0, 0.042162798424029514
740.0, 0.04373817720948929
741.0, 0.031632044162848406
742.0, 0.026370597087578388
743.0, 0.02885829443251133
744.0, 0.025164496319588912
745.0, 0.02227417738684414
746.0, 0.03195788798458471
747.0, 0.01764930537444176
748.0, 0.021170167595562693
749.0, 0.023350024847007062
750.0, 0.020610158476104604
751.0, 0.022333776793469217
752.0, 0.030006567046143403
753.0, 0.019133697195671012
754.0, 0.023136706058873156
755.0, 0.01789797402842395
756.0, 0.018537968669876025
757.0, 0.010955252499489256
758.0, 0.006765880641652552
759.0, 0.010861689422908345
760.0, 0.009519809194003689
761.0, 0.012194700066576355
762.0, 0.01777119684694911
763.0, 0.018997731685019774
764.0, 0.014011689706858696
765.0, 0.01135235637886661
766.0, 0.015022985132328255
767.0, 0.021934132779040272
768.0, 0.02350719295131498
769.0, 0.008330272265133783
770.0, 0.017445225186713192
771.0, 0.014112237978216521
772.0, 0.010511211619295874
773.0, 0.010572988954942455
774.0, 0.012297452645140622
775.0, 0.014452030404725346
776.0, 0.017690012425254337
777.0, 0.012211073716719326
778.0, 0.015630373207995173
779.0, 0.013494800908194715
780.0, 0.014008472820809918
781.0, 0.01655985158206912
782.0, 0.017608762276399605
783.0, 0.017218098231111773
784.0, 0.018349875762007525
785.0, 0.012615217230248412
786.0, 0.013760502229759091
787.0, 0.01780175981565091
788.0, 0.02697457060546657
789.0, 0.028025355435585268
790.0, 0.027100074776481818
791.0, 0.02895766854012265
792.0, 0.024404982578859653
793.0, 0.03087678788229228
794.0, 0.022924890834883388
795.0, 0.026859272140165213
796.0, 0.026189523509243674
797.0, 0.03523402060536672
798.0, 0.0403836728459514
799.0, 0.035427452784414795
800.0, 0.03912389189571585
801.0, 0.03934516510012863
802.0, 0.02689105504455524
803.0, 0.027395451489701333
804.0, 0.025246561589649257
805.0, 0.028659153775311533
806.0, 0.02901500427280462
807.0, 0.023152204710691748
808.0, 0.019601869480198507
809.0, 0.011080606594173729
810.0, 0.010120683982772709
811.0, 0.01576340244332467
812.0, 0.0112206931988515
813.0, 0.007648355216237258
814.0, 0.008396565960905952
815.0, 0.007286634255957403
816.0, 0.0017775151791564183
817.0, 0.004254510723940686
818.0, 0.007076058938812874
819.0, 0.0023159595167814603
820.0, 0.007280878347666936
821.0, 0.012802140028994154
822.0, 0.012012045963668155
823.0, 0.012382128922271727
824.0, 0.01644462365143294
825.0, 0.008733448597830575
826.0, 0.00783219111210832
827.0, 0.004588262523104231
828.0, 0.006940018629837096
829.0, 0.016085895680419033
830.0, 0.012513538189814679
831.0, 0.00639894602145525
832.0, 0.01018907033849584
833.0, 0.013104036301430207
834.0, 0.008502536158913183
835.0, 0.004718414137274661
836.0, 0.011064511464811935
837.0, 0.00831478574660779
838.0, 0.009101111090022448
839.0, 0.014227749952113851
840.0, 0.014043042752599393
841.0, 0.0077121005904752385
842.0, 0.012802063065145183
843.0, 0.0063176680514421095
844.0, 0.0032762695573047397
845.0, 0.0061611642082702025
846.0, 0.012058495814318428
847.0, 0.011421146282182465
848.0, 0.006962423591068027
849.0, 0.005218351423178956
850.0, 0.005501910758096624
851.0, 0.009490083572743334
852.0, 0.004308563743410124
853.0, 0.0014570641357808784
854.0, 0.0037610296540214884
855.0, 0.008428850675061352
856.0, 0.006291214952290169
857.0, 0.0011002319065097385
858.0, 0.0031302919410110676
859.0, 0.007205804809649066
860.0, 0.012916530113104983
861.0, 0.01526283332202757
862.0, 0.028882337224030708
863.0, 0.02732243978550968
864.0, 0.024924430658107996
865.0, 0.028308043455138772
866.0, 0.025411594644364065
867.0, 0.01079609318492434
868.0, 0.01768418154863999
869.0, 0.02260478917715791
870.0, 0.018830520411878184
871.0, 0.020367582311259767
872.0, 0.021550439877186394
873.0, 0.02305518293115666
874.0, 0.023862760063050357
875.0, 0.02667923858403818
876.0, 0.03800594490728925
877.0, 0.037089649085050774
878.0, 0.0347773365751033
879.0, 0.042882787991402514
880.0, 0.04197503395540321
881.0, 0.053962249763495514
882.0, 0.057781324836916365
883.0, 0.05412366970910952
884.0, 0.0663212928983891
885.0, 0.07972871269123015
886.0, 0.059468170557788254
887.0, 0.06634733234905983
888.0, 0.07167959483063846
889.0, 0.0805189355193304
890.0, 0.0834063421311912
891.0, 0.0886713498051649
892.0, 0.0986479087051675
893.0, 0.10730454535538066
894.0, 0.12163282762395312
895.0, 0.11450144478205279
896.0, 0.12023544623874503
897.0, 0.13121100241243358
898.0, 0.127037417150667
899.0, 0.12522773275306862
900.0, 0.14085362042841706
901.0, 0.15857005753884812
902.0, 0.15754463461242288
903.0, 0.1604680386258464
904.0, 0.16639975485935268
905.0, 0.1798456942519302
906.0, 0.17594971554122507
907.0, 0.18817753990806488
908.0, 0.202309874786257
909.0, 0.21011580540248032
910.0, 0.21547124128769593
911.0, 0.2226466889975847
912.0, 0.23139453632414125
913.0, 0.2401220831366144
914.0, 0.24461355053069794
915.0, 0.2463721029120077
916.0, 0.2554723229126642
917.0, 0.2651705497525316
918.0, 0.2687117151257949
919.0, 0.26760309140050026
920.0, 0.27038346637562516
921.0, 0.281819622042844
922.0, 0.281348442885969
923.0, 0.2864991425862852
924.0, 0.27246574841236554
925.0, 0.2777382533401376
926.0, 0.2749496026526379
927.0, 0.271239067234088
928.0, 0.2724820974100801
929.0, 0.2665177279099249
930.0, 0.25474036546281303
931.0, 0.2568931032806932
932.0, 0.2580110049918799
933.0, 0.2561829617738853
934.0, 0.2573186538572399
935.0, 0.26194700939162735
936.0, 0.26182950311152275
937.0, 0.25521029750360985
938.0, 0.2549190009817881
939.0, 0.27002558338977756
940.0, 0.2676982382727151
941.0, 0.26374865148368143
942.0, 0.273796510179992
943.0, 0.2837991094799427
944.0, 0.2906652033162924
945.0, 0.2926478858791315
946.0, 0.3010846128533859
947.0, 0.31355349808851957
948.0, 0.3141585058670811
949.0, 0.3195458555463438
950.0, 0.34213514883367485
951.0, 0.35325605913910824
952.0, 0.36084264471110367
953.0, 0.38204125859139804
954.0, 0.3955859405813655
955.0, 0.4093422843990088
956.0, 0.4229320239802197
957.0, 0.4344736973559705
958.0, 0.4676094205858058
959.0, 0.49037646740205626
960.0, 0.5189379774112486
961.0, 0.5459608122945636
962.0, 0.5678710454595762
963.0, 0.606796184819302
964.0, 0.6349477384016068
965.0, 0.6598758016053886
966.0, 0.698219789060604
967.0, 0.7385867051686442
968.0, 0.780919613823984
969.0, 0.8197947686076383
970.0, 0.8635269856031044
971.0, 0.8969416270640619
972.0, 0.9218707322813909
973.0, 0.9546657037732686
974.0, 0.979348475330899
975.0, 0.9917123399452271
976.0, 0.9992757278115445
977.0, 0.9962503281146137
978.0, 0.9906949306117735
979.0, 0.9876732860636694
980.0, 0.9604177175892992
981.0, 0.9288068855859271
982.0, 0.8889461569891562
983.0, 0.8513034640756165
984.0, 0.8052983745916251
985.0, 0.7530342126313617
986.0, 0.7093571299944849
987.0, 0.668348740542627
988.0, 0.6349808824762919
989.0, 0.5921668212849281
990.0, 0.5457220455702355
991.0, 0.5074634339847465
992.0, 0.4685011896073379
993.0, 0.434532966651624
994.0, 0.4096102262969126
995.0, 0.3882989220680787
996.0, 0.360112544181803
997.0, 0.3257796126020591
998.0, 0.3216499376339658
999.0, 0.3094762841156784
1000.0, 0.2852329613908121
1001.0, 0.2805283567227137
1002.0, 0.26613624230588456
1003.0, 0.2518016035795741
1004.0, 0.23657961938599686
1005.0, 0.22237105418058967
1006.0, 0.21738637170617225
1007.0, 0.20693614731705814
1008.0, 0.19928232628304607
1009.0, 0.1970453974799085
1010.0, 0.2002822980389504
1011.0, 0.17943284900158082
1012.0, 0.177132571782476
1013.0, 0.17768049522353535
1014.0, 0.1669181905213775
1015.0, 0.15790902206747717
1016.0, 0.160922980442617
1017.0, 0.15957949875073807
1018.0, 0.16426322978508884
1019.0, 0.15364353765801428
1020.0, 0.15354399463551324
1021.0, 0.16569064912179976
1022.0, 0.16225311035338524
1023.0, 0.15725699358574027
1024.0, 0.15800144271966293
1025.0, 0.15399867918362067
1026.0, 0.14205976356974878
1027.0, 0.1388032493140255
1028.0, 0.14346493796740464
1029.0, 0.13815360922159534
1030.0, 0.15086684730182168
1031.0, 0.13907827272060252
1032.0, 0.14331328654918063
1033.0, 0.16382522858207774
1034.0, 0.17016019407520508
1035.0, 0.1672115811688185
1036.0, 0.16712147461595636
1037.0, 0.15889586190660696
1038.0, 0.16488401757634957
1039.0, 0.16578968060807991
1040.0, 0.17033053004275633
1041.0, 0.17629042610565618
1042.0, 0.1795138790842687
1043.0, 0.18723150690009133
1044.0, 0.19466129399016685
1045.0, 0.20078949277948874
1046.0, 0.2066969541602118
1047.0, 0.21046086140327425
1048.0, 0.21242973436029972
1049.0, 0.21815350813167544
1050.0, 0.2205812254974415
1051.0, 0.2240635955975813
1052.0, 0.2284614759952554
1053.0, 0.23488709986008824
1054.0, 0.2388590062063797
1055.0, 0.24649124815902365
1056.0, 0.2578257612121092
1057.0, 0.26575298386706736
1058.0, 0.2680540642814427
1059.0, 0.26842641545451845
1060.0, 0.27046244937370795
1061.0, 0.28206779338124655
1062.0, 0.3027007885596893
1063.0, 0.3168422042143214
1064.0, 0.32847550173773493
1065.0, 0.3299113310836815
1066.0, 0.33320407277449043
1067.0, 0.3385557404971228
1068.0, 0.3413754196872639
1069.0, 0.3504625281762885
1070.0, 0.34411025550568713
1071.0, 0.32669059809297357
1072.0, 0.3286865361036019
1073.0, 0.3335565948686861
1074.0, 0.3217214645277856
1075.0, 0.3171946173110396
1076.0, 0.32285140482057834
1077.0, 0.3272732202240373
1078.0, 0.31137943221275177
1079.0, 0.28790333566423904
1080.0, 0.2925429739701142
1081.0, 0.2753459326604535
1082.0, 0.27451639078018286
1083.0, 0.25078299164865775
1084.0, 0.25818203378604787
1085.0, 0.257473570372295
1086.0, 0.27082714700222404
1087.0, 0.27099361915711867
1088.0, 0.262868956071226
1089.0, 0.2629987682502934
1090.0, 0.26951167225725986
1091.0, 0.2767921019659913
1092.0, 0.28093640256368996
1093.0, 0.28794637237435977
1094.0, 0.2943246937297775
1095.0, 0.30286707888204056
1096.0, 0.3052615250094905
1097.0, 0.31152313057898084
1098.0, 0.3145348118798166
1099.0, 0.323656970817194
1100.0, 0.3344261382001071
1101.0, 0.3410908262592169
1102.0, 0.3549948162553563
1103.0, 0.3610227789707266
1104.0, 0.3500003249234487
1105.0, 0.3521412495936176
1106.0, 0.348282326023323
1107.0, 0.34881161681580075
1108.0, 0.352348092149451
1109.0, 0.3546795564245022
1110.0, 0.3592281151280155
1111.0, 0.3580533661939713
1112.0, 0.35549419643394137
1113.0, 0.3599404833744203
1114.0, 0.34942072422144393
1115.0, 0.3452310337523552
1116.0, 0.35561810197850025
1117.0, 0.35597839202284093
1118.0, 0.36458027640578555
1119.0, 0.3606034633263617
1120.0, 0.3669210565520314
1121.0, 0.36253682455666414
1122.0, 0.35525093859307466
1123.0, 0.360016600888902
1124.0, 0.36427544063646466
1125.0, 0.3542533522597268
1126.0, 0.3477928037668483
1127.0, 0.3418254885611017
1128.0, 0.3321179478066893
1129.0, 0.3250243293573311
1130.0, 0.319422256302542
1131.0, 0.31114978098617024
1132.0, 0.30761117123042186
1133.0, 0.30254683568436186
1134.0, 0.29628248019594633
1135.0, 0.29145532472554986
1136.0, 0.284980631931054
1137.0, 0.27746496437418255
1138.0, 0.2754712221800426
1139.0, 0.26930115287722667
1140.0, 0.2684850585238074
1141.0, 0.25529181658246985
1142.0, 0.25972261564543603
1143.0, 0.25140914807526943
1144.0, 0.24543194507304772
1145.0, 0.24182062930426515
1146.0, 0.23551016696252605
1147.0, 0.2288178912790613
1148.0, 0.22111723200666242
1149.0, 0.20876636840251628
1150.0, 0.20522283224086404
1151.0, 0.19676596139999905
1152.0, 0.2001186109796553
1153.0, 0.17928159260823032
1154.0, 0.16528865737543172
1155.0, 0.14760004271441662
1156.0, 0.13027593155138473
1157.0, 0.1128917716768106
1158.0, 0.09605845813050687
1159.0, 0.08498204210364728
1160.0, 0.0757715412251172
1161.0, 0.05998823255074906
1162.0, 0.05301550127112081
1163.0, 0.04224903211976833
1164.0, 0.028393405263857082
1165.0, 0.02424444949323484
1166.0, 0.017299221500202938
1167.0, 0.015024906172506928
1168.0, 0.012438540568119327
1169.0, 0.008044162732321466
1170.0, 0.00863898857174279
1171.0, 0.0073950396136412775
1172.0, 0.001798173125158131
1173.0, 0.006141998965614223
1174.0, 0.01541598214071555
1175.0, 0.011902143785458216
1176.0, 0.0074536295829337
1177.0, 0.003811860248283595
1178.0, 0.007012173194470389
1179.0, 0.004629076364793857
1180.0, 0.0013667909176558175
1181.0, 0.000729521284250178
1182.0, 0.004027841158879528
1183.0, 0.0073231461971242405
1184.0, 0.0068675097630113
1185.0, 0.006970359564082545
1186.0, 0.009447082835565154
1187.0, 0.0017586497261151757
1188.0, 0.004745862323195441
1189.0, 0.002965670373313853
1190.0, 0.006396496097062945
1191.0, 0.01206947467616363
1192.0, 0.01127384180468293
1193.0, 0.012326627714899004
1194.0, 0.008118065148658715
1195.0, 0.012971666534187047
1196.0, 0.01198863659461359
1197.0, 0.004336436373403217
1198.0, 0.006331615859398667
1199.0, 0.004613724409545897
1200.0, 0.013346822785690127
1201.0, 0.0027697278829245126
1202.0, 0.00559412843377392
1203.0, 0.00393632263427744
1204.0, 0.011019347101804496
1205.0, 0.008187602131593847
1206.0, 0.004050427995885716
1207.0, 0.001758208130834168
1208.0, 0.0005675612164427148
1209.0, 0.008797196222425942
1210.0, 0.011940653442471581
1211.0, 0.001673397834566348
1212.0, 0.0037479017958720355
1213.0, 0.004626658971999369
1214.0, 0.010182991946448231
1215.0, 0.0023027111702026274
1216.0, 0.00236827660970994
1217.0, 0.009863627621824411
1218.0, 0.004397746834538257
1219.0, 0.003482848729242715
1220.0, 0.0031123467843412744
1221.0, 0.005049769571977504
1222.0, 0.005665823470170845
1223.0, 0.005575126199364594
1224.0, 0.007286610621823318
1225.0, 0.006584725109683526
1226.0, 0.004860914662801193
1227.0, 0.00874507334864072
1228.0, 0.01578861152422315
1229.0, 0.03847193214524586
1230.0, 0.04294651081067302
1231.0, 0.022281788240629798
1232.0, 0.007441088597140133
1233.0, 0.004247143042527766
1234.0, 0.0071374261587980724
1235.0, 0.005372769079893341
1236.0, 0.006923585099265043
1237.0, 0.009145053990662679
1238.0, 0.0041665230825787365
1239.0, 0.005613608099320206
1240.0, 0.0126265155389103
1241.0, 0.007236289445317897
1242.0, 0.002445128970031157
1243.0, 0.006176272640455481
1244.0, 0.0019425370476146321
1245.0, 0.006411624988205091
1246.0, 0.003958996205898895
1247.0, 0.005609264960046217
1248.0, 0.0034859890348535837
1249.0, 0.0034749018108747756
1250.0, 0.007694268042819282
1251.0, 0.010739205266794392
1252.0, 0.012129829985114091
1253.0, 0.01470750568343652
1254.0, 0.017668254795485044
1255.0, 0.020213669470003522
1256.0, 0.01598918680443097
1257.0, 0.01628543398284044
1258.0, 0.012560149596166064
1259.0, 0.00815995192572042
1260.0, 0.013209311807002709
1261.0, 0.01098196974680627
1262.0, 0.007697408964755971
1263.0, 0.005222199339693462
1264.0, 0.0020563196027853724
1265.0, 0.00520534310395497
1266.0, 0.011766767498808875
1267.0, 0.010034117986947751
1268.0, 0.00912710526925163
1269.0, 0.016563654888952593
1270.0, 0.014454254150063794
1271.0, 0.021287157971887592
1272.0, 0.014018313657910073
1273.0, 0.017005001879837722
1274.0, 0.011303638813493548
1275.0, 0.009688603782931867
1276.0, 0.007639042779641175
1277.0, 0.010012060045466207
1278.0, 0.008132400722077533
1279.0, 0.006201391275387475
1280.0, 0.012607012361518163
1281.0, 0.016253431084313194
1282.0, 0.009399689011758233
1283.0, 0.011882729557790878
1284.0, 0.02442720223038414
1285.0, 0.020429183263253773
1286.0, 0.025508637922570264
1287.0, 0.020179720829121818
1288.0, 0.017024211932818552
1289.0, 0.026666961028304723
1290.0, 0.029126949222705298
1291.0, 0.028531929189304854
1292.0, 0.022710413178030832
1293.0, 0.013012145455261586
1294.0, 0.01209542618796836
1295.0, 0.013455623446690056
1296.0, 0.015899225531243285
1297.0, 0.022626887705464102
1298.0, 0.01711421593912889
1299.0, 0.02449381415242634
1300.0, 0.017825032174997854
1301.0, 0.016722092639543946
1302.0, 0.02258927326693535
1303.0, 0.014947263892139195
1304.0, 0.011343097049076116
1305.0, 0.01493367751601502
1306.0, 0.013654767268574404
1307.0, 0.010892348689390223
1308.0, 0.011456006887225716
1309.0, 0.007275090859094112
1310.0, 0.0065016857586861244
1311.0, 0.009864796288263452
1312.0, 0.010951016827197355
1313.0, 0.013779837516904111
1314.0, 0.012623718184871402
1315.0, 0.01866240298299795
1316.0, 0.02833577347087246
1317.0, 0.02166239562840867
1318.0, 0.03189899169008772
1319.0, 0.02011308789432395
1320.0, 0.022479533532529947
1321.0, 0.020388714810063314
1322.0, 0.025045312888394036
1323.0, 0.024037441037821135
1324.0, 0.018594181606690574
1325.0, 0.01625681759701624
1326.0, 0.020932640161942646
1327.0, 0.019043647921060773
1328.0, 0.012981694022090083
1329.0, 0.01655251046235459
1330.0, 0.0134490893704221
1331.0, 0.016078682399899624
1332.0, 0.020023702226588374
1333.0, 0.01335191685519338
1334.0, 0.023290652212002102
1335.0, 0.026229626364398087
1336.0, 0.023544830410291914
1337.0, 0.01734774682472076
1338.0, 0.010282683446224282
1339.0, 0.01933296536610975
1340.0, 0.020293124779436372
1341.0, 0.017134344463535272
1342.0, 0.022339142389701014
1343.0, 0.02196054068503887
1344.0, 0.02036659974876389
1345.0, 0.021745171408837482
1346.0, 0.009921506026990306
1347.0, 0.006782848730611972
1348.0, 0.009313638862122525
1349.0, 0.023412819908360135
1350.0, 0.013825151685838564
1351.0, 0.01953113257144951
1352.0, 0.025765545895679375
1353.0, 0.017223179350590073
1354.0, 0.02021221258985715
1355.0, 0.008348197727517201
1356.0, 0.00930188393583657
1357.0, 0.004338293333997178
1358.0, 0.0046367737061666
1359.0, 0.007630180376911014
1360.0, 0.010094800057978129
1361.0, 0.012377942909048884
1362.0, 0.012363890198093572
1363.0, 0.013088291700831138
1364.0, 0.0147903296784355
1365.0, 0.01241679933968124
1366.0, 0.006342234701938468
1367.0, 0.0016549975476853364
1368.0, 0.013794544173742932
1369.0, 0.006173966633086142
1370.0, 0.016617772219267433
1371.0, 0.01679424534639944
1372.0, 0.0051125262664997295
1373.0, 0.004750262739498541
1374.0, 0.00716773585759977
1375.0, 0.010576746233390309
1376.0, 0.007583859829124019
1377.0, 0.007483070210094686
1378.0, 0.009261385519153256
1379.0, 0.007141521054765881
1380.0, 0.010727666607933117
1381.0, 0.01417078454041421
1382.0, 0.005617807935870146
1383.0, 0.013400229786158527
1384.0, 0.014724544789946673
1385.0, 0.007500496964942489
1386.0, 0.010580552837592835
1387.0, 0.006639428567969043
1388.0, 0.005964951776280189
1389.0, 0.0025580482475531857
1390.0, 0.0012047224540020845
1391.0, 0.017261555216545335
1392.0, 0.008647059180535637
1393.0, 0.0052552574065296105
1394.0, 0.008833798201653137
1395.0, 0.004451296229690108
1396.0, 0.0017253662679211255
1397.0, 0.008923588598195397
1398.0, 0.015920098251906396
1399.0, 0.013738745930763827
1400.0, 0.01308410947796327
1401.0, 0.020063880289789438
1402.0, 0.01576410086399516
1403.0, 0.022366065902500627
1404.0, 0.012883299977334915
1405.0, 0.0030949535013663197
1406.0, 0.00459565412196606
1407.0, 0.010918629662120477
1408.0, 0.006237022877264794
1409.0, 0.019675235967433532
1410.0, 0.01047645519177243
1411.0, 0.021669352387987725
1412.0, 0.019419947624867945
1413.0, 0.016769219750021654
1414.0, 0.008963194433745679
1415.0, 0.0135877719756956
1416.0, 0.018063853716530312
1417.0, 0.015773375646852685
1418.0, 0.011447315484845502
1419.0, 0.007230840336973477
1420.0, 0.008250122261409358
1421.0, 0.0024325304329497993
1422.0, 0.0012543308790187967
1423.0, 0.005649746086506829
1424.0, 0.011046422346281339
1425.0, 0.01107785526005024
1426.0, 0.020406023946827036
1427.0, 0.020608331511150182
1428.0, 0.01497530576402827
1429.0, 0.012616529109090427
1430.0, 0.017985963858169828
1431.0, 0.011831687930372342
1432.0, 0.008981374208447912
1433.0, 0.015554721041167584
1434.0, 0.023151659597468194
1435.0, 0.010506270555018377
1436.0, 0.009773637523612402
1437.0, 0.013104596836128952
1438.0, 0.005682852728333425
1439.0, 0.010845932827919706
1440.0, 0.015069757501467242
1441.0, 0.005983736893310722
1442.0, 0.014350892610987398
1443.0, 0.006619260112764966
1444.0, 0.012953992969266196
1445.0, 0.0020021507170682514
1446.0, 0.012879133471206311
1447.0, 0.01627970704696049
1448.0, 0.0047477362216381035
1449.0, 0.014479789216121867
1450.0, 0.01354118123498128
1451.0, 0.02568229011630893
1452.0, 0.014464688721429989
1453.0, 0.018823729883852464
1454.0, 0.012998712515729281
1455.0, 0.005316149732319361
1456.0, 0.00959819343396806
1457.0, 0.010676111345700744
1458.0, 0.008403610074933418
1459.0, 0.0062151430941647014
1460.0, 0.01148999709919627
1461.0, 0.01717050308193934
1462.0, 0.013975639876759517
1463.0, 0.010196649678772408
1464.0, 0.009288691017264577
1465.0, 0.018977971303859253
1466.0, 0.010927810651593537
1467.0, 0.012324101693240075
1468.0, 0.008833928450914158
1469.0, 0.014103798785033423
1470.0, 0.008775504938456916
1471.0, 0.01913674284075769
1472.0, 0.00824466788093544
1473.0, 0.01027576850792148
1474.0, 0.0027773178987886295
1475.0, 0.010087691996253206
1476.0, 0.017911506176904627
1477.0, 0.02122681804238775
1478.0, 0.008114230868195908
1479.0, 0.008025177131202097
1480.0, 0.008818522869143527
1481.0, 0.005611311992769607
1482.0, 0.010977677690976937
1483.0, 0.008633397759097798
1484.0, 0.005957090750728663
1485.0, 0.012911235974403183
1486.0, 0.015729848522513374
1487.0, 0.017791473554759515
1488.0, 0.013808232851236875
1489.0, 0.015018114055264487
1490.0, 0.022877884766446595
1491.0, 0.024335896154761772
1492.0, 0.01725700689421067
1493.0, 0.007965301208659804
1494.0, 0.021503878841465505
1495.0, 0.02204909251702938
1496.0, 0.015792931783735132
1497.0, 0.009895099925515558
1498.0, 0.007803525694840476
1499.0, 0.005855193727431252
1500.0, 0.009008877472187536
1501.0, 0.0052614122704715376
1502.0, 0.007554819077294367
1503.0, 0.005086531790334671
1504.0, 0.010051012115943716
1505.0, 0.009169444845510594
1506.0, 0.006572900282194027
1507.0, 0.010979147180265141
1508.0, 0.014579157884551623
1509.0, 0.014029635951082102
1510.0, 0.010667820912039883
1511.0, 0.007935999275412964
1512.0, 0.006691474317503745
1513.0, 0.004396657298517259
1514.0, 0.011162034371887123
1515.0, 0.017360516813493078
1516.0, 0.011865580972713076
1517.0, 0.010969897902865438
1518.0, 0.0013266121122962886
1519.0, 0.007180393097649119
1520.0, 0.0011448499172972068
1521.0, 0.013749531640005837
1522.0, 0.021007876675275414
1523.0, 0.022888544881022925
1524.0, 0.004505179763487395
1525.0, 0.010895162317759546
1526.0, 0.00928728687086947
1527.0, 0.006204257767369369
1528.0, 0.01553791033145219
1529.0, 0.005477917377796847
1530.0, 0.01046334400166269
1531.0, 0.014290310731870523
1532.0, 0.0184687820860502
1533.0, 0.017156142529215726
1534.0, 0.014057957737134636
1535.0, 0.018603214819117544
1536.0, 0.024502781223328808
1537.0, 0.02279076879610473
1538.0, 0.022300358813889594
1539.0, 0.018624407020111717
1540.0, 0.01028479138934876
1541.0, 0.01016377487569979
1542.0, 0.004420620919673113
1543.0, 0.004240498699886333
1544.0, 0.014203094641400835
1545.0, 0.020161765533798177
1546.0, 0.017897010146434543
1547.0, 0.0033137645089605585
1548.0, 0.009997046282971723
1549.0, 0.007185617297599045
1550.0, 0.004981527579682205
1551.0, 0.016030616227986454
1552.0, 6.250961297551115e-05
1553.0, 0.011835643056114186
1554.0, 0.012903705861413577
1555.0, 0.01837624279488614
1556.0, 0.014275194034792962
1557.0, 0.011910035930174442
1558.0, 0.019352810570190525
1559.0, 0.023686077037398688
1560.0, 0.019468507585729034
1561.0, 0.02250168534240475
1562.0, 0.012622169908360502
1563.0, 0.009838459778107001
1564.0, 0.008638662946053415
1565.0, 0.009502965650628881
1566.0, 0.025225851673045963
1567.0, 0.02131805239666175
1568.0, 0.004894709832996567
1569.0, 0.0005479436505039217
1570.0, 4.23399155438314e-05
1571, 0.0
1572, 0.0
1573, 0.0
1574, 0.0
1575, 0.0
1576, 0.0
1577, 0.0
1578, 0.0
1579, 0.0
1580, 0.0
1581, 0.0
1582, 0.0
1583, 0.0
1584, 0.0
1585, 0.0
1586, 0.0
1587, 0.0
1588, 0.0
1589, 0.0
1590, 0.0
1591, 0.0
1592, 0.0
1593, 0.0
1594, 0.0
1595, 0.0
1596, 0.0
1597, 0.0
1598, 0.0
1599, 0.0
