30, 0.0
31, 0.0
32, 0.0
33, 0.0
34, 0.0
35, 0.0
36, 0.0
37, 0.0
38, 0.0
39, 0.0
40, 0.0
41, 0.0
42, 0.0
43, 0.0
44, 0.0
45, 0.0
46, 0.0
47, 0.0
48, 0.0
49, 0.0
50, 0.0
51, 0.0
52, 0.0
53, 0.0
54, 0.0
55, 0.0
56, 0.0
57, 0.0
58, 0.0
59, 0.0
60, 0.0
61, 0.0
62, 0.0
63, 0.0
64, 0.0
65, 0.0
66, 0.0
67, 0.0
68, 0.0
69, 0.0
70, 0.0
71, 0.0
72, 0.0
73, 0.0
74, 0.0
75, 0.0
76, 0.0
77, 0.0
78, 0.0
79, 0.0
80, 0.0
81, 0.0
82, 0.0
83, 0.0
84, 0.0
85, 0.0
86, 0.0
87, 0.0
88, 0.0
89, 0.0
90, 0.0
91, 0.0
92, 0.0
93, 0.0
94, 0.0
95, 0.0
96, 0.0
97, 0.0
98, 0.0
99, 0.0
100, 0.0
101, 0.0
102, 0.0
103, 0.0
104, 0.0
105, 0.0
106, 0.0
107, 0.0
108, 0.0
109, 0.0
110, 0.0
111, 0.0
112, 0.0
113, 0.0
114, 0.0
115, 0.0
116.0, 0.0050737177806843056
117.0, 0.012064886015339962
118.0, 0.02824592717528484
119.0, 0.029448718827658354
120.0, 0.0248117385730576
121.0, 0.023097091676781877
122.0, 0.02743857348852275
123.0, 0.04541963449731609
124.0, 0.05033966770924647
125.0, 0.04418478325646551
126.0, 0.04013164003841765
127.0, 0.03718949934343116
128.0, 0.03985575788617261
129.0, 0.04250204083500354
130.0, 0.04123644988964397
131.0, 0.04610006322052792
132.0, 0.04656007122293937
133.0, 0.04392403775401484
134.0, 0.04601968065432152
135.0, 0.05142896683208097
136.0, 0.048103539852714323
137.0, 0.051128535782891206
138.0, 0.05459325851745998
139.0, 0.05584170556502251
140.0, 0.05716867945430865
141.0, 0.04461112479585885
142.0, 0.02779419051583081
143.0, 0.02073474976975055
144.0, 0.015786680813787334
145.0, 0.012397069841048509
146.0, 0.010734581553545848
147.0, 0.008572929031536641
148.0, 0.0015581186291476544
149.0, 0.0024929187452202204
150.0, 0.0011435630637759895
151.0, 0.007990468093622118
152.0, 0.003864276049241274
153.0, 0.004925751648910748
154.0, 0.0025341821750167657
155.0, 0.00046091130187798506
156.0, 0.003788180671937276
157.0, 0.007489308758780611
158.0, 0.01259024671312245
159.0, 0.011894218176840402
160.0, 0.0046730952656489355
161.0, 0.00193924697936763
162.0, 0.0008143123220952427
163.0, 0.006639586007724286
164.0, 0.014897451970243244
165.0, 0.012091907871827201
166.0, 0.011110946655198968
167.0, 0.015070726878448654
168.0, 0.021639941453450193
169.0, 0.02749093141116422
170.0, 0.03167772102102229
171.0, 0.03625031627806899
172.0, 0.037996113446502576
173.0, 0.04043819966591178
174.0, 0.05331864062020879
175.0, 0.06264292665278862
176.0, 0.07417086803592303
177.0, 0.08424624069671235
178.0, 0.08621720155329551
179.0, 0.09602851351979728
180.0, 0.10874239574221946
181.0, 0.1189519263693458
182.0, 0.1267903879276372
183.0, 0.14083361766234226
184.0, 0.14707062173111465
185.0, 0.15929720615429932
186.0, 0.17551047691424965
187.0, 0.17831041450124493
188.0, 0.195447271294471
189.0, 0.21147155839148243
190.0, 0.21994503242496266
191.0, 0.2249132265661924
192.0, 0.23401807014847353
193.0, 0.23788719540322734
194.0, 0.24530646686599714
195.0, 0.2585908207193683
196.0, 0.26469565353697877
197.0, 0.274751247682362
198.0, 0.27760311455216924
199.0, 0.2777934942917787
200.0, 0.2870619413517476
201.0, 0.2881909777008992
202.0, 0.290004766509735
203.0, 0.290632286748338
204.0, 0.2884391353832596
205.0, 0.29117884858904514
206.0, 0.2924503998158057
207.0, 0.29316511068783
208.0, 0.29348251642766093
209.0, 0.2920645066677129
210.0, 0.2885528553006468
211.0, 0.28223766228642955
212.0, 0.2784764355909328
213.0, 0.280280298676889
214.0, 0.2809692963096512
215.0, 0.2775315323042162
216.0, 0.2784639644603564
217.0, 0.2795779653849606
218.0, 0.2668838917456443
219.0, 0.26409203275061943
220.0, 0.25692852429640733
221.0, 0.2481672835576062
222.0, 0.2442962743230978
223.0, 0.241342324098513
224.0, 0.2322724651894398
225.0, 0.2177120456271156
226.0, 0.204414648002525
227.0, 0.20020113916235505
228.0, 0.19000064651838558
229.0, 0.1767012127526122
230.0, 0.16485201004632005
231.0, 0.15495683791450732
232.0, 0.1391037288700801
233.0, 0.13186945310664003
234.0, 0.122693490198502
235.0, 0.110234344771689
236.0, 0.10294996150928314
237.0, 0.0946247446799424
238.0, 0.08721709802421197
239.0, 0.08427460895498792
240.0, 0.08348313267867827
241.0, 0.07044758736501681
242.0, 0.06600514150962557
243.0, 0.059055444293545825
244.0, 0.04910415763019595
245.0, 0.046361838800096034
246.0, 0.03387453981717772
247.0, 0.035074142322344445
248.0, 0.03524242221116197
249.0, 0.02322848896197969
250.0, 0.0195512105839969
251.0, 0.020552009762628408
252.0, 0.01291493215611954
253.0, 0.0038955473591482863
254.0, 0.00860203660698576
255.0, 0.00774396172540781
256.0, 0.008460222568762632
257.0, 0.011186692219558196
258.0, 0.012954464437456284
259.0, 0.010637815763953302
260.0, 0.01706137818431506
261.0, 0.014206562696261062
262.0, 0.00901567840497255
263.0, 0.013231082123160258
264.0, 0.009930347223477924
265.0, 0.01428712464566061
266.0, 0.017220907389207032
267.0, 0.018988040781235137
268.0, 0.030326785438108808
269.0, 0.027818006672911448
270.0, 0.03374545726684592
271.0, 0.04328728459390308
272.0, 0.04656674514240627
273.0, 0.04993144475406103
274.0, 0.05486883667468797
275.0, 0.0648897519681999
276.0, 0.07310451195834466
277.0, 0.07175183654599168
278.0, 0.07839505102449845
279.0, 0.09191633981183778
280.0, 0.1034856958890238
281.0, 0.10808948112878855
282.0, 0.10860794980638036
283.0, 0.11137730538387763
284.0, 0.11762917540505613
285.0, 0.12667125071275917
286.0, 0.13657735276091815
287.0, 0.1423976488521623
288.0, 0.15007413394319732
289.0, 0.15686464661890284
290.0, 0.15882314095368089
291.0, 0.1573694203173728
292.0, 0.16757631199878567
293.0, 0.17347219382948548
294.0, 0.17482940850980933
295.0, 0.1764659461610324
296.0, 0.17932374813966015
297.0, 0.18141582056947417
298.0, 0.1792612074513759
299.0, 0.1799738956036433
300.0, 0.18414975786965454
301.0, 0.1720158700336478
302.0, 0.17138742399177098
303.0, 0.17139144117742605
304.0, 0.17199573871606522
305.0, 0.17734697297999974
306.0, 0.16890800513814735
307.0, 0.16921017060619833
308.0, 0.16867134411587437
309.0, 0.1650796146004461
310.0, 0.16780704259594395
311.0, 0.1598531558415134
312.0, 0.15492264415681944
313.0, 0.15078067048816451
314.0, 0.14495740751360908
315.0, 0.1447642590748911
316.0, 0.13600547337513996
317.0, 0.13147455814724626
318.0, 0.1273409776597452
319.0, 0.11707386632122875
320.0, 0.11006534033779884
321.0, 0.10297692052617441
322.0, 0.09703102555096753
323.0, 0.09085971354538558
324.0, 0.08278632734513008
325.0, 0.07768695829563303
326.0, 0.07763845053174946
327.0, 0.0737938115558128
328.0, 0.06478202151930386
329.0, 0.05681842561680406
330.0, 0.054866604283036705
331.0, 0.048797246921196906
332.0, 0.04108276484904141
333.0, 0.03717687514946969
334.0, 0.039291359568737756
335.0, 0.03769544292207809
336.0, 0.03508576645244207
337.0, 0.03445842869893832
338.0, 0.034884483314956076
339.0, 0.030545160321201432
340.0, 0.024276741807283522
341.0, 0.021263075418745354
342.0, 0.021734191128280397
343.0, 0.022430601933159756
344.0, 0.01859557756234318
345.0, 0.01696733086981847
346.0, 0.011720335293869443
347.0, 0.005249908212223711
348.0, 0.005397572001066875
349.0, 0.007985391609391096
350.0, 0.004776593682253816
351.0, 0.000668460293961835
352.0, 0.002517771619612509
353.0, 0.0026363769430666245
354.0, 0.0030551669302890556
355.0, 0.0050773915438760975
356.0, 0.0037951370234173675
357.0, 0.00098139049169172
358.0, 0.004020179494729069
359.0, 0.0008858711688096576
360.0, 0.0021579203084596942
361.0, 0.005422288070187557
362.0, 0.00772888242505296
363.0, 0.014914249243249668
364.0, 0.010188894897450802
365.0, 0.006975052125877006
366.0, 0.006643118117400957
367.0, 0.006939632117534562
368.0, 0.009956923166805064
369.0, 0.010584289770528091
370.0, 0.010137160517457404
371.0, 0.0088312058868038
372.0, 0.008091870077433007
373.0, 0.012310619315839728
374.0, 0.006249686070387662
375.0, 0.0016457970146899396
376.0, 0.003868632924149173
377.0, 0.004529547649232254
378.0, 0.014374471543620097
379.0, 0.02164056497004533
380.0, 0.025893844364389303
381.0, 0.028763689303252696
382.0, 0.030412586071124705
383.0, 0.029899599433268448
384.0, 0.047118782305401175
385.0, 0.058201568449068694
386.0, 0.06106640612694576
387.0, 0.06906735517419589
388.0, 0.07960729270890302
389.0, 0.08334477487128164
390.0, 0.08996396673155396
391.0, 0.09729983260277265
392.0, 0.1003374405060353
393.0, 0.10873857910577384
394.0, 0.11858908826073379
395.0, 0.12759511797561157
396.0, 0.13896894397458137
397.0, 0.1539327326743281
398.0, 0.1577493707255138
399.0, 0.17356100735029853
400.0, 0.18642305386594732
401.0, 0.19663955590126542
402.0, 0.21363884105174133
403.0, 0.2315003619458441
404.0, 0.2393140528422786
405.0, 0.25045183182255015
406.0, 0.2621549904104649
407.0, 0.2656354225583887
408.0, 0.27590491930777816
409.0, 0.2853122345919684
410.0, 0.29558256562606994
411.0, 0.3070195201881159
412.0, 0.3180189506044594
413.0, 0.3289489814806745
414.0, 0.3348534511230639
415.0, 0.3411283432597608
416.0, 0.35369595867756354
417.0, 0.37019777941712084
418.0, 0.3736767353904253
419.0, 0.3782797253453993
420.0, 0.3878042440541678
421.0, 0.3915806956646016
422.0, 0.3852310544624031
423.0, 0.38246174958981516
424.0, 0.38449985198549264
425.0, 0.37722492306501737
426.0, 0.3685924890284817
427.0, 0.36807667607526284
428.0, 0.36458287399893263
429.0, 0.3591326616824889
430.0, 0.351967964673059
431.0, 0.3421769216437062
432.0, 0.3344673789649322
433.0, 0.3350313295218045
434.0, 0.3197948493259156
435.0, 0.31201647188799186
436.0, 0.3118228398349853
437.0, 0.30959793756630455
438.0, 0.30253793832018294
439.0, 0.30419693323699265
440.0, 0.30413279090500267
441.0, 0.30298183546757657
442.0, 0.30282269828970226
443.0, 0.30129895963244124
444.0, 0.2983625569821431
445.0, 0.29812209642442905
446.0, 0.29879244633982477
447.0, 0.2993288928072653
448.0, 0.30087964623585944
449.0, 0.30885718862112593
450.0, 0.3095446275343018
451.0, 0.3078382687667834
452.0, 0.3111468589859625
453.0, 0.3228120855814101
454.0, 0.335565758693228
455.0, 0.3436513568530191
456.0, 0.3411216395720962
457.0, 0.33700563571649483
458.0, 0.3408780019291914
459.0, 0.3441231069045707
460.0, 0.33782115653931843
461.0, 0.33052156533793065
462.0, 0.3266181518796064
463.0, 0.32536313412935314
464.0, 0.3241548419371707
465.0, 0.31079378249414763
466.0, 0.29799397907075637
467.0, 0.2897665974396223
468.0, 0.2822667075964876
469.0, 0.26914217411186414
470.0, 0.2578673456391173
471.0, 0.2426578298805272
472.0, 0.2268609105844473
473.0, 0.2146016644703387
474.0, 0.20444810281712364
475.0, 0.19022991544280612
476.0, 0.17192383905255976
477.0, 0.15623036298006285
478.0, 0.14478101615097638
479.0, 0.13484055811681794
480.0, 0.12640631126208543
481.0, 0.11905716585856173
482.0, 0.11137641722395503
483.0, 0.1072681811530933
484.0, 0.10515380232725703
485.0, 0.09904485880826693
486.0, 0.09751189132269786
487.0, 0.09014559261236732
488.0, 0.08479635171815027
489.0, 0.08398954913063275
490.0, 0.08020067179067489
491.0, 0.07555758444956155
492.0, 0.07446624681888718
493.0, 0.07096202296650839
494.0, 0.06550048303739417
495.0, 0.06262014684025546
496.0, 0.05859091605289232
497.0, 0.056866861974148294
498.0, 0.05850382934095884
499.0, 0.05917587664848765
500.0, 0.056602592132054826
501.0, 0.05390639225005173
502.0, 0.05330492762315358
503.0, 0.05646012308935183
504.0, 0.05874547737172016
505.0, 0.060035616264095995
506.0, 0.06294131586398226
507.0, 0.055094950886804696
508.0, 0.05211713727422922
509.0, 0.05431312096938168
510.0, 0.05585367926819821
511.0, 0.05441554378214322
512.0, 0.0541031801019632
513.0, 0.04830157719632553
514.0, 0.04633489695468045
515.0, 0.04510522675116134
516.0, 0.04211733314708936
517.0, 0.04235103960088795
518.0, 0.03684578793081482
519.0, 0.03467828436105073
520.0, 0.027530554127355486
521.0, 0.020182424969710403
522.0, 0.023261047447285202
523.0, 0.02195424663614048
524.0, 0.011843534899625942
525.0, 0.010045134515744694
526.0, 0.013927303791561051
527.0, 0.010807054058021263
528.0, 0.002485190397370673
529.0, 0.0027049351660472223
530.0, 0.005638836643065181
531.0, 0.004881187082274398
532.0, 0.0035988505862253697
533.0, 0.011075731872534762
534.0, 0.010011399133682469
535.0, 0.009641942260622668
536.0, 0.012107724567981306
537.0, 0.01692258822067914
538.0, 0.020467872739040435
539.0, 0.01853310560736267
540.0, 0.024763432300644452
541.0, 0.01683208616275361
542.0, 0.010782914316699643
543.0, 0.012544188487097903
544.0, 0.01100938075665265
545.0, 0.01142890901576988
546.0, 0.007656114229607294
547.0, 0.004617948337282631
548.0, 0.010502740915237967
549.0, 0.005962749222731093
550.0, 0.014958781874783092
551.0, 0.026402311136326538
552.0, 0.02914833944558258
553.0, 0.03145357764104949
554.0, 0.037419863519859355
555.0, 0.04483671784492868
556.0, 0.056308893798779625
557.0, 0.06698158842101812
558.0, 0.077928776508209
559.0, 0.0944644533721982
560.0, 0.112291748352261
561.0, 0.1210781409794179
562.0, 0.13850027286881092
563.0, 0.14876855063723457
564.0, 0.15802426053208107
565.0, 0.17013935254380874
566.0, 0.1830603127481696
567.0, 0.19578362867621393
568.0, 0.21655675055731535
569.0, 0.23019845725465682
570.0, 0.24011565885632816
571.0, 0.25095953323997716
572.0, 0.2622979146649416
573.0, 0.2774985474097827
574.0, 0.2905091241052986
575.0, 0.3001485421249594
576.0, 0.30875170969456095
577.0, 0.31506366015325765
578.0, 0.3150929206646564
579.0, 0.32191785673446943
580.0, 0.32710501577022166
581.0, 0.3297951454592863
582.0, 0.3378996097341658
583.0, 0.35026661558368816
584.0, 0.3465573386210385
585.0, 0.35466657192663287
586.0, 0.36515814961219767
587.0, 0.3675988108834717
588.0, 0.3661296160909788
589.0, 0.3710894335941628
590.0, 0.37649861663148976
591.0, 0.3795442732645634
592.0, 0.3800098122262525
593.0, 0.38412565740426535
594.0, 0.3885840656495337
595.0, 0.3836157345828174
596.0, 0.3831861952906811
597.0, 0.38848926618497287
598.0, 0.3865602013667505
599.0, 0.381616875185394
600.0, 0.37922799788232736
601.0, 0.37488045717476415
602.0, 0.3738494604932449
603.0, 0.3641884524296347
604.0, 0.3498117974600826
605.0, 0.34030913639063703
606.0, 0.336365638204578
607.0, 0.3274376099267948
608.0, 0.30955248580951966
609.0, 0.29837074543867054
610.0, 0.28534189428732054
611.0, 0.26925451934782435
612.0, 0.2563049231299708
613.0, 0.24248851744650876
614.0, 0.23140378734382278
615.0, 0.21437948399950646
616.0, 0.19607426293468733
617.0, 0.1816301689330047
618.0, 0.17169214174948474
619.0, 0.1685920744421574
620.0, 0.15876986471493554
621.0, 0.15323475006954407
622.0, 0.14543409375205946
623.0, 0.13643956853600597
624.0, 0.13755016286655006
625.0, 0.12980582860247009
626.0, 0.13423758198311975
627.0, 0.13488624801293092
628.0, 0.13189308906222794
629.0, 0.13266692815335546
630.0, 0.1353884539004624
631.0, 0.12949514953263289
632.0, 0.1336926423770413
633.0, 0.13740798708375612
634.0, 0.13969965275252094
635.0, 0.14357025114257274
636.0, 0.14746175199718928
637.0, 0.16017531102120003
638.0, 0.15577867307177107
639.0, 0.15365096111373225
640.0, 0.15644841538472404
641.0, 0.15697790962442268
642.0, 0.15654987837425408
643.0, 0.16595883877271256
644.0, 0.17111340970142344
645.0, 0.17007913491580604
646.0, 0.17103458487110554
647.0, 0.1748950668704992
648.0, 0.1729145435269869
649.0, 0.16803462761251708
650.0, 0.16693385770326177
651.0, 0.1670544296880253
652.0, 0.16785788456307948
653.0, 0.1657411772187874
654.0, 0.15571800340099592
655.0, 0.1512550720336094
656.0, 0.14533265121091496
657.0, 0.13725849313334845
658.0, 0.13117203335843558
659.0, 0.127511095520531
660.0, 0.12256020088226945
661.0, 0.11888718971285642
662.0, 0.11416047473727484
663.0, 0.10920270187082806
664.0, 0.1044085981757551
665.0, 0.09847610227755921
666.0, 0.09036555568882602
667.0, 0.08503459261600474
668.0, 0.08063304635533654
669.0, 0.076501113930148
670.0, 0.07059093725625841
671.0, 0.06320074468306008
672.0, 0.05665337952514034
673.0, 0.05066250647691657
674.0, 0.051148835268179614
675.0, 0.047925056429601355
676.0, 0.039622158548554894
677.0, 0.030653913095385812
678.0, 0.026378821372350418
679.0, 0.03335845381607957
680.0, 0.028625881347782586
681.0, 0.02482233909966674
682.0, 0.022944320086443967
683.0, 0.02171351013539834
684.0, 0.022070839369877016
685.0, 0.02252184058865908
686.0, 0.019804470168341224
687.0, 0.023179033831681264
688.0, 0.022410796199438157
689.0, 0.018778245501114833
690.0, 0.017407588215162285
691.0, 0.013683819853797423
692.0, 0.011708755860868666
693.0, 0.00954357610089581
694.0, 0.011644051002733725
695.0, 0.01282620517892121
696.0, 0.010348511921167992
697.0, 0.010521133071249376
698.0, 0.011470039361297686
699.0, 0.014912764447960108
700.0, 0.0077753395701761555
701.0, 0.0053904741386508635
702.0, 0.00987792344808892
703.0, 0.007836119778351311
704.0, 0.007303250922061138
705.0, 0.011933773706616687
706.0, 0.012712399239579935
707.0, 0.010734307284050126
708.0, 0.008148196470556883
709.0, 0.006386259962776929
710.0, 0.006469037171091096
711.0, 0.004891819921831626
712.0, 0.003910781891060303
713.0, 0.007860599002210053
714.0, 0.009405723700410337
715.0, 0.007008626637574457
716.0, 0.008111865141353893
717.0, 0.00017437030446501665
718.0, 0.0005489787117916303
719.0, 0.0004753704776629698
720.0, 0.0006991005684541196
721.0, 0.002400761788151674
722.0, 0.004315884262652316
723.0, 0.0005672257400590404
724.0, 0.0013696160082998035
725.0, 0.0028857395313622324
726.0, 0.0029534793667526935
727.0, 0.00456422397539707
728.0, 0.006536234918150832
729.0, 0.003537319746729306
730.0, 0.0053122673099716
731.0, 0.00713104417359452
732.0, 0.005234279307656115
733.0, 0.005882460788392119
734.0, 0.00757479284762566
735.0, 0.0053568685604131
736.0, 0.011219953674768683
737.0, 0.006516954468909092
738.0, 0.002651699105962205
739.0, 0.0018384311994281556
740.0, 0.0013432552423269628
741.0, 0.002928276914399824
742.0, 0.0021060744943915055
743.0, 0.0077892821194387235
744.0, 0.0040139930541412
745.0, 0.0007065472291026959
746.0, 0.002344127448927228
747.0, 0.003599232654491893
748.0, 0.00015486898714594009
749.0, 0.0020509660584124723
750.0, 0.0033091690633457464
751.0, 0.014783764168023307
752.0, 0.014686182022985892
753.0, 0.006534813343136889
754.0, 0.005254982928215645
755.0, 0.006198702695647292
756.0, 0.0055893685653326764
757.0, 0.0052443812692157445
758.0, 0.003674060427024278
759.0, 0.006370613060570908
760.0, 0.01079541557957464
761.0, 0.011480283158661102
762.0, 0.012459511865160618
763.0, 0.011549807519895174
764.0, 0.010954712891527293
765.0, 0.011510861541676838
766.0, 0.012712116772167804
767.0, 0.014251009074732158
768.0, 0.015975830451604292
769.0, 0.016479849949389107
770.0, 0.015311678004667149
771.0, 0.016659864684050223
772.0, 0.017769084033357384
773.0, 0.019622080343759347
774.0, 0.02264774433007353
775.0, 0.023043708930862283
776.0, 0.023270909235912806
777.0, 0.022349667473733594
778.0, 0.026198272089773968
779.0, 0.02924054764992265
780.0, 0.03125208375877406
781.0, 0.03292636114785023
782.0, 0.02807944388279932
783.0, 0.03347751880125835
784.0, 0.03637778458263127
785.0, 0.03976410473627164
786.0, 0.03817343617173334
787.0, 0.035416857077203504
788.0, 0.0384001338270572
789.0, 0.03933486007235944
790.0, 0.04246492874276903
791.0, 0.04103799542388364
792.0, 0.039574065697064745
793.0, 0.04388034727773197
794.0, 0.04633212881181867
795.0, 0.04250229741466728
796.0, 0.045932579542778726
797.0, 0.0450592182431359
798.0, 0.04542502598561472
799.0, 0.048233786986139775
800.0, 0.050101578459481017
801.0, 0.049230609104874264
802.0, 0.04892176224076001
803.0, 0.05137174030598241
804.0, 0.04902728837852332
805.0, 0.0542294996655736
806.0, 0.05497573776010875
807.0, 0.056213877284929006
808.0, 0.060774468603985575
809.0, 0.0605268742143202
810.0, 0.058598901475859826
811.0, 0.05941690727100023
812.0, 0.06102794937428324
813.0, 0.06216958482306799
814.0, 0.05959852162256721
815.0, 0.056457207890772396
816.0, 0.05961318649135716
817.0, 0.06302208059535312
818.0, 0.06402200366215106
819.0, 0.06268858694474341
820.0, 0.06340554390918915
821.0, 0.06798635118362495
822.0, 0.07001707868318749
823.0, 0.06586220943021612
824.0, 0.06721925310546407
825.0, 0.06633135180607516
826.0, 0.06528286230976775
827.0, 0.06471693337690902
828.0, 0.06363075916817978
829.0, 0.062160078614355255
830.0, 0.0633517791308839
831.0, 0.06861600791435937
832.0, 0.06662282010848351
833.0, 0.06588815719974703
834.0, 0.06814660350319345
835.0, 0.07104417390106298
836.0, 0.0720070657976093
837.0, 0.07031247550677171
838.0, 0.07026333430851293
839.0, 0.08034858915933402
840.0, 0.07679315495764209
841.0, 0.07001185851939523
842.0, 0.07348579082015165
843.0, 0.07738513543330408
844.0, 0.07254245410171052
845.0, 0.07331431936671658
846.0, 0.07446557215137926
847.0, 0.06942532319261369
848.0, 0.06779668773227283
849.0, 0.0645179272502622
850.0, 0.05969707436411727
851.0, 0.0589284228253195
852.0, 0.061308133174940736
853.0, 0.05685415885811557
854.0, 0.05568914323589273
855.0, 0.05830405976568189
856.0, 0.057911859541364914
857.0, 0.04994366730969008
858.0, 0.04355549503710558
859.0, 0.046878697564160327
860.0, 0.042240645870234066
861.0, 0.04276830896351566
862.0, 0.045298453270122975
863.0, 0.04040404611789978
864.0, 0.038077532711668666
865.0, 0.04030265087628618
866.0, 0.03810752607039983
867.0, 0.02926006373068521
868.0, 0.02995261443183781
869.0, 0.027016424172255058
870.0, 0.026236672538906682
871.0, 0.026978028821711703
872.0, 0.024392314583563144
873.0, 0.019274144373494458
874.0, 0.015449434309015226
875.0, 0.008915084184048168
876.0, 0.0072350701039173996
877.0, 0.01047145545817649
878.0, 0.008710151537785704
879.0, 0.006339872936449902
880.0, 0.006262200059617335
881.0, 0.00467131754929968
882.0, 0.0008052221215848295
883.0, 0.0011171712094715659
884.0, 0.004643243767147918
885.0, 0.007546808700084227
886.0, 0.0024029889890136848
887.0, 0.006508560690512274
888.0, 0.007724414377123687
889.0, 0.004920705563594102
890.0, 0.012441069940058922
891.0, 0.009446408379160035
892.0, 0.01095776555108862
893.0, 0.014271114557371439
894.0, 0.012313559995033002
895.0, 0.010314755357233436
896.0, 0.011571259819591888
897.0, 0.008938874717810632
898.0, 0.011349249669946973
899.0, 0.013687717335945543
900.0, 0.010763310725423239
901.0, 0.00993215815758842
902.0, 0.01148845654220926
903.0, 0.009123588456109496
904.0, 0.003439906977390877
905.0, 0.002746370408035861
906.0, 0.0011508513955499232
907.0, 0.004244272416331392
908.0, 0.004828096564718767
909.0, 0.01156763485181388
910.0, 0.015260817622941535
911.0, 0.01463843054462102
912.0, 0.022143040032788063
913.0, 0.026952030124874075
914.0, 0.03266274866104889
915.0, 0.042123245977901236
916.0, 0.04430361282682249
917.0, 0.047329625824587114
918.0, 0.0562338154860909
919.0, 0.06747489296564893
920.0, 0.07634837722010382
921.0, 0.08106015787449769
922.0, 0.08922446253332576
923.0, 0.09433333765809028
924.0, 0.11025566842038946
925.0, 0.12329205799630605
926.0, 0.1315610987604518
927.0, 0.13978935471566845
928.0, 0.14536441119383367
929.0, 0.1571147157916871
930.0, 0.16775547714239597
931.0, 0.1821839114396291
932.0, 0.191034355314787
933.0, 0.19947790271399
934.0, 0.2086424583477802
935.0, 0.21556880990939034
936.0, 0.22203236195859025
937.0, 0.23223915974072545
938.0, 0.24020391180145578
939.0, 0.24923176358044818
940.0, 0.25682325634202835
941.0, 0.26667053804159513
942.0, 0.276828813323565
943.0, 0.2807635761260256
944.0, 0.2832365538549412
945.0, 0.29688041305311524
946.0, 0.30462011369274705
947.0, 0.31412998824477345
948.0, 0.3196942613593074
949.0, 0.32896795737054235
950.0, 0.33943209328819934
951.0, 0.3480685068068611
952.0, 0.3565601133429715
953.0, 0.3598183218356125
954.0, 0.36853048910378094
955.0, 0.3764731468818713
956.0, 0.38527749931030664
957.0, 0.39380517692675704
958.0, 0.40515721783766734
959.0, 0.41985307145111156
960.0, 0.43698677817708786
961.0, 0.45833173178052483
962.0, 0.4745966522246913
963.0, 0.4843057332393446
964.0, 0.5105651646520805
965.0, 0.5370093585675552
966.0, 0.5575581190442459
967.0, 0.5835341964185912
968.0, 0.6148007819465008
969.0, 0.6377402949991887
970.0, 0.6601587816261484
971.0, 0.688811714366174
972.0, 0.7196342099590529
973.0, 0.7486645809411461
974.0, 0.7724958009410244
975.0, 0.795097921548003
976.0, 0.820221103046485
977.0, 0.8411750436537507
978.0, 0.8521997172548945
979.0, 0.8801801421347935
980.0, 0.9061538229983749
981.0, 0.9222150106390352
982.0, 0.9337672680768838
983.0, 0.9486933014436996
984.0, 0.9666591428648688
985.0, 0.9742785206611547
986.0, 0.9696201650300982
987.0, 0.9916736814830867
988.0, 0.9872377599427368
989.0, 0.9990222884465533
990.0, 0.9896664711825132
991.0, 0.9809375078739972
992.0, 0.9794453481136584
993.0, 0.978868425352781
994.0, 0.9781753787283747
995.0, 0.9654627790234094
996.0, 0.9486114723157512
997.0, 0.9417842851561695
998.0, 0.9246931800735928
999.0, 0.9114278583604831
1000.0, 0.89503109784794
1001.0, 0.8743216119881736
1002.0, 0.8567103878719547
1003.0, 0.8389142337067138
1004.0, 0.8105451032449649
1005.0, 0.7857023457567129
1006.0, 0.7669179872443197
1007.0, 0.7437103304272089
1008.0, 0.7136099328828138
1009.0, 0.69459736046661
1010.0, 0.6730344467344669
1011.0, 0.6418459450375956
1012.0, 0.621645526370082
1013.0, 0.5964939037067307
1014.0, 0.5782879116641785
1015.0, 0.5686928475718187
1016.0, 0.5349465780015379
1017.0, 0.5122579486026224
1018.0, 0.49423166772355537
1019.0, 0.47017015130469586
1020.0, 0.44806419388276864
1021.0, 0.4289336144449263
1022.0, 0.4122518206853147
1023.0, 0.38754505793994865
1024.0, 0.3704839877678158
1025.0, 0.3469099384289345
1026.0, 0.3281990569806884
1027.0, 0.3132982735514297
1028.0, 0.30033641329735256
1029.0, 0.2865735949082838
1030.0, 0.2650717382602401
1031.0, 0.24713100099456964
1032.0, 0.22911200347116076
1033.0, 0.20967498758300876
1034.0, 0.2000517124889184
1035.0, 0.18907189603328653
1036.0, 0.17986143743177646
1037.0, 0.1683264321813266
1038.0, 0.15425067760077343
1039.0, 0.14627660117795988
1040.0, 0.13447323982635748
1041.0, 0.12484733573285219
1042.0, 0.10634987213413173
1043.0, 0.09901223630652807
1044.0, 0.09089539848859034
1045.0, 0.08039685368614875
1046.0, 0.07233032985188059
1047.0, 0.06622744880350571
1048.0, 0.05991611283796542
1049.0, 0.0532755241679759
1050.0, 0.04185535385134035
1051.0, 0.031183988374111273
1052.0, 0.02746378272293063
1053.0, 0.02092808934091019
1054.0, 0.015967055561503463
1055.0, 0.01154663329388385
1056.0, 0.008442829068416464
1057.0, 0.006967766472422511
1058.0, 0.0015187950183136525
1059.0, 0.0060761164770058475
1060.0, 0.004188194471621443
1061.0, 0.0078103199768679195
1062.0, 0.009250418773186445
1063.0, 0.008810978399926119
1064.0, 0.012514865685615814
1065.0, 0.016028600183518902
1066.0, 0.014571256399383203
1067.0, 0.012181692573146089
1068.0, 0.011561414898760933
1069.0, 0.006817416330195512
1070.0, 0.002833180534037209
1071.0, 0.01092736118743294
1072.0, 0.011598904447318351
1073.0, 0.013385868136916229
1074.0, 0.009303960143264511
1075.0, 0.005142316988077714
1076.0, 0.005550416897205397
1077.0, 0.0006209657801852253
1078.0, 0.005292478193137751
1079.0, 0.002161383052694554
1080.0, 0.00529157598087018
1081.0, 0.0022082442832965943
1082.0, 0.00402696406025896
1083.0, 0.005742155768039854
1084.0, 0.0097861519211744
1085.0, 0.00839882041227767
1086.0, 0.0027589386830665034
1087.0, 0.004157041495938849
1088.0, 0.00617936861780582
1089.0, 0.007446808545881144
1090.0, 0.010978422340640278
1091.0, 0.01988767025219894
1092.0, 0.020416287938183474
1093.0, 0.020159305984765265
1094.0, 0.018959536523115827
1095.0, 0.019114341455523917
1096.0, 0.02421537479168935
1097.0, 0.026058562695286166
1098.0, 0.028180405805667354
1099.0, 0.032572711202062704
1100.0, 0.032063985752321465
1101.0, 0.03396802527393103
1102.0, 0.036598662886633986
1103.0, 0.042629463050059074
1104.0, 0.04347741905468262
1105.0, 0.04291258292005858
1106.0, 0.04429557836621735
1107.0, 0.04290959044574581
1108.0, 0.04852738689825358
1109.0, 0.044882625690026774
1110.0, 0.0499893888926094
1111.0, 0.05857534043724336
1112.0, 0.059258340540045605
1113.0, 0.060603268254439485
1114.0, 0.05904817634241703
1115.0, 0.05776379157700396
1116.0, 0.06186520088673411
1117.0, 0.06072073823125414
1118.0, 0.05314000418946371
1119.0, 0.05361633413410156
1120.0, 0.05824833073505803
1121.0, 0.05610236215546741
1122.0, 0.052654997561267604
1123.0, 0.049717618409085555
1124.0, 0.05042912014687096
1125.0, 0.04446061103966429
1126.0, 0.038515352258438405
1127.0, 0.0427760298547836
1128.0, 0.04120494536260285
1129.0, 0.035375787430413606
1130.0, 0.03590363338482344
1131.0, 0.034574946536790774
1132.0, 0.024824669311175898
1133.0, 0.023939788677274206
1134.0, 0.026707796132866772
1135.0, 0.022149669926135603
1136.0, 0.022243051277695
1137.0, 0.026907559681932886
1138.0, 0.021356921101036347
1139.0, 0.01861201155764453
1140.0, 0.015906469938690014
1141.0, 0.017434763170093206
1142.0, 0.015728470857479134
1143.0, 0.007851080547842922
1144.0, 0.012971041615907484
1145.0, 0.010739302720497257
1146.0, 0.00576650641835354
1147.0, 0.004278819816954254
1148.0, 0.004935821176520492
1149.0, 0.008704499907080337
1150.0, 0.0070312328431345866
1151.0, 0.00180224848667208
1152.0, 0.004368860306425183
1153.0, 0.00960518930006812
1154.0, 0.007935958610893296
1155.0, 0.0037856959215640685
1156.0, 0.0041447960814722734
1157.0, 0.00459593148464751
1158.0, 0.00414718176122043
1159.0, 0.0014465282849724721
1160.0, 0.0019700070101762927
1161.0, 0.0014156621594062493
1162.0, 4.079485637377873e-05
1163.0, 0.0026834823795158233
1164.0, 0.002341172370001175
1165.0, 0.0037652397170048553
1166.0, 0.0011918750411613894
1167.0, 0.0027625848426173433
1168.0, 0.0015902819908293405
1169.0, 0.0024985403890232633
1170.0, 0.0017198600699133734
1171.0, 0.004379343523219016
1172.0, 0.005108316116189797
1173.0, 0.0013759364291550408
1174.0, 0.0003377559236004061
1175.0, 0.0010605083204853819
1176.0, 0.004900950903500818
1177.0, 0.00303972740080316
1178.0, 0.004035707793427265
1179.0, 0.006009363864819726
1180.0, 0.003169985990842623
1181.0, 0.0022950912671004403
1182.0, 0.0053359371834472025
1183.0, 0.006034663218655299
1184.0, 0.007909764739488685
1185.0, 0.008473473254155038
1186.0, 0.0049494949914422074
1187.0, 0.005182248775358503
1188.0, 0.006047334144102359
1189.0, 0.007456408422978382
1190.0, 0.008011978818403865
1191.0, 0.009109383114841895
1192.0, 0.009789765257841244
1193.0, 0.0116077032475121
1194.0, 0.014037325093544049
1195.0, 0.013131844131520456
1196.0, 0.012512252636323407
1197.0, 0.013186376281210504
1198.0, 0.01510858751585929
1199.0, 0.014625667349349385
1200.0, 0.015571971699197861
1201.0, 0.011929671362800494
1202.0, 0.010185850029585906
1203.0, 0.013059662016373224
1204.0, 0.013681263496171537
1205.0, 0.016098524779708998
1206.0, 0.01793121476435091
1207.0, 0.014448397214581715
1208.0, 0.01933220080443162
1209.0, 0.020614740087335437
1210.0, 0.020684797196815756
1211.0, 0.022261238145181227
1212.0, 0.02319446949512765
1213.0, 0.021309354151760107
1214.0, 0.022287041313838737
1215.0, 0.02359256955552959
1216.0, 0.024282280328675736
1217.0, 0.025467448341259448
1218.0, 0.024851432402344577
1219.0, 0.02370522558768126
1220.0, 0.024206031488750026
1221.0, 0.024071468971619568
1222.0, 0.030433553104078782
1223.0, 0.027802374721822905
1224.0, 0.02535641011076066
1225.0, 0.026331456663601642
1226.0, 0.025681569646511637
1227.0, 0.023382640134327993
1228.0, 0.02305088237069364
1229.0, 0.023720676678361287
1230.0, 0.02570750943425593
1231.0, 0.028956522007594302
1232.0, 0.029575209137483727
1233.0, 0.02677153502514742
1234.0, 0.02594420485416456
1235.0, 0.025874892309603728
1236.0, 0.0251633200566567
1237.0, 0.029230715290161118
1238.0, 0.023543538933532546
1239.0, 0.025530141717782992
1240.0, 0.025181325940122564
1241.0, 0.02590331663342047
1242.0, 0.027034434014130474
1243.0, 0.02786660734613697
1244.0, 0.027707970377269697
1245.0, 0.02612322723636058
1246.0, 0.02722906284356647
1247.0, 0.02721984082318043
1248.0, 0.02675934274522041
1249.0, 0.023393214788816064
1250.0, 0.023018824110737017
1251.0, 0.02631843121811415
1252.0, 0.028496451645144475
1253.0, 0.028203002158591006
1254.0, 0.024980077560850845
1255.0, 0.024743225885688332
1256.0, 0.025333917460058704
1257.0, 0.02448675062526215
1258.0, 0.024029913350276554
1259.0, 0.022806926444270466
1260.0, 0.021109150883828094
1261.0, 0.021583885904450616
1262.0, 0.020541173713460387
1263.0, 0.0185664384399757
1264.0, 0.016389384601434392
1265.0, 0.018911204015901753
1266.0, 0.01667496233535854
1267.0, 0.015071398976877827
1268.0, 0.017298933383028223
1269.0, 0.016967078231524074
1270.0, 0.01650844404461338
1271.0, 0.014798347866362476
1272.0, 0.012406758428096014
1273.0, 0.013174908119449371
1274.0, 0.009530985176618406
1275.0, 0.009144836058663897
1276.0, 0.013187082484237526
1277.0, 0.011009239915554312
1278.0, 0.007118260288188272
1279.0, 0.008804108355332208
1280.0, 0.010615962663403365
1281.0, 0.011061902451650717
1282.0, 0.008511505425837097
1283.0, 0.007276787158248011
1284.0, 0.01010105188567577
1285.0, 0.0088514905711611
1286.0, 0.003953218846307374
1287.0, 0.005531090544654703
1288.0, 0.00939379145422915
1289.0, 0.007141030914959474
1290.0, 0.006980659334133671
1291.0, 0.0038412833375464964
1292.0, 0.0020879956097031595
1293.0, 0.002699002687243845
1294.0, 0.0030273209086797573
1295.0, 0.003605745217988021
1296.0, 0.00033752399224469467
1297.0, 0.0011710653679753223
1298.0, 0.002190713403585517
1299.0, 0.0005549032180320248
1300.0, 0.0008981014895016022
1301.0, 0.0015687649574741504
1302, 0.0
1303, 0.0
1304, 0.0
1305, 0.0
1306, 0.0
1307, 0.0
1308, 0.0
1309, 0.0
1310, 0.0
1311, 0.0
1312, 0.0
1313, 0.0
1314, 0.0
1315, 0.0
1316, 0.0
1317, 0.0
1318, 0.0
1319, 0.0
1320, 0.0
1321, 0.0
1322, 0.0
1323, 0.0
1324, 0.0
1325, 0.0
1326, 0.0
1327, 0.0
1328, 0.0
1329, 0.0
1330, 0.0
1331, 0.0
1332, 0.0
1333, 0.0
1334, 0.0
1335, 0.0
1336, 0.0
1337, 0.0
1338, 0.0
1339, 0.0
1340, 0.0
1341, 0.0
1342, 0.0
1343, 0.0
1344, 0.0
1345, 0.0
1346, 0.0
1347, 0.0
1348, 0.0
1349, 0.0
1350, 0.0
1351, 0.0
1352, 0.0
1353, 0.0
1354, 0.0
1355, 0.0
1356, 0.0
1357, 0.0
1358, 0.0
1359, 0.0
1360, 0.0
1361, 0.0
1362, 0.0
1363, 0.0
1364, 0.0
1365, 0.0
1366, 0.0
1367, 0.0
1368, 0.0
1369, 0.0
1370, 0.0
1371, 0.0
1372, 0.0
1373, 0.0
1374, 0.0
1375, 0.0
1376, 0.0
1377, 0.0
1378, 0.0
1379, 0.0
1380, 0.0
1381, 0.0
1382, 0.0
1383, 0.0
1384, 0.0
1385, 0.0
1386, 0.0
1387, 0.0
1388, 0.0
1389, 0.0
1390, 0.0
1391, 0.0
1392, 0.0
1393, 0.0
1394, 0.0
1395, 0.0
1396, 0.0
1397, 0.0
1398, 0.0
1399, 0.0
1400, 0.0
1401, 0.0
1402, 0.0
1403, 0.0
1404, 0.0
1405, 0.0
1406, 0.0
1407, 0.0
1408, 0.0
1409, 0.0
1410, 0.0
1411, 0.0
1412, 0.0
1413, 0.0
1414, 0.0
1415, 0.0
1416, 0.0
1417, 0.0
1418, 0.0
1419, 0.0
1420, 0.0
1421, 0.0
1422, 0.0
1423, 0.0
1424, 0.0
1425, 0.0
1426, 0.0
1427, 0.0
1428, 0.0
1429, 0.0
1430, 0.0
1431, 0.0
1432, 0.0
1433, 0.0
1434, 0.0
1435, 0.0
1436, 0.0
1437, 0.0
1438, 0.0
1439, 0.0
1440, 0.0
1441, 0.0
1442, 0.0
1443, 0.0
1444, 0.0
1445, 0.0
1446, 0.0
1447, 0.0
1448, 0.0
1449, 0.0
1450, 0.0
1451, 0.0
1452, 0.0
1453, 0.0
1454, 0.0
1455, 0.0
1456, 0.0
1457, 0.0
1458, 0.0
1459, 0.0
1460, 0.0
1461, 0.0
1462, 0.0
1463, 0.0
1464, 0.0
1465, 0.0
1466, 0.0
1467, 0.0
1468, 0.0
1469, 0.0
1470, 0.0
1471, 0.0
1472, 0.0
1473, 0.0
1474, 0.0
1475, 0.0
1476, 0.0
1477, 0.0
1478, 0.0
1479, 0.0
1480, 0.0
1481, 0.0
1482, 0.0
1483, 0.0
1484, 0.0
1485, 0.0
1486, 0.0
1487, 0.0
1488, 0.0
1489, 0.0
1490, 0.0
1491, 0.0
1492, 0.0
1493, 0.0
1494, 0.0
1495, 0.0
1496, 0.0
1497, 0.0
1498, 0.0
1499, 0.0
1500, 0.0
1501, 0.0
1502, 0.0
1503, 0.0
1504, 0.0
1505, 0.0
1506, 0.0
1507, 0.0
1508, 0.0
1509, 0.0
1510, 0.0
1511, 0.0
1512, 0.0
1513, 0.0
1514, 0.0
1515, 0.0
1516, 0.0
1517, 0.0
1518, 0.0
1519, 0.0
1520, 0.0
1521, 0.0
1522, 0.0
1523, 0.0
1524, 0.0
1525, 0.0
1526, 0.0
1527, 0.0
1528, 0.0
1529, 0.0
1530, 0.0
1531, 0.0
1532, 0.0
1533, 0.0
1534, 0.0
1535, 0.0
1536, 0.0
1537, 0.0
1538, 0.0
1539, 0.0
1540, 0.0
1541, 0.0
1542, 0.0
1543, 0.0
1544, 0.0
1545, 0.0
1546, 0.0
1547, 0.0
1548, 0.0
1549, 0.0
1550, 0.0
1551, 0.0
1552, 0.0
1553, 0.0
1554, 0.0
1555, 0.0
1556, 0.0
1557, 0.0
1558, 0.0
1559, 0.0
1560, 0.0
1561, 0.0
1562, 0.0
1563, 0.0
1564, 0.0
1565, 0.0
1566, 0.0
1567, 0.0
1568, 0.0
1569, 0.0
1570, 0.0
1571, 0.0
1572, 0.0
1573, 0.0
1574, 0.0
1575, 0.0
1576, 0.0
1577, 0.0
1578, 0.0
1579, 0.0
1580, 0.0
1581, 0.0
1582, 0.0
1583, 0.0
1584, 0.0
1585, 0.0
1586, 0.0
1587, 0.0
1588, 0.0
1589, 0.0
1590, 0.0
1591, 0.0
1592, 0.0
1593, 0.0
1594, 0.0
1595, 0.0
1596, 0.0
1597, 0.0
1598, 0.0
1599, 0.0
