30, 0.0
31, 0.0
32, 0.0
33, 0.0
34, 0.0
35, 0.0
36, 0.0
37, 0.0
38, 0.0
39, 0.0
40, 0.0
41, 0.0
42, 0.0
43, 0.0
44, 0.0
45, 0.0
46, 0.0
47, 0.0
48, 0.0
49, 0.0
50, 0.0
51, 0.0
52, 0.0
53, 0.0
54, 0.0
55, 0.0
56, 0.0
57, 0.0
58, 0.0
59, 0.0
60, 0.0
61, 0.0
62, 0.0
63, 0.0
64, 0.0
65, 0.0
66, 0.0
67, 0.0
68, 0.0
69, 0.0
70, 0.0
71, 0.0
72, 0.0
73, 0.0
74, 0.0
75, 0.0
76, 0.0
77, 0.0
78, 0.0
79, 0.0
80, 0.0
81, 0.0
82, 0.0
83, 0.0
84, 0.0
85, 0.0
86, 0.0
87, 0.0
88, 0.0
89, 0.0
90, 0.0
91, 0.0
92, 0.0
93, 0.0
94, 0.0
95, 0.0
96, 0.0
97, 0.0
98, 0.0
99, 0.0
100, 0.0
101, 0.0
102, 0.0
103, 0.0
104, 0.0
105, 0.0
106, 0.0
107, 0.0
108, 0.0
109, 0.0
110, 0.0
111, 0.0
112, 0.0
113, 0.0
114, 0.0
115, 0.0
116, 0.0
117, 0.0
118, 0.0
119, 0.0
120, 0.0
121, 0.0
122, 0.0
123, 0.0
124, 0.0
125, 0.0
126, 0.0
127, 0.0
128, 0.0
129, 0.0
130, 0.0
131, 0.0
132, 0.0
133, 0.0
134, 0.0
135, 0.0
136, 0.0
137, 0.0
138, 0.0
139, 0.0
140, 0.0
141, 0.0
142, 0.0
143, 0.0
144, 0.0
145, 0.0
146, 0.0
147, 0.0
148, 0.0
149, 0.0
150, 0.0
151, 0.0
152, 0.0
153, 0.0
154, 0.0
155, 0.0
156, 0.0
157, 0.0
158, 0.0
159, 0.0
160, 0.0
161, 0.0
162, 0.0
163, 0.0
164, 0.0
165, 0.0
166, 0.0
167, 0.0
168, 0.0
169, 0.0
170, 0.0
171, 0.0
172, 0.0
173, 0.0
174, 0.0
175, 0.0
176, 0.0
177, 0.0
178, 0.0
179, 0.0
180, 0.0
181, 0.0
182, 0.0
183, 0.0
184, 0.0
185, 0.0
186, 0.0
187, 0.0
188, 0.0
189, 0.0
190, 0.0
191, 0.0
192, 0.0
193, 0.0
194, 0.0
195.0, 0.00013130592112790227
196.0, 0.0007968049549333027
197.0, 0.0024214787185338387
198.0, 0.003923222277905478
199.0, 0.003910991583657742
200.0, 0.0030942825614317278
201.0, 0.0024335796601634516
202.0, 0.001939937043726478
203.0, 0.0007161023107497333
204.0, 0.0011412294456661473
205.0, 0.0004355123025003997
206.0, 0.0014178503847095986
207.0, 0.0022780120265883906
208.0, 0.004714648537402529
209.0, 0.005808721281285152
210.0, 0.006548078398277174
211.0, 0.007718113940238034
212.0, 0.009269464918928527
213.0, 0.009938758633651686
214.0, 0.011173309231880034
215.0, 0.011622375772550752
216.0, 0.011093936066215296
217.0, 0.010633052467052295
218.0, 0.008588888111277294
219.0, 0.007831611728909052
220.0, 0.007924050583625077
221.0, 0.007419921783746625
222.0, 0.005604264409560377
223.0, 0.006347549648559877
224.0, 0.006718322404540448
225.0, 0.0059003567350288475
226.0, 0.006558477541964344
227.0, 0.007634197646059054
228.0, 0.00942488464953157
229.0, 0.01062020407462123
230.0, 0.0100261478462658
231.0, 0.008854441622322837
232.0, 0.008058654503322351
233.0, 0.0075245927774010785
234.0, 0.007220484541675728
235.0, 0.007426612606028571
236.0, 0.008256983028375263
237.0, 0.00791896830071621
238.0, 0.007120438288037412
239.0, 0.007476701453058135
240.0, 0.009807277529404064
241.0, 0.011211358129357045
242.0, 0.01191639004526086
243.0, 0.012549782779699228
244.0, 0.013272459678826178
245.0, 0.01437074918091211
246.0, 0.015204941836862464
247.0, 0.015972895296468895
248.0, 0.017104051527402738
249.0, 0.018450467393713497
250.0, 0.019362183075453166
251.0, 0.0206707908249886
252.0, 0.02233459913791337
253.0, 0.023225663403913854
254.0, 0.024018980972533178
255.0, 0.02446440402613164
256.0, 0.02409878550312699
257.0, 0.023004244545136984
258.0, 0.02224716590517979
259.0, 0.021272886320898465
260.0, 0.019717718933563656
261.0, 0.01869439503730112
262.0, 0.01985422876680285
263.0, 0.020904356129520543
264.0, 0.021353121740526882
265.0, 0.0221986616984974
266.0, 0.023792700218027898
267.0, 0.024737121582908337
268.0, 0.026765261788379957
269.0, 0.027716266772776364
270.0, 0.027764888220661452
271.0, 0.028511690918337388
272.0, 0.029622058434938897
273.0, 0.03141967089680547
274.0, 0.03241020887371075
275.0, 0.0330022329862369
276.0, 0.03580762834743625
277.0, 0.03724441473956546
278.0, 0.03882143259212823
279.0, 0.041227426580731724
280.0, 0.04459556795186019
281.0, 0.049040174323303265
282.0, 0.052211208150851576
283.0, 0.0560781250651187
284.0, 0.061361009601429616
285.0, 0.06704507549056073
286.0, 0.07307656983844883
287.0, 0.07895693143412053
288.0, 0.08530154869588608
289.0, 0.09212543267393557
290.0, 0.09760320237319874
291.0, 0.10210252884130469
292.0, 0.10682095484853459
293.0, 0.11017810968754368
294.0, 0.11025559172971307
295.0, 0.10868595517341362
296.0, 0.10590275840308642
297.0, 0.10211083707395695
298.0, 0.09717043339558576
299.0, 0.09102169199390021
300.0, 0.08448040980918427
301.0, 0.07791886762424385
302.0, 0.07076041135356619
303.0, 0.06278127269945863
304.0, 0.0546270599383652
305.0, 0.0485982089635645
306.0, 0.04313322704633042
307.0, 0.03838128350964764
308.0, 0.03467219874977908
309.0, 0.030529546192693477
310.0, 0.02740501840156921
311.0, 0.024641169905928514
312.0, 0.022567058649388863
313.0, 0.02172532955295412
314.0, 0.01931140106181479
315.0, 0.017787361331869454
316.0, 0.015946312866799907
317.0, 0.01363803391166053
318.0, 0.01250923417693206
319.0, 0.008468962354881109
320.0, 0.006667607894236013
321.0, 0.0066971198282870055
322.0, 0.006451960778012535
323.0, 0.005796059344364837
324.0, 0.005548759416540057
325.0, 0.0052492132777776455
326.0, 0.005472664578098106
327.0, 0.006546245713996787
328.0, 0.005694762847242416
329.0, 0.005844939215976648
330.0, 0.005573377831968185
331.0, 0.004442753292321477
332.0, 0.0031698117157200815
333.0, 0.002656998686472482
334.0, 0.003008159540103063
335.0, 0.0034851805907655992
336.0, 0.0034230688649783047
337.0, 0.002591370594887842
338.0, 0.0010849745047355227
339.0, 0.0016109288262004353
340.0, 0.0031417388453058638
341.0, 0.003450293124841239
342.0, 0.00143580590009022
343.0, 0.00308349161130857
344.0, 0.0023051286266845125
345.0, 0.0009449427714252022
346.0, 0.0025066493718704885
347.0, 0.002892825769054487
348.0, 0.0014654225242401277
349.0, 0.000907715841860322
350.0, 0.0014105531741672721
351.0, 0.001403205604292277
352.0, 0.0009735894808202761
353.0, 0.0011658223954221112
354.0, 0.0012058097138653548
355.0, 0.0005893054580535924
356.0, 0.0004803070264855742
357.0, 0.0016226175788037632
358.0, 0.0023411038818778743
359.0, 0.0019969238478897183
360.0, 0.001114505928813653
361.0, 0.001005600344906576
362.0, 0.0013307067032126113
363.0, 0.0009547362456648142
364.0, 0.0009148553708377107
365.0, 0.0014068470118825975
366.0, 0.001032664364159073
367.0, 0.0007289495944620323
368.0, 0.00044218727423258583
369.0, 0.0004428659497311172
370.0, 0.0016568335406642002
371.0, 0.0013463797904615345
372.0, 0.0018128992980267198
373.0, 0.001694401344732819
374.0, 0.0015377497793700521
375.0, 0.0023491329529822364
376.0, 0.0037759960471218917
377.0, 0.0043802522484235025
378.0, 0.004143651154653699
379.0, 0.004298985905409881
380.0, 0.004955806176291564
381.0, 0.003579946877500034
382.0, 0.004927095121246445
383.0, 0.005820721048837178
384.0, 0.0059604436073991355
385.0, 0.006647929611191826
386.0, 0.007251638019564419
387.0, 0.008385637730341991
388.0, 0.008585716201169739
389.0, 0.00936583153835058
390.0, 0.011744450462238942
391.0, 0.011151926478215876
392.0, 0.011374240770374095
393.0, 0.010930197159987696
394.0, 0.010071126423856817
395.0, 0.010236284441372636
396.0, 0.01092666046821792
397.0, 0.010982030059129594
398.0, 0.011029666998546628
399.0, 0.01118003159949428
400.0, 0.010955293053845292
401.0, 0.009376634616878272
402.0, 0.010124405545918815
403.0, 0.01140255468685744
404.0, 0.012061408314332413
405.0, 0.012697401514097309
406.0, 0.01440134699059873
407.0, 0.014596125871327357
408.0, 0.015072835432155951
409.0, 0.016418265462361005
410.0, 0.018165225090671477
411.0, 0.022140840138063667
412.0, 0.024874233820515426
413.0, 0.02732537772973485
414.0, 0.02922010515453104
415.0, 0.029874261459389387
416.0, 0.03190517351364036
417.0, 0.03515589870815521
418.0, 0.03749640093270286
419.0, 0.039161725042910316
420.0, 0.04219516918094238
421.0, 0.04886786740127252
422.0, 0.05335180027538781
423.0, 0.05735717936677921
424.0, 0.062212452447629615
425.0, 0.06791032232205708
426.0, 0.07348995787561154
427.0, 0.07953273376335998
428.0, 0.08723649529374035
429.0, 0.0950379428794791
430.0, 0.09985524929249695
431.0, 0.10043078103265957
432.0, 0.0988811676168823
433.0, 0.09553036802528743
434.0, 0.09041389335183385
435.0, 0.08311916095926881
436.0, 0.0727585552774315
437.0, 0.06302888266039543
438.0, 0.05453098310293808
439.0, 0.045928292263962785
440.0, 0.038279206771614296
441.0, 0.03550053066766598
442.0, 0.03145710516291839
443.0, 0.02672613825409766
444.0, 0.02315612345325931
445.0, 0.0203722732830322
446.0, 0.016107586186846223
447.0, 0.013861946678666963
448.0, 0.014060681640295615
449.0, 0.0129026618788428
450.0, 0.010082533704519227
451.0, 0.00914442245431093
452.0, 0.007086918120178181
453.0, 0.006583604193838853
454.0, 0.005240902601808554
455.0, 0.002981926635179718
456.0, 0.0027903927031994167
457.0, 0.003041862061886018
458.0, 0.0023409708209424967
459.0, 0.002308906838893264
460.0, 0.0026829924997964862
461.0, 0.0022078363798120025
462.0, 0.0021298057736909987
463.0, 0.0005000171041366251
464.0, 0.00015286257836535824
465.0, 0.00022171308048359677
466.0, 0.0004047531619232811
467.0, 0.00027290936909228055
468.0, 0.0008837698304381854
469.0, 0.0013728833281843138
470.0, 0.0005519539052009949
471.0, 0.0015097402305892203
472.0, 0.001591207449660073
473.0, 0.000886394942950167
474.0, 0.0022323683962303022
475.0, 0.003561626965289778
476.0, 0.0037775256623197007
477.0, 0.004579229678757113
478.0, 0.004639939323139051
479.0, 0.004041346477200915
480.0, 0.003535022603269526
481.0, 0.003999138106929564
482.0, 0.005109796736637126
483.0, 0.0033129840478710337
484.0, 0.002067011043839651
485.0, 0.0016823916451895711
486.0, 0.0010834905503946805
487.0, 0.00026184383029272915
488.0, 0.001587248918828912
489.0, 0.001437567307248623
490.0, 0.001673560091906811
491.0, 0.0020003499705767806
492.0, 0.0017663727228606856
493.0, 0.0014858288497614554
494.0, 0.00039956804995777906
495.0, 0.0006028691867659325
496.0, 0.0005479816056729942
497.0, 0.000382283159052963
498.0, 0.0010767237641051389
499.0, 0.0008498894262619587
500.0, 0.0022676516274663288
501.0, 0.0015157183183717212
502.0, 0.00034706493246457843
503.0, 0.0016075092889803492
504.0, 0.0009912140147606988
505.0, 0.0011633894575013481
506.0, 0.0005737716773245417
507.0, 0.0005421158233803457
508.0, 0.000982364014802922
509.0, 0.0006409910458745139
510.0, 0.000212726972687965
511.0, 0.0001532167795460077
512.0, 0.001280853826399182
513.0, 0.0023795758725453837
514.0, 0.00217762401383354
515.0, 0.0018717967660649508
516.0, 0.00025161850730935517
517.0, 0.0003824134528904821
518.0, 0.0002491512813859971
519.0, 0.0009143688345243205
520.0, 0.00018667506104893037
521.0, 0.0008432389924120953
522.0, 0.0015253025877742564
523.0, 0.0023040090299253136
524.0, 0.0029272320754033247
525.0, 0.0030607999829921624
526.0, 0.004884195559868457
527.0, 0.0049281357245754415
528.0, 0.0039528094918685275
529.0, 0.0029588252818433664
530.0, 0.0023257694413677432
531.0, 0.0029216179864934057
532.0, 0.0028092448541467796
533.0, 0.005092481099859178
534.0, 0.007065522277409503
535.0, 0.007123274325478261
536.0, 0.007707491865703027
537.0, 0.009232999289039225
538.0, 0.01000191480355185
539.0, 0.010483444462751434
540.0, 0.011017436871221878
541.0, 0.01144573057056244
542.0, 0.011783439713200628
543.0, 0.011157441345680957
544.0, 0.011244008189273612
545.0, 0.011496249720046868
546.0, 0.011593083140534314
547.0, 0.012287693878208926
548.0, 0.013327787599244158
549.0, 0.01618488050040424
550.0, 0.017586201230615828
551.0, 0.017885533224512525
552.0, 0.01846566993749742
553.0, 0.01694096620131002
554.0, 0.018500382597519512
555.0, 0.019199608758347416
556.0, 0.019875809201426457
557.0, 0.02200632955896018
558.0, 0.025082988023676644
559.0, 0.03004459694068071
560.0, 0.03232224948830357
561.0, 0.033817855072865194
562.0, 0.0361871847348052
563.0, 0.03906788917155666
564.0, 0.040532345379588434
565.0, 0.042148864235008465
566.0, 0.04341352486327502
567.0, 0.04479042157787729
568.0, 0.04586747914315733
569.0, 0.04629316401570667
570.0, 0.048053074567205874
571.0, 0.04655746541136026
572.0, 0.04292922012701948
573.0, 0.04098827625542486
574.0, 0.040463928234076796
575.0, 0.036904912019076676
576.0, 0.03432683360782419
577.0, 0.03344352376272058
578.0, 0.030801591124295088
579.0, 0.0283180864867546
580.0, 0.028414941239370006
581.0, 0.026993469157291526
582.0, 0.026594932503560577
583.0, 0.02481600024704753
584.0, 0.022890492230040603
585.0, 0.02251661506269363
586.0, 0.02368420087204397
587.0, 0.02525159396913313
588.0, 0.02279202552759254
589.0, 0.021511173979796135
590.0, 0.021157611101091253
591.0, 0.019936804136304595
592.0, 0.018107266914089804
593.0, 0.017151594968615045
594.0, 0.018569377710556296
595.0, 0.017775787631555084
596.0, 0.01621942739459656
597.0, 0.016610020308581656
598.0, 0.01673891729919581
599.0, 0.015556667820143638
600.0, 0.014331957041229384
601.0, 0.012504745616703655
602.0, 0.011627409760350484
603.0, 0.013022955686205182
604.0, 0.01321403140607104
605.0, 0.01221691226698663
606.0, 0.011777002017811953
607.0, 0.012576988118315029
608.0, 0.01280427620266097
609.0, 0.011597915242339225
610.0, 0.012496373049497272
611.0, 0.010905484011238722
612.0, 0.010322887834672587
613.0, 0.009661589930374345
614.0, 0.00861268222258623
615.0, 0.00884210473867387
616.0, 0.007928124108716359
617.0, 0.00918875771355004
618.0, 0.0104680132143585
619.0, 0.010599130058753993
620.0, 0.010912730113838151
621.0, 0.011964519628840407
622.0, 0.009431098835803849
623.0, 0.007270008681670671
624.0, 0.00690648473901954
625.0, 0.006544544564601237
626.0, 0.005354046686787859
627.0, 0.005026439252035019
628.0, 0.004161403579882401
629.0, 0.004031588363047258
630.0, 0.0035511094344494857
631.0, 0.002422060975641474
632.0, 0.0020541123237951715
633.0, 0.003385777689755683
634.0, 0.00285867812361977
635.0, 0.0033849760826815917
636.0, 0.0031753626397449746
637.0, 0.0019638677083413493
638.0, 0.0012401017644711153
639.0, 0.0018873216518162305
640.0, 0.000708942196737993
641.0, 0.0011422666845721846
642.0, 0.0014653089634645167
643.0, 0.0021682581080690612
644.0, 0.0016453218323166016
645.0, 0.00023557849757596143
646.0, 0.0003599422069106374
647.0, 0.0008722555368061311
648.0, 0.0019207265950562534
649.0, 0.0011747690107425273
650.0, 0.00028372134256644463
651.0, 0.0004124220050955123
652.0, 0.00017983173821316001
653.0, 0.00248784910686957
654.0, 0.0029327563162034587
655.0, 0.001541174628070113
656.0, 0.0007536083950909889
657.0, 0.00012832343597656953
658.0, 0.0012060956581783791
659.0, 0.002666662829740629
660.0, 0.002108892016998317
661.0, 0.0015012218772330862
662.0, 0.0024357731798519823
663.0, 0.001999144826785792
664.0, 0.0005456934020913694
665.0, 0.0001510519494311762
666.0, 0.0004948889685956284
667.0, 0.0007174089248351156
668.0, 0.0002170099870775667
669.0, 0.0008658735218828039
670.0, 0.0007006794171216743
671.0, 0.0001780495555313948
672.0, 0.0008307608197420585
673.0, 0.0008835193538298994
674.0, 0.0030617593609154024
675.0, 0.0029511819154629543
676.0, 0.0023532931567638287
677.0, 0.003660652215853779
678.0, 0.0021712134192381207
679.0, 0.001954552022291369
680.0, 0.0038201405503665914
681.0, 0.0026456605480034306
682.0, 0.0030241484701478377
683.0, 0.0036279546773302774
684.0, 0.0025884564760206186
685.0, 0.002255681320631593
686.0, 0.0024688086746587237
687.0, 0.0018067674564931871
688.0, 0.004803194701330474
689.0, 0.007410922034367457
690.0, 0.007603648113374492
691.0, 0.0077332114923956575
692.0, 0.009018626921221453
693.0, 0.009696042093867305
694.0, 0.007269039453689986
695.0, 0.006750096359365525
696.0, 0.007185762560953956
697.0, 0.0071195099321552935
698.0, 0.006163360355944002
699.0, 0.005211022074765989
700.0, 0.005448881092461932
701.0, 0.005825671336316608
702.0, 0.004787476479328753
703.0, 0.004582075628165037
704.0, 0.005181038788719795
705.0, 0.005885980004229998
706.0, 0.0064317571131336515
707.0, 0.005403876290548817
708.0, 0.006207283936497698
709.0, 0.008306573585728966
710.0, 0.007572850197322015
711.0, 0.005855906715216966
712.0, 0.006457999501433319
713.0, 0.004251424568830454
714.0, 0.005591693350984507
715.0, 0.008200781125061046
716.0, 0.009265339279184995
717.0, 0.008114436746388178
718.0, 0.006708458371314361
719.0, 0.007965867734418377
720.0, 0.00949378014615109
721.0, 0.009196757454116017
722.0, 0.009276857827058744
723.0, 0.009618341421371699
724.0, 0.00923750571696189
725.0, 0.008400507011532637
726.0, 0.008217474054977521
727.0, 0.007065115183158224
728.0, 0.007597299119570196
729.0, 0.007397143652276374
730.0, 0.006336511279903205
731.0, 0.006622978125785437
732.0, 0.0076672721455722775
733.0, 0.008006400897015773
734.0, 0.008067997527516168
735.0, 0.008018066892235068
736.0, 0.006819422995229986
737.0, 0.005769667604187968
738.0, 0.007099073286908624
739.0, 0.007033457975892012
740.0, 0.007768416886630301
741.0, 0.005700202932493624
742.0, 0.006106942650249225
743.0, 0.007964474129485446
744.0, 0.007817560897697294
745.0, 0.008926259858309154
746.0, 0.008645480610575237
747.0, 0.00849433981874395
748.0, 0.010133814775537237
749.0, 0.008966438177078418
750.0, 0.005581528801540256
751.0, 0.0065218150418189765
752.0, 0.00791032697023772
753.0, 0.0037378420536750955
754.0, 0.0026827119564691334
755.0, 0.003062523567421654
756.0, 0.002625727283349641
757.0, 0.0027865201920635437
758.0, 0.00402152487029117
759.0, 0.0015437949920934675
760.0, 0.0024134671286158136
761.0, 0.0025280190096063707
762.0, 0.0027256986418707162
763.0, 0.003695960251625825
764.0, 0.004029545901516292
765.0, 0.0037996699567934477
766.0, 0.003945187383193861
767.0, 0.004005741266492522
768.0, 0.0050832158662818955
769.0, 0.005022003814224869
770.0, 0.003625075861819975
771.0, 0.003936886568120929
772.0, 0.005592110677589652
773.0, 0.004946270407280177
774.0, 0.005829492150682637
775.0, 0.004751712852114187
776.0, 0.0038130546259264615
777.0, 0.005006340446043023
778.0, 0.004623383581239744
779.0, 0.0045398509470082945
780.0, 0.004639660031265203
781.0, 0.002064488844940068
782.0, 0.0006331869378877626
783.0, 0.000244154545835067
784.0, 0.0005962389754415079
785.0, 0.0011530408623660496
786.0, 0.002522999217559436
787.0, 0.0006549659499121834
788.0, 0.001003484772607912
789.0, 0.0004071094324735455
790.0, 0.0022477843129057808
791.0, 0.0036983176232669407
792.0, 0.00439950735468013
793.0, 0.005460964895234062
794.0, 0.005670607723373206
795.0, 0.005199680272477307
796.0, 0.004430916776731538
797.0, 0.0031326632623516794
798.0, 0.0016164017608367076
799.0, 0.0015066109386797624
800.0, 0.00027845716769245516
801.0, 0.0016135082551132418
802.0, 0.002857888917389233
803.0, 0.001165551232314643
804.0, 0.0011708063270442362
805.0, 0.0006701736488412548
806.0, 0.001003279396028417
807.0, 0.00259664201338266
808.0, 0.004259040179751892
809.0, 0.004428261499064363
810.0, 0.002178248511297104
811.0, 0.0005001026425110294
812.0, 0.0017820288117109291
813.0, 0.0016746174624519097
814.0, 0.0020677181783215815
815.0, 0.0014907534322614274
816.0, 0.0014254342459223462
817.0, 0.0017815867206055548
818.0, 0.0023605226527856258
819.0, 0.0034244152797258233
820.0, 0.004350608603760881
821.0, 0.006249515954034901
822.0, 0.007441237396623421
823.0, 0.008403275093510125
824.0, 0.007214494467342726
825.0, 0.0053675215372769895
826.0, 0.005921042115628241
827.0, 0.007984886999789328
828.0, 0.0034431660857470923
829.0, 0.004778548038640465
830.0, 0.004410945776242854
831.0, 0.003362518896865307
832.0, 0.0033440869499420916
833.0, 0.002350165944185087
834.0, 0.0009238622170950336
835.0, 0.004980241407150974
836.0, 0.003506371511813223
837.0, 0.004528427238622204
838.0, 0.004801177590773667
839.0, 0.004711831262605599
840.0, 0.006979627774731678
841.0, 0.00787792610329052
842.0, 0.006803873815744366
843.0, 0.0066296134946881875
844.0, 0.007305304177348478
845.0, 0.007960518479012564
846.0, 0.007394120296093559
847.0, 0.006183486133392138
848.0, 0.005314715416193718
849.0, 0.0034005250416757156
850.0, 0.0031051631318666857
851.0, 0.004074507777107546
852.0, 0.0042729268657465715
853.0, 0.003972016899987057
854.0, 0.003949386841969929
855.0, 0.004116461865880653
856.0, 0.004642952491684148
857.0, 0.005352270249556525
858.0, 0.004938901455626897
859.0, 0.006197938130596904
860.0, 0.005758896316519505
861.0, 0.005147138373334178
862.0, 0.006443669705344164
863.0, 0.004808647410814369
864.0, 0.004974128126007667
865.0, 0.004668893156620069
866.0, 0.004269687476620972
867.0, 0.00406913624306088
868.0, 0.002981313221924051
869.0, 0.002480210093547183
870.0, 0.005000776503371005
871.0, 0.0041339236798773535
872.0, 0.003070840330512055
873.0, 0.0038390434363295327
874.0, 0.003044321340048661
875.0, 0.002215580488401037
876.0, 0.0024252298670585817
877.0, 0.002623932716523386
878.0, 0.0025920742206280425
879.0, 0.0006312134659439204
880.0, 0.0012426215964764502
881.0, 0.0011210065807624355
882.0, 0.0001849574903996327
883.0, 0.0020230125555995427
884.0, 0.0012684581314725098
885.0, 0.001308255651958751
886.0, 0.001953151971778427
887.0, 0.0004772297539032558
888.0, 0.000936157408515203
889.0, 0.002540965150757193
890.0, 0.0008185516453843112
891.0, 0.000647067729180623
892.0, 0.0008230702531864453
893.0, 0.0004843098922199423
894.0, 0.0006434330899086921
895.0, 0.0015527267670912615
896.0, 0.00111219862115781
897.0, 0.0009145307773830042
898.0, 0.0007509649361357144
899.0, 0.0006977195632450574
900.0, 0.0017245396131773834
901.0, 0.0017995384187856581
902.0, 0.0007134588744851896
903.0, 0.0009558840413098731
904.0, 0.000703912623209626
905.0, 0.0005520937619264434
906.0, 0.0005575575536158956
907.0, 0.0008051471811017803
908.0, 0.00010031407091346992
909.0, 0.0005505682460447777
910.0, 0.001271448529773995
911.0, 0.00025961472565961093
912.0, 0.0008700731288010165
913.0, 0.000789036254686385
914.0, 0.00040312880468872824
915.0, 0.0005441992347551273
916.0, 9.928942328874465e-05
917.0, 0.0006452601725244794
918.0, 0.0008900216091464038
919.0, 0.00017040513792243155
920.0, 0.0004046430645217717
921.0, 0.0005602649359286908
922.0, 0.0004993019241612856
923.0, 0.0012389213778815243
924.0, 0.0017947749863376757
925.0, 0.0011123744006669148
926.0, 0.0007969326152822672
927.0, 0.0004406840942068253
928.0, 0.0009412520578657411
929.0, 0.0016009692906986362
930.0, 0.0006047577957645113
931.0, 0.00012165149230393027
932.0, 6.11327530138213e-05
933.0, 0.0009669945902877078
934.0, 0.0030452155065794754
935.0, 0.0016662214274625823
936.0, 0.0035705252995664005
937.0, 0.004708721133143042
938.0, 0.0036899347447122413
939.0, 0.0035531122503166955
940.0, 0.004207296861460333
941.0, 0.0032626377081267656
942.0, 0.004140159604321521
943.0, 0.0026883237766153617
944.0, 0.002598579743146205
945.0, 0.004556303678668265
946.0, 0.007393143506615076
947.0, 0.008139167983066074
948.0, 0.005538346959632473
949.0, 0.006094006330681103
950.0, 0.007313453940376705
951.0, 0.006654161000435719
952.0, 0.008074701271086563
953.0, 0.007672039607925361
954.0, 0.007169880407644993
955.0, 0.008360375298365757
956.0, 0.010373032831692837
957.0, 0.014518002050646807
958.0, 0.01619736640914506
959.0, 0.01982821825327965
960.0, 0.025984254151693226
961.0, 0.029480350559668564
962.0, 0.034493147090097695
963.0, 0.04027755742580656
964.0, 0.045094248093579106
965.0, 0.05353321748057977
966.0, 0.059735325866253616
967.0, 0.0668183353723806
968.0, 0.08019584074440525
969.0, 0.09345898133343887
970.0, 0.10799132763818083
971.0, 0.1254005347446247
972.0, 0.148458400388006
973.0, 0.17919845584960212
974.0, 0.2133409471165439
975.0, 0.25210471816344854
976.0, 0.29838836190338947
977.0, 0.3544449626860387
978.0, 0.41976316109838313
979.0, 0.4950528352032515
980.0, 0.5808035437094904
981.0, 0.674344207367253
982.0, 0.7741892237551772
983.0, 0.8752624115433278
984.0, 0.9540172880644063
985.0, 0.996729736555163
986.0, 0.9847983244716085
987.0, 0.9164348307080287
988.0, 0.810927344240558
989.0, 0.6922465117520952
990.0, 0.5810466685820287
991.0, 0.4866618354539591
992.0, 0.41201311357338966
993.0, 0.3560070567481142
994.0, 0.3176416388118714
995.0, 0.2896610217048867
996.0, 0.2736392375538505
997.0, 0.2675126131264301
998.0, 0.26751423238416844
999.0, 0.27522706767879296
1000.0, 0.2904153756631587
1001.0, 0.30636214794632866
1002.0, 0.3112566174351339
1003.0, 0.3028164203687951
1004.0, 0.2828387106876678
1005.0, 0.25560436761803895
1006.0, 0.2246783320565393
1007.0, 0.1925611800995022
1008.0, 0.16149316729286414
1009.0, 0.13466048081090146
1010.0, 0.11197824791844456
1011.0, 0.09314605419880777
1012.0, 0.07705019231129255
1013.0, 0.0657366836611519
1014.0, 0.05550529876855638
1015.0, 0.046525020496331386
1016.0, 0.040157648683727544
1017.0, 0.03323078623661645
1018.0, 0.02752027919455608
1019.0, 0.023017827077131084
1020.0, 0.0198514502969642
1021.0, 0.017261654564398106
1022.0, 0.013414764714562365
1023.0, 0.011851857452706704
1024.0, 0.009886950225732835
1025.0, 0.007003407998630091
1026.0, 0.008202754331993717
1027.0, 0.006434836012128633
1028.0, 0.007681193985124339
1029.0, 0.006677945143733803
1030.0, 0.003670339730754419
1031.0, 0.0028484484618474205
1032.0, 0.0030923194638775376
1033.0, 0.002946298515772846
1034.0, 0.0036152495537670657
1035.0, 0.006003310020838831
1036.0, 0.0068587943236963125
1037.0, 0.006808892684112535
1038.0, 0.009153008928085942
1039.0, 0.010148957126339916
1040.0, 0.013173116699171199
1041.0, 0.017428271842549938
1042.0, 0.02032123262532266
1043.0, 0.023206733847296636
1044.0, 0.026710980382504034
1045.0, 0.026915185140452418
1046.0, 0.03329064950096388
1047.0, 0.03627156308008774
1048.0, 0.04145605020321158
1049.0, 0.04996140316585667
1050.0, 0.0580910631289807
1051.0, 0.06397812063306614
1052.0, 0.06895817805711921
1053.0, 0.07091419550574125
1054.0, 0.06493932983281242
1055.0, 0.05346500816975739
1056.0, 0.04445325413445133
1057.0, 0.03231932118027999
1058.0, 0.022699616616599104
1059.0, 0.014336028916292865
1060.0, 0.0086550349112908
1061.0, 0.005462605982849557
1062.0, 0.004553622375997614
1063.0, 0.005594873469204407
1064.0, 0.003934886573393069
1065.0, 0.0006059247586124258
1066.0, 0.0002149991165852678
1067.0, 0.00070149003500897
1068.0, 0.0010210793640623007
1069.0, 0.0010850679165824552
1070.0, 0.001429142696399605
1071.0, 0.0009837765828218828
1072.0, 4.1794723829304755e-05
1073.0, 0.0006631993054129894
1074.0, 0.001427523606180176
1075.0, 0.0010760608475520394
1076.0, 0.0008767494071850433
1077.0, 0.0002909577546068136
1078.0, 0.0020781006650044996
1079.0, 0.0020184842764707487
1080.0, 0.002193686801292765
1081.0, 0.002456386741633465
1082.0, 0.0026918085996035504
1083.0, 0.005765967417265742
1084.0, 0.006246132781156091
1085.0, 0.005872508737552017
1086.0, 0.005757796573285629
1087.0, 0.0034797930409057993
1088.0, 0.00326693083140067
1089.0, 0.001954649668011366
1090.0, 0.0006487633704079748
1091.0, 0.0008963548284552982
1092.0, 0.0021738616317850228
1093.0, 0.0017750647676153118
1094.0, 0.0009654317878693067
1095.0, 0.0005024732485581411
1096.0, 0.0001110765194081058
1097.0, 0.0003123602168625237
1098.0, 0.00034430832925776475
1099.0, 0.00011583579916379207
1100.0, 0.001995403784846138
1101.0, 0.003024512816746192
1102.0, 0.0004737950296857735
1103.0, 0.00016819126346885683
1104.0, 0.0001821957911797874
1105.0, 0.0010741704280752115
1106.0, 0.0011421575383184224
1107.0, 0.000502200501255137
1108.0, 0.001748905874366519
1109.0, 0.0017506539029339572
1110.0, 0.0003066637073490661
1111.0, 0.002938906294263134
1112.0, 0.0028647765691292124
1113.0, 0.0008460464706286088
1114.0, 0.001890264943793226
1115.0, 0.0020099298403548726
1116.0, 0.0006982698209010843
1117.0, 0.001514231029016832
1118.0, 0.003572230708680859
1119.0, 0.006064566721104236
1120.0, 0.005882779877191792
1121.0, 0.00449669216139577
1122.0, 0.00535729994105625
1123.0, 0.005509924390443979
1124.0, 0.0025284313871263707
1125.0, 0.00407956347912396
1126.0, 0.0043807611887091025
1127.0, 0.00600249770918163
1128.0, 0.004984607063232792
1129.0, 0.0038773854228285115
1130.0, 0.005726540535617027
1131.0, 0.006634372724786214
1132.0, 0.00634668267972708
1133.0, 0.006351690126113294
1134.0, 0.0074030926257389615
1135.0, 0.009262711887515169
1136.0, 0.007904520565394587
1137.0, 0.008055215126206454
1138.0, 0.00769975826970156
1139.0, 0.008990423466741122
1140.0, 0.007457776343937159
1141.0, 0.008357250442613387
1142.0, 0.009932491260500297
1143.0, 0.009663302416769765
1144.0, 0.009791077522919401
1145.0, 0.011819146044475185
1146.0, 0.014432431462153228
1147.0, 0.01666615889030792
1148.0, 0.015840656566738727
1149.0, 0.022275704180841155
1150.0, 0.02053996168951597
1151.0, 0.02026253385219632
1152.0, 0.023689102125397144
1153.0, 0.025692662181315325
1154.0, 0.026733458839058182
1155.0, 0.029880294087623393
1156.0, 0.033140923932820573
1157.0, 0.03321156128125542
1158.0, 0.0344662807184149
1159.0, 0.03663394451541004
1160.0, 0.03853657924262522
1161.0, 0.03843271195432529
1162.0, 0.03849931929034034
1163.0, 0.037210415731203636
1164.0, 0.03367396860879316
1165.0, 0.030970791910550664
1166.0, 0.02801286719894838
1167.0, 0.02367889005310248
1168.0, 0.02036481892077897
1169.0, 0.01828736713325127
1170.0, 0.01652147355253841
1171.0, 0.01712876640927531
1172.0, 0.015053851623205558
1173.0, 0.012389986935869474
1174.0, 0.012750890428327161
1175.0, 0.012177640294172253
1176.0, 0.011802456822723458
1177.0, 0.010689449012402402
1178.0, 0.009732862314534267
1179.0, 0.00909711476798453
1180.0, 0.007422055736042633
1181.0, 0.009252428001404998
1182.0, 0.006784095316242212
1183.0, 0.005249714780039713
1184.0, 0.004355137089951803
1185.0, 0.006008124652035355
1186.0, 0.004662745318656868
1187.0, 0.0027361457314377894
1188.0, 0.0024930751772453937
1189.0, 0.0003733779340114314
1190.0, 0.0011628836115214797
1191.0, 0.0004444298652082501
1192.0, 0.0013991849116364345
1193.0, 0.0016869543184950633
1194.0, 0.002745429904360974
1195.0, 0.0024040506787167365
1196.0, 0.0044212928985805046
1197.0, 0.005410079812491918
1198.0, 0.0043085523807316495
1199.0, 0.004493026109673713
1200.0, 0.004907591279592964
1201.0, 0.0041369394471842
1202.0, 0.002804021178639961
1203.0, 0.0019348148316187018
1204.0, 0.002577312983848961
1205.0, 0.0047762855793824
1206.0, 0.005933964173307987
1207.0, 0.003146694870181539
1208.0, 0.002747064906996861
1209.0, 0.004182891681946355
1210.0, 0.005431553796833844
1211.0, 0.005752940164396819
1212.0, 0.004302152121996494
1213.0, 0.005777663495431302
1214.0, 0.005781912191493209
1215.0, 0.0038398521701960356
1216.0, 0.003521400726589598
1217.0, 0.0018911481012850143
1218.0, 2.6393044603733673e-05
1219.0, 0.003316899516279474
1220.0, 0.0003017481617833801
1221.0, 0.0023118674479092227
1222.0, 0.0009567090974254959
1223.0, 0.001484111080926965
1224.0, 0.0026717231353006066
1225.0, 0.003053168424177609
1226.0, 0.0029051228724097673
1227.0, 0.002941841582037314
1228.0, 0.0027246136173110264
1229.0, 0.0013410550570127325
1230.0, 0.0009336769597021633
1231.0, 0.0033424579662126334
1232.0, 0.002117950067248484
1233.0, 0.0027111804616165324
1234.0, 0.0022300325246117987
1235.0, 0.0007802768406582581
1236.0, 0.0003731615229419039
1237.0, 0.0023091071673177884
1238.0, 0.0012068344703630813
1239.0, 0.0011059640009102249
1240.0, 0.00019630906574175496
1241.0, 0.0008922897186834583
1242.0, 0.0011011780807190343
1243.0, 0.0012969724181889084
1244.0, 0.0031187391375249156
1245.0, 0.003764163180324713
1246.0, 0.0015557186972282367
1247.0, 0.004393461667425902
1248.0, 0.003707090594120566
1249.0, 0.003590037362427541
1250.0, 0.0026230346870174267
1251.0, 0.0033740293435104256
1252.0, 0.0024673932241755184
1253.0, 0.001464116712452409
1254.0, 0.0013786683188358251
1255.0, 0.0015800059398515891
1256.0, 0.001965815656910892
1257.0, 0.002550498781494755
1258.0, 0.004982343928060515
1259.0, 0.007358137657220618
1260.0, 0.004363109576288486
1261.0, 0.006077151520595353
1262.0, 0.00728569989700608
1263.0, 0.008184969053436809
1264.0, 0.0060670795856682825
1265.0, 0.004686804376124717
1266.0, 0.003914191606647962
1267.0, 0.004040707871603443
1268.0, 0.005728976423406747
1269.0, 0.005974956166069959
1270.0, 0.005124341884685565
1271.0, 0.004382387753721887
1272.0, 0.0026561685166216335
1273.0, 0.0026262180706795916
1274.0, 0.003557628784375592
1275.0, 0.002710024562597134
1276.0, 0.0009893884651061742
1277.0, 0.0017427032474772335
1278.0, 0.0014738457991143137
1279.0, 0.002700380405242988
1280.0, 0.00277030480024398
1281.0, 0.00506578857052351
1282.0, 0.005008457070868816
1283.0, 0.003613705746475269
1284.0, 0.0030572184002247652
1285.0, 0.0010258591927679516
1286.0, 0.00037087654090377903
1287.0, 0.0028665615676690404
1288.0, 0.0017581543141762003
1289.0, 0.001013198949680467
1290.0, 0.00020408241094171207
1291.0, 0.00023643975110830594
1292.0, 0.0009593591115853373
1293.0, 0.0027912057005581342
1294.0, 0.0018833746818519312
1295.0, 0.0016696000459306582
1296.0, 0.00038649854094880277
1297.0, 0.0002876359490903459
1298.0, 0.0016398155650230947
1299.0, 0.0013401601172958707
1300.0, 0.00018086038902881266
1301.0, 0.0005805213376943715
1302, 0.0
1303, 0.0
1304, 0.0
1305, 0.0
1306, 0.0
1307, 0.0
1308, 0.0
1309, 0.0
1310, 0.0
1311, 0.0
1312, 0.0
1313, 0.0
1314, 0.0
1315, 0.0
1316, 0.0
1317, 0.0
1318, 0.0
1319, 0.0
1320, 0.0
1321, 0.0
1322, 0.0
1323, 0.0
1324, 0.0
1325, 0.0
1326, 0.0
1327, 0.0
1328, 0.0
1329, 0.0
1330, 0.0
1331, 0.0
1332, 0.0
1333, 0.0
1334, 0.0
1335, 0.0
1336, 0.0
1337, 0.0
1338, 0.0
1339, 0.0
1340, 0.0
1341, 0.0
1342, 0.0
1343, 0.0
1344, 0.0
1345, 0.0
1346, 0.0
1347, 0.0
1348, 0.0
1349, 0.0
1350, 0.0
1351, 0.0
1352, 0.0
1353, 0.0
1354, 0.0
1355, 0.0
1356, 0.0
1357, 0.0
1358, 0.0
1359, 0.0
1360, 0.0
1361, 0.0
1362, 0.0
1363, 0.0
1364, 0.0
1365, 0.0
1366, 0.0
1367, 0.0
1368, 0.0
1369, 0.0
1370, 0.0
1371, 0.0
1372, 0.0
1373, 0.0
1374, 0.0
1375, 0.0
1376, 0.0
1377, 0.0
1378, 0.0
1379, 0.0
1380, 0.0
1381, 0.0
1382, 0.0
1383, 0.0
1384, 0.0
1385, 0.0
1386, 0.0
1387, 0.0
1388, 0.0
1389, 0.0
1390, 0.0
1391, 0.0
1392, 0.0
1393, 0.0
1394, 0.0
1395, 0.0
1396, 0.0
1397, 0.0
1398, 0.0
1399, 0.0
1400, 0.0
1401, 0.0
1402, 0.0
1403, 0.0
1404, 0.0
1405, 0.0
1406, 0.0
1407, 0.0
1408, 0.0
1409, 0.0
1410, 0.0
1411, 0.0
1412, 0.0
1413, 0.0
1414, 0.0
1415, 0.0
1416, 0.0
1417, 0.0
1418, 0.0
1419, 0.0
1420, 0.0
1421, 0.0
1422, 0.0
1423, 0.0
1424, 0.0
1425, 0.0
1426, 0.0
1427, 0.0
1428, 0.0
1429, 0.0
1430, 0.0
1431, 0.0
1432, 0.0
1433, 0.0
1434, 0.0
1435, 0.0
1436, 0.0
1437, 0.0
1438, 0.0
1439, 0.0
1440, 0.0
1441, 0.0
1442, 0.0
1443, 0.0
1444, 0.0
1445, 0.0
1446, 0.0
1447, 0.0
1448, 0.0
1449, 0.0
1450, 0.0
1451, 0.0
1452, 0.0
1453, 0.0
1454, 0.0
1455, 0.0
1456, 0.0
1457, 0.0
1458, 0.0
1459, 0.0
1460, 0.0
1461, 0.0
1462, 0.0
1463, 0.0
1464, 0.0
1465, 0.0
1466, 0.0
1467, 0.0
1468, 0.0
1469, 0.0
1470, 0.0
1471, 0.0
1472, 0.0
1473, 0.0
1474, 0.0
1475, 0.0
1476, 0.0
1477, 0.0
1478, 0.0
1479, 0.0
1480, 0.0
1481, 0.0
1482, 0.0
1483, 0.0
1484, 0.0
1485, 0.0
1486, 0.0
1487, 0.0
1488, 0.0
1489, 0.0
1490, 0.0
1491, 0.0
1492, 0.0
1493, 0.0
1494, 0.0
1495, 0.0
1496, 0.0
1497, 0.0
1498, 0.0
1499, 0.0
1500, 0.0
1501, 0.0
1502, 0.0
1503, 0.0
1504, 0.0
1505, 0.0
1506, 0.0
1507, 0.0
1508, 0.0
1509, 0.0
1510, 0.0
1511, 0.0
1512, 0.0
1513, 0.0
1514, 0.0
1515, 0.0
1516, 0.0
1517, 0.0
1518, 0.0
1519, 0.0
1520, 0.0
1521, 0.0
1522, 0.0
1523, 0.0
1524, 0.0
1525, 0.0
1526, 0.0
1527, 0.0
1528, 0.0
1529, 0.0
1530, 0.0
1531, 0.0
1532, 0.0
1533, 0.0
1534, 0.0
1535, 0.0
1536, 0.0
1537, 0.0
1538, 0.0
1539, 0.0
1540, 0.0
1541, 0.0
1542, 0.0
1543, 0.0
1544, 0.0
1545, 0.0
1546, 0.0
1547, 0.0
1548, 0.0
1549, 0.0
1550, 0.0
1551, 0.0
1552, 0.0
1553, 0.0
1554, 0.0
1555, 0.0
1556, 0.0
1557, 0.0
1558, 0.0
1559, 0.0
1560, 0.0
1561, 0.0
1562, 0.0
1563, 0.0
1564, 0.0
1565, 0.0
1566, 0.0
1567, 0.0
1568, 0.0
1569, 0.0
1570, 0.0
1571, 0.0
1572, 0.0
1573, 0.0
1574, 0.0
1575, 0.0
1576, 0.0
1577, 0.0
1578, 0.0
1579, 0.0
1580, 0.0
1581, 0.0
1582, 0.0
1583, 0.0
1584, 0.0
1585, 0.0
1586, 0.0
1587, 0.0
1588, 0.0
1589, 0.0
1590, 0.0
1591, 0.0
1592, 0.0
1593, 0.0
1594, 0.0
1595, 0.0
1596, 0.0
1597, 0.0
1598, 0.0
1599, 0.0
