30, 0.0
31, 0.0
32, 0.0
33, 0.0
34, 0.0
35, 0.0
36, 0.0
37, 0.0
38, 0.0
39, 0.0
40, 0.0
41, 0.0
42, 0.0
43, 0.0
44, 0.0
45, 0.0
46, 0.0
47, 0.0
48, 0.0
49, 0.0
50, 0.0
51, 0.0
52, 0.0
53, 0.0
54, 0.0
55, 0.0
56, 0.0
57, 0.0
58, 0.0
59, 0.0
60, 0.0
61, 0.0
62, 0.0
63, 0.0
64, 0.0
65, 0.0
66, 0.0
67, 0.0
68, 0.0
69, 0.0
70, 0.0
71, 0.0
72, 0.0
73, 0.0
74, 0.0
75, 0.0
76, 0.0
77, 0.0
78, 0.0
79, 0.0
80, 0.0
81, 0.0
82, 0.0
83, 0.0
84, 0.0
85, 0.0
86, 0.0
87, 0.0
88, 0.0
89, 0.0
90, 0.0
91, 0.0
92, 0.0
93.0, 0.009458319422137278
94.0, 9.229344062952778e-05
95.0, 0.0010645378561364917
96.0, 0.0010237129824101404
97.0, 0.011774821890471068
98.0, 0.0348139203605645
99.0, 0.06471364575038914
100.0, 0.09545481420377426
101.0, 0.12503780640697412
102.0, 0.15308265788654302
103.0, 0.1719188564240498
104.0, 0.18036485992232743
105.0, 0.18369437685095863
106.0, 0.19276388703632213
107.0, 0.2087007123174518
108.0, 0.2300948081325529
109.0, 0.25572772189401366
110.0, 0.28725239305628203
111.0, 0.3240994318093707
112.0, 0.36351304532928325
113.0, 0.4050693322834356
114.0, 0.45323836042886123
115.0, 0.5077938859945422
116.0, 0.5676047318235499
117.0, 0.6366622289537973
118.0, 0.7262391025421341
119.0, 0.8274951947451882
120.0, 0.9114862630677334
121.0, 0.9455272611626824
122.0, 0.9129716067748231
123.0, 0.8213552995683316
124.0, 0.6968386340802523
125.0, 0.5663024919308794
126.0, 0.44921285697907876
127.0, 0.36786484065251085
128.0, 0.3257686491048955
129.0, 0.306667002907138
130.0, 0.2971345803578497
131.0, 0.29585684205985147
132.0, 0.30504814440869965
133.0, 0.321325925465832
134.0, 0.34245687299585986
135.0, 0.37353542420566743
136.0, 0.40927938140642783
137.0, 0.4472878396017173
138.0, 0.4855335867538293
139.0, 0.5224541103930359
140.0, 0.5645702213399283
141.0, 0.6131251783973535
142.0, 0.6669118317023448
143.0, 0.7263642416686255
144.0, 0.7915315812414311
145.0, 0.8627396145141711
146.0, 0.9326642678243411
147.0, 0.9891997154997617
148.0, 0.996805602324765
149.0, 0.9375268060424331
150.0, 0.832186681581476
151.0, 0.708896982626809
152.0, 0.5999930995786431
153.0, 0.5223906308072283
154.0, 0.45707384597673595
155.0, 0.38785681577469855
156.0, 0.3187581110381823
157.0, 0.25012599669778923
158.0, 0.18736541311840918
159.0, 0.13621535543183622
160.0, 0.1013072279627191
161.0, 0.08107918603021659
162.0, 0.06726667596214476
163.0, 0.05784860235815211
164.0, 0.05297798055245326
165.0, 0.05121596908873204
166.0, 0.05347985269373799
167.0, 0.05727186148269071
168.0, 0.06181210243688509
169.0, 0.06949569513210646
170.0, 0.07917165236042162
171.0, 0.08842018378952221
172.0, 0.09568065084547775
173.0, 0.09943394998934223
174.0, 0.09406809706833537
175.0, 0.08058832967074042
176.0, 0.06487635820834406
177.0, 0.050726812919954775
178.0, 0.037608064102858475
179.0, 0.0298373943093257
180.0, 0.02760739934764025
181.0, 0.02673983844553528
182.0, 0.020889282957159177
183.0, 0.012698052476305099
184.0, 0.008449400656175323
185.0, 0.006711373319367229
186.0, 0.003139762223197437
187.0, 0.001127961629337887
188.0, 0.0027506412776266225
189.0, 0.004918660855030304
190.0, 0.003275170926216524
191.0, 0.0026650406545929897
192.0, 0.0039943526642374745
193.0, 0.004539159245807296
194.0, 0.0037373043863679926
195.0, 0.003156776536785673
196.0, 0.0037127487076862218
197.0, 0.0054319408708476315
198.0, 0.007757582488568201
199.0, 0.010075999552999551
200.0, 0.011632637730065046
201.0, 0.01039441539008128
202.0, 0.008784548341362698
203.0, 0.007718847196860105
204.0, 0.003932466716585555
205.0, 0.0006509799142500002
206.0, 0.0023594957148971875
207.0, 0.004165765613078732
208.0, 0.007664133825584032
209.0, 0.009600609997429272
210.0, 0.011391400765349356
211.0, 0.013516816402350387
212.0, 0.015879808430165017
213.0, 0.018328037137047132
214.0, 0.01865659893772353
215.0, 0.020767593574914554
216.0, 0.02433510992191851
217.0, 0.026941471020592512
218.0, 0.029419721436559923
219.0, 0.03249544025723634
220.0, 0.03540051206629193
221.0, 0.03764229704484332
222.0, 0.0399392827894506
223.0, 0.04212695413932219
224.0, 0.04721480179669284
225.0, 0.053498666757505156
226.0, 0.0575671724771967
227.0, 0.06423811260460532
228.0, 0.06901625581419364
229.0, 0.0696262437159859
230.0, 0.06577953095200578
231.0, 0.05762447643979959
232.0, 0.05010582549692764
233.0, 0.042643198857330984
234.0, 0.03580497791551961
235.0, 0.03064323100003606
236.0, 0.024530141175838186
237.0, 0.020223185247268637
238.0, 0.017206474661309697
239.0, 0.014332760649218103
240.0, 0.010978446514599026
241.0, 0.009338832504940485
242.0, 0.008311149021897245
243.0, 0.007380065339992036
244.0, 0.006621026915780811
245.0, 0.006213304958139583
246.0, 0.006050681550470885
247.0, 0.005735555729743517
248.0, 0.005377842378328826
249.0, 0.005271017358886746
250.0, 0.005104026812854135
251.0, 0.005147785811539737
252.0, 0.005163521511886491
253.0, 0.004834782032120508
254.0, 0.0046780305481816465
255.0, 0.004558710693562588
256.0, 0.0037338994339558987
257.0, 0.0026056846777465525
258.0, 0.0021020900526045458
259.0, 0.0012416462086843234
260.0, 0.0007241759415963266
261.0, 0.00023355153190168508
262.0, 0.0004857761792702128
263.0, 0.0004108893842026565
264.0, 0.0011232575740749591
265.0, 0.0018038907349107027
266.0, 0.002530901405712608
267.0, 0.003133821904063563
268.0, 0.004041150599906128
269.0, 0.004799645673558393
270.0, 0.00553835776204886
271.0, 0.006310970252768696
272.0, 0.006862910872309412
273.0, 0.007768332939630411
274.0, 0.0089063578041232
275.0, 0.009804536966223238
276.0, 0.01036018918702717
277.0, 0.011487213319194419
278.0, 0.013522958944642383
279.0, 0.014940024366010605
280.0, 0.015630316764330496
281.0, 0.016598866035006057
282.0, 0.01806836956115552
283.0, 0.018669059841971574
284.0, 0.01951594360672169
285.0, 0.02089277046591888
286.0, 0.021204501397508638
287.0, 0.020944982102645036
288.0, 0.020166512195777576
289.0, 0.019116162644294298
290.0, 0.017910750056183745
291.0, 0.016380009641838916
292.0, 0.01623412578241607
293.0, 0.01643171852865846
294.0, 0.01617744354098353
295.0, 0.015567244109451624
296.0, 0.015210317573557971
297.0, 0.01495840336864614
298.0, 0.014290376686644485
299.0, 0.012925680223915317
300.0, 0.011127134864562488
301.0, 0.010508376060972357
302.0, 0.009777859733410431
303.0, 0.008957100056002592
304.0, 0.00821611897603425
305.0, 0.007081438122233019
306.0, 0.006675610794269121
307.0, 0.005728509500010715
308.0, 0.004849707962244513
309.0, 0.004937666011497452
310.0, 0.004532298763557895
311.0, 0.003967473438254708
312.0, 0.003640093540340581
313.0, 0.003537882645477417
314.0, 0.0033353713114135813
315.0, 0.0031440774111008703
316.0, 0.0033051057004392865
317.0, 0.004052152222289511
318.0, 0.00479334521461435
319.0, 0.0047709120022107815
320.0, 0.0051750196571595415
321.0, 0.005108966197011679
322.0, 0.005281161420758491
323.0, 0.005838735846221737
324.0, 0.005797727053089605
325.0, 0.005623433732312136
326.0, 0.0061845000675527844
327.0, 0.0068717186650763835
328.0, 0.0073266820643032105
329.0, 0.00813945599557698
330.0, 0.007691584409026137
331.0, 0.008512014366964618
332.0, 0.010075207018008788
333.0, 0.011015983275395996
334.0, 0.011505509967030631
335.0, 0.012034508475386998
336.0, 0.012269805558773076
337.0, 0.011559879776842011
338.0, 0.009739365382427945
339.0, 0.008530049999084244
340.0, 0.007058555090680735
341.0, 0.004547451342219996
342.0, 0.0020479635047123425
343.0, 0.0008955925258842003
344.0, 0.0007792600593219968
345.0, 0.0010619185288083634
346.0, 0.0015640804933206621
347.0, 0.0022564499253460535
348.0, 0.0018173162373914184
349.0, 0.001834711053657952
350.0, 0.0009747813896870945
351.0, 0.0009394427059332356
352.0, 0.001292743487677835
353.0, 0.00026618531244410455
354.0, 0.001349867438328174
355.0, 0.0027244149392521328
356.0, 0.004017364149439608
357.0, 0.00514591482970164
358.0, 0.0062860534554163615
359.0, 0.008187477678940657
360.0, 0.011036356172167406
361.0, 0.013305820538813122
362.0, 0.015311647172827672
363.0, 0.0188989823976899
364.0, 0.022263390370416355
365.0, 0.02603091906425772
366.0, 0.030304579263319434
367.0, 0.035561219848847005
368.0, 0.04228804391889685
369.0, 0.04893270459051627
370.0, 0.05543500028313671
371.0, 0.06212647478523238
372.0, 0.06987391693242861
373.0, 0.07913759690356735
374.0, 0.0855564068053752
375.0, 0.09406872799424444
376.0, 0.10384220215865807
377.0, 0.11321445432546497
378.0, 0.12172751294131327
379.0, 0.13207773081920374
380.0, 0.14161873402906996
381.0, 0.15084305752661073
382.0, 0.15956349187628277
383.0, 0.16645107942746193
384.0, 0.1748281121197902
385.0, 0.1808654585230354
386.0, 0.18641263224279553
387.0, 0.19090330153203752
388.0, 0.19165866149444266
389.0, 0.19277086163809198
390.0, 0.18987829780045393
391.0, 0.18438116936340704
392.0, 0.17886080456705644
393.0, 0.1734709216647948
394.0, 0.16508499391384734
395.0, 0.15471079693328862
396.0, 0.14379128618335332
397.0, 0.1330138749810134
398.0, 0.12223370527300415
399.0, 0.11064542780913823
400.0, 0.10053184353018883
401.0, 0.0906133681075392
402.0, 0.08145303343074135
403.0, 0.07431658184177115
404.0, 0.06782111806566911
405.0, 0.061707965271414825
406.0, 0.057018733666968184
407.0, 0.05222726393074903
408.0, 0.046211109977108866
409.0, 0.04185037902171091
410.0, 0.038230578695546934
411.0, 0.035178841948282386
412.0, 0.032879394082704884
413.0, 0.0309438483422498
414.0, 0.028181672209005693
415.0, 0.025118237071579078
416.0, 0.022897435691868973
417.0, 0.02097255747839002
418.0, 0.018849499493378795
419.0, 0.016993191106469345
420.0, 0.015617894966266067
421.0, 0.013833877975723045
422.0, 0.011891002263660046
423.0, 0.010494481721288324
424.0, 0.009948455290933134
425.0, 0.009588972419275255
426.0, 0.008572727507789285
427.0, 0.007535406812740527
428.0, 0.006898315332446833
429.0, 0.006413445163236079
430.0, 0.005939132267044706
431.0, 0.006178861157949888
432.0, 0.0062426396853440145
433.0, 0.005977864514072573
434.0, 0.0056570530062639455
435.0, 0.005504490740060904
436.0, 0.005499254544978817
437.0, 0.005554659153194055
438.0, 0.0058252353114246706
439.0, 0.006060545037149658
440.0, 0.005842601411499411
441.0, 0.0067851217517963525
442.0, 0.006742657675656343
443.0, 0.005895191058754024
444.0, 0.005120057268728795
445.0, 0.004936317028987995
446.0, 0.004341065947308074
447.0, 0.003185344765556192
448.0, 0.0030540955132158766
449.0, 0.002800949035397405
450.0, 0.0014127269341488212
451.0, 0.0009976686657209568
452.0, 0.0004905496492483497
453.0, 0.00021920629775930327
454.0, 0.00033569317702584887
455.0, 1.984817260900441e-05
456.0, 0.0005653753135561603
457.0, 0.0002593792476082138
458.0, 0.0001349235641602295
459.0, 0.0002027674462580165
460.0, 0.0003138754333479998
461.0, 0.00037100097553455626
462.0, 0.00024425009228457647
463.0, 0.0008725294988150212
464.0, 0.0004984902486319053
465.0, 0.00029103718486474435
466.0, 0.00014161640443740724
467.0, 0.0002823115504725806
468.0, 3.7387762940138156e-05
469.0, 0.0006912991754255168
470.0, 0.0007534627078025464
471.0, 0.0002120643341766244
472.0, 0.001237190652574352
473.0, 0.0006341560321042921
474.0, 0.000795563653123119
475.0, 0.0011179992246828716
476.0, 0.0013423607261825743
477.0, 0.001731259331736074
478.0, 0.001754591099709735
479.0, 0.0019865179393927577
480.0, 0.0021168374327994793
481.0, 0.002166939827915014
482.0, 0.0022730634904422477
483.0, 0.002474272780508321
484.0, 0.0030461514799666285
485.0, 0.0020253294337600294
486.0, 0.0012768816567403315
487.0, 0.0014223770884628634
488.0, 0.0016816806392982873
489.0, 0.001465865037531261
490.0, 0.00101962082579811
491.0, 0.0012800640452671867
492.0, 0.0015011212411835818
493.0, 0.0014137673520149055
494.0, 0.001748668019024678
495.0, 0.0019757663092547315
496.0, 0.001602207429553907
497.0, 0.0014725279816090802
498.0, 0.0016085556586628667
499.0, 0.0015806878600682962
500.0, 0.001407592710358931
501.0, 0.0017675958397676548
502.0, 0.001569739753438706
503.0, 0.0014727985862594197
504.0, 0.001533010674751521
505.0, 0.0012743702488490364
506.0, 0.0012930824971673519
507.0, 0.0011010076493865033
508.0, 0.0011178733955916757
509.0, 0.0013340290253990369
510.0, 0.0014347217205798585
511.0, 0.001150081850729444
512.0, 0.0008253073990921361
513.0, 0.0006359860250153613
514.0, 0.000516531574683601
515.0, 0.00042050540632263905
516.0, 0.0002700906055062552
517.0, 7.09946849732531e-05
518.0, 0.00039412926780454417
519.0, 0.00022553634832364692
520.0, 0.00016826233105769249
521.0, 9.025904117562208e-05
522.0, 0.0006835289776842107
523.0, 4.05386668363941e-05
524.0, 0.00037964027261826297
525.0, 0.0004871529308997894
526.0, 0.00042011874210081974
527.0, 0.00045622850385894446
528.0, 0.0001722901070663433
529.0, 0.0004863146594733817
530.0, 0.0004923434993209122
531.0, 0.00014755159094557012
532.0, 7.74915943607234e-05
533.0, 0.0003991778195854491
534.0, 0.00043422061404728174
535.0, 0.0007965918720128133
536.0, 0.0004474162916163627
537.0, 0.0003480377648574452
538.0, 0.0007111168790134232
539.0, 0.0007663361657157775
540.0, 0.00011166457126925092
541.0, 0.00021474119340422754
542.0, 0.0001307350742483884
543.0, 9.767553286687798e-05
544.0, 0.0001996796250318549
545.0, 6.812184653823793e-05
546.0, 0.0004332476115024705
547.0, 0.0002671456657214595
548.0, 0.00035741585788191035
549.0, 0.00038061023213627003
550.0, 0.00012597472908732109
551.0, 0.00016569226858150372
552.0, 0.00025862580331529895
553.0, 0.0005009952553466018
554.0, 0.0006476245209820399
555.0, 0.0009904722247647821
556.0, 0.0014656425093245234
557.0, 0.0012458233722027554
558.0, 0.0017881295392018545
559.0, 0.0024941839878727663
560.0, 0.002977427276109446
561.0, 0.003445683585711901
562.0, 0.004074434801897931
563.0, 0.004600146342656914
564.0, 0.004678881927993243
565.0, 0.005472423232333655
566.0, 0.0063519573932654064
567.0, 0.006846659652288796
568.0, 0.0073119695664146485
569.0, 0.009058785701422822
570.0, 0.010381050701709303
571.0, 0.012592540879914538
572.0, 0.013560062259922354
573.0, 0.014807668295486087
574.0, 0.0178501791829279
575.0, 0.01965229736970637
576.0, 0.021682220563539526
577.0, 0.021702712624016428
578.0, 0.023818377102272227
579.0, 0.026529054149142365
580.0, 0.027029596716066792
581.0, 0.02915358139818103
582.0, 0.029842230661650447
583.0, 0.031462813468479955
584.0, 0.03331704515226925
585.0, 0.03432660757474273
586.0, 0.03432156768991124
587.0, 0.03382024832017336
588.0, 0.034140661490355585
589.0, 0.03445691513743495
590.0, 0.03302129314312453
591.0, 0.030575820711635848
592.0, 0.028058511592901323
593.0, 0.024384447199843274
594.0, 0.020211298315850657
595.0, 0.016453087136000247
596.0, 0.012567687179828401
597.0, 0.009570258452796576
598.0, 0.00784038837599879
599.0, 0.005612255507567229
600.0, 0.003625176360035568
601.0, 0.0027667788749083967
602.0, 0.0020486262716282303
603.0, 0.0015711202425108808
604.0, 0.0014182545158169697
605.0, 0.0012874901753373944
606.0, 0.0020936921737965465
607.0, 0.0026984394487691347
608.0, 0.003840106930735933
609.0, 0.005196201685045011
610.0, 0.006299886024210971
611.0, 0.007402049923311447
612.0, 0.00910793288652804
613.0, 0.010798940815842992
614.0, 0.013738524052475963
615.0, 0.01672049337144564
616.0, 0.01996479632107454
617.0, 0.023956246252297062
618.0, 0.026792844591822025
619.0, 0.03179433746412428
620.0, 0.03698612716810344
621.0, 0.04333093334298659
622.0, 0.05147808462249157
623.0, 0.06100273421465193
624.0, 0.07154825491702341
625.0, 0.08509432346610303
626.0, 0.10109881129683002
627.0, 0.11908744656529961
628.0, 0.14007229642450691
629.0, 0.16406856014447047
630.0, 0.19015899159000763
631.0, 0.2189860382777611
632.0, 0.24826853570153415
633.0, 0.27778038727196447
634.0, 0.3063563508821079
635.0, 0.3330971146952395
636.0, 0.36053220044444484
637.0, 0.39383243477389296
638.0, 0.4279659081954997
639.0, 0.464903985831088
640.0, 0.5029755998484462
641.0, 0.5416659614286877
642.0, 0.5789861090453238
643.0, 0.6109615464282263
644.0, 0.6351382644260557
645.0, 0.6432181194616304
646.0, 0.6354375684154367
647.0, 0.6025933238779627
648.0, 0.5463396187157865
649.0, 0.480327175583489
650.0, 0.4148994224433754
651.0, 0.3469953623442898
652.0, 0.29284410068828287
653.0, 0.2474760373949432
654.0, 0.21007749674525297
655.0, 0.18225510568458503
656.0, 0.16221289395540775
657.0, 0.1465133791651233
658.0, 0.133671673395611
659.0, 0.12539443967434616
660.0, 0.12028700035780582
661.0, 0.11607118701262495
662.0, 0.11161333635486091
663.0, 0.10671046734103458
664.0, 0.0987872572587569
665.0, 0.08823903726805192
666.0, 0.07638699739774674
667.0, 0.06589742130380823
668.0, 0.057083351146566076
669.0, 0.04859943908303592
670.0, 0.04185266965921447
671.0, 0.03696302360053826
672.0, 0.03312335255924381
673.0, 0.029352300583807004
674.0, 0.026776108934604987
675.0, 0.02516280876616317
676.0, 0.022560442782209686
677.0, 0.0204390676236687
678.0, 0.018976659588535266
679.0, 0.018263798244464686
680.0, 0.016201218309935896
681.0, 0.014371016862758015
682.0, 0.014494825364881853
683.0, 0.01300417475520452
684.0, 0.012825212936059021
685.0, 0.011588274978549905
686.0, 0.010073584347925131
687.0, 0.00868973987548893
688.0, 0.007340646248480178
689.0, 0.0062138493362332015
690.0, 0.005467178264534219
691.0, 0.0049630183400702025
692.0, 0.004562567224428989
693.0, 0.003873878744770652
694.0, 0.003142107627775375
695.0, 0.0024114300982220633
696.0, 0.0013693838784243587
697.0, 0.0007071623829720987
698.0, 0.00019459351696761174
699.0, 1.939341505477051e-05
700.0, 6.02477592047699e-05
701.0, 0.0006055654459529999
702.0, 0.0011254256275616097
703.0, 0.00030768260106098564
704.0, 0.0007240982150466474
705.0, 0.0009963883692122616
706.0, 0.0010634920829796191
707.0, 0.0008729079780250005
708.0, 0.000675372641152043
709.0, 0.000633045434982166
710.0, 0.0005258997989559902
711.0, 0.00019877410859177986
712.0, 0.00044023080785122765
713.0, 0.0010433286437054675
714.0, 0.002013451239382313
715.0, 0.003131463280299
716.0, 0.0038593081413677483
717.0, 0.004124449679045932
718.0, 0.004255476766716421
719.0, 0.005472260491026672
720.0, 0.005474660797226896
721.0, 0.004705173217569776
722.0, 0.004541793903794072
723.0, 0.004839794160867718
724.0, 0.0044270520485340005
725.0, 0.003905060329982529
726.0, 0.0034041432290202074
727.0, 0.0032581970816061854
728.0, 0.0033386803886205504
729.0, 0.002989569668494703
730.0, 0.0023950102003742033
731.0, 0.002238216964831032
732.0, 0.002121807700031468
733.0, 0.0017602170646607046
734.0, 0.0009798744957540556
735.0, 0.0006703792925374038
736.0, 0.0005793982725951488
737.0, 0.00011173582104326086
738.0, 0.0005314787698225082
739.0, 0.0010772536872212053
740.0, 0.0011169529083597883
741.0, 0.0011376003838901281
742.0, 0.0008803801033322037
743.0, 0.0006066526363821201
744.0, 0.0003774875597054543
745.0, 9.094528591654163e-05
746.0, 0.0005386129952625921
747.0, 0.0008806439236029869
748.0, 0.0014258986429352264
749.0, 0.0025689897979669523
750.0, 0.0037143345424172193
751.0, 0.004803040636823162
752.0, 0.005982404446576672
753.0, 0.006919327592421695
754.0, 0.008093376965587219
755.0, 0.009499729449324298
756.0, 0.010651879352128845
757.0, 0.011919803921129072
758.0, 0.01364462820207983
759.0, 0.015265844737762994
760.0, 0.01628876188935367
761.0, 0.017530579282559272
762.0, 0.018706697723625838
763.0, 0.02009800481259817
764.0, 0.021221419995935742
765.0, 0.02095576435590394
766.0, 0.020206185482855094
767.0, 0.01971230708173916
768.0, 0.01805235673473437
769.0, 0.01554997170747171
770.0, 0.0143988749569003
771.0, 0.012742820471488574
772.0, 0.011514710173801894
773.0, 0.010861911644590385
774.0, 0.010484788341303883
775.0, 0.010311269778090687
776.0, 0.009597447540842198
777.0, 0.009728150309690917
778.0, 0.009373970845569353
779.0, 0.008916400594057374
780.0, 0.009151078600543176
781.0, 0.009512136703080022
782.0, 0.009201875165626833
783.0, 0.008509679172112585
784.0, 0.008348126969825039
785.0, 0.007882448398130196
786.0, 0.007128493905996315
787.0, 0.006742633774234041
788.0, 0.006253673858064973
789.0, 0.0056088224176015136
790.0, 0.005338361830111767
791.0, 0.00514815765018931
792.0, 0.00481013017121181
793.0, 0.005035456240067158
794.0, 0.004400005779830998
795.0, 0.003773670874768314
796.0, 0.0036500344627975875
797.0, 0.0036102874356125077
798.0, 0.00332144842251945
799.0, 0.0029780305746584636
800.0, 0.0023751178020312074
801.0, 0.0019789069063208663
802.0, 0.0020108182662628028
803.0, 0.002053879046632835
804.0, 0.0021113475379157753
805.0, 0.0018880488265317448
806.0, 0.0013197956428934127
807.0, 0.0015368545535895616
808.0, 0.0018402214856487866
809.0, 0.0013840247230012248
810.0, 0.0010811815927506084
811.0, 0.0008482786019847283
812.0, 0.0007687901905822844
813.0, 0.0008661289249249764
814.0, 0.000642173541378206
815.0, 0.0004764915970954589
816.0, 0.0002186084609508765
817.0, 0.0002685286806575281
818.0, 0.0003333498238392072
819.0, 0.00040417532101901004
820.0, 0.00014451180065697968
821.0, 9.629482246210618e-05
822.0, 0.0003981944020389414
823.0, 2.5435695719563797e-05
824.0, 0.0004796633547505216
825.0, 0.00011609808845045787
826.0, 0.0002577491344606119
827.0, 0.0002450121221435719
828.0, 4.097729678411468e-05
829.0, 7.525197317059671e-05
830.0, 4.153175321459249e-05
831.0, 0.00020812229688208325
832.0, 0.00034871292728626946
833.0, 0.0005255067446546777
834.0, 0.0005282569464322374
835.0, 0.0003911281097477681
836.0, 0.0003932929479984347
837.0, 0.0003831465973021847
838.0, 0.00044336109397216124
839.0, 0.0010634774454732294
840.0, 0.00022465715347184194
841.0, 0.00023062363430647405
842.0, 0.0003748512008770372
843.0, 0.00047083571983890134
844.0, 0.0005802528417112391
845.0, 0.0005293354295388383
846.0, 0.0005459959263740267
847.0, 0.0010130555864059985
848.0, 0.0009929278451333609
849.0, 0.0009168568512787404
850.0, 0.0006212961365724451
851.0, 0.0005495991401270991
852.0, 0.0006520714849682268
853.0, 0.0006487340559941874
854.0, 0.0006684733789580032
855.0, 0.0007350401444761329
856.0, 0.0004869148446357337
857.0, 0.0006228324046052399
858.0, 0.00037936972063370197
859.0, 0.00044613387139120993
860.0, 0.0005944362187249275
861.0, 0.0008332609747600764
862.0, 0.0008427514161721019
863.0, 0.0005897464194614797
864.0, 0.0006033098430198355
865.0, 0.0005535943623978822
866.0, 0.0004579194350587235
867.0, 0.0005076486555528006
868.0, 0.0008447219507487632
869.0, 0.0006693506218009346
870.0, 0.0003044086596044736
871.0, 0.00043835549444733933
872.0, 0.0006985980363711283
873.0, 0.0004978871987043705
874.0, 0.000391851124680271
875.0, 0.00042777047412003745
876.0, 0.0007937056895885924
877.0, 0.0006518950791128077
878.0, 0.0005396480629986056
879.0, 0.0005805875679806754
880.0, 0.0006399702350452876
881.0, 0.0006373727619176796
882.0, 0.0004892139712451695
883.0, 0.0004087351473489575
884.0, 0.0005971282246658479
885.0, 0.0005768537593341595
886.0, 0.0005401140509224669
887.0, 0.0004301359163752171
888.0, 0.0003295903266367165
889.0, 0.00020994732133912535
890.0, 4.329827535445422e-05
891.0, 5.26316159371877e-05
892.0, 0.0002584350892097368
893.0, 8.688053900883782e-05
894.0, 0.0001302032589513267
895.0, 0.00014454412380808515
896.0, 4.1758960282851875e-05
897.0, 4.252333720053678e-05
898.0, 0.00018999183429816756
899.0, 0.00026812989671821637
900.0, 0.00021678945459702065
901.0, 9.18552958224715e-05
902.0, 0.000436119989061465
903.0, 0.00014265750679153216
904.0, 0.0003005977033289932
905.0, 0.0002758875458267743
906.0, 0.0001322085734336154
907.0, 0.00020986931735881762
908.0, 0.0003044220858247776
909.0, 0.0003137263032412149
910.0, 0.00024074680036053112
911.0, 0.0001271166254913554
912.0, 0.00030004962216354175
913.0, 0.00025920080915661916
914.0, 0.00018314672014551833
915.0, 0.00015596447074831611
916.0, 0.00025154447617662686
917.0, 0.000287474642019471
918.0, 2.7729625473841267e-05
919.0, 0.00013019343778954105
920.0, 1.587764910266147e-05
921.0, 0.00022318487777058218
922.0, 0.00019293758354093146
923.0, 0.0002607478249453734
924.0, 0.00035068136746783344
925.0, 0.00029820172076381533
926.0, 0.0002760848692176736
927.0, 0.0002903538538173588
928.0, 6.677150345654993e-05
929.0, 0.00010178995019979658
930.0, 1.725204807024539e-05
931.0, 1.2442272651462557e-05
932.0, 9.73083282108645e-05
933.0, 0.00015318424979326583
934.0, 7.543649420827677e-05
935.0, 0.00022795384981819108
936.0, 0.00018662595230537388
937.0, 0.00020506110222350937
938.0, 0.0002433002774027702
939.0, 0.0001868641897441301
940.0, 0.00023010174649394402
941.0, 0.00011452801847349229
942.0, 1.3486825030150444e-05
943.0, 5.168204037113895e-05
944.0, 0.00017106287725824932
945.0, 9.776467192042779e-05
946.0, 0.0001412742430357438
947.0, 0.00044238987412082266
948.0, 0.00012470587322458053
949.0, 0.0003133629872969234
950.0, 0.00021074244474423472
951.0, 6.97564029565671e-05
952.0, 2.6568084305357583e-05
953.0, 5.161305442579368e-05
954.0, 4.6885475035425224e-05
955.0, 3.2016089959783756e-05
956.0, 7.759003578478992e-05
957.0, 0.00015060724707799522
958.0, 7.470777486249084e-05
959.0, 0.00014998813271090679
960.0, 0.0001038617027701261
961.0, 1.4495888251404934e-05
962.0, 1.8371183587957e-05
963.0, 0.00022269035940660742
964.0, 0.00012344170944479698
965.0, 0.00012607884237075768
966.0, 5.657302792797599e-05
967.0, 0.00014608759480582687
968.0, 0.00015327897428966993
969.0, 3.8920973905655374e-05
970.0, 5.109378080125967e-05
971.0, 0.00012235134793526798
972.0, 0.00017124837791795296
973.0, 0.0001247675586377605
974.0, 0.00014466423642381712
975.0, 9.005931812245404e-05
976.0, 6.8035883564379e-05
977.0, 0.000167010882193425
978.0, 2.564078655677502e-05
979.0, 7.817881356162173e-05
980.0, 9.886716367010321e-05
981.0, 2.263983590136182e-05
982.0, 3.0846637405047e-05
983.0, 7.592329170516741e-05
984.0, 0.00012095593855334356
985.0, 0.0002637262532997456
986.0, 0.00017844542215796175
987.0, 8.438253656430821e-05
988.0, 0.00027731575228021575
989.0, 0.0003356610702912901
990.0, 0.00043639498074170453
991.0, 0.0003374837111697634
992.0, 0.0004831582948718385
993.0, 0.00040600872834418723
994.0, 0.0002388009588152986
995.0, 0.00033349085644944585
996.0, 0.0003725032957362973
997.0, 0.00033892609669537477
998.0, 0.00036995379673198335
999.0, 0.0004149311466561276
1000.0, 0.00041295099982900614
1001.0, 0.00034386990671173646
1002.0, 0.0003078394909131317
1003.0, 0.00034517955140560416
1004.0, 0.00025574072172516624
1005.0, 0.0002323806455020471
1006.0, 0.00012147357200856532
1007.0, 0.000227356836220121
1008.0, 0.0003586338202578954
1009.0, 0.00032591313981257346
1010.0, 0.0003905451232861322
1011.0, 0.00049411420451403
1012.0, 0.00037134169218057227
1013.0, 0.00038342023239674354
1014.0, 0.00028634330750706364
1015.0, 0.0005399441233690807
1016.0, 0.0005900654753780065
1017.0, 0.0004985255057572536
1018.0, 0.00047427235328281465
1019.0, 0.0006131345474655466
1020.0, 0.0006329096706412424
1021.0, 0.00046459874401844406
1022.0, 0.0003833286190917101
1023.0, 0.00033607415297756427
1024.0, 0.00027438644330711665
1025.0, 4.779460434335221e-05
1026.0, 0.00023594641681892
1027.0, 0.00018890830284611342
1028.0, 0.00025944089171175744
1029.0, 0.00018555308669821445
1030.0, 0.00010888819588263024
1031.0, 0.0002555573704480285
1032.0, 0.00035398772178845436
1033.0, 0.00023829502752764956
1034.0, 0.00018896896473822225
1035.0, 0.00032032189108509957
1036.0, 0.000501471617705671
1037.0, 0.00027834772566310835
1038.0, 2.8460850650882004e-05
1039.0, 0.0004948415141578827
1040.0, 0.0001329672828886264
1041.0, 0.00011127355126925803
1042.0, 0.00015550984150086423
1043.0, 0.0002985962777484133
1044.0, 0.0005119368560777579
1045.0, 0.00038986678230532696
1046.0, 0.00029855417427493474
1047.0, 0.0002221645351536086
1048.0, 0.00021863297739508922
1049.0, 0.0002836477416986918
1050.0, 3.285641177781293e-05
1051.0, 0.00021933239183493926
1052.0, 6.789326058653532e-05
1053.0, 0.0001436003130140992
1054.0, 4.948383907940944e-05
1055.0, 6.179555519617807e-05
1056.0, 0.0001913956265002379
1057.0, 0.0001735800091665176
1058.0, 1.1899788207060787e-05
1059.0, 0.00010846819531756928
1060.0, 0.0002734293854538865
1061.0, 9.092217339709496e-05
1062.0, 0.0003947385603039804
1063.0, 0.00019168528856012456
1064.0, 0.00031440847617380884
1065.0, 0.0005199744412837892
1066.0, 0.00031622771267548843
1067.0, 0.00015924352332126915
1068.0, 0.00016248768001175763
1069.0, 0.0001429432438263576
1070.0, 0.0001091195062083466
1071.0, 0.0001381783300724222
1072.0, 0.00018145326615872913
1073.0, 0.00013898668654167557
1074.0, 0.0002471788264400718
1075.0, 0.0003141095075117223
1076.0, 0.0002902676440177998
1077.0, 0.0002096978335894848
1078.0, 0.00015836464495055146
1079.0, 9.843566008033172e-05
1080.0, 0.0001670686947089509
1081.0, 0.00023111181227739594
1082.0, 0.00025928542241633037
1083.0, 0.00025787127743007323
1084.0, 0.000261127041381426
1085.0, 0.00041299142757789435
1086.0, 0.00046089362134868494
1087.0, 0.0002024777726054457
1088.0, 0.0002782998119480101
1089.0, 0.00044796389018732615
1090.0, 2.480001596187949e-05
1091.0, 1.189547460513262e-05
1092.0, 0.00015007979203233616
1093.0, 0.0002832276344110349
1094.0, 0.00019085931625449051
1095.0, 0.0002423671776416402
1096.0, 0.0002731828666886392
1097.0, 0.00020948945161788747
1098.0, 0.00020521506463039215
1099.0, 9.450799155849706e-05
1100.0, 0.00022523232097909193
1101.0, 0.0003246730763503804
1102.0, 9.996694623267058e-05
1103.0, 0.00014062771900558445
1104.0, 0.0003893781666784809
1105.0, 0.00017005135086208356
1106.0, 0.00040276004847825337
1107.0, 0.00043259949497514923
1108.0, 0.0001355177525320249
1109.0, 1.4155843243776353e-05
1110.0, 0.00021679571233337755
1111.0, 0.00038647356534076267
1112.0, 0.0003247948043112345
1113.0, 0.0002901715861424165
1114.0, 0.00021619706195123625
1115.0, 0.0001626340061100756
1116.0, 6.484244700764086e-05
1117.0, 0.00037778782653223337
1118.0, 0.00021990665866277338
1119.0, 6.188742156594445e-06
1120.0, 0.00011747262757608659
1121.0, 0.00018722849705434696
1122.0, 7.848086519529835e-05
1123.0, 0.00014885710829467768
1124.0, 0.00012160926173811302
1125.0, 0.00018409885463402704
1126.0, 0.00026894953903800096
1127.0, 0.00015588203649110266
1128.0, 0.00020192749210657488
1129.0, 5.679104642228624e-05
1130.0, 1.603504314223389e-05
1131.0, 3.166997199624172e-06
1132.0, 0.00010568838767993176
1133.0, 0.00011502723460067605
1134.0, 9.775926749490909e-05
1135.0, 3.672319267283743e-05
1136.0, 2.4905864867653283e-05
1137.0, 0.00014223639658398458
1138.0, 0.0001262672951917463
1139.0, 8.177257859967674e-05
1140.0, 0.0001084024645986939
1141.0, 0.00014845489262214697
1142.0, 0.0001076488190338254
1143.0, 6.137382424727575e-05
1144.0, 4.0172202430353724e-05
1145.0, 0.00029903837744266936
1146.0, 0.0003320251116071497
1147.0, 0.00041650573659289265
1148.0, 4.696188191774403e-05
1149.0, 5.733906606376687e-06
1150.0, 1.665234162500974e-05
1151.0, 8.370957071566706e-05
1152.0, 8.324571661568026e-05
1153.0, 0.0001857091188843741
1154.0, 0.00015004784325929848
1155.0, 4.001046362172419e-05
1156.0, 0.0001880226664777187
1157.0, 0.000344302300318079
1158.0, 0.00020426376360754324
1159.0, 1.2032550863110714e-05
1160.0, 8.769163752973342e-05
1161.0, 7.939987727696962e-05
1162.0, 0.00034873075178505625
1163.0, 6.91558260359422e-05
1164.0, 0.00017112154837038213
1165.0, 0.0003511952547130063
1166.0, 0.00046239999919760275
1167.0, 0.0004440753227401265
1168.0, 0.0004432853999989218
1169.0, 0.00037441710630921663
1170.0, 0.0003955013301769801
1171.0, 0.0003416845645466322
1172.0, 0.00039635444163582396
1173.0, 0.0002890515563020891
1174.0, 0.00028116784805284705
1175.0, 0.000502196805869944
1176.0, 0.0004870962279250441
1177.0, 0.00045952912124994023
1178.0, 0.0006975724270505923
1179.0, 0.0007436614297287101
1180.0, 0.0006384337483673078
1181.0, 0.0005364965450728272
1182.0, 0.0006952240241203476
1183.0, 0.0006552103203369343
1184.0, 0.0006452110815994726
1185.0, 0.000800803651986915
1186.0, 0.0005878621348751864
1187.0, 0.0005629266142954265
1188.0, 0.0006694288295671428
1189.0, 0.0005855907299235312
1190.0, 0.0006776656497698757
1191.0, 0.0006844410431067086
1192.0, 0.0005684263073291925
1193.0, 0.0005588018357839856
1194.0, 0.0005200358662661008
1195.0, 0.000501308112799875
1196.0, 0.0006059981919268706
1197.0, 0.0005968949789505448
1198.0, 0.0005193838800952652
1199.0, 0.0005156450321465603
1200.0, 0.0006198197753354821
1201.0, 0.0005198623089378222
1202.0, 0.000473047894928135
1203.0, 0.0005159407962979904
1204.0, 0.0005318915489624617
1205.0, 0.0005481488140084189
1206.0, 0.0006738817724490231
1207.0, 0.0005542685090788877
1208.0, 0.0003577033136597323
1209.0, 0.0006220014190438265
1210.0, 0.0005645264291776489
1211.0, 0.0005250254584347569
1212.0, 0.0005899283765326366
1213.0, 0.0005636987285328988
1214.0, 0.00046259789685650055
1215.0, 0.00032975505343777855
1216.0, 0.0003711785747485712
1217.0, 0.0005663002330280843
1218.0, 0.0006174222677417205
1219.0, 0.0006813504309274523
1220.0, 0.0004617158517530207
1221.0, 0.0005175837913240023
1222.0, 0.0006652242716789455
1223.0, 0.0005554770081582245
1224.0, 0.0004925310194649419
1225.0, 0.0002952300955961334
1226.0, 0.0003993064686145195
1227.0, 0.00039566664061628536
1228.0, 0.0004680554391943718
1229.0, 0.0005730894086885715
1230.0, 0.0007380576675282314
1231.0, 0.0007401626140792052
1232.0, 0.0007604351107442794
1233.0, 0.0005263019284626307
1234.0, 0.00041356423253972874
1235.0, 0.0005408402370909427
1236.0, 0.0005255805083939529
1237.0, 0.0005503329100306665
1238.0, 0.0005302114182572496
1239.0, 0.0003810318557222776
1240.0, 0.000595053686764305
1241.0, 0.0007357885882934137
1242.0, 0.0006267080509370631
1243.0, 0.0007533221746724813
1244.0, 0.0005322831981553613
1245.0, 0.0003915164772425353
1246.0, 0.0005400050337545256
1247.0, 0.0006597601729859275
1248.0, 0.0007271776393450171
1249.0, 0.000660523657805772
1250.0, 0.0007551116827974061
1251.0, 0.0006618042172916812
1252.0, 0.000689923366804852
1253.0, 0.0006662509542084515
1254.0, 0.0007789163870009387
1255.0, 0.000851247230950816
1256.0, 0.0008299340678116004
1257.0, 0.0005145785685401631
1258.0, 0.0005973472616786866
1259.0, 0.0006826208628496219
1260.0, 0.0008394634089289256
1261.0, 0.0011083153714198258
1262.0, 0.0009456918571779934
1263.0, 0.0008052201158231283
1264.0, 0.0008561217700605519
1265.0, 0.0008640957287769613
1266.0, 0.0009922871375973772
1267.0, 0.0009981668055249902
1268.0, 0.0009195907220506165
1269.0, 0.0007826036728335011
1270.0, 0.0007483491500033793
1271.0, 0.0009681001606766034
1272.0, 0.000808379970879355
1273.0, 0.0009218095505494442
1274.0, 0.0010626022815488833
1275.0, 0.0010365405478304503
1276.0, 0.0010806771289523205
1277.0, 0.0010419453767705788
1278.0, 0.0008078994397238465
1279.0, 0.001108585609986287
1280.0, 0.0012608552907544047
1281.0, 0.001220746954267027
1282.0, 0.0011896839946745074
1283.0, 0.0010968508014701209
1284.0, 0.0010323547481946107
1285.0, 0.0010714435160973789
1286.0, 0.0010747575864650885
1287.0, 5.603828958260068e-05
1288.0, 3.207197258076074e-05
1289.0, 7.638875484920234e-06
1290.0, 1.731165887568375e-05
1291.0, 4.281082763147191e-05
1292.0, 6.886028957850816e-05
1293.0, 9.55257245026534e-05
1294.0, 0.0001228184313752327
1295.0, 0.0001507592484057369
1296.0, 0.000166540344435622
1297.0, 9.915614514589801e-05
1298.0, 7.632849558441135e-05
1299.0, 6.867144436761118e-05
1300.0, 5.735011311705314e-05
1301.0, 3.710652733002313e-05
1302.0, 2.480214585556703e-05
1303.0, 1.2413485119609915e-05
1304.0, 3.1606958192684995e-06
1305.0, 4.6208987188751174e-08
1306, 0.0
1307, 0.0
1308, 0.0
1309, 0.0
1310, 0.0
1311, 0.0
1312, 0.0
1313, 0.0
1314, 0.0
1315, 0.0
1316, 0.0
1317, 0.0
1318, 0.0
1319, 0.0
1320, 0.0
1321, 0.0
1322, 0.0
1323, 0.0
1324, 0.0
1325, 0.0
1326, 0.0
1327, 0.0
1328, 0.0
1329, 0.0
1330, 0.0
1331, 0.0
1332, 0.0
1333, 0.0
1334, 0.0
1335, 0.0
1336, 0.0
1337, 0.0
1338, 0.0
1339, 0.0
1340, 0.0
1341, 0.0
1342, 0.0
1343, 0.0
1344, 0.0
1345, 0.0
1346, 0.0
1347, 0.0
1348, 0.0
1349, 0.0
1350, 0.0
1351, 0.0
1352, 0.0
1353, 0.0
1354, 0.0
1355, 0.0
1356, 0.0
1357, 0.0
1358, 0.0
1359, 0.0
1360, 0.0
1361, 0.0
1362, 0.0
1363, 0.0
1364, 0.0
1365, 0.0
1366, 0.0
1367, 0.0
1368, 0.0
1369, 0.0
1370, 0.0
1371, 0.0
1372, 0.0
1373, 0.0
1374, 0.0
1375, 0.0
1376, 0.0
1377, 0.0
1378, 0.0
1379, 0.0
1380, 0.0
1381, 0.0
1382, 0.0
1383, 0.0
1384, 0.0
1385, 0.0
1386, 0.0
1387, 0.0
1388, 0.0
1389, 0.0
1390, 0.0
1391, 0.0
1392, 0.0
1393, 0.0
1394, 0.0
1395, 0.0
1396, 0.0
1397, 0.0
1398, 0.0
1399, 0.0
1400, 0.0
1401, 0.0
1402, 0.0
1403, 0.0
1404, 0.0
1405, 0.0
1406, 0.0
1407, 0.0
1408, 0.0
1409, 0.0
1410, 0.0
1411, 0.0
1412, 0.0
1413, 0.0
1414, 0.0
1415, 0.0
1416, 0.0
1417, 0.0
1418, 0.0
1419, 0.0
1420, 0.0
1421, 0.0
1422, 0.0
1423, 0.0
1424, 0.0
1425, 0.0
1426, 0.0
1427, 0.0
1428, 0.0
1429, 0.0
1430, 0.0
1431, 0.0
1432, 0.0
1433, 0.0
1434, 0.0
1435, 0.0
1436, 0.0
1437, 0.0
1438, 0.0
1439, 0.0
1440, 0.0
1441, 0.0
1442, 0.0
1443, 0.0
1444, 0.0
1445, 0.0
1446, 0.0
1447, 0.0
1448, 0.0
1449, 0.0
1450, 0.0
1451, 0.0
1452, 0.0
1453, 0.0
1454, 0.0
1455, 0.0
1456, 0.0
1457, 0.0
1458, 0.0
1459, 0.0
1460, 0.0
1461, 0.0
1462, 0.0
1463, 0.0
1464, 0.0
1465, 0.0
1466, 0.0
1467, 0.0
1468, 0.0
1469, 0.0
1470, 0.0
1471, 0.0
1472, 0.0
1473, 0.0
1474, 0.0
1475, 0.0
1476, 0.0
1477, 0.0
1478, 0.0
1479, 0.0
1480, 0.0
1481, 0.0
1482, 0.0
1483, 0.0
1484, 0.0
1485, 0.0
1486, 0.0
1487, 0.0
1488, 0.0
1489, 0.0
1490, 0.0
1491, 0.0
1492, 0.0
1493, 0.0
1494, 0.0
1495, 0.0
1496, 0.0
1497, 0.0
1498, 0.0
1499, 0.0
1500, 0.0
1501, 0.0
1502, 0.0
1503, 0.0
1504, 0.0
1505, 0.0
1506, 0.0
1507, 0.0
1508, 0.0
1509, 0.0
1510, 0.0
1511, 0.0
1512, 0.0
1513, 0.0
1514, 0.0
1515, 0.0
1516, 0.0
1517, 0.0
1518, 0.0
1519, 0.0
1520, 0.0
1521, 0.0
1522, 0.0
1523, 0.0
1524, 0.0
1525, 0.0
1526, 0.0
1527, 0.0
1528, 0.0
1529, 0.0
1530, 0.0
1531, 0.0
1532, 0.0
1533, 0.0
1534, 0.0
1535, 0.0
1536, 0.0
1537, 0.0
1538, 0.0
1539, 0.0
1540, 0.0
1541, 0.0
1542, 0.0
1543, 0.0
1544, 0.0
1545, 0.0
1546, 0.0
1547, 0.0
1548, 0.0
1549, 0.0
1550, 0.0
1551, 0.0
1552, 0.0
1553, 0.0
1554, 0.0
1555, 0.0
1556, 0.0
1557, 0.0
1558, 0.0
1559, 0.0
1560, 0.0
1561, 0.0
1562, 0.0
1563, 0.0
1564, 0.0
1565, 0.0
1566, 0.0
1567, 0.0
1568, 0.0
1569, 0.0
1570, 0.0
1571, 0.0
1572, 0.0
1573, 0.0
1574, 0.0
1575, 0.0
1576, 0.0
1577, 0.0
1578, 0.0
1579, 0.0
1580, 0.0
1581, 0.0
1582, 0.0
1583, 0.0
1584, 0.0
1585, 0.0
1586, 0.0
1587, 0.0
1588, 0.0
1589, 0.0
1590, 0.0
1591, 0.0
1592, 0.0
1593, 0.0
1594, 0.0
1595, 0.0
1596, 0.0
1597, 0.0
1598, 0.0
1599, 0.0
