30, 0.0
31, 0.0
32, 0.0
33, 0.0
34, 0.0
35, 0.0
36, 0.0
37, 0.0
38, 0.0
39, 0.0
40, 0.0
41, 0.0
42, 0.0
43, 0.0
44, 0.0
45, 0.0
46, 0.0
47, 0.0
48, 0.0
49, 0.0
50, 0.0
51, 0.0
52, 0.0
53, 0.0
54, 0.0
55, 0.0
56, 0.0
57, 0.0
58, 0.0
59, 0.0
60, 0.0
61, 0.0
62, 0.0
63, 0.0
64, 0.0
65, 0.0
66, 0.0
67, 0.0
68, 0.0
69, 0.0
70, 0.0
71, 0.0
72, 0.0
73, 0.0
74, 0.0
75, 0.0
76, 0.0
77, 0.0
78, 0.0
79, 0.0
80, 0.0
81, 0.0
82, 0.0
83, 0.0
84, 0.0
85, 0.0
86, 0.0
87, 0.0
88, 0.0
89, 0.0
90, 0.0
91, 0.0
92, 0.0
93, 0.0
94, 0.0
95, 0.0
96, 0.0
97, 0.0
98, 0.0
99, 0.0
100, 0.0
101, 0.0
102, 0.0
103, 0.0
104, 0.0
105, 0.0
106, 0.0
107, 0.0
108, 0.0
109, 0.0
110, 0.0
111, 0.0
112, 0.0
113, 0.0
114, 0.0
115, 0.0
116, 0.0
117, 0.0
118, 0.0
119, 0.0
120, 0.0
121, 0.0
122, 0.0
123, 0.0
124, 0.0
125, 0.0
126, 0.0
127, 0.0
128, 0.0
129, 0.0
130, 0.0
131, 0.0
132, 0.0
133, 0.0
134, 0.0
135, 0.0
136, 0.0
137, 0.0
138, 0.0
139, 0.0
140, 0.0
141, 0.0
142, 0.0
143, 0.0
144, 0.0
145, 0.0
146.0, 0.003191146231272727
147.0, 0.020866228536832853
148.0, 0.04416143951517439
149.0, 0.07184195400535755
150.0, 0.10608894752467876
151.0, 0.14847048163211168
152.0, 0.19533370176644346
153.0, 0.24171637953515926
154.0, 0.2869537527025128
155.0, 0.3572871032075875
156.0, 0.4375425227668139
157.0, 0.551166502444408
158.0, 0.7224623406541677
159.0, 0.9180495565980651
160.0, 0.9993387570342878
161.0, 0.8847029666573614
162.0, 0.6113108470948481
163.0, 0.3714869847517344
164.0, 0.20968910507773683
165.0, 0.12545410504024215
166.0, 0.08253164808979689
167.0, 0.04386602410024484
168.0, 0.02908649626273406
169.0, 0.01871693988009001
170.0, 0.00529307625868157
171.0, 0.008213820732342746
172.0, 0.007036360175433174
173.0, 0.005869628221927598
174.0, 0.004219005767954332
175.0, 0.00066232810123442
176.0, 0.004390799337448714
177.0, 0.002447501513941088
178.0, 0.0021307859812214566
179.0, 0.004446807255861946
180.0, 0.0013343392745170165
181.0, 0.004813030591049888
182.0, 0.009635907569364853
183.0, 0.014723319642065972
184.0, 0.015261009331662334
185.0, 0.004994940125924354
186.0, 0.006992625132007748
187.0, 0.013879253830914672
188.0, 0.015340180097195465
189.0, 0.010206779072229237
190.0, 0.01980469108657757
191.0, 0.024932453977698065
192.0, 0.02727030296178777
193.0, 0.045096998190731666
194.0, 0.05171520538185747
195.0, 0.061489284259214794
196.0, 0.07534201332924073
197.0, 0.086398002014876
198.0, 0.0960235386574409
199.0, 0.11561551817469645
200.0, 0.131156042937033
201.0, 0.14205818510578871
202.0, 0.1610101227264728
203.0, 0.17601873974665425
204.0, 0.19001521029037385
205.0, 0.20955532263777082
206.0, 0.23528117681320868
207.0, 0.24887335643949746
208.0, 0.26620151304912065
209.0, 0.2820005913241833
210.0, 0.2944140676637307
211.0, 0.31601316581343336
212.0, 0.3305707564574452
213.0, 0.3460230697546859
214.0, 0.36257697512751447
215.0, 0.3741550652670442
216.0, 0.3961463593116579
217.0, 0.4126797443238442
218.0, 0.41863400408666285
219.0, 0.42164996539026683
220.0, 0.4383036869666113
221.0, 0.4480031899017081
222.0, 0.4553806511897706
223.0, 0.4674096538955284
224.0, 0.4818557397877991
225.0, 0.47679960330121385
226.0, 0.4860702677434566
227.0, 0.49123125713529625
228.0, 0.4723084973853785
229.0, 0.45011549921640864
230.0, 0.4087669126412279
231.0, 0.3593295073485038
232.0, 0.30800301086074294
233.0, 0.25632318775847895
234.0, 0.22024880413276415
235.0, 0.19586518785409626
236.0, 0.17292272274989506
237.0, 0.15277714715823507
238.0, 0.15207084896323914
239.0, 0.1441649408746892
240.0, 0.14693392192569354
241.0, 0.1480798314279192
242.0, 0.12617792528817529
243.0, 0.11194088633590811
244.0, 0.09830126878950306
245.0, 0.07949999309722912
246.0, 0.06107391203644114
247.0, 0.05709071503098044
248.0, 0.05424411386453317
249.0, 0.05443307717339662
250.0, 0.05710252706439743
251.0, 0.05872072975769093
252.0, 0.05539026621116234
253.0, 0.050907655349582026
254.0, 0.04953658559980714
255.0, 0.052584427918803855
256.0, 0.05578847358142012
257.0, 0.05439388328068196
258.0, 0.055904875156298876
259.0, 0.059192967487263846
260.0, 0.05932315571509913
261.0, 0.061612201624851266
262.0, 0.05818073898069891
263.0, 0.05610008474714726
264.0, 0.05927695611840049
265.0, 0.061464850033512645
266.0, 0.053468650148021366
267.0, 0.04827446357585681
268.0, 0.044081992906086866
269.0, 0.036455713013595695
270.0, 0.02852779273146816
271.0, 0.02359101780459906
272.0, 0.024088230745012162
273.0, 0.020638288018618403
274.0, 0.006127304548092279
275.0, 0.0037639938455098308
276.0, 0.008923421267627817
277.0, 0.010731203089981383
278.0, 0.007101285235893757
279.0, 0.005371097202764302
280.0, 0.00031955585025453715
281.0, 0.0012928422368114598
282.0, 0.00036844442470380977
283.0, 0.0013852428679279566
284.0, 0.0019691570530386876
285.0, 0.003600788087446933
286.0, 0.002839905921356174
287.0, 0.0007925981812842959
288.0, 0.0029730676111992555
289.0, 0.002838844506529931
290.0, 0.0007201409284589626
291.0, 0.0025050526119847006
292.0, 0.004667119644516377
293.0, 0.0087508414688917
294.0, 0.010443667208761267
295.0, 0.002471308195971164
296.0, 0.005842137884277225
297.0, 0.005375072812911742
298.0, 0.007894676754631912
299.0, 0.014178601446145156
300.0, 0.013616743295071664
301.0, 0.01334866675127913
302.0, 0.02145003288671572
303.0, 0.015561796466592625
304.0, 0.01558128256827071
305.0, 0.023798759623213893
306.0, 0.027882371997509876
307.0, 0.01961038460489315
308.0, 0.024005003653887445
309.0, 0.02998738120582367
310.0, 0.029911371904789784
311.0, 0.02691733580756765
312.0, 0.03011971916093964
313.0, 0.028834568896732783
314.0, 0.03233850889164022
315.0, 0.03711892846028487
316.0, 0.036810911156365755
317.0, 0.03256050791709705
318.0, 0.03541346201164967
319.0, 0.03655523933176516
320.0, 0.03693542152995796
321.0, 0.04140170237251212
322.0, 0.04458749871969903
323.0, 0.04600723794710314
324.0, 0.04941063654612926
325.0, 0.056850030081804816
326.0, 0.06471384340337479
327.0, 0.06526009422199644
328.0, 0.06522938331636359
329.0, 0.06846782351744088
330.0, 0.07737220133575501
331.0, 0.09149351852138701
332.0, 0.09874428015186833
333.0, 0.09962752538885263
334.0, 0.10646421250116221
335.0, 0.12798438582015245
336.0, 0.1593449595709773
337.0, 0.16474487883875852
338.0, 0.19652413509686734
339.0, 0.23334801237016314
340.0, 0.2546500074851753
341.0, 0.2843147395270603
342.0, 0.3001992203241776
343.0, 0.2739544949867947
344.0, 0.2241147999309941
345.0, 0.17405577497266808
346.0, 0.12590558696501802
347.0, 0.09863000832096463
348.0, 0.08418991727279565
349.0, 0.07713679618777915
350.0, 0.07749857687798847
351.0, 0.08541540839450211
352.0, 0.0807364021560526
353.0, 0.08655813035029024
354.0, 0.10771872732603827
355.0, 0.13068438769303814
356.0, 0.1414688178704864
357.0, 0.1583875489498186
358.0, 0.19060088095309785
359.0, 0.23191205536559545
360.0, 0.2739118358077787
361.0, 0.3274578121131831
362.0, 0.3474782465824817
363.0, 0.3261451406417614
364.0, 0.26992930244882307
365.0, 0.19344017981164086
366.0, 0.1298816417267287
367.0, 0.08304209747003025
368.0, 0.06069295510338466
369.0, 0.05210141581703046
370.0, 0.0416075952873768
371.0, 0.04371217399260114
372.0, 0.0376766967284064
373.0, 0.03113870016969297
374.0, 0.029745088851725256
375.0, 0.027342054801086788
376.0, 0.014394721414950589
377.0, 0.0029686671377885518
378.0, 0.001922581407527392
379.0, 0.001764502666305019
380.0, 0.0002886058225965235
381.0, 0.0006637359654463365
382.0, 0.009815848653562035
383.0, 0.011578227976389605
384.0, 0.006354537404967209
385.0, 0.004383586950961446
386.0, 0.008248990460906163
387.0, 0.0037933485700615143
388.0, 0.00028712792312167044
389.0, 0.0008301775063165928
390.0, 0.0022970076344078867
391.0, 0.0140564725702172
392.0, 0.013323002429872773
393.0, 0.018655162866996797
394.0, 0.022966667715636015
395.0, 0.013833938278390332
396.0, 0.02343188974913289
397.0, 0.023227810911547166
398.0, 0.027312112818064414
399.0, 0.034459669493454005
400.0, 0.0351488053856852
401.0, 0.03410932025365532
402.0, 0.04602217006290277
403.0, 0.05240914318439596
404.0, 0.061299499768349947
405.0, 0.0761549343107686
406.0, 0.07609075395080503
407.0, 0.07860160157760142
408.0, 0.07982646733332632
409.0, 0.0702564424190336
410.0, 0.054100485357237396
411.0, 0.04871936262806902
412.0, 0.050018518220832975
413.0, 0.05203866143610147
414.0, 0.057996631704002564
415.0, 0.06449366322290906
416.0, 0.06840715721557991
417.0, 0.0943899229610429
418.0, 0.1137962600955879
419.0, 0.13567856532212483
420.0, 0.1653600802791519
421.0, 0.1992750329628647
422.0, 0.239574572159948
423.0, 0.2528286266057273
424.0, 0.2556065611514907
425.0, 0.2473842600832672
426.0, 0.22236613753128254
427.0, 0.19751676886483546
428.0, 0.17870118981774485
429.0, 0.15521772322710214
430.0, 0.13995381251501682
431.0, 0.1433707961330176
432.0, 0.14346535208481917
433.0, 0.1450998890179325
434.0, 0.13585867063157436
435.0, 0.13068434384914634
436.0, 0.13495232516982697
437.0, 0.12935130638583175
438.0, 0.12427030433128784
439.0, 0.13015938599401847
440.0, 0.13613835625569953
441.0, 0.1340238758395531
442.0, 0.12568908100837084
443.0, 0.12023965066431146
444.0, 0.12453530473811868
445.0, 0.12494826331943046
446.0, 0.1193333460059998
447.0, 0.11535089800380888
448.0, 0.11553557060977782
449.0, 0.11096823968450008
450.0, 0.10895839453924296
451.0, 0.11026602256106813
452.0, 0.10771526613465578
453.0, 0.09988104694269115
454.0, 0.10166860582594794
455.0, 0.09801634758103288
456.0, 0.0934775349045656
457.0, 0.09833161171517636
458.0, 0.10997268548029214
459.0, 0.1024728395394259
460.0, 0.10024063279649352
461.0, 0.1064087374113899
462.0, 0.10871908687743013
463.0, 0.10222774191056481
464.0, 0.10193331618139989
465.0, 0.10802833842209185
466.0, 0.110481019061229
467.0, 0.11401402764988083
468.0, 0.12140831047505819
469.0, 0.12777204069438802
470.0, 0.1358335552922578
471.0, 0.14911276395876344
472.0, 0.16265558356820042
473.0, 0.16935061040341953
474.0, 0.16898702547283476
475.0, 0.17306839715697506
476.0, 0.18560332526197432
477.0, 0.19902918745710077
478.0, 0.20875782259656694
479.0, 0.2167766367042018
480.0, 0.2290829761431725
481.0, 0.24493853494210205
482.0, 0.2647606535850502
483.0, 0.29762278162115446
484.0, 0.337522799521688
485.0, 0.3708585108888629
486.0, 0.40698253913465204
487.0, 0.4360051808180194
488.0, 0.44300155850023204
489.0, 0.43244682137156243
490.0, 0.4032708508759605
491.0, 0.34411060637878743
492.0, 0.28216740006922686
493.0, 0.23802557194216073
494.0, 0.19668661099710175
495.0, 0.15670565758867958
496.0, 0.12829105543263467
497.0, 0.1103805168955781
498.0, 0.09185189763215865
499.0, 0.07128067190106735
500.0, 0.05234029929715418
501.0, 0.039359470098779985
502.0, 0.031505706639459785
503.0, 0.019344260507711826
504.0, 0.008886798616158013
505.0, 0.0038654202294158384
506.0, 0.0015104815883998216
507.0, 0.0009846361893899097
508.0, 0.001149972111011344
509.0, 0.0030715459564850524
510.0, 0.01021558668639215
511.0, 0.010106387118228815
512.0, 0.0026290143692383923
513.0, 0.002971307865328941
514.0, 0.005016284164759369
515.0, 0.013418600784081847
516.0, 0.012000273389664232
517.0, 0.0026638805533185836
518.0, 0.0027507987481924135
519.0, 0.0028332840650550748
520.0, 0.002912902408138561
521.0, 0.012401684391893255
522.0, 0.015535112263952097
523.0, 0.01684352772186495
524.0, 0.02228583556537198
525.0, 0.021984389296790332
526.0, 0.031376766959949384
527.0, 0.03961165408447083
528.0, 0.04398428552745686
529.0, 0.04313718752571802
530.0, 0.03988012817695001
531.0, 0.05079436984980374
532.0, 0.05306640488800779
533.0, 0.056758965085917955
534.0, 0.053346143368514884
535.0, 0.04852126263894385
536.0, 0.05908073461488566
537.0, 0.048671645678670696
538.0, 0.045707105838050016
539.0, 0.04258269741738927
540.0, 0.03616043831980892
541.0, 0.032526138236630954
542.0, 0.036283107179054926
543.0, 0.03967861900582071
544.0, 0.04502027480843031
545.0, 0.042983058769047504
546.0, 0.036870229726244055
547.0, 0.035162126758541634
548.0, 0.03256249892291996
549.0, 0.03229447827905296
550.0, 0.028962562794187404
551.0, 0.02854353617268174
552.0, 0.02771354367352494
553.0, 0.023841666787877122
554.0, 0.029545983843613177
555.0, 0.030460344698386568
556.0, 0.02935035351986178
557.0, 0.030389693469764903
558.0, 0.030003619123040014
559.0, 0.033749191447333994
560.0, 0.0329589729903956
561.0, 0.037224186153003214
562.0, 0.037700480304332255
563.0, 0.034021019481494205
564.0, 0.03869489489369893
565.0, 0.03946323900214467
566.0, 0.0374691483160547
567.0, 0.037973383787093674
568.0, 0.04080173751328758
569.0, 0.04340470878338933
570.0, 0.04503369063317159
571.0, 0.0454571104934332
572.0, 0.04882462576897314
573.0, 0.05603215965119782
574.0, 0.05812063456856166
575.0, 0.05832533454003323
576.0, 0.06093381964468275
577.0, 0.06135801305747824
578.0, 0.054219307567517756
579.0, 0.05761277770706621
580.0, 0.054676589131538306
581.0, 0.044536138967656125
582.0, 0.03818580005972449
583.0, 0.038411404274532476
584.0, 0.028342091998884565
585.0, 0.024686917759923658
586.0, 0.027958881331072397
587.0, 0.031016838661731525
588.0, 0.028991331808065672
589.0, 0.023521884173307802
590.0, 0.021778398295721705
591.0, 0.028860142124680386
592.0, 0.021964957840431416
593.0, 0.02272975184929253
594.0, 0.029876713409121396
595.0, 0.026170741601203494
596.0, 0.02156303124111951
597.0, 0.01880480007294016
598.0, 0.021929184344236137
599.0, 0.021504117484867833
600.0, 0.019797344332859096
601.0, 0.021646014874324243
602.0, 0.018764262989713537
603.0, 0.0318664357030547
604.0, 0.03320317024555524
605.0, 0.03269131900454114
606.0, 0.035494419030115985
607.0, 0.035984320738701774
608.0, 0.03411257427643332
609.0, 0.03850359274644386
610.0, 0.0340130041933804
611.0, 0.039487792301515966
612.0, 0.04581544697423009
613.0, 0.04208694603569067
614.0, 0.04527966257241188
615.0, 0.0438843454967699
616.0, 0.04384545004641785
617.0, 0.045493141034803536
618.0, 0.042170940450863996
619.0, 0.03381339080436206
620.0, 0.02663307698685275
621.0, 0.022673685965152342
622.0, 0.01958823603212783
623.0, 0.012374662329551974
624.0, 0.005919891883971717
625.0, 0.003525800929472562
626.0, 0.0012527816319109495
627.0, 0.005315462640160283
628.0, 0.004741191019419233
629.0, 0.008852926883989
630.0, 0.013105753538873235
631.0, 0.007329611509905958
632.0, 0.0023089160810865197
633.0, 0.0016987647305612018
634.0, 0.0006404489671727374
635.0, 0.00046768556160727974
636.0, 0.007193772054378498
637.0, 0.014589832348130516
638.0, 0.017074748008846386
639.0, 0.02161378288402024
640.0, 0.03297711936488435
641.0, 0.048037963582783755
642.0, 0.06365608003158643
643.0, 0.0759110118963072
644.0, 0.08578443270094493
645.0, 0.09695531053545199
646.0, 0.11078497996658898
647.0, 0.1303645299063121
648.0, 0.13729440445462116
649.0, 0.1474044312364293
650.0, 0.16646026752683066
651.0, 0.18832058335299107
652.0, 0.2123764926597369
653.0, 0.2449633205819834
654.0, 0.28762206197333007
655.0, 0.32587794450063695
656.0, 0.36822594222676286
657.0, 0.40793861099043
658.0, 0.4271228232006225
659.0, 0.4237484039045372
660.0, 0.3737335902687746
661.0, 0.30608774205056477
662.0, 0.231814145760124
663.0, 0.16407521407477135
664.0, 0.10938484270240616
665.0, 0.06841500183264312
666.0, 0.05374936628521231
667.0, 0.03552978237528448
668.0, 0.0260819927946122
669.0, 0.017397622549412517
670.0, 0.008611603361416744
671.0, 0.005185444552171108
672.0, 0.006555499219504409
673.0, 0.010582163591693474
674.0, 0.0038315041146306334
675.0, 0.004252196841316932
676.0, 0.009424112164117416
677.0, 0.012260946653027335
678.0, 0.014839331302607273
679.0, 0.021724900904239494
680.0, 0.028289015629762177
681.0, 0.03926977809839625
682.0, 0.05795950568694522
683.0, 0.0720641492954262
684.0, 0.07567444417035546
685.0, 0.07394747641616223
686.0, 0.06524603967504894
687.0, 0.04227893221369974
688.0, 0.02782410826528487
689.0, 0.007487538520390365
690.0, 0.002246302811398225
691.0, 0.004079865167824554
692.0, 0.00530082418726632
693.0, 0.0033755636019740893
694.0, 0.0007236520786673923
695.0, 0.010139910870588199
696.0, 0.015662276344586366
697.0, 0.014408104203443435
698.0, 0.018164292163078168
699.0, 0.03032256529311507
700.0, 0.036524635787478464
701.0, 0.04169560986445976
702.0, 0.055618520215274046
703.0, 0.06703021353428872
704.0, 0.07472582858295743
705.0, 0.09017679318211917
706.0, 0.11090967950561398
707.0, 0.11412451927226581
708.0, 0.13103347583560668
709.0, 0.14277884040905112
710.0, 0.15468590099732415
711.0, 0.1789672146404183
712.0, 0.19667241995599605
713.0, 0.1779647291852121
714.0, 0.1758773767937244
715.0, 0.17514746810865647
716.0, 0.17002437550368835
717.0, 0.15543162560874843
718.0, 0.13524286598542767
719.0, 0.11979539914763254
720.0, 0.10843247866677147
721.0, 0.09243381415129788
722.0, 0.0791108236603901
723.0, 0.06452703171899135
724.0, 0.05662250886742516
725.0, 0.05078982641360235
726.0, 0.043191994608505396
727.0, 0.04763658555781216
728.0, 0.038620714642561026
729.0, 0.0399532412891642
730.0, 0.0353980526511519
731.0, 0.031796098285106045
732.0, 0.03558848676703239
733.0, 0.03892879405268777
734.0, 0.037108378072147494
735.0, 0.04490486647566661
736.0, 0.04519261572001292
737.0, 0.04542929640303822
738.0, 0.04736885217388954
739.0, 0.05488283789470014
740.0, 0.0631154176826213
741.0, 0.06196295172234817
742.0, 0.059911697482164156
743.0, 0.06369551740495827
744.0, 0.056490424492034834
745.0, 0.05036224670249984
746.0, 0.04511249911782942
747.0, 0.03779840337791858
748.0, 0.031637482454138374
749.0, 0.02876225057684122
750.0, 0.027834665228969928
751.0, 0.031211430852882086
752.0, 0.031885461133066895
753.0, 0.027105064910880022
754.0, 0.02591494199458881
755.0, 0.027809527227328143
756.0, 0.021182428980489745
757.0, 0.03033733260892574
758.0, 0.02487825681353489
759.0, 0.023968196482001308
760.0, 0.02475135829876074
761.0, 0.021709433028561192
762.0, 0.018913561805143784
763.0, 0.019085938507721684
764.0, 0.020288062315852187
765.0, 0.013401320550853524
766.0, 0.010880655067914117
767.0, 0.007447322779115893
768.0, 0.005846230145905556
769.0, 0.007016947999197698
770.0, 0.00481288766224221
771.0, 0.0010187493302533477
772.0, 0.0024851634780257733
773.0, 0.0011807144481146654
774.0, 0.002353907559490855
775.0, 0.00826175634382657
776.0, 0.006309776693162727
777.0, 0.0015946348463992377
778.0, 0.001368706065692626
779.0, 0.00047964457138214395
780.0, 0.0002342789519939866
781.0, 0.0007201828269594716
782.0, 0.0024918576415238537
783.0, 0.0014243805208508666
784.0, 0.0023379951765906547
785.0, 0.005125125530814367
786.0, 0.0020923877702430727
787.0, 0.0005734476801497297
788.0, 0.0003087973828613232
789.0, 0.0001696464676076592
790.0, 0.004894136975307293
791.0, 0.004654667324519567
792.0, 0.0002920592069099502
793.0, 0.0013542016464347768
794.0, 0.004615888126491286
795.0, 0.0014613745141288518
796.0, 0.0007632923757486398
797.0, 0.002363082239853581
798.0, 0.0011890083583586048
799.0, 0.0005038125487488508
800.0, 0.00013853786387333652
801.0, 0.001305757550444249
802.0, 0.0029599834232296065
803.0, 0.0028294837527739944
804.0, 0.0066060827648004574
805.0, 0.0014833446675338816
806.0, 0.0006873870291326935
807.0, 0.0033690055909220674
808.0, 0.0020379940373185077
809.0, 0.0013630436436572338
810.0, 0.0011310535511504902
811.0, 0.004653611611885531
812.0, 0.006010109933354532
813.0, 0.005071721979547638
814.0, 0.009134310024045111
815.0, 0.00893901236478577
816.0, 0.004944343787175519
817.0, 0.007275353288078227
818.0, 0.00899164841649398
819.0, 0.009392228189700593
820.0, 0.00971043632117715
821.0, 0.009821293885680319
822.0, 0.01196571016618096
823.0, 0.012852857117914418
824.0, 0.013428912734382976
825.0, 0.015661121664105628
826.0, 0.01105104862693975
827.0, 0.0184947304350332
828.0, 0.014872342590113524
829.0, 0.017076026818584614
830.0, 0.021571819375209234
831.0, 0.018407369207841022
832.0, 0.016470457318642696
833.0, 0.022302358444685446
834.0, 0.02032105962529089
835.0, 0.0203489265997903
836.0, 0.022682853414190175
837.0, 0.020900751406737493
838.0, 0.022009573701631896
839.0, 0.022599506278091295
840.0, 0.0274237685372017
841.0, 0.03321819730430743
842.0, 0.030585950092154996
843.0, 0.03491825369435866
844.0, 0.03312167093942951
845.0, 0.03782009690157603
846.0, 0.041256306923228715
847.0, 0.04547881356480992
848.0, 0.05276168937378469
849.0, 0.05908393684551255
850.0, 0.0620297591838311
851.0, 0.07124041584247581
852.0, 0.08344215806315926
853.0, 0.09374895321607846
854.0, 0.10364883411156667
855.0, 0.11184840629706526
856.0, 0.11932234801749192
857.0, 0.12832379917398107
858.0, 0.14223419863638992
859.0, 0.15972378649346844
860.0, 0.16923967053216282
861.0, 0.18277298411869217
862.0, 0.19719748795888012
863.0, 0.20072618053494248
864.0, 0.2041118700629314
865.0, 0.20162529516798003
866.0, 0.18761945155235982
867.0, 0.16811291152402122
868.0, 0.14750599154001018
869.0, 0.1291882981770984
870.0, 0.11562582983947378
871.0, 0.10125878164776844
872.0, 0.09132770369952566
873.0, 0.07989417581164761
874.0, 0.07181637263821064
875.0, 0.06717069799464007
876.0, 0.06172156347861045
877.0, 0.06224255375092483
878.0, 0.05290695203556263
879.0, 0.05007448446268488
880.0, 0.048668899123038456
881.0, 0.04857610305010917
882.0, 0.0470902988299923
883.0, 0.04356376988782395
884.0, 0.03795076363817557
885.0, 0.03643212068595441
886.0, 0.03663417919245287
887.0, 0.03744242650412237
888.0, 0.027158123691467972
889.0, 0.02794477385029178
890.0, 0.029529457809653076
891.0, 0.028816917319724567
892.0, 0.025128141437333808
893.0, 0.020395940762270495
894.0, 0.019459849710807848
895.0, 0.01742281026741002
896.0, 0.009672252651041772
897.0, 0.01368915433639887
898.0, 0.013989792531598494
899.0, 0.00895189423578059
900.0, 0.007791126771318982
901.0, 0.006032179739710536
902.0, 0.001618082426141937
903.0, 0.0013154958662051726
904.0, 0.0021862155777821572
905.0, 0.00016551517237903005
906.0, 0.002014485082568218
907.0, 0.00042761991126630033
908.0, 0.0025118040999207664
909.0, 0.003017747416933961
910.0, 0.0072303490067489925
911.0, 0.008699297407841105
912.0, 0.0038989996983270266
913.0, 0.00703146015232802
914.0, 0.002714469478608186
915.0, 0.005954289978014778
916.0, 0.004145934678179521
917.0, 0.0031955472773909734
918.0, 0.0008009502315652752
919.0, 0.002427635678783787
920.0, 0.0036712415725669426
921.0, 0.0062746951337654166
922.0, 0.004400015596987861
923.0, 0.004467809078793737
924.0, 0.023119764320666186
925.0, 0.02064824659917049
926.0, 0.018489270875949655
927.0, 0.026659868851526256
928.0, 0.03964867162933722
929.0, 0.046061252271743694
930.0, 0.0534593709155731
931.0, 0.06488269337872661
932.0, 0.06959073482004356
933.0, 0.08194473885534741
934.0, 0.09769552042160834
935.0, 0.11375060103363148
936.0, 0.12746956553463779
937.0, 0.14197345135641531
938.0, 0.16267852459444393
939.0, 0.17683779362176022
940.0, 0.18709154914340803
941.0, 0.20711262039550443
942.0, 0.22751400067112507
943.0, 0.24681455042049305
944.0, 0.25825747958043055
945.0, 0.271983676297934
946.0, 0.28225516676831636
947.0, 0.28301054248660185
948.0, 0.283211756247079
949.0, 0.2789568073934721
950.0, 0.2648516667494171
951.0, 0.24650068893864036
952.0, 0.22917463677158859
953.0, 0.2107984168554607
954.0, 0.18801385269886994
955.0, 0.17694744720392597
956.0, 0.16620376344609175
957.0, 0.14933737114979895
958.0, 0.14064357369916794
959.0, 0.13221431391091953
960.0, 0.12452234209262743
961.0, 0.13185666112594982
962.0, 0.132976809957882
963.0, 0.12505319581087943
964.0, 0.13064483747758973
965.0, 0.13604161551791075
966.0, 0.13489998145309107
967.0, 0.14078815925065735
968.0, 0.14865191136930173
969.0, 0.15302811219995383
970.0, 0.15815428527343672
971.0, 0.16163399871091683
972.0, 0.16429189236942923
973.0, 0.17418941010816405
974.0, 0.1724847159937163
975.0, 0.17835702757577612
976.0, 0.19168508938147574
977.0, 0.1951335934791377
978.0, 0.19807834267811852
979.0, 0.20296673996688833
980.0, 0.21180260769508574
981.0, 0.2202693410287725
982.0, 0.22335229393417644
983.0, 0.22703624493085212
984.0, 0.22973110337237487
985.0, 0.24363904826188038
986.0, 0.24466746695299266
987.0, 0.25799646587007663
988.0, 0.2634066019731555
989.0, 0.2697767326055662
990.0, 0.2779162719464138
991.0, 0.27762774739542256
992.0, 0.26671392623787166
993.0, 0.250518056424943
994.0, 0.23353031941496566
995.0, 0.21333765743300748
996.0, 0.1917436987604199
997.0, 0.158449140397162
998.0, 0.13982225292419057
999.0, 0.11433175020178553
1000.0, 0.09910407133274562
1001.0, 0.08333543103009694
1002.0, 0.07237967790009024
1003.0, 0.06505084398525914
1004.0, 0.050749073880747675
1005.0, 0.04274773546102836
1006.0, 0.041768398058412766
1007.0, 0.035954021327593774
1008.0, 0.028783556527598977
1009.0, 0.0245457567309006
1010.0, 0.028373871997683486
1011.0, 0.023181888206991713
1012.0, 0.016880082841858785
1013.0, 0.01647447789365172
1014.0, 0.018508435885925507
1015.0, 0.017942690965198356
1016.0, 0.016007128218217863
1017.0, 0.01647778075314454
1018.0, 0.011250901921356027
1019.0, 0.018252919250439436
1020.0, 0.01730635000819206
1021.0, 0.01886520968236755
1022.0, 0.020647404272113878
1023.0, 0.028303756955731705
1024.0, 0.031275385639310774
1025.0, 0.03690406399130829
1026.0, 0.03928983167774522
1027.0, 0.03992758223285834
1028.0, 0.047887019420861716
1029.0, 0.051070453611473124
1030.0, 0.052457550561557216
1031.0, 0.05513868707514573
1032.0, 0.06606700631275678
1033.0, 0.07510118418963029
1034.0, 0.07754723391133816
1035.0, 0.08064862011485635
1036.0, 0.0808190518717494
1037.0, 0.08135883282893436
1038.0, 0.08420824662360026
1039.0, 0.08474184547005764
1040.0, 0.08268319669124341
1041.0, 0.08049271693990749
1042.0, 0.08291688752307326
1043.0, 0.08082870077256263
1044.0, 0.07910652761818182
1045.0, 0.07451105115294969
1046.0, 0.07067781878545622
1047.0, 0.06277351915273
1048.0, 0.05640537414387995
1049.0, 0.0538846267844313
1050.0, 0.047922486156948337
1051.0, 0.04217245867059498
1052.0, 0.04048771794797638
1053.0, 0.032055012441803726
1054.0, 0.035499139029687245
1055.0, 0.030769021912759844
1056.0, 0.025639489804819237
1057.0, 0.022118656225159922
1058.0, 0.02090195153112035
1059.0, 0.01968730994814994
1060.0, 0.019586021527242075
1061.0, 0.015271756935123946
1062.0, 0.012354949760837803
1063.0, 0.015240112797263117
1064.0, 0.01603573881844749
1065.0, 0.012560672748604965
1066.0, 0.010536188908375902
1067.0, 0.007236412802955983
1068.0, 0.004812742052665178
1069.0, 0.002735199412955159
1070.0, 0.0010743167571324577
1071.0, 0.001470174736313079
1072.0, 0.000819997405171467
1073.0, 0.0024009806941512222
1074.0, 0.0036521881667959492
1075.0, 0.005058234281036028
1076.0, 0.00283898744628024
1077.0, 0.00313807538309101
1078.0, 0.002672588164365119
1079.0, 0.0022812742749007487
1080.0, 0.007447761511485219
1081.0, 0.0019751714143563617
1082.0, 0.00038428589894963765
1083.0, 0.0026099754650615783
1084.0, 0.0023200290110310393
1085.0, 0.0010602342073269765
1086.0, 0.0016781252734918103
1087.0, 0.00023128667250919529
1088.0, 0.000968303360828063
1089.0, 0.0018054753037701071
1090.0, 0.002219144456027832
1091.0, 0.0015741264618995311
1092.0, 0.000885387349846656
1093.0, 0.002965823052430922
1094.0, 0.00348793176445238
1095.0, 0.00280700366537015
1096.0, 0.0007660587274032793
1097.0, 0.0023536883035271327
1098.0, 0.000907095179882485
1099.0, 0.00012341056674179516
1100.0, 0.0027724002590783846
1101.0, 0.0010407384558825381
1102.0, 0.0014532399359162987
1103.0, 0.0008236941747500079
1104.0, 0.000259981407348805
1105.0, 0.0017805824743280488
1106.0, 0.0011153488850355543
1107.0, 0.0018174274708623493
1108.0, 0.0014569371129687985
1109.0, 0.005136609570027645
1110.0, 0.009028893032268575
1111.0, 0.0024847451962026704
1112.0, 0.00484162357663277
1113.0, 0.0021290962206115815
1114.0, 0.0039220445613953134
1115.0, 0.004056872906889398
1116.0, 0.0026511000448450417
1117.0, 0.002895705058464752
1118.0, 0.004982866257885493
1119.0, 0.0044821883846317976
1120.0, 0.0012669500010427071
1121.0, 0.0057795418528723925
1122.0, 0.01065031814055828
1123.0, 0.007224976126079145
1124.0, 0.004839140525538245
1125.0, 0.008439809182468925
1126.0, 0.006885033027652126
1127.0, 0.006859937471400613
1128.0, 0.00893679423462872
1129.0, 0.004906476135686387
1130.0, 0.010763972705427432
1131.0, 0.016060517459081596
1132.0, 0.008652455875194276
1133.0, 0.0005134898877714834
1134.0, 0.005761674713527478
1135.0, 0.009834989123162994
1136.0, 0.005433393826070509
1137.0, 0.009173464644874505
1138.0, 0.008978286746369291
1139.0, 0.011298754339090824
1140.0, 0.015121088938578378
1141.0, 0.013371892499506578
1142.0, 0.010142700845384127
1143.0, 0.014576891489369366
1144.0, 0.01499916037900445
1145.0, 0.016183805450919353
1146.0, 0.014738462489746562
1147.0, 0.009920582391179404
1148.0, 0.007377683048231486
1149.0, 0.011454897389469722
1150.0, 0.01850693314392049
1151.0, 0.02172874678891921
1152.0, 0.017587977772163366
1153.0, 0.012471000351708828
1154.0, 0.012478722104367894
1155.0, 0.008869063584911303
1156.0, 0.00956037446953429
1157.0, 0.01672108258072451
1158.0, 0.012842203812178779
1159.0, 0.014528078267171606
1160.0, 0.016365005292419486
1161.0, 0.013410265449368896
1162.0, 0.011923000896936556
1163.0, 0.007247599770640222
1164.0, 0.009583906125856507
1165.0, 0.010838275593742036
1166.0, 0.007048074965430735
1167.0, 0.01142473165271702
1168.0, 0.015936451449748836
1169.0, 0.012689063644887874
1170.0, 0.014527865292110208
1171.0, 0.018086926395742213
1172.0, 0.013526165580555177
1173.0, 0.00863626297288138
1174.0, 0.013273538558090464
1175.0, 0.016057831494657705
1176.0, 0.010072978775317615
1177.0, 0.007016423356397311
1178.0, 0.007293238731606307
1179.0, 0.009278491576919753
1180.0, 0.011950663008060523
1181.0, 0.012774254177302276
1182.0, 0.01141519193879788
1183.0, 0.008116638411574294
1184.0, 0.007661354204020705
1185.0, 0.009340024489655454
1186.0, 0.013077803782595137
1187.0, 0.013209835782517707
1188.0, 0.010592703741940171
1189.0, 0.012143577706187925
1190.0, 0.010737254485000687
1191.0, 0.011285380690658566
1192.0, 0.010459131550887492
1193.0, 0.01119910893132574
1194.0, 0.01551501652622453
1195.0, 0.010258677543142013
1196.0, 0.008000108256364723
1197.0, 0.013712638920012638
1198.0, 0.009964495524646382
1199.0, 0.00862187372157841
1200.0, 0.00869969111808074
1201.0, 0.011253749961532939
1202.0, 0.012464601338631559
1203.0, 0.010476808978392744
1204.0, 0.01007708700384943
1205.0, 0.011513284097534158
1206.0, 0.008206571978297668
1207.0, 0.00677034416946142
1208.0, 0.008196706019701294
1209.0, 0.006316995746739656
1210.0, 0.010410125619267411
1211.0, 0.01404265415583679
1212.0, 0.007361127384716633
1213.0, 0.009554497525212183
1214.0, 0.010199338430010828
1215.0, 0.010397154336506445
1216.0, 0.008042800176339616
1217.0, 0.009166276941197688
1218.0, 0.012688709505068597
1219.0, 0.008086449048922452
1220.0, 0.004784398950543298
1221.0, 0.0015796994181496403
1222.0, 0.00553046134228982
1223.0, 0.006377152570076426
1224.0, 0.004592079485538416
1225.0, 0.003794687943329499
1226.0, 0.0031495850930165392
1227.0, 0.003076433045130579
1228.0, 0.004719981543280582
1229.0, 0.0043015228200828474
1230.0, 0.002095373645933049
1231.0, 0.002201809251593192
1232.0, 0.0022574990334675296
1233.0, 0.002555469807121307
1234.0, 0.005425873826170691
1235.0, 0.007588792492703528
1236.0, 0.008135203022744258
1237.0, 0.004881993008378917
1238.0, 0.0059382179311791225
1239.0, 0.007263365987112237
1240.0, 0.007780895148618775
1241.0, 0.0072100311687184095
1242.0, 0.006590833876516559
1243.0, 0.004182937335843975
1244.0, 0.005584054330718484
1245.0, 0.01025448485761417
1246.0, 0.0028541211103429755
1247.0, 0.00181798891759983
1248.0, 0.005510308682073466
1249.0, 0.0047090884590052385
1250.0, 0.0031576254119342565
1251.0, 0.004118377599884528
1252.0, 0.000336630472981867
1253.0, 0.0011340207764463487
1254.0, 0.006908427021653303
1255.0, 0.006802205966114937
1256.0, 0.008658708801452034
1257.0, 0.007608244639853861
1258.0, 0.004409598519201483
1259.0, 0.004747136842873424
1260.0, 0.0024498810345738144
1261.0, 0.0064497998112136275
1262.0, 0.00754135286505068
1263.0, 0.004614585847145622
1264.0, 0.0056723327580142785
1265.0, 0.004386023403655759
1266.0, 0.004869468980500787
1267.0, 0.0029806752506479645
1268.0, 0.005172492381025194
1269.0, 0.0025712558465529754
1270.0, 0.004780345015372138
1271.0, 0.002491279666548041
1272.0, 0.0010786197590376665
1273.0, 0.0017870511734505935
1274.0, 0.002939153307772247
1275.0, 0.0020127155510361464
1276.0, 0.002844343241125113
1277.0, 0.004534031154849494
1278.0, 0.0025646162430519705
1279.0, 0.0003216051621499088
1280.0, 0.0017846466163029717
1281.0, 0.003785522907183345
1282.0, 0.003835017501186575
1283.0, 0.0015687746547438292
1284.0, 0.002737609586434815
1285.0, 0.005233403891119347
1286.0, 0.00021124167296053054
1287, 0.0
1288, 0.0
1289, 0.0
1290, 0.0
1291, 0.0
1292, 0.0
1293, 0.0
1294, 0.0
1295, 0.0
1296, 0.0
1297, 0.0
1298, 0.0
1299, 0.0
1300, 0.0
1301, 0.0
1302, 0.0
1303, 0.0
1304, 0.0
1305, 0.0
1306, 0.0
1307, 0.0
1308, 0.0
1309, 0.0
1310, 0.0
1311, 0.0
1312, 0.0
1313, 0.0
1314, 0.0
1315, 0.0
1316, 0.0
1317, 0.0
1318, 0.0
1319, 0.0
1320, 0.0
1321, 0.0
1322, 0.0
1323, 0.0
1324, 0.0
1325, 0.0
1326, 0.0
1327, 0.0
1328, 0.0
1329, 0.0
1330, 0.0
1331, 0.0
1332, 0.0
1333, 0.0
1334, 0.0
1335, 0.0
1336, 0.0
1337, 0.0
1338, 0.0
1339, 0.0
1340, 0.0
1341, 0.0
1342, 0.0
1343, 0.0
1344, 0.0
1345, 0.0
1346, 0.0
1347, 0.0
1348, 0.0
1349, 0.0
1350, 0.0
1351, 0.0
1352, 0.0
1353, 0.0
1354, 0.0
1355, 0.0
1356, 0.0
1357, 0.0
1358, 0.0
1359, 0.0
1360, 0.0
1361, 0.0
1362, 0.0
1363, 0.0
1364, 0.0
1365, 0.0
1366, 0.0
1367, 0.0
1368, 0.0
1369, 0.0
1370, 0.0
1371, 0.0
1372, 0.0
1373, 0.0
1374, 0.0
1375, 0.0
1376, 0.0
1377, 0.0
1378, 0.0
1379, 0.0
1380, 0.0
1381, 0.0
1382, 0.0
1383, 0.0
1384, 0.0
1385, 0.0
1386, 0.0
1387, 0.0
1388, 0.0
1389, 0.0
1390, 0.0
1391, 0.0
1392, 0.0
1393, 0.0
1394, 0.0
1395, 0.0
1396, 0.0
1397, 0.0
1398, 0.0
1399, 0.0
1400, 0.0
1401, 0.0
1402, 0.0
1403, 0.0
1404, 0.0
1405, 0.0
1406, 0.0
1407, 0.0
1408, 0.0
1409, 0.0
1410, 0.0
1411, 0.0
1412, 0.0
1413, 0.0
1414, 0.0
1415, 0.0
1416, 0.0
1417, 0.0
1418, 0.0
1419, 0.0
1420, 0.0
1421, 0.0
1422, 0.0
1423, 0.0
1424, 0.0
1425, 0.0
1426, 0.0
1427, 0.0
1428, 0.0
1429, 0.0
1430, 0.0
1431, 0.0
1432, 0.0
1433, 0.0
1434, 0.0
1435, 0.0
1436, 0.0
1437, 0.0
1438, 0.0
1439, 0.0
1440, 0.0
1441, 0.0
1442, 0.0
1443, 0.0
1444, 0.0
1445, 0.0
1446, 0.0
1447, 0.0
1448, 0.0
1449, 0.0
1450, 0.0
1451, 0.0
1452, 0.0
1453, 0.0
1454, 0.0
1455, 0.0
1456, 0.0
1457, 0.0
1458, 0.0
1459, 0.0
1460, 0.0
1461, 0.0
1462, 0.0
1463, 0.0
1464, 0.0
1465, 0.0
1466, 0.0
1467, 0.0
1468, 0.0
1469, 0.0
1470, 0.0
1471, 0.0
1472, 0.0
1473, 0.0
1474, 0.0
1475, 0.0
1476, 0.0
1477, 0.0
1478, 0.0
1479, 0.0
1480, 0.0
1481, 0.0
1482, 0.0
1483, 0.0
1484, 0.0
1485, 0.0
1486, 0.0
1487, 0.0
1488, 0.0
1489, 0.0
1490, 0.0
1491, 0.0
1492, 0.0
1493, 0.0
1494, 0.0
1495, 0.0
1496, 0.0
1497, 0.0
1498, 0.0
1499, 0.0
1500, 0.0
1501, 0.0
1502, 0.0
1503, 0.0
1504, 0.0
1505, 0.0
1506, 0.0
1507, 0.0
1508, 0.0
1509, 0.0
1510, 0.0
1511, 0.0
1512, 0.0
1513, 0.0
1514, 0.0
1515, 0.0
1516, 0.0
1517, 0.0
1518, 0.0
1519, 0.0
1520, 0.0
1521, 0.0
1522, 0.0
1523, 0.0
1524, 0.0
1525, 0.0
1526, 0.0
1527, 0.0
1528, 0.0
1529, 0.0
1530, 0.0
1531, 0.0
1532, 0.0
1533, 0.0
1534, 0.0
1535, 0.0
1536, 0.0
1537, 0.0
1538, 0.0
1539, 0.0
1540, 0.0
1541, 0.0
1542, 0.0
1543, 0.0
1544, 0.0
1545, 0.0
1546, 0.0
1547, 0.0
1548, 0.0
1549, 0.0
1550, 0.0
1551, 0.0
1552, 0.0
1553, 0.0
1554, 0.0
1555, 0.0
1556, 0.0
1557, 0.0
1558, 0.0
1559, 0.0
1560, 0.0
1561, 0.0
1562, 0.0
1563, 0.0
1564, 0.0
1565, 0.0
1566, 0.0
1567, 0.0
1568, 0.0
1569, 0.0
1570, 0.0
1571, 0.0
1572, 0.0
1573, 0.0
1574, 0.0
1575, 0.0
1576, 0.0
1577, 0.0
1578, 0.0
1579, 0.0
1580, 0.0
1581, 0.0
1582, 0.0
1583, 0.0
1584, 0.0
1585, 0.0
1586, 0.0
1587, 0.0
1588, 0.0
1589, 0.0
1590, 0.0
1591, 0.0
1592, 0.0
1593, 0.0
1594, 0.0
1595, 0.0
1596, 0.0
1597, 0.0
1598, 0.0
1599, 0.0
