30, 0.0
31, 0.0
32, 0.0
33, 0.0
34, 0.0
35, 0.0
36, 0.0
37, 0.0
38, 0.0
39, 0.0
40, 0.0
41, 0.0
42, 0.0
43, 0.0
44, 0.0
45, 0.0
46, 0.0
47, 0.0
48, 0.0
49, 0.0
50, 0.0
51, 0.0
52, 0.0
53, 0.0
54, 0.0
55, 0.0
56, 0.0
57, 0.0
58, 0.0
59, 0.0
60, 0.0
61, 0.0
62, 0.0
63, 0.0
64, 0.0
65, 0.0
66, 0.0
67, 0.0
68, 0.0
69, 0.0
70, 0.0
71, 0.0
72, 0.0
73, 0.0
74, 0.0
75, 0.0
76, 0.0
77, 0.0
78, 0.0
79, 0.0
80, 0.0
81, 0.0
82, 0.0
83, 0.0
84, 0.0
85, 0.0
86, 0.0
87, 0.0
88, 0.0
89, 0.0
90, 0.0
91, 0.0
92, 0.0
93, 0.0
94, 0.0
95, 0.0
96, 0.0
97, 0.0
98, 0.0
99, 0.0
100, 0.0
101, 0.0
102, 0.0
103, 0.0
104, 0.0
105, 0.0
106, 0.0
107, 0.0
108, 0.0
109, 0.0
110, 0.0
111, 0.0
112, 0.0
113, 0.0
114, 0.0
115, 0.0
116, 0.0
117, 0.0
118, 0.0
119, 0.0
120, 0.0
121, 0.0
122, 0.0
123, 0.0
124, 0.0
125, 0.0
126, 0.0
127, 0.0
128, 0.0
129, 0.0
130, 0.0
131, 0.0
132, 0.0
133, 0.0
134, 0.0
135, 0.0
136, 0.0
137, 0.0
138, 0.0
139, 0.0
140, 0.0
141, 0.0
142, 0.0
143, 0.0
144, 0.0
145, 0.0
146, 0.0
147, 0.0
148, 0.0
149, 0.0
150, 0.0
151, 0.0
152, 0.0
153, 0.0
154, 0.0
155, 0.0
156, 0.0
157, 0.0
158, 0.0
159, 0.0
160, 0.0
161, 0.0
162, 0.0
163, 0.0
164, 0.0
165, 0.0
166.0, 0.0035267840660189237
167.0, 0.009364610857902545
168.0, 0.00019929583621424856
169.0, 0.00037800415442454355
170.0, 0.0011902488974888021
171.0, 0.0012308789490275925
172.0, 0.0005132058901409545
173.0, 0.0010932291545980568
174.0, 0.0023278225401472787
175.0, 0.005028881042870583
176.0, 0.007335991650092806
177.0, 0.011274761288331287
178.0, 0.007634806888182885
179.0, 0.010129517989887952
180.0, 0.017719502001396513
181.0, 0.02392639981071815
182.0, 0.02308192883711568
183.0, 0.026464204142822325
184.0, 0.029522233561026137
185.0, 0.03156415255910066
186.0, 0.038711036437740855
187.0, 0.05310863342118927
188.0, 0.0643650182334041
189.0, 0.07250276018565453
190.0, 0.08197834097839303
191.0, 0.09030980062223003
192.0, 0.1068118156899759
193.0, 0.11745308830438832
194.0, 0.12088223707597602
195.0, 0.13401351850520504
196.0, 0.14308090950111987
197.0, 0.15780847899805397
198.0, 0.1785871406865706
199.0, 0.19810660642077216
200.0, 0.20584690111643758
201.0, 0.2203968567961581
202.0, 0.2404273361233636
203.0, 0.2579664994926708
204.0, 0.2596719623500118
205.0, 0.2780204375223292
206.0, 0.2960931193660952
207.0, 0.30682255270610354
208.0, 0.32083576179914913
209.0, 0.33874182437251155
210.0, 0.3517369195417455
211.0, 0.3559513263341243
212.0, 0.3575185881614119
213.0, 0.373617585446931
214.0, 0.3787280679273146
215.0, 0.38057435061682043
216.0, 0.3828727888310513
217.0, 0.37569332407593864
218.0, 0.3805263889857135
219.0, 0.3851952712614749
220.0, 0.37934942269627386
221.0, 0.36377418415692325
222.0, 0.3639652577290775
223.0, 0.35723695314000603
224.0, 0.3474203513663122
225.0, 0.3432561188085222
226.0, 0.34441597231624227
227.0, 0.33672485294809595
228.0, 0.3266136110722151
229.0, 0.3222577774770788
230.0, 0.32577110942684645
231.0, 0.3316427056893406
232.0, 0.32784453676901926
233.0, 0.32418119142775725
234.0, 0.32472121192024367
235.0, 0.32581172587400936
236.0, 0.33240167215542293
237.0, 0.33564251837340303
238.0, 0.3333611444437277
239.0, 0.3283402129283004
240.0, 0.32708980490748824
241.0, 0.32396032249899764
242.0, 0.3201441861060335
243.0, 0.32114155574100534
244.0, 0.33420217622043186
245.0, 0.3342869978517278
246.0, 0.33229568419234473
247.0, 0.3305843144592659
248.0, 0.3260490878635855
249.0, 0.31515670246007293
250.0, 0.31462679750383676
251.0, 0.312879720501712
252.0, 0.3017747759004947
253.0, 0.2865171893213844
254.0, 0.2731797947082129
255.0, 0.26343152486503874
256.0, 0.2496392746586674
257.0, 0.22993879084123908
258.0, 0.21457876729555456
259.0, 0.20235641927452283
260.0, 0.1858027290586491
261.0, 0.16878508863024103
262.0, 0.15793990122126303
263.0, 0.1486476145728055
264.0, 0.1392633196843827
265.0, 0.127421098331221
266.0, 0.11515453227453658
267.0, 0.10840599593009154
268.0, 0.10526030496895503
269.0, 0.10009340259920778
270.0, 0.09167189202576127
271.0, 0.08330510303597814
272.0, 0.0810553518645018
273.0, 0.07634097169458914
274.0, 0.06985503162598815
275.0, 0.06797737413365161
276.0, 0.07294149691543794
277.0, 0.06707901293716116
278.0, 0.05150304240174697
279.0, 0.04307027586943803
280.0, 0.04549993911587954
281.0, 0.04661091954825207
282.0, 0.04127453395090716
283.0, 0.035143853048506715
284.0, 0.029351407295110356
285.0, 0.023428626410515643
286.0, 0.020036705065294345
287.0, 0.016645646703146534
288.0, 0.014392554904915712
289.0, 0.01173112574208041
290.0, 0.006851606004528115
291.0, 0.007953145704575008
292.0, 0.005792295616416061
293.0, 0.0021977098753871304
294.0, 0.00035051844854844504
295.0, 0.0005020790666973434
296.0, 0.0001087300270257046
297.0, 0.004313174699108194
298.0, 0.008270171676434073
299.0, 0.008405112098070436
300.0, 0.010510638408218404
301.0, 0.012867045198737551
302.0, 0.012298750178897153
303.0, 0.011207194051696396
304.0, 0.011145001271381993
305.0, 0.007309537613967184
306.0, 0.00910894788485467
307.0, 0.01067785139006035
308.0, 0.008967152716546542
309.0, 0.005338824006980823
310.0, 0.0012826385576684314
311.0, 0.0015212920150482312
312.0, 0.0007198955295774714
313.0, 0.0040815281018122375
314.0, 0.0026784062332845865
315.0, 0.005427159686296704
316.0, 0.007337874906534638
317.0, 0.00947813799218509
318.0, 0.01186411547789737
319.0, 0.01537802879077873
320.0, 0.02326479260658133
321.0, 0.029092982399738423
322.0, 0.031964842120354824
323.0, 0.03732423921590852
324.0, 0.04841232895784062
325.0, 0.04995314609696337
326.0, 0.053735744580133554
327.0, 0.058290773545034376
328.0, 0.06040402041595065
329.0, 0.07391740970001147
330.0, 0.0802289954015569
331.0, 0.0841848165500051
332.0, 0.09024540905249141
333.0, 0.09672464465177429
334.0, 0.09859889745684577
335.0, 0.10071358684173314
336.0, 0.102816449756357
337.0, 0.10584638849566236
338.0, 0.11239524746846657
339.0, 0.12412192911611641
340.0, 0.12257377264647967
341.0, 0.12069985594142027
342.0, 0.12429750297223097
343.0, 0.12134489509844246
344.0, 0.11503059965470698
345.0, 0.11132830888849943
346.0, 0.11253200819792589
347.0, 0.11538204373112716
348.0, 0.11391359351828194
349.0, 0.11382212351142651
350.0, 0.10690812856292262
351.0, 0.10055467530904201
352.0, 0.10133744269066461
353.0, 0.10321217076782692
354.0, 0.09681524963355709
355.0, 0.08943213833662486
356.0, 0.08508211271866348
357.0, 0.08491171073353228
358.0, 0.08729235609130315
359.0, 0.07994513278972369
360.0, 0.07629598662438958
361.0, 0.07869961463441838
362.0, 0.07977856053458997
363.0, 0.07374299887666444
364.0, 0.07611610535227406
365.0, 0.0803534337949809
366.0, 0.08203542734132795
367.0, 0.08201466911693427
368.0, 0.08449303685750716
369.0, 0.08693869141734056
370.0, 0.09195179906311009
371.0, 0.09666002637415133
372.0, 0.09893157932132128
373.0, 0.1000368795592459
374.0, 0.10609246529617763
375.0, 0.10225068909876078
376.0, 0.10034364868547124
377.0, 0.10901840442998229
378.0, 0.11359940783431377
379.0, 0.11625739064747202
380.0, 0.11910051152342056
381.0, 0.11747322944462835
382.0, 0.11342217275221289
383.0, 0.12692561288345142
384.0, 0.13471660031561403
385.0, 0.13266181330715762
386.0, 0.12983899307773192
387.0, 0.13142411326169542
388.0, 0.12804144168924175
389.0, 0.13342548676564484
390.0, 0.13652374043470802
391.0, 0.1321856432728195
392.0, 0.1268009799394672
393.0, 0.12670062309055274
394.0, 0.12307796244591908
395.0, 0.12098390647040956
396.0, 0.1165046430279085
397.0, 0.10771693050157087
398.0, 0.09789914804294265
399.0, 0.09244299268185135
400.0, 0.08286504367969535
401.0, 0.07686491438374009
402.0, 0.07405793115957976
403.0, 0.06614301719077047
404.0, 0.054431658710124085
405.0, 0.04407586209462604
406.0, 0.03884711147632308
407.0, 0.03450722756771381
408.0, 0.024214244151332623
409.0, 0.020262800662131156
410.0, 0.01488337455170793
411.0, 0.009847799461087166
412.0, 0.008164135273936392
413.0, 0.010777228553193472
414.0, 0.013813940878664834
415.0, 0.006406274911932397
416.0, 0.004869713538154962
417.0, 0.005804407864857508
418.0, 0.003763216122251252
419.0, 0.01434159287918399
420.0, 0.015751449638228988
421.0, 0.02372565953920298
422.0, 0.031282459323500454
423.0, 0.029992901526597657
424.0, 0.03147357906273134
425.0, 0.040881010781927685
426.0, 0.05147019410202802
427.0, 0.06021928068490139
428.0, 0.06697272615442923
429.0, 0.07446527036923704
430.0, 0.08870255632301376
431.0, 0.10051880856778392
432.0, 0.10958591880778602
433.0, 0.1232301736486819
434.0, 0.14241800400649443
435.0, 0.1546410612334174
436.0, 0.1737003826584973
437.0, 0.193209875384614
438.0, 0.2156495165900174
439.0, 0.2426940678254419
440.0, 0.26486957676501915
441.0, 0.28250337302348166
442.0, 0.3102854138311088
443.0, 0.34389301856090937
444.0, 0.3754979065910332
445.0, 0.4052261441859971
446.0, 0.4417560747069347
447.0, 0.472214159120956
448.0, 0.5044249710713854
449.0, 0.5412060940679851
450.0, 0.5751891580179826
451.0, 0.6026333158091275
452.0, 0.6448531632357183
453.0, 0.6769968623639119
454.0, 0.7015176323784714
455.0, 0.7316137462133717
456.0, 0.7587983583121521
457.0, 0.7777401646833484
458.0, 0.7932985058071034
459.0, 0.8075352837050438
460.0, 0.8204184499916312
461.0, 0.8321298537614347
462.0, 0.8307126964073226
463.0, 0.8276435408227435
464.0, 0.8192982030345011
465.0, 0.8063071891304912
466.0, 0.79080611006475
467.0, 0.7587918055018427
468.0, 0.7226318678957712
469.0, 0.6917778613717092
470.0, 0.662688295123335
471.0, 0.6268716633698369
472.0, 0.5838708319274595
473.0, 0.5494375805028223
474.0, 0.5105997249802918
475.0, 0.4737124274577447
476.0, 0.44111963083857486
477.0, 0.40500298665571666
478.0, 0.36544920314354523
479.0, 0.3289096940441779
480.0, 0.29667648195639645
481.0, 0.26852168633351853
482.0, 0.24279420030261734
483.0, 0.2170487630283799
484.0, 0.1954475226338637
485.0, 0.1775389629313161
486.0, 0.15965825725221133
487.0, 0.14156257690543597
488.0, 0.12422714276999546
489.0, 0.10363273957777984
490.0, 0.09199828352053714
491.0, 0.08673976321943667
492.0, 0.07811958155914463
493.0, 0.06496103479808225
494.0, 0.05854786361808397
495.0, 0.053809331297412104
496.0, 0.0450580778226872
497.0, 0.0376298814718869
498.0, 0.030892778713473987
499.0, 0.021803669286756183
500.0, 0.020610734161402754
501.0, 0.01662674111087951
502.0, 0.011820455305650769
503.0, 0.008290831577977149
504.0, 0.0073211284713105874
505.0, 0.008433433555571001
506.0, 0.0015549973440208626
507.0, 0.004847458395268908
508.0, 0.0018662900061408932
509.0, 0.0016826346279916076
510.0, 0.008246728161367315
511.0, 0.007613813183393832
512.0, 0.00493575540252366
513.0, 0.0055960431393928325
514.0, 0.005734255693894516
515.0, 0.004518792707760012
516.0, 0.003940852343104451
517.0, 0.0020695564638719467
518.0, 0.0007792319154490392
519.0, 0.002619766984978394
520.0, 0.002125378604931997
521.0, 0.0017382526814807488
522.0, 0.0051424399744894045
523.0, 0.002473776248823649
524.0, 0.0006940820026566763
525.0, 0.0015527106851391818
526.0, 0.004003386764104686
527.0, 0.004668803818248711
528.0, 0.004597957135595487
529.0, 0.0059717919558259286
530.0, 0.007600998132212211
531.0, 0.006978835902097941
532.0, 0.007136143120949953
533.0, 0.011395778869067355
534.0, 0.011712840761680065
535.0, 0.01276343207248469
536.0, 0.014147566280006758
537.0, 0.014315455569893755
538.0, 0.013644691626703615
539.0, 0.013420530996136895
540.0, 0.014342657363632131
541.0, 0.011785838042155617
542.0, 0.013824736694343741
543.0, 0.016263907123597564
544.0, 0.014095179625396559
545.0, 0.014258146048732375
546.0, 0.014665208093425822
547.0, 0.013740731803554451
548.0, 0.01402407668930887
549.0, 0.01504662293784825
550.0, 0.01446045613957536
551.0, 0.012436956435672603
552.0, 0.0139476713883729
553.0, 0.013000594263379081
554.0, 0.01261334656078739
555.0, 0.013821712605419789
556.0, 0.01500158968768169
557.0, 0.01638791348470964
558.0, 0.010744148481332596
559.0, 0.013441911271692447
560.0, 0.016533426432445816
561.0, 0.014487471679599436
562.0, 0.01170057664879153
563.0, 0.008912015497440983
564.0, 0.008380923619672211
565.0, 0.010108444472060073
566.0, 0.010908915442455595
567.0, 0.00975231643024495
568.0, 0.007516354912160477
569.0, 0.003206918497903133
570.0, 0.004646061885791014
571.0, 0.003422463757787063
572.0, 0.0021963716227115593
573.0, 0.0023103635609225594
574.0, 0.00046520256134330404
575.0, 0.0007633843890071255
576.0, 0.0011149535483694136
577.0, 0.0007053494902465392
578.0, 0.0012478576676380267
579.0, 0.0008059558620374289
580.0, 0.007882408139598849
581.0, 0.0053921959616422144
582.0, 0.004452702948219986
583.0, 0.005055828996957984
584.0, 0.004863064720108854
585.0, 0.005167183410697171
586.0, 0.008175805549821027
587.0, 0.007792836542278016
588.0, 0.007851679322705054
589.0, 0.009033161963130698
590.0, 0.006635657651334839
591.0, 0.0028838176434758723
592.0, 0.003386633488836623
593.0, 0.004868397403929752
594.0, 0.0023164024091521735
595.0, 0.003517398463433499
596.0, 0.004382263464570521
597.0, 0.00271917502192713
598.0, 0.000462176647955971
599.0, 0.0031127296533252314
600.0, 0.006465122325833699
601.0, 0.012622418032642857
602.0, 0.014605042230137316
603.0, 0.017272446321521192
604.0, 0.024238202816935867
605.0, 0.02584288567970306
606.0, 0.027844017724324797
607.0, 0.03446376992339338
608.0, 0.038138707102969446
609.0, 0.0375906185749643
610.0, 0.03886482169143504
611.0, 0.04948319203460147
612.0, 0.05822209359478004
613.0, 0.06658618853047267
614.0, 0.0718088883978748
615.0, 0.07703868092838123
616.0, 0.08397274650126732
617.0, 0.08917780182478165
618.0, 0.08982528567674626
619.0, 0.10665413052731844
620.0, 0.11332697887994476
621.0, 0.12037170731288274
622.0, 0.12883236458419428
623.0, 0.12980480225685995
624.0, 0.14174338212985904
625.0, 0.15770036018534103
626.0, 0.1643468270913125
627.0, 0.16827475799777217
628.0, 0.17412467343137392
629.0, 0.18087414030206472
630.0, 0.18809686667572612
631.0, 0.19481404267274854
632.0, 0.1998148955478562
633.0, 0.20665569867643263
634.0, 0.21395160678286443
635.0, 0.2196818890840048
636.0, 0.22538964604912637
637.0, 0.23265173015286233
638.0, 0.22561844311294285
639.0, 0.22740735534343096
640.0, 0.232676175893411
641.0, 0.23574471146461484
642.0, 0.2373547094189965
643.0, 0.23562790983093929
644.0, 0.22839966932950265
645.0, 0.2222522198893111
646.0, 0.21969345090856676
647.0, 0.21576355366038547
648.0, 0.21024644860838268
649.0, 0.20825545432941117
650.0, 0.20435282540392727
651.0, 0.19017061127782708
652.0, 0.17892855206430075
653.0, 0.18016766433359221
654.0, 0.17791783495990443
655.0, 0.16267288269413213
656.0, 0.15238450736985956
657.0, 0.13677277090950168
658.0, 0.13155123324492057
659.0, 0.12410149768473919
660.0, 0.11451979680204122
661.0, 0.10618728570580867
662.0, 0.09364079525913124
663.0, 0.0775645347494076
664.0, 0.07122593845158376
665.0, 0.06540044166787333
666.0, 0.062240703187438184
667.0, 0.05623256233413693
668.0, 0.04619841002716557
669.0, 0.043408724793693454
670.0, 0.037194386096563746
671.0, 0.03135651112413551
672.0, 0.024895709688675584
673.0, 0.018214522497425466
674.0, 0.014028251708288092
675.0, 0.011906397857396608
676.0, 0.009422658229859346
677.0, 0.017937947650001226
678.0, 0.01756235569747796
679.0, 0.016284851701538268
680.0, 0.018873588261069524
681.0, 0.02388317454557138
682.0, 0.030154910109819463
683.0, 0.03537981705949082
684.0, 0.039792075672784956
685.0, 0.049325253546027306
686.0, 0.059845418031845184
687.0, 0.06472951899959453
688.0, 0.06499873596681209
689.0, 0.06945959405522975
690.0, 0.09283213965746726
691.0, 0.09845573049061379
692.0, 0.1129863486128451
693.0, 0.129417702873136
694.0, 0.1404289936870891
695.0, 0.15209783516174727
696.0, 0.16495778410160652
697.0, 0.1748494420357721
698.0, 0.18966948290094734
699.0, 0.2077371055100858
700.0, 0.23066556877172958
701.0, 0.24981402160168692
702.0, 0.2570835871459825
703.0, 0.26307740234114285
704.0, 0.27514520853060154
705.0, 0.2902859695032566
706.0, 0.3064997176512476
707.0, 0.3252997126591946
708.0, 0.3415324960476796
709.0, 0.3535863723137018
710.0, 0.3756121882132588
711.0, 0.402644119326455
712.0, 0.41738261169358126
713.0, 0.43415092790428705
714.0, 0.4563236368862433
715.0, 0.48049685136266723
716.0, 0.5061342261676537
717.0, 0.5337102799024735
718.0, 0.5524423611921041
719.0, 0.5836086513268833
720.0, 0.6084289931123785
721.0, 0.6323253086280016
722.0, 0.6628187444375402
723.0, 0.6952662793307205
724.0, 0.724095942997295
725.0, 0.7567834763363784
726.0, 0.7815194941030934
727.0, 0.8216601989507517
728.0, 0.8545632206672662
729.0, 0.8805730440822125
730.0, 0.9133792809300464
731.0, 0.930679115930474
732.0, 0.9430294185654927
733.0, 0.9664286148043384
734.0, 0.9784122918839486
735.0, 0.9868814979519972
736.0, 0.99685635145127
737.0, 0.9995252989367478
738.0, 0.9952709608419272
739.0, 0.9878638513370589
740.0, 0.974777404820782
741.0, 0.9606839752676967
742.0, 0.9375071913183536
743.0, 0.905137000830491
744.0, 0.8717868104441324
745.0, 0.8444268848568361
746.0, 0.8246893845801971
747.0, 0.7846757725656515
748.0, 0.7296630313016914
749.0, 0.6852128781470844
750.0, 0.6454344896867177
751.0, 0.6013001049485487
752.0, 0.5573506994549425
753.0, 0.5045002097321186
754.0, 0.4627209247929735
755.0, 0.41907588960442405
756.0, 0.3803764327795216
757.0, 0.3434665578006726
758.0, 0.3061569006112811
759.0, 0.2731893018441997
760.0, 0.2459709509098334
761.0, 0.2201863813792612
762.0, 0.19709748435557886
763.0, 0.17913332921278782
764.0, 0.15512763915970593
765.0, 0.13382924480677463
766.0, 0.12193776779477346
767.0, 0.10973037221358335
768.0, 0.09558278811281228
769.0, 0.08831091943036165
770.0, 0.07494418517856982
771.0, 0.060752738443024465
772.0, 0.055429058545133525
773.0, 0.05098039022406387
774.0, 0.039928452678055296
775.0, 0.032371029929542265
776.0, 0.024441079899170184
777.0, 0.0212848731683876
778.0, 0.01999157594925784
779.0, 0.014664669070610623
780.0, 0.009810890833388318
781.0, 0.007432942715097199
782.0, 0.002510824212073217
783.0, 0.0013991893719215837
784.0, 0.002131110232828193
785.0, 0.006944855780327912
786.0, 0.008502943700854686
787.0, 0.00928105371873588
788.0, 0.008858236982772287
789.0, 0.006569049229058655
790.0, 0.006836995940072713
791.0, 0.006507735502662743
792.0, 0.009016606144220169
793.0, 0.010621658485541032
794.0, 0.008493851683817381
795.0, 0.006416740915567627
796.0, 0.006908432265631982
797.0, 0.007031445297382335
798.0, 0.0037670051626124247
799.0, 0.0029737646956593824
800.0, 0.0040994542099705355
801.0, 0.0023442151398057067
802.0, 0.003246020267844093
803.0, 0.002640611887763544
804.0, 0.000288578679731491
805.0, 0.0016868230060137863
806.0, 0.004115402871927645
807.0, 0.004085674171923031
808.0, 0.004047277397181624
809.0, 0.006016878267832049
810.0, 0.002722245851900613
811.0, 0.004869501184663614
812.0, 0.012310029588769951
813.0, 0.011590504633683985
814.0, 0.00817741525379444
815.0, 0.016475896300046006
816.0, 0.017536908680710922
817.0, 0.016675276598552245
818.0, 0.019588548346649946
819.0, 0.01959043245799163
820.0, 0.016752663332345843
821.0, 0.018431896365707818
822.0, 0.022867307334933425
823.0, 0.02208523687680266
824.0, 0.023312065652548217
825.0, 0.02462823011404226
826.0, 0.024491338917407332
827.0, 0.024975728114285608
828.0, 0.02631153216108572
829.0, 0.02659883065370425
830.0, 0.026484570737967783
831.0, 0.029814232266718994
832.0, 0.029787320939516457
833.0, 0.0332566601182883
834.0, 0.03632546008003232
835.0, 0.033852499874319125
836.0, 0.03181604900539258
837.0, 0.033129794531588444
838.0, 0.03236862128875654
839.0, 0.03511556957657209
840.0, 0.03914792061250521
841.0, 0.03939493432309112
842.0, 0.03705393501919564
843.0, 0.038064620857366956
844.0, 0.040253653606747854
845.0, 0.0399508528223433
846.0, 0.03893416061104037
847.0, 0.03550976408406397
848.0, 0.03668658898693368
849.0, 0.03776513293468947
850.0, 0.03669284801329701
851.0, 0.03611344734665077
852.0, 0.0360102828483043
853.0, 0.03521220199639815
854.0, 0.034392288132300226
855.0, 0.03412168043501722
856.0, 0.03232240753972017
857.0, 0.03231440659667996
858.0, 0.029651683528990357
859.0, 0.02741764866605989
860.0, 0.025284361053907228
861.0, 0.024371160741544187
862.0, 0.02611658313871092
863.0, 0.027657235262639447
864.0, 0.028065700278338667
865.0, 0.02861773978341257
866.0, 0.02391212143736617
867.0, 0.023321987183506438
868.0, 0.02541799873402216
869.0, 0.025016827337595735
870.0, 0.024182843038823676
871.0, 0.02499717137377474
872.0, 0.023283054374628975
873.0, 0.021827944022576158
874.0, 0.019785090466864826
875.0, 0.020979942576230357
876.0, 0.020319875267750774
877.0, 0.0228666243848302
878.0, 0.02060701609263776
879.0, 0.017277013455845158
880.0, 0.01945927736802993
881.0, 0.018682222757858868
882.0, 0.01893957124933615
883.0, 0.02035269011781152
884.0, 0.020602657439830786
885.0, 0.02138022996509325
886.0, 0.01949411422438471
887.0, 0.01704587868993211
888.0, 0.01778232507364079
889.0, 0.018798271590342974
890.0, 0.017220349898872424
891.0, 0.016734302004648642
892.0, 0.01713620858442168
893.0, 0.015260715981976813
894.0, 0.015675938651989255
895.0, 0.017485075562544694
896.0, 0.015597249232163365
897.0, 0.013173030999623386
898.0, 0.013546635883198786
899.0, 0.01244434605931793
900.0, 0.013911902161588172
901.0, 0.015529049706980215
902.0, 0.012272774212600103
903.0, 0.015514467406979789
904.0, 0.013354722005248513
905.0, 0.011077609942374033
906.0, 0.011080612201476195
907.0, 0.008450790434844358
908.0, 0.008724733955309642
909.0, 0.012091285405928838
910.0, 0.011356454002585713
911.0, 0.008364974599016545
912.0, 0.009319853813307407
913.0, 0.009151864362565376
914.0, 0.008035563413101101
915.0, 0.008004218413573816
916.0, 0.009205990487344756
917.0, 0.010323776628578403
918.0, 0.008244347248937306
919.0, 0.009061001982616883
920.0, 0.010385116397201157
921.0, 0.006879343543250911
922.0, 0.009571947922304886
923.0, 0.007111919716016697
924.0, 0.005647825540055474
925.0, 0.007509018524683149
926.0, 0.004853596040170395
927.0, 0.003992224176947583
928.0, 0.006789937543204609
929.0, 0.008379319955850173
930.0, 0.007095739515151725
931.0, 0.006951658571202589
932.0, 0.004658352445053238
933.0, 0.005270265176852861
934.0, 0.00685123528662869
935.0, 0.005996651173740643
936.0, 0.006123307154633003
937.0, 0.005561906965621722
938.0, 0.0035729890282709424
939.0, 0.005650862309522972
940.0, 0.005706029859462463
941.0, 0.004870068955001044
942.0, 0.0010690239541104052
943.0, 0.003310471746181816
944.0, 0.0034158599187166386
945.0, 0.0014117182755815348
946.0, 0.0054222264242136595
947.0, 0.0012984537799632045
948.0, 0.003956476384876918
949.0, 0.003534075766948357
950.0, 0.0039051187384521293
951.0, 0.0032789951597845335
952.0, 0.004042962481813677
953.0, 0.003330718722304769
954.0, 0.0025748675588678216
955.0, 0.0023426047419637876
956.0, 0.0015825256762870812
957.0, 0.0018138589923493596
958.0, 0.0010613387450437563
959.0, 0.006229309116862787
960.0, 0.005746431204072534
961.0, 0.0019705908929182406
962.0, 0.00016551198390721777
963.0, 0.00018731989671250912
964.0, 0.0016733852792142525
965.0, 0.0014208148365163144
966.0, 0.0005677331896576886
967.0, 0.0003228824319019824
968.0, 0.0007144103728499231
969.0, 0.0002762940494723585
970.0, 0.00017602155844280277
971.0, 0.0035199150486948222
972.0, 0.0018957149869104205
973.0, 0.0003439401745907039
974.0, 0.00028208360229356276
975.0, 0.0010229395528546718
976.0, 0.0021044753730101637
977.0, 0.0012551367499060416
978.0, 8.452622938056331e-05
979.0, 0.0008534924734026167
980.0, 0.002505895117631007
981.0, 0.0017556228478614704
982.0, 0.0011746584287091197
983.0, 0.0008137161401658167
984.0, 0.0014067015478470735
985.0, 0.0032760345196202077
986.0, 0.001494742376847506
987.0, 0.00020454030480495828
988.0, 0.00014986066034610292
989.0, 0.001648922181972823
990.0, 0.00303855206910921
991.0, 0.0007271253595711061
992.0, 0.0002296205800960742
993.0, 0.0014722942593875159
994.0, 0.0007948901145881574
995.0, 0.00010611297957008278
996.0, 0.00038498232763848006
997.0, 0.0005153092535940954
998.0, 0.0008258678956986093
999.0, 0.0010918088968843308
1000.0, 0.0009450637571865033
1001.0, 0.0011355572432639985
1002.0, 0.0009068945753630683
1003.0, 0.0020798952264070615
1004.0, 0.0014910760754839527
1005.0, 0.0015191987087573417
1006.0, 0.0011098880460323772
1007.0, 0.0016358839149501886
1008.0, 0.0012735076949363623
1009.0, 0.0006588215169391022
1010.0, 0.0007534066028097323
1011.0, 0.0007404734570954723
1012.0, 0.0002852203485310528
1013.0, 0.00023453937763993893
1014.0, 0.0013926369286181152
1015.0, 0.002050152414081066
1016.0, 0.001846603158569659
1017.0, 0.00034057580873320846
1018.0, 0.0007472313779249388
1019.0, 0.0033219661312393445
1020.0, 0.0028071688582705177
1021.0, 0.0009905784242474254
1022.0, 0.0004405109210187194
1023.0, 0.0007960321694454362
1024.0, 0.0033336726942172117
1025.0, 0.004041263844101468
1026.0, 0.0008463091333734441
1027.0, 0.0028121855548890115
1028.0, 0.0005017041095854834
1029.0, 0.0007520398273648699
1030.0, 0.0016258808080555878
1031.0, 0.0002621421525404393
1032.0, 0.00236751756971567
1033.0, 0.0036258665382483224
1034.0, 0.0013953304471274058
1035.0, 9.650875636710995e-05
1036.0, 0.0006895098968904529
1037.0, 0.0002545408914040619
1038.0, 0.0015049407615884002
1039.0, 0.0012729406804614417
1040.0, 0.00012336279151903555
1041.0, 0.0008535770502659609
1042.0, 0.00043993973733546236
1043.0, 0.0007557115296444204
1044.0, 0.0020451162131970894
1045.0, 0.0019194831449559323
1046.0, 0.0035212697054425686
1047.0, 0.002511289702512578
1048.0, 0.0002663045850686423
1049.0, 0.0015103608449875466
1050.0, 0.0035952377153220414
1051.0, 0.0015642312888265216
1052.0, 0.0018832764136421359
1053.0, 0.0022189861254969796
1054.0, 0.0024828932798161164
1055.0, 0.0018224045379030252
1056.0, 0.002455267089113533
1057.0, 0.004888314993131115
1058.0, 0.0029085098663056068
1059.0, 0.004247659853911984
1060.0, 0.004325941969764478
1061.0, 0.0017445936435542533
1062.0, 0.0039518821258425025
1063.0, 0.0033827937054574995
1064.0, 0.0017613734938349078
1065.0, 0.000797575431070182
1066.0, 0.002612648569908133
1067.0, 0.0024835780227052172
1068.0, 0.0018118560384907955
1069.0, 0.003172310538400238
1070.0, 0.003871132920718023
1071.0, 0.0051300686423897185
1072.0, 0.0037617092735970675
1073.0, 0.0013946489114362805
1074.0, 0.004182987323917694
1075.0, 0.006111753471915727
1076.0, 0.0013418787630898597
1077.0, 0.0014691093955201619
1078.0, 0.003721125670927851
1079.0, 0.004586603497520823
1080.0, 0.003112857302421918
1081.0, 0.001812404287158281
1082.0, 0.0016431914657233375
1083.0, 0.0010514272076949545
1084.0, 0.0017124150404358952
1085.0, 0.003428401497054359
1086.0, 0.0009540098046699787
1087.0, 0.0017294703530156992
1088.0, 0.003851244409426105
1089.0, 0.0021946449867379708
1090.0, 0.003117789181647774
1091.0, 0.0021554101721247484
1092.0, 0.004083268435424305
1093.0, 0.006714882942397904
1094.0, 0.0035633054960546246
1095.0, 0.0019148005633728437
1096.0, 0.0028093424474878725
1097.0, 0.0014621374720797946
1098.0, 0.0036992217699456887
1099.0, 0.00015539716908324615
1100.0, 0.0009049079435958357
1101.0, 0.003199809136757599
1102.0, 0.000608987599240947
1103.0, 0.002554050799275563
1104.0, 0.0004965764061734726
1105.0, 0.0008574238098219162
1106.0, 0.003917359684842501
1107.0, 0.0040853169595440825
1108.0, 0.0016746921663711174
1109.0, 0.0015691992435640757
1110.0, 0.0023519582610296284
1111.0, 0.0015622463428202212
1112.0, 0.002286682358192769
1113.0, 0.002412438083173259
1114.0, 0.0026195730066768397
1115.0, 0.002737553130853914
1116.0, 0.00300992264875127
1117.0, 0.001958185006736088
1118.0, 0.004064840142371414
1119.0, 0.0054189133996442465
1120.0, 0.00303973975284537
1121.0, 9.136773004098423e-05
1122.0, 0.0016556890536690576
1123.0, 0.0017508549079988157
1124.0, 0.0010521793306147408
1125.0, 0.002256179304014154
1126.0, 0.0019317024955633525
1127.0, 0.0035807666383183244
1128.0, 0.0027401571881398865
1129.0, 0.0017742046501291573
1130.0, 0.0032752413466591843
1131.0, 0.0027143329494198915
1132.0, 0.0025878838808568584
1133.0, 0.0033318505637344323
1134.0, 0.0031306640956588194
1135.0, 0.004552142602929398
1136.0, 0.0023995377577304268
1137.0, 0.0013316080632147407
1138.0, 0.0018091494435005437
1139.0, 0.002630230267810168
1140.0, 0.002364180743466513
1141.0, 0.0023724837801424427
1142.0, 0.005263415100198247
1143.0, 0.0035496142645741234
1144.0, 0.0001677152760386283
1145.0, 0.002682066873096501
1146.0, 0.0008761677527490437
1147.0, 0.0007247217548715294
1148.0, 0.0013065492613071304
1149.0, 0.004135268817566629
1150.0, 0.003874634881630156
1151.0, 0.003377093715160391
1152.0, 0.000764301812150257
1153.0, 0.00036803116351356933
1154.0, 0.0007976742940671525
1155.0, 0.0014071081245520122
1156.0, 0.0037805071126736562
1157.0, 0.005560959477785158
1158.0, 0.005038649759533809
1159.0, 0.004183993454078617
1160.0, 0.0037087516911635024
1161.0, 0.004108938451311939
1162.0, 0.0011648421939185016
1163.0, 0.0022005463457835275
1164.0, 0.00017244724575471616
1165.0, 0.0025998712976388868
1166.0, 0.004862390688921699
1167.0, 0.00307369915818177
1168.0, 0.001997097665626979
1169.0, 0.0017077296243478896
1170.0, 0.0017108309885076728
1171.0, 0.001770394908912794
1172.0, 0.004329303018142399
1173.0, 0.003327569193376384
1174.0, 0.00012572803691432454
1175.0, 0.0007303136164451178
1176.0, 0.0023160498068026426
1177.0, 0.004282031372414504
1178.0, 0.003051230497048181
1179.0, 0.0028444393612771578
1180.0, 0.002239230552945421
1181.0, 0.002348665974162225
1182.0, 0.002636795971277154
1183.0, 0.0029124845948149975
1184.0, 0.0053923841027114445
1185.0, 0.005214318350730542
1186.0, 0.003469833112106651
1187.0, 0.002062470583051574
1188.0, 0.0002890993580043944
1189.0, 0.0012355758062949059
1190.0, 0.004604393937847195
1191.0, 0.0033576377843648956
1192.0, 0.001199001838166355
1193.0, 0.0017465240203938244
1194.0, 0.001440035968474381
1195.0, 0.0018521775427964996
1196.0, 0.00042956825148050864
1197.0, 0.00040046341401001224
1198.0, 0.001344238815129642
1199.0, 0.003347268285948217
1200.0, 0.006158170325374324
1201.0, 0.0031205366093596905
1202.0, 0.0014995179062882416
1203.0, 0.002629321323491517
1204.0, 0.0031159040577715554
1205.0, 0.0015249126680249685
1206.0, 0.003846676855686002
1207.0, 0.0017689634581431989
1208.0, 0.0024629705388939517
1209.0, 0.0017974920581842635
1210.0, 0.001858119492599744
1211.0, 0.0028627824308690647
1212.0, 0.0019136227772057657
1213.0, 0.0016162727911254182
1214.0, 0.0036802731273018366
1215.0, 0.0014803337221891383
1216.0, 0.00045293742803125876
1217.0, 0.0004440090319600638
1218.0, 0.0022320139441763436
1219.0, 0.002093622335181687
1220.0, 0.003758268471276948
1221.0, 0.003336579191149341
1222.0, 0.0011643224290475123
1223.0, 0.003245373003445921
1224.0, 0.004108300122823102
1225.0, 0.0026392780490325524
1226.0, 0.0019060248978507704
1227.0, 0.002227613881421198
1228.0, 0.002150674508002825
1229.0, 0.0035260191951456787
1230.0, 0.0024895670512441546
1231.0, 0.003230389812751217
1232.0, 0.0032799836114104247
1233.0, 0.0009734496175648404
1234.0, 0.0006843208918738403
1235.0, 0.0035714301373436096
1236.0, 0.005775682052641006
1237.0, 0.004348890990210397
1238.0, 0.00327504003737587
1239.0, 0.0016128443092911907
1240.0, 0.002495741672379652
1241.0, 0.0045846545279177
1242.0, 0.002703408630392183
1243.0, 0.0005656044282689491
1244.0, 0.0019052736748764983
1245.0, 0.002878841484499348
1246.0, 0.004296046114018085
1247.0, 0.0031718745004314375
1248.0, 0.018923032955474962
1249.0, 0.007490210768488268
1250.0, 0.0027880192829556685
1251.0, 0.00350480796380792
1252.0, 0.0018619981849260908
1253.0, 0.0036280740930527584
1254.0, 0.003806977578772349
1255.0, 0.0018383560984017852
1256.0, 0.0008007069397688494
1257.0, 0.0016181325058684502
1258.0, 0.003941271663765781
1259.0, 0.004477822727909284
1260.0, 0.003276430431200447
1261.0, 0.0025787708696586374
1262.0, 0.0018234550488719164
1263.0, 0.0014274048020271697
1264.0, 0.0017077307938290014
1265.0, 0.002461800166046655
1266.0, 7.254800971917463e-05
1267.0, 0.0017066813334105087
1268.0, 0.0033374505336845922
1269.0, 0.0037175818069212717
1270.0, 0.004268298099088152
1271.0, 0.0035483806604729344
1272.0, 0.0005284158345726796
1273.0, 0.0031437568502589762
1274.0, 0.002707883282241149
1275.0, 0.002079951321845477
1276.0, 0.0009787992291931732
1277.0, 0.004206620649246383
1278.0, 0.0059455664024513
1279.0, 0.0040873396064420595
1280.0, 0.0010455279752806957
1281.0, 0.00012527709015717648
1282.0, 0.001713182052838885
1283.0, 0.004253810074522675
1284.0, 0.0017162362501406772
1285.0, 0.00011832506031806249
1286.0, 0.0002800234855906316
1287, 0.0
1288, 0.0
1289, 0.0
1290, 0.0
1291, 0.0
1292, 0.0
1293, 0.0
1294, 0.0
1295, 0.0
1296, 0.0
1297, 0.0
1298, 0.0
1299, 0.0
1300, 0.0
1301, 0.0
1302, 0.0
1303, 0.0
1304, 0.0
1305, 0.0
1306, 0.0
1307, 0.0
1308, 0.0
1309, 0.0
1310, 0.0
1311, 0.0
1312, 0.0
1313, 0.0
1314, 0.0
1315, 0.0
1316, 0.0
1317, 0.0
1318, 0.0
1319, 0.0
1320, 0.0
1321, 0.0
1322, 0.0
1323, 0.0
1324, 0.0
1325, 0.0
1326, 0.0
1327, 0.0
1328, 0.0
1329, 0.0
1330, 0.0
1331, 0.0
1332, 0.0
1333, 0.0
1334, 0.0
1335, 0.0
1336, 0.0
1337, 0.0
1338, 0.0
1339, 0.0
1340, 0.0
1341, 0.0
1342, 0.0
1343, 0.0
1344, 0.0
1345, 0.0
1346, 0.0
1347, 0.0
1348, 0.0
1349, 0.0
1350, 0.0
1351, 0.0
1352, 0.0
1353, 0.0
1354, 0.0
1355, 0.0
1356, 0.0
1357, 0.0
1358, 0.0
1359, 0.0
1360, 0.0
1361, 0.0
1362, 0.0
1363, 0.0
1364, 0.0
1365, 0.0
1366, 0.0
1367, 0.0
1368, 0.0
1369, 0.0
1370, 0.0
1371, 0.0
1372, 0.0
1373, 0.0
1374, 0.0
1375, 0.0
1376, 0.0
1377, 0.0
1378, 0.0
1379, 0.0
1380, 0.0
1381, 0.0
1382, 0.0
1383, 0.0
1384, 0.0
1385, 0.0
1386, 0.0
1387, 0.0
1388, 0.0
1389, 0.0
1390, 0.0
1391, 0.0
1392, 0.0
1393, 0.0
1394, 0.0
1395, 0.0
1396, 0.0
1397, 0.0
1398, 0.0
1399, 0.0
1400, 0.0
1401, 0.0
1402, 0.0
1403, 0.0
1404, 0.0
1405, 0.0
1406, 0.0
1407, 0.0
1408, 0.0
1409, 0.0
1410, 0.0
1411, 0.0
1412, 0.0
1413, 0.0
1414, 0.0
1415, 0.0
1416, 0.0
1417, 0.0
1418, 0.0
1419, 0.0
1420, 0.0
1421, 0.0
1422, 0.0
1423, 0.0
1424, 0.0
1425, 0.0
1426, 0.0
1427, 0.0
1428, 0.0
1429, 0.0
1430, 0.0
1431, 0.0
1432, 0.0
1433, 0.0
1434, 0.0
1435, 0.0
1436, 0.0
1437, 0.0
1438, 0.0
1439, 0.0
1440, 0.0
1441, 0.0
1442, 0.0
1443, 0.0
1444, 0.0
1445, 0.0
1446, 0.0
1447, 0.0
1448, 0.0
1449, 0.0
1450, 0.0
1451, 0.0
1452, 0.0
1453, 0.0
1454, 0.0
1455, 0.0
1456, 0.0
1457, 0.0
1458, 0.0
1459, 0.0
1460, 0.0
1461, 0.0
1462, 0.0
1463, 0.0
1464, 0.0
1465, 0.0
1466, 0.0
1467, 0.0
1468, 0.0
1469, 0.0
1470, 0.0
1471, 0.0
1472, 0.0
1473, 0.0
1474, 0.0
1475, 0.0
1476, 0.0
1477, 0.0
1478, 0.0
1479, 0.0
1480, 0.0
1481, 0.0
1482, 0.0
1483, 0.0
1484, 0.0
1485, 0.0
1486, 0.0
1487, 0.0
1488, 0.0
1489, 0.0
1490, 0.0
1491, 0.0
1492, 0.0
1493, 0.0
1494, 0.0
1495, 0.0
1496, 0.0
1497, 0.0
1498, 0.0
1499, 0.0
1500, 0.0
1501, 0.0
1502, 0.0
1503, 0.0
1504, 0.0
1505, 0.0
1506, 0.0
1507, 0.0
1508, 0.0
1509, 0.0
1510, 0.0
1511, 0.0
1512, 0.0
1513, 0.0
1514, 0.0
1515, 0.0
1516, 0.0
1517, 0.0
1518, 0.0
1519, 0.0
1520, 0.0
1521, 0.0
1522, 0.0
1523, 0.0
1524, 0.0
1525, 0.0
1526, 0.0
1527, 0.0
1528, 0.0
1529, 0.0
1530, 0.0
1531, 0.0
1532, 0.0
1533, 0.0
1534, 0.0
1535, 0.0
1536, 0.0
1537, 0.0
1538, 0.0
1539, 0.0
1540, 0.0
1541, 0.0
1542, 0.0
1543, 0.0
1544, 0.0
1545, 0.0
1546, 0.0
1547, 0.0
1548, 0.0
1549, 0.0
1550, 0.0
1551, 0.0
1552, 0.0
1553, 0.0
1554, 0.0
1555, 0.0
1556, 0.0
1557, 0.0
1558, 0.0
1559, 0.0
1560, 0.0
1561, 0.0
1562, 0.0
1563, 0.0
1564, 0.0
1565, 0.0
1566, 0.0
1567, 0.0
1568, 0.0
1569, 0.0
1570, 0.0
1571, 0.0
1572, 0.0
1573, 0.0
1574, 0.0
1575, 0.0
1576, 0.0
1577, 0.0
1578, 0.0
1579, 0.0
1580, 0.0
1581, 0.0
1582, 0.0
1583, 0.0
1584, 0.0
1585, 0.0
1586, 0.0
1587, 0.0
1588, 0.0
1589, 0.0
1590, 0.0
1591, 0.0
1592, 0.0
1593, 0.0
1594, 0.0
1595, 0.0
1596, 0.0
1597, 0.0
1598, 0.0
1599, 0.0
