30, 0.0
31, 0.0
32, 0.0
33, 0.0
34, 0.0
35, 0.0
36, 0.0
37, 0.0
38, 0.0
39, 0.0
40, 0.0
41, 0.0
42, 0.0
43, 0.0
44, 0.0
45, 0.0
46, 0.0
47, 0.0
48, 0.0
49, 0.0
50, 0.0
51, 0.0
52, 0.0
53, 0.0
54, 0.0
55, 0.0
56, 0.0
57, 0.0
58, 0.0
59, 0.0
60, 0.0
61, 0.0
62, 0.0
63, 0.0
64, 0.0
65, 0.0
66, 0.0
67, 0.0
68, 0.0
69, 0.0
70, 0.0
71, 0.0
72, 0.0
73, 0.0
74, 0.0
75, 0.0
76, 0.0
77, 0.0
78, 0.0
79, 0.0
80, 0.0
81, 0.0
82, 0.0
83, 0.0
84, 0.0
85, 0.0
86, 0.0
87, 0.0
88, 0.0
89, 0.0
90, 0.0
91, 0.0
92, 0.0
93, 0.0
94, 0.0
95, 0.0
96, 0.0
97, 0.0
98, 0.0
99.0, 0.0033251844710822753
100.0, 0.005547992554896903
101.0, 0.00938118705178237
102.0, 0.009015823705126635
103.0, 0.0029723678475458253
104.0, 0.000901038060659246
105.0, 0.0009426949815515715
106.0, 0.0009759390315984301
107.0, 0.00182457958445644
108.0, 0.00532206700056179
109.0, 0.00857281203750461
110.0, 0.009130503204719174
111.0, 0.009748223656477263
112.0, 0.00476729209452535
113.0, 0.006646577136798726
114.0, 0.011796411285105878
115.0, 0.015038261702968453
116.0, 0.020301340848588256
117.0, 0.02584491282200424
118.0, 0.030411128691436
119.0, 0.0355780622792074
120.0, 0.0470831879534226
121.0, 0.06288050735001899
122.0, 0.08670772751371507
123.0, 0.11785927217261616
124.0, 0.14939465965600104
125.0, 0.17132747437865997
126.0, 0.17439263963761711
127.0, 0.1584338689636467
128.0, 0.13447541523271242
129.0, 0.11648210142778424
130.0, 0.10587257464806842
131.0, 0.1023908597976636
132.0, 0.10423857162456909
133.0, 0.09591894156634277
134.0, 0.08024694208288617
135.0, 0.06963707714940237
136.0, 0.07271851876038916
137.0, 0.08254947155244143
138.0, 0.0978284500109724
139.0, 0.11168682184909656
140.0, 0.12010798916381492
141.0, 0.1300193723108028
142.0, 0.15004009933530588
143.0, 0.1797488704292318
144.0, 0.2176702860565632
145.0, 0.2615965704450304
146.0, 0.2957936667278356
147.0, 0.3224904141281036
148.0, 0.3282669621129159
149.0, 0.29438047184403365
150.0, 0.22001668089243953
151.0, 0.15342212131470012
152.0, 0.10467355158172664
153.0, 0.07231738509644055
154.0, 0.0579546859354482
155.0, 0.0501435915264916
156.0, 0.04754382684711962
157.0, 0.049540053505952815
158.0, 0.05337803966757023
159.0, 0.06138226079378618
160.0, 0.07557683611747927
161.0, 0.08693739762914812
162.0, 0.08581088774604102
163.0, 0.08284932513256268
164.0, 0.07338000498767262
165.0, 0.05998329693449808
166.0, 0.049868345642701956
167.0, 0.0520756778797323
168.0, 0.057938045325592304
169.0, 0.062035799466041236
170.0, 0.06334078915734524
171.0, 0.06398183656471056
172.0, 0.06671995768489317
173.0, 0.06324154663116806
174.0, 0.05028950654169437
175.0, 0.032115913441226766
176.0, 0.01836896970813047
177.0, 0.014581362864313888
178.0, 0.018168368275665404
179.0, 0.022389351410197114
180.0, 0.02127707069012972
181.0, 0.017591395943779405
182.0, 0.012269346883811504
183.0, 0.006426219036355281
184.0, 0.0017781174374380652
185.0, 0.0028581838749431663
186.0, 0.005327206794517558
187.0, 0.006801279004550083
188.0, 0.006038782283665175
189.0, 0.0026779208163507347
190.0, 0.0017134025155342535
191.0, 0.006055930394421791
192.0, 0.015171465741885184
193.0, 0.027676621762242504
194.0, 0.04239168474853413
195.0, 0.05603898983002322
196.0, 0.0637862417880427
197.0, 0.06074258501561191
198.0, 0.047242452416644286
199.0, 0.028845935641970438
200.0, 0.0127177247796408
201.0, 0.003200839786868274
202.0, 0.00023098713235159343
203.0, 0.0011288181676617026
204.0, 0.005927430629879911
205.0, 0.010560238556299993
206.0, 0.011355827798313841
207.0, 0.013155686620235984
208.0, 0.012026251798868258
209.0, 0.008705119939950094
210.0, 0.00782868284784258
211.0, 0.007709985040783464
212.0, 0.009367932931285473
213.0, 0.014430762906633449
214.0, 0.02080663292189093
215.0, 0.023061337297870292
216.0, 0.029975877169268313
217.0, 0.034985800483110764
218.0, 0.0374087952504356
219.0, 0.04270975981748575
220.0, 0.053728495542837894
221.0, 0.07137318135351649
222.0, 0.08969265432490796
223.0, 0.10345796741806104
224.0, 0.11105872399968919
225.0, 0.11195059121277401
226.0, 0.10028981451085703
227.0, 0.07962801031649284
228.0, 0.059579169301101145
229.0, 0.03667961035931992
230.0, 0.024789460433898337
231.0, 0.020736918782083703
232.0, 0.017046519895867192
233.0, 0.01264711545666422
234.0, 0.01125984909747495
235.0, 0.01019779147202316
236.0, 0.009964123228707347
237.0, 0.015074869638267971
238.0, 0.0246709405006818
239.0, 0.0281673038310126
240.0, 0.02571293802801985
241.0, 0.023052471768071486
242.0, 0.02371719477134184
243.0, 0.0273718332578458
244.0, 0.03244411524199891
245.0, 0.036297274086343555
246.0, 0.03825624949321107
247.0, 0.04685644141790173
248.0, 0.056362770774832316
249.0, 0.06275553889363752
250.0, 0.06684331959107169
251.0, 0.07514395782223704
252.0, 0.08346113496162329
253.0, 0.09406182925882299
254.0, 0.10539274725473315
255.0, 0.11237326971107722
256.0, 0.11189433679331372
257.0, 0.10349527457192544
258.0, 0.09085157855706508
259.0, 0.08001953508873097
260.0, 0.07554922874611963
261.0, 0.07151781864409086
262.0, 0.07082378277609652
263.0, 0.0721096225116531
264.0, 0.07255207731410122
265.0, 0.07115151325421545
266.0, 0.0680807917703414
267.0, 0.06348412548752516
268.0, 0.05976151124379335
269.0, 0.06026127645752697
270.0, 0.06379595244211587
271.0, 0.05990853850044413
272.0, 0.056024057804860125
273.0, 0.05754843434391835
274.0, 0.05070856108774773
275.0, 0.04734746714663369
276.0, 0.04389760388769442
277.0, 0.03887384877742825
278.0, 0.03432404781454487
279.0, 0.032126172148675754
280.0, 0.03346061142193296
281.0, 0.033570347894466536
282.0, 0.03174324329984527
283.0, 0.03178627965561454
284.0, 0.03157568647720968
285.0, 0.03501401808548266
286.0, 0.03840069334054178
287.0, 0.03972297821639522
288.0, 0.041713417455221134
289.0, 0.043725028464245815
290.0, 0.04407503915394096
291.0, 0.04082868399598345
292.0, 0.03434662608593042
293.0, 0.030474936897971493
294.0, 0.021633482227536173
295.0, 0.011600339498432767
296.0, 0.0045653072300293664
297.0, 0.0027005447474149867
298.0, 0.0015019311336171098
299.0, 0.003478923877497664
300.0, 0.0030064292405733027
301.0, 0.004142700919037952
302.0, 0.0037913761852969596
303.0, 0.00452235270348794
304.0, 0.005598882811063747
305.0, 0.0061587438501287135
306.0, 0.005642176152064578
307.0, 0.003354188114624373
308.0, 0.001682637482615549
309.0, 0.0015717762589238134
310.0, 0.004115328282628463
311.0, 0.005229369037370672
312.0, 0.004648575431029
313.0, 0.0035886054393857725
314.0, 0.0016485681736916997
315.0, 0.003426301969529315
316.0, 0.007725203534269668
317.0, 0.014740777298762815
318.0, 0.014846439589677138
319.0, 0.014145547569230317
320.0, 0.01604851052333496
321.0, 0.01763306375244771
322.0, 0.023368995377953894
323.0, 0.023877851276383377
324.0, 0.024212686276925976
325.0, 0.02947228159936643
326.0, 0.03496722209593729
327.0, 0.04380492150126297
328.0, 0.05245349254967191
329.0, 0.0612983424972419
330.0, 0.07262694807558173
331.0, 0.08506496383337603
332.0, 0.09386534174191873
333.0, 0.10121909920544245
334.0, 0.10580143813547331
335.0, 0.10669958179068383
336.0, 0.10999632088832187
337.0, 0.11089767719007042
338.0, 0.10944007717862746
339.0, 0.10714175256205553
340.0, 0.10602158957419022
341.0, 0.11003022975698556
342.0, 0.11091074496026346
343.0, 0.11791368588007123
344.0, 0.1336781174233379
345.0, 0.15300488905426016
346.0, 0.1694852438396128
347.0, 0.1871352180471186
348.0, 0.2125192793496952
349.0, 0.24078108561014128
350.0, 0.2600135350448604
351.0, 0.28144998581910363
352.0, 0.30466801734877075
353.0, 0.3317889021129024
354.0, 0.36444662040848413
355.0, 0.4030332244363336
356.0, 0.448808227472363
357.0, 0.5012201133337564
358.0, 0.5633132454997084
359.0, 0.638979794978556
360.0, 0.7294095497985719
361.0, 0.8286603784331166
362.0, 0.9163618505946328
363.0, 0.9788928167509084
364.0, 0.9998329406949935
365.0, 0.9656357622000239
366.0, 0.8769957576398645
367.0, 0.758430751936617
368.0, 0.6352751335135477
369.0, 0.5234763747105418
370.0, 0.4263526113264457
371.0, 0.3427689517489703
372.0, 0.27646391521210295
373.0, 0.22583468416681468
374.0, 0.18649380587153191
375.0, 0.15533289831217495
376.0, 0.1303703211484445
377.0, 0.1114391985758186
378.0, 0.09463068442647954
379.0, 0.07989319988378868
380.0, 0.07192943555242724
381.0, 0.06411538923472664
382.0, 0.0564629997665685
383.0, 0.04789078279424987
384.0, 0.039018843215971655
385.0, 0.03305943834528307
386.0, 0.03032939956521102
387.0, 0.027927503400500774
388.0, 0.025574912188505095
389.0, 0.02204529517463913
390.0, 0.015547596028843348
391.0, 0.013841125091619973
392.0, 0.016304401979889346
393.0, 0.018248875735959996
394.0, 0.017697944464804813
395.0, 0.016803822828306902
396.0, 0.01726590236966725
397.0, 0.020129876918598206
398.0, 0.024288878950618487
399.0, 0.02756397683414146
400.0, 0.028249515156045128
401.0, 0.027511707335366516
402.0, 0.027908012638370585
403.0, 0.03103411172242178
404.0, 0.03429187219666408
405.0, 0.03679570694032639
406.0, 0.04565120033862204
407.0, 0.05261667533260814
408.0, 0.05277364448034753
409.0, 0.051761719721665
410.0, 0.05548160029549359
411.0, 0.06168719108785575
412.0, 0.0627782042235025
413.0, 0.06426142136636027
414.0, 0.066846595025487
415.0, 0.06886256471393207
416.0, 0.0711653467336154
417.0, 0.06751150586044392
418.0, 0.05704469942734253
419.0, 0.04573634353128858
420.0, 0.03913210114751584
421.0, 0.03773656858086381
422.0, 0.03107013037863009
423.0, 0.0273412212480999
424.0, 0.020780747832645156
425.0, 0.011329418394382536
426.0, 0.008826020608140459
427.0, 0.007153436126593045
428.0, 0.005483001326389548
429.0, 0.003584133843924676
430.0, 0.00333102955646655
431.0, 0.0032950271529446446
432.0, 0.005997466249147181
433.0, 0.0014586387344774246
434.0, 0.0020931033130669238
435.0, 0.0029994755323603448
436.0, 0.006836207462930262
437.0, 0.0040903418274195885
438.0, 0.0013576611004214101
439.0, 0.0011755955997038944
440.0, 0.0010989543912147666
441.0, 0.0014671882224474445
442.0, 0.005748918320424075
443.0, 0.014309964466638946
444.0, 0.01982745386690819
445.0, 0.02321023759149094
446.0, 0.028636955437243438
447.0, 0.037478559251212386
448.0, 0.048218902937415195
449.0, 0.05797983579665825
450.0, 0.06602729751339279
451.0, 0.07476401588931607
452.0, 0.0869106598675848
453.0, 0.1000502407622543
454.0, 0.1141045302690842
455.0, 0.12765709793800742
456.0, 0.1444114414465071
457.0, 0.16451830519547647
458.0, 0.1830059343645815
459.0, 0.21101993703769978
460.0, 0.2438056999577721
461.0, 0.2760766639647577
462.0, 0.31149776278440733
463.0, 0.3558461667609214
464.0, 0.4035709778706652
465.0, 0.4544514087189571
466.0, 0.496324822927083
467.0, 0.5287364452567882
468.0, 0.5550332282463046
469.0, 0.5695895290576677
470.0, 0.5501917212397283
471.0, 0.5145578286906971
472.0, 0.4711089893142083
473.0, 0.424462950898614
474.0, 0.3834053297554528
475.0, 0.3411528253378274
476.0, 0.301925078806988
477.0, 0.2705127685263394
478.0, 0.2427299508527627
479.0, 0.21495401782266424
480.0, 0.19696599855104693
481.0, 0.1748293823737708
482.0, 0.15082841211050815
483.0, 0.12964030494945666
484.0, 0.11310531657022362
485.0, 0.10045139093806733
486.0, 0.083069059882408
487.0, 0.06802976700062628
488.0, 0.056285100126564507
489.0, 0.048707603834064195
490.0, 0.04508385610195071
491.0, 0.038677150667865506
492.0, 0.03150499891678061
493.0, 0.02764187478514985
494.0, 0.024159266426646266
495.0, 0.020628066038491214
496.0, 0.02166270785774105
497.0, 0.022091908957721562
498.0, 0.015359650251384001
499.0, 0.007129073196026807
500.0, 0.0029957926096406367
501.0, 0.0036240481140327714
502.0, 0.0013897534698187612
503.0, 0.001186768156471119
504.0, 0.004739683196901895
505.0, 0.007206228427280915
506.0, 0.004653088163659767
507.0, 0.0038184352146392216
508.0, 0.004717154827998987
509.0, 0.003645828971037968
510.0, 0.0036986123934662674
511.0, 0.00343849950124945
512.0, 0.0016012547578831433
513.0, 0.0008384782784218621
514.0, 0.0013018495008226432
515.0, 0.005260755601246923
516.0, 0.009737259308227407
517.0, 0.01024491399636513
518.0, 0.005687095826433791
519.0, 0.004172048770286583
520.0, 0.006425335885842264
521.0, 0.010441592212215706
522.0, 0.013338965717275678
523.0, 0.015758948123963813
524.0, 0.019716666025871788
525.0, 0.020074827053690167
526.0, 0.021361681668662265
527.0, 0.024787264685118545
528.0, 0.03083848134146135
529.0, 0.03826684771302122
530.0, 0.0435116878387186
531.0, 0.04395842272884079
532.0, 0.04519579964792815
533.0, 0.04747157324236583
534.0, 0.04908623970173722
535.0, 0.049147411922967184
536.0, 0.04845507190212394
537.0, 0.049757539018080645
538.0, 0.05259215188502566
539.0, 0.05495602934109329
540.0, 0.058238204991461005
541.0, 0.06368854271079248
542.0, 0.06483046794822901
543.0, 0.07189265674457276
544.0, 0.0758494029533998
545.0, 0.07389914768055071
546.0, 0.0718962892987003
547.0, 0.0745690149787839
548.0, 0.07326772400126444
549.0, 0.07145103886074101
550.0, 0.06526034883588115
551.0, 0.057434378700443364
552.0, 0.051769618814464256
553.0, 0.047823705518821
554.0, 0.04814664250351855
555.0, 0.046609988444053625
556.0, 0.04215949529654786
557.0, 0.03680160092802313
558.0, 0.03374102344164986
559.0, 0.03518264790256548
560.0, 0.03647696214042016
561.0, 0.03372035636247266
562.0, 0.03188187453323951
563.0, 0.029005769130601863
564.0, 0.023081676403133473
565.0, 0.01952865951346055
566.0, 0.016235159955245455
567.0, 0.017134255392913956
568.0, 0.015120956386940117
569.0, 0.01222528311980522
570.0, 0.013443616964837705
571.0, 0.015890028597210473
572.0, 0.0107711990662856
573.0, 0.009473435352922058
574.0, 0.009949356392501997
575.0, 0.009118512958422793
576.0, 0.006605704898567505
577.0, 0.0024680486571987733
578.0, 0.001483619774411443
579.0, 0.0012509850678955514
580.0, 0.0022923657274484923
581.0, 0.006006066335115652
582.0, 0.008865852613483341
583.0, 0.009644411427435152
584.0, 0.009442567201785797
585.0, 0.009430839711723508
586.0, 0.015020644751371801
587.0, 0.019679182127142963
588.0, 0.01702771064768144
589.0, 0.012804301975955378
590.0, 0.008746383341970122
591.0, 0.0018854931682138372
592.0, 0.0023994720093140796
593.0, 0.0075660262465802874
594.0, 0.009594381188833379
595.0, 0.004804921107491301
596.0, 0.003118440769431866
597.0, 0.002182390558165371
598.0, 0.003849487514845836
599.0, 0.002196505941806903
600.0, 0.002459590147436307
601.0, 0.00595094313957663
602.0, 0.010354571940863807
603.0, 0.01373024172060127
604.0, 0.01124907901178044
605.0, 0.00850936923703985
606.0, 0.009770324698322714
607.0, 0.011900714484252515
608.0, 0.012833690761709064
609.0, 0.009000982871180771
610.0, 0.004140503893903044
611.0, 0.00569138482647781
612.0, 0.009366336859271029
613.0, 0.008043552308339919
614.0, 0.00873426005813321
615.0, 0.008356474998099465
616.0, 0.010554979559690019
617.0, 0.010192675956151885
618.0, 0.007551029037893665
619.0, 0.007435638155710826
620.0, 0.0077718673137074715
621.0, 0.00932546936852829
622.0, 0.007085004958296371
623.0, 0.004738358579962927
624.0, 0.005382207136345214
625.0, 0.006495658634281302
626.0, 0.004356056380145235
627.0, 0.007298951185538373
628.0, 0.007055357299790283
629.0, 0.00903386536441896
630.0, 0.010638908054571987
631.0, 0.008610401349029233
632.0, 0.00709683675053118
633.0, 0.006432590461285274
634.0, 0.008261189156383998
635.0, 0.01178994212352686
636.0, 0.010692596948999775
637.0, 0.006157413287048387
638.0, 0.003273742302517945
639.0, 0.0011621718762206466
640.0, 0.003794043645805286
641.0, 0.00485057940334452
642.0, 0.004552474863719521
643.0, 0.0036803838648422787
644.0, 0.0036857181504419845
645.0, 0.0016640589724022773
646.0, 0.006216066791434026
647.0, 0.00553727673024163
648.0, 0.003718107506333648
649.0, 0.003077198191954937
650.0, 0.002555029086936658
651.0, 0.0015065559806495914
652.0, 0.001792298125785007
653.0, 0.0022370306384227145
654.0, 0.005436445764179352
655.0, 0.004496608898208642
656.0, 0.001394045508082858
657.0, 0.0010316106336229088
658.0, 0.0011429781733928034
659.0, 0.0013814425257493545
660.0, 0.0031422747711548206
661.0, 0.0019632067093696927
662.0, 0.0028374694608212995
663.0, 0.003850325830255886
664.0, 0.003253555462967128
665.0, 0.003942365178258753
666.0, 0.003680863868675075
667.0, 0.002543367905684686
668.0, 0.002392405966120372
669.0, 0.0044339392453307
670.0, 0.008361530080222617
671.0, 0.010537468036549225
672.0, 0.0028452063112547974
673.0, 0.006593110577576498
674.0, 0.006727284510329758
675.0, 0.005019301043972725
676.0, 0.005682163865226176
677.0, 0.00659845027226143
678.0, 0.0033763418878396314
679.0, 0.009442146976433865
680.0, 0.019151811837406732
681.0, 0.014173597784303814
682.0, 0.007425735335925803
683.0, 0.009592619321636344
684.0, 0.016663379881332065
685.0, 0.021405214176980224
686.0, 0.01577146423294574
687.0, 0.010483858612256227
688.0, 0.015203452204108143
689.0, 0.02242886809090987
690.0, 0.0244996030084582
691.0, 0.023747212046102136
692.0, 0.025858969011489995
693.0, 0.02435775851758053
694.0, 0.02228523503490117
695.0, 0.022683663048574217
696.0, 0.023081146072013004
697.0, 0.02216817559855593
698.0, 0.021894684693757775
699.0, 0.023248232054059244
700.0, 0.02944430960623302
701.0, 0.02389591247380782
702.0, 0.020973268913550638
703.0, 0.021726977424286482
704.0, 0.021510212324046266
705.0, 0.023014173578670676
706.0, 0.020424108492196478
707.0, 0.023135483521954634
708.0, 0.02374988702919921
709.0, 0.022943492801020468
710.0, 0.02427617614686381
711.0, 0.025938667533655962
712.0, 0.025337904853677186
713.0, 0.0276574497894289
714.0, 0.023582350933348126
715.0, 0.024695814966089805
716.0, 0.026481850880657586
717.0, 0.02313791966492011
718.0, 0.02232725841409127
719.0, 0.04000733042981097
720.0, 0.04200595350852269
721.0, 0.04158818938669982
722.0, 0.044825420339836844
723.0, 0.049151818668992354
724.0, 0.05161541446172389
725.0, 0.05142901826347439
726.0, 0.05019671154533921
727.0, 0.0528800608393764
728.0, 0.0595586707280546
729.0, 0.06397828997223579
730.0, 0.06921451307850857
731.0, 0.07803569386460064
732.0, 0.08593309457716224
733.0, 0.08605205345905434
734.0, 0.08515614333367073
735.0, 0.08810963091500768
736.0, 0.09568232638111367
737.0, 0.10614910389456698
738.0, 0.11472826222065653
739.0, 0.12555723323760853
740.0, 0.14203019759283236
741.0, 0.1520800976206043
742.0, 0.16643329463670922
743.0, 0.18000859489469856
744.0, 0.19174259100146443
745.0, 0.20540205947045584
746.0, 0.2195094251174314
747.0, 0.23504171651024186
748.0, 0.2571025250562969
749.0, 0.2756854874188631
750.0, 0.29691378098793575
751.0, 0.31940106956843295
752.0, 0.33694029082693816
753.0, 0.3566336772441605
754.0, 0.3790114350529325
755.0, 0.39244123385901086
756.0, 0.4044880027028728
757.0, 0.4086644426178418
758.0, 0.39649156103604094
759.0, 0.37451302331382996
760.0, 0.34391172477532916
761.0, 0.30790899726187626
762.0, 0.27185537038286073
763.0, 0.22841934203087563
764.0, 0.19590630148425814
765.0, 0.16895669879358124
766.0, 0.14354686459455046
767.0, 0.11899841771247503
768.0, 0.09998365652025916
769.0, 0.08610836978959278
770.0, 0.0690363051793963
771.0, 0.05988848554952681
772.0, 0.04995630681942429
773.0, 0.045421180818668784
774.0, 0.04000952964188678
775.0, 0.034898638932833854
776.0, 0.031851742620451214
777.0, 0.02793144899938642
778.0, 0.02235019862699507
779.0, 0.01913766316726708
780.0, 0.018033702869406615
781.0, 0.022416576515685616
782.0, 0.02004060249105208
783.0, 0.01285148063535117
784.0, 0.008122292235680515
785.0, 0.005501750798546842
786.0, 0.005710964911250792
787.0, 0.0011937500834045868
788.0, 0.0017179036900093951
789.0, 0.001447127986148476
790.0, 0.002821663223529526
791.0, 0.009947137037447278
792.0, 0.015265491629592011
793.0, 0.013120707266043457
794.0, 0.00437038439456651
795.0, 0.004844600603670678
796.0, 0.00437479604017832
797.0, 0.0042267604310667695
798.0, 0.005939827169773611
799.0, 0.005016813255365648
800.0, 0.00376012479875175
801.0, 0.0036579898164988884
802.0, 0.0024755674040759556
803.0, 0.0021999721300528354
804.0, 0.00390811548025761
805.0, 0.0038896794885623477
806.0, 0.004108177976305712
807.0, 0.006629365492949758
808.0, 0.00703408650479389
809.0, 0.008135733894702771
810.0, 0.009034065812845998
811.0, 0.011849139942372905
812.0, 0.015401230205646616
813.0, 0.013309985735371697
814.0, 0.010315677686015778
815.0, 0.009912803413716203
816.0, 0.010954012909094127
817.0, 0.014734595409221434
818.0, 0.016912068006545586
819.0, 0.013782623100255648
820.0, 0.012988929973408
821.0, 0.0194010673581793
822.0, 0.02128705770439168
823.0, 0.01666831427874086
824.0, 0.014449337847820093
825.0, 0.013229241533085044
826.0, 0.013171236290864039
827.0, 0.011175554043936591
828.0, 0.010941906896487667
829.0, 0.014191616687045603
830.0, 0.014266339365339142
831.0, 0.013506657474196071
832.0, 0.016872566022226372
833.0, 0.016668882342610703
834.0, 0.01202402279026299
835.0, 0.009447798667943966
836.0, 0.009161575393962382
837.0, 0.014806065841461536
838.0, 0.01276365662286687
839.0, 0.00922828994131104
840.0, 0.010253678602588492
841.0, 0.006952980488443382
842.0, 0.00853544423629103
843.0, 0.013085479855397937
844.0, 0.015054393950715223
845.0, 0.01315767632423805
846.0, 0.0107191258795566
847.0, 0.011173973221028453
848.0, 0.01063794310494083
849.0, 0.006790648213918212
850.0, 0.007415611193833521
851.0, 0.007499683600660794
852.0, 0.016941212303281186
853.0, 0.01652467915411803
854.0, 0.01385947256244352
855.0, 0.01185197346175032
856.0, 0.00945680389224001
857.0, 0.009220097879039374
858.0, 0.011476636185235835
859.0, 0.013804225514455783
860.0, 0.015391455312717009
861.0, 0.008573888384440134
862.0, 0.006025330287056217
863.0, 0.007187346097257099
864.0, 0.013984431908314696
865.0, 0.01921785932038252
866.0, 0.01602242255469673
867.0, 0.014142116006896655
868.0, 0.009348377762017017
869.0, 0.005173260538662647
870.0, 0.0034741272840589075
871.0, 0.00524044013080519
872.0, 0.005810805662845855
873.0, 0.0037809587943095344
874.0, 0.0021549046733725843
875.0, 0.002140816044636327
876.0, 0.0042882184118394236
877.0, 0.0030706671454779327
878.0, 0.007947531112957384
879.0, 0.006614571319977916
880.0, 0.004869949768736596
881.0, 0.0032964550414058187
882.0, 0.0035100254761856724
883.0, 0.0027380879779344124
884.0, 0.006667931997569081
885.0, 0.011445162150687853
886.0, 0.014899182774392816
887.0, 0.016146954937781257
888.0, 0.011817461367522087
889.0, 0.006250781196583057
890.0, 0.0026090213426031633
891.0, 0.002053037516668757
892.0, 0.004233687796254742
893.0, 0.001383780584656218
894.0, 0.006241852231296031
895.0, 0.0046619115854069654
896.0, 0.004669597071773387
897.0, 0.005808048186308471
898.0, 0.005349731412799701
899.0, 0.008033784556938445
900.0, 0.012669779570672423
901.0, 0.015219799966645263
902.0, 0.017177732198012264
903.0, 0.015936751324566213
904.0, 0.009295734445098127
905.0, 0.011157674966208
906.0, 0.01187505589627659
907.0, 0.010652532130242408
908.0, 0.013936769285978808
909.0, 0.017206509379832997
910.0, 0.015119901340122912
911.0, 0.012513799469923032
912.0, 0.015366284659130936
913.0, 0.018734386752469884
914.0, 0.013428893989979065
915.0, 0.013329658847578859
916.0, 0.013134726897175994
917.0, 0.013990837713700683
918.0, 0.020065043148181725
919.0, 0.02603811926057158
920.0, 0.02507967665860509
921.0, 0.02135610933882127
922.0, 0.020232170290570735
923.0, 0.012317913076147442
924.0, 0.013561931299828228
925.0, 0.01593098116653077
926.0, 0.0109689943247412
927.0, 0.009385334594700031
928.0, 0.013026060707708122
929.0, 0.01703829069396866
930.0, 0.019886952585409522
931.0, 0.02088046966349615
932.0, 0.025581917167279682
933.0, 0.02437823681263563
934.0, 0.016176159460849267
935.0, 0.016301216648587625
936.0, 0.02315161539681727
937.0, 0.025208101996337606
938.0, 0.01975034591007661
939.0, 0.01706756392733707
940.0, 0.020819492395752755
941.0, 0.023238588635160918
942.0, 0.024562834328400982
943.0, 0.021279625046524798
944.0, 0.016930940793994584
945.0, 0.018152845602964526
946.0, 0.02039761133262427
947.0, 0.020097951035658233
948.0, 0.020073098013881685
949.0, 0.025459706136198707
950.0, 0.032664352957935475
951.0, 0.03153220356270234
952.0, 0.03127349049264332
953.0, 0.030807246548311688
954.0, 0.033876432493710584
955.0, 0.03367763668782528
956.0, 0.03020379717290474
957.0, 0.02548036648828807
958.0, 0.020565184753143187
959.0, 0.02006931809350612
960.0, 0.025812974974974586
961.0, 0.020660784301961596
962.0, 0.018478334837242462
963.0, 0.019162425236912462
964.0, 0.017634808324261356
965.0, 0.014968119357964167
966.0, 0.015888072355633606
967.0, 0.020041958472305915
968.0, 0.027687615477675894
969.0, 0.029186070046004004
970.0, 0.020557808482452797
971.0, 0.01736768717360497
972.0, 0.014891318203545795
973.0, 0.010526940504120657
974.0, 0.010572166548205923
975.0, 0.010338756415750786
976.0, 0.006615481181316256
977.0, 0.006794835414759024
978.0, 0.010886605063516777
979.0, 0.010737452026025345
980.0, 0.009072951036336064
981.0, 0.01293823139922561
982.0, 0.01743220314691241
983.0, 0.021434313270747813
984.0, 0.019588621450539797
985.0, 0.014949594665579293
986.0, 0.01166988598390922
987.0, 0.00499621279981321
988.0, 0.004868344174464171
989.0, 0.010176152489422621
990.0, 0.010572281735932018
991.0, 0.0063753838020286415
992.0, 0.004643802576129566
993.0, 0.0017591005724061312
994.0, 0.006796464160894985
995.0, 0.00639416769964729
996.0, 0.006031222300434978
997.0, 0.0050857743460595945
998.0, 0.0032338826843631967
999.0, 0.0036224664829450884
1000.0, 0.006451046522656298
1001.0, 0.00919083187189108
1002.0, 0.008178038678462545
1003.0, 0.004039396989181991
1004.0, 0.005479588394916449
1005.0, 0.0039422556597682136
1006.0, 0.00190739136630841
1007.0, 0.0026501378819324827
1008.0, 0.0028475683962517033
1009.0, 0.005069796769458854
1010.0, 0.005625941137414757
1011.0, 0.005153286604746012
1012.0, 0.004949431436735232
1013.0, 0.004699997884351761
1014.0, 0.0009061121336363539
1015.0, 0.00146997302933975
1016.0, 0.0020603319201005508
1017.0, 0.00919624423367155
1018.0, 0.01253487545274563
1019.0, 0.008237073020516995
1020.0, 0.004898775753091887
1021.0, 0.0023458446284303188
1022.0, 0.0033931733863341905
1023.0, 0.00635700570485241
1024.0, 0.003730480394421351
1025.0, 0.003147643262292983
1026.0, 0.006574757294799324
1027.0, 0.008332242942812325
1028.0, 0.006080047416678251
1029.0, 0.004551600603520824
1030.0, 0.012903757978269297
1031.0, 0.018995174406610776
1032.0, 0.01394801747251594
1033.0, 0.0063360066200205
1034.0, 0.003925238854462644
1035.0, 0.00353504144719081
1036.0, 0.004720543375399579
1037.0, 0.007432363943738635
1038.0, 0.00553672312235833
1039.0, 0.0064584399139849995
1040.0, 0.009467788114145783
1041.0, 0.004278649418308841
1042.0, 0.0073565571225287256
1043.0, 0.009160855475218216
1044.0, 0.012898383390306146
1045.0, 0.012050682331973721
1046.0, 0.006541804678210811
1047.0, 0.0047869784819353535
1048.0, 0.008745527770828284
1049.0, 0.009948183309167287
1050.0, 0.007279925434573764
1051.0, 0.009222095294106773
1052.0, 0.010760102274541354
1053.0, 0.010217557626632777
1054.0, 0.01577165965175711
1055.0, 0.016157541584486092
1056.0, 0.016597083161748287
1057.0, 0.01836721454728988
1058.0, 0.020130810871487548
1059.0, 0.01956895792514893
1060.0, 0.020306846512996614
1061.0, 0.020977934130323072
1062.0, 0.018404261246378607
1063.0, 0.016603640704835075
1064.0, 0.009133972837867235
1065.0, 0.006673408510788052
1066.0, 0.008524190979292575
1067.0, 0.010112515154124384
1068.0, 0.009607002878910007
1069.0, 0.006687865277754448
1070.0, 0.0093114354512386
1071.0, 0.010271327162599176
1072.0, 0.008783595818349659
1073.0, 0.011236012202258054
1074.0, 0.013688108634678784
1075.0, 0.010829753517241109
1076.0, 0.00809110500249556
1077.0, 0.007755113009584123
1078.0, 0.009036171205157617
1079.0, 0.00840746905428934
1080.0, 0.0060353509660181015
1081.0, 0.00674223277945356
1082.0, 0.007000587784707579
1083.0, 0.00976386124079098
1084.0, 0.012363146500882312
1085.0, 0.015554538088997297
1086.0, 0.017664836107520225
1087.0, 0.016672686117540685
1088.0, 0.01595321808548479
1089.0, 0.017333136410743608
1090.0, 0.016079841882816012
1091.0, 0.010157917161180812
1092.0, 0.0072486577404527195
1093.0, 0.011102221508262428
1094.0, 0.0180462765680618
1095.0, 0.021594174939114072
1096.0, 0.015465272264299964
1097.0, 0.011484073725786607
1098.0, 0.00950055645525599
1099.0, 0.010805472524125496
1100.0, 0.01308844010616152
1101.0, 0.01480692429937952
1102.0, 0.015617215703789052
1103.0, 0.013203868148877156
1104.0, 0.009927407825773784
1105.0, 0.0029609935030807926
1106.0, 0.0026266974433728366
1107.0, 0.0010634878035425848
1108.0, 0.009840089461885875
1109.0, 0.012225018653539824
1110.0, 0.007738336417724615
1111.0, 0.004813588635989732
1112.0, 0.004573744319804336
1113.0, 0.003163221499396504
1114.0, 0.006320048287139424
1115.0, 0.0029290850680641334
1116.0, 0.0028056818997382075
1117.0, 0.0026018879022683306
1118.0, 0.004249156586359187
1119.0, 0.0024780605457234177
1120.0, 0.004887925585135206
1121.0, 0.002995546501806039
1122.0, 0.010163679538636956
1123.0, 0.009020719881046555
1124.0, 0.0023687144915444814
1125.0, 0.0037054806700845037
1126.0, 0.008520879493069136
1127.0, 0.009032209211313947
1128.0, 0.008458503194321626
1129.0, 0.008379498309641135
1130.0, 0.0041937556262307855
1131.0, 0.0019356669263578612
1132.0, 0.003479183167643614
1133.0, 0.0018136415394908758
1134.0, 0.002656246044679453
1135.0, 0.006094763733683697
1136.0, 0.005272498803611195
1137.0, 0.006561714105762985
1138.0, 0.00857383802945175
1139.0, 0.01241137970377948
1140.0, 0.015394010899884682
1141.0, 0.01478431467983402
1142.0, 0.012397913180904665
1143.0, 0.010605121778510135
1144.0, 0.009176430542433856
1145.0, 0.006152648363789016
1146.0, 0.0032046467090742843
1147.0, 0.004605663817950351
1148.0, 0.007101630167853077
1149.0, 0.005035116103611959
1150.0, 0.0036695672865053883
1151.0, 0.003615291033749516
1152.0, 0.0018610525446491077
1153.0, 0.005149523939047747
1154.0, 0.004264798083557646
1155.0, 0.006049138566198029
1156.0, 0.005636243465321457
1157.0, 0.0059095133975076205
1158.0, 0.007172047965650876
1159.0, 0.006088510360199383
1160.0, 0.007910969846391329
1161.0, 0.011173485630898643
1162.0, 0.014994922420762655
1163.0, 0.013440686871348721
1164.0, 0.010373517371517059
1165.0, 0.01161835746878613
1166.0, 0.00829452219547981
1167.0, 0.008837985846680432
1168.0, 0.013919987111971847
1169.0, 0.01807690030800581
1170.0, 0.019355626047861407
1171.0, 0.01645124906692522
1172.0, 0.014188651534638613
1173.0, 0.012678821133756383
1174.0, 0.01901279607679553
1175.0, 0.01824129338485134
1176.0, 0.013488515675946104
1177.0, 0.00960393629626312
1178.0, 0.009175921856527599
1179.0, 0.01001558850852233
1180.0, 0.0130266593338937
1181.0, 0.012799147712594112
1182.0, 0.008728851468772449
1183.0, 0.0073628462535803635
1184.0, 0.008236902912449133
1185.0, 0.010338212899025825
1186.0, 0.012154887327761483
1187.0, 0.016766699806328524
1188.0, 0.01492647343494416
1189.0, 0.010044168108146949
1190.0, 0.012107455017317735
1191.0, 0.012859727207903652
1192.0, 0.013694937619337561
1193.0, 0.014027712621519799
1194.0, 0.014393548306026457
1195.0, 0.013696557587897399
1196.0, 0.014109569261052108
1197.0, 0.01688132301012822
1198.0, 0.021044459777308684
1199.0, 0.02192329198216475
1200.0, 0.02003247524156299
1201.0, 0.017974187363081075
1202.0, 0.016271083842892647
1203.0, 0.015947088701992466
1204.0, 0.02004739930334045
1205.0, 0.028235498953285795
1206.0, 0.025469234464025544
1207.0, 0.019917010072175136
1208.0, 0.012982783470590849
1209.0, 0.011177728029310023
1210.0, 0.014176164410664507
1211.0, 0.012155446790236222
1212.0, 0.011613613862173138
1213.0, 0.014786329174098202
1214.0, 0.0177285714185793
1215.0, 0.012819442266242409
1216.0, 0.011396403697191956
1217.0, 0.009637615029398455
1218.0, 0.007380737093688656
1219.0, 0.0069444314170817355
1220.0, 0.00805593243162436
1221.0, 0.00485645945690105
1222.0, 0.002785678076921636
1223.0, 0.004451545954442135
1224.0, 0.002380218162246344
1225.0, 0.0049469006837660565
1226.0, 0.01331983762004353
1227.0, 0.01534197884727932
1228.0, 0.012819784127142173
1229.0, 0.011998925394554535
1230.0, 0.00766967581315528
1231.0, 0.0022633598987518333
1232.0, 0.0027647756723059706
1233.0, 0.001363121721805008
1234.0, 0.0046722624296597825
1235.0, 0.0030106702904889497
1236.0, 0.002670339888981663
1237.0, 0.006182399183665782
1238.0, 0.002622790377583288
1239.0, 0.0018918615057254592
1240.0, 0.005561825813826088
1241.0, 0.005637770697626796
1242.0, 0.004549085064817824
1243.0, 0.0025104529314926138
1244.0, 0.0042586635752752365
1245.0, 0.00534451892872091
1246.0, 0.0029032098899820597
1247.0, 0.0027522912959808614
1248.0, 0.003392385306603924
1249.0, 0.0023422392638588136
1250.0, 0.0016197396469482229
1251.0, 0.0023396633469004867
1252.0, 0.004153987547695508
1253.0, 0.0029830580020823953
1254.0, 0.0019783854358923314
1255.0, 0.003144570976131803
1256.0, 0.0036165185690845486
1257.0, 0.006261046451523224
1258.0, 0.005782312915414423
1259.0, 0.006074927010816832
1260.0, 0.008197722659632386
1261.0, 0.00809773472260114
1262.0, 0.010852769330633352
1263.0, 0.012085642957242064
1264.0, 0.018033873057555286
1265.0, 0.022418751740505182
1266.0, 0.020527338878346613
1267.0, 0.018739333452506574
1268.0, 0.01771171764892841
1269.0, 0.017113348486598023
1270.0, 0.016069768879909414
1271.0, 0.011976336292872324
1272.0, 0.010070151081424754
1273.0, 0.01564299794989089
1274.0, 0.01546586090067062
1275.0, 0.012588150387052459
1276.0, 0.009218515474930074
1277.0, 0.006799416274696321
1278.0, 0.006072915901077707
1279.0, 0.005788100931782664
1280.0, 0.0028340479314084488
1281.0, 0.0013792199518977309
1282.0, 0.005867179179515098
1283.0, 0.00723815478583506
1284.0, 0.003926059843574844
1285.0, 0.000821176525965596
1286, 0.0
1287, 0.0
1288, 0.0
1289, 0.0
1290, 0.0
1291, 0.0
1292, 0.0
1293, 0.0
1294, 0.0
1295, 0.0
1296, 0.0
1297, 0.0
1298, 0.0
1299, 0.0
1300, 0.0
1301, 0.0
1302, 0.0
1303, 0.0
1304, 0.0
1305, 0.0
1306, 0.0
1307, 0.0
1308, 0.0
1309, 0.0
1310, 0.0
1311, 0.0
1312, 0.0
1313, 0.0
1314, 0.0
1315, 0.0
1316, 0.0
1317, 0.0
1318, 0.0
1319, 0.0
1320, 0.0
1321, 0.0
1322, 0.0
1323, 0.0
1324, 0.0
1325, 0.0
1326, 0.0
1327, 0.0
1328, 0.0
1329, 0.0
1330, 0.0
1331, 0.0
1332, 0.0
1333, 0.0
1334, 0.0
1335, 0.0
1336, 0.0
1337, 0.0
1338, 0.0
1339, 0.0
1340, 0.0
1341, 0.0
1342, 0.0
1343, 0.0
1344, 0.0
1345, 0.0
1346, 0.0
1347, 0.0
1348, 0.0
1349, 0.0
1350, 0.0
1351, 0.0
1352, 0.0
1353, 0.0
1354, 0.0
1355, 0.0
1356, 0.0
1357, 0.0
1358, 0.0
1359, 0.0
1360, 0.0
1361, 0.0
1362, 0.0
1363, 0.0
1364, 0.0
1365, 0.0
1366, 0.0
1367, 0.0
1368, 0.0
1369, 0.0
1370, 0.0
1371, 0.0
1372, 0.0
1373, 0.0
1374, 0.0
1375, 0.0
1376, 0.0
1377, 0.0
1378, 0.0
1379, 0.0
1380, 0.0
1381, 0.0
1382, 0.0
1383, 0.0
1384, 0.0
1385, 0.0
1386, 0.0
1387, 0.0
1388, 0.0
1389, 0.0
1390, 0.0
1391, 0.0
1392, 0.0
1393, 0.0
1394, 0.0
1395, 0.0
1396, 0.0
1397, 0.0
1398, 0.0
1399, 0.0
1400, 0.0
1401, 0.0
1402, 0.0
1403, 0.0
1404, 0.0
1405, 0.0
1406, 0.0
1407, 0.0
1408, 0.0
1409, 0.0
1410, 0.0
1411, 0.0
1412, 0.0
1413, 0.0
1414, 0.0
1415, 0.0
1416, 0.0
1417, 0.0
1418, 0.0
1419, 0.0
1420, 0.0
1421, 0.0
1422, 0.0
1423, 0.0
1424, 0.0
1425, 0.0
1426, 0.0
1427, 0.0
1428, 0.0
1429, 0.0
1430, 0.0
1431, 0.0
1432, 0.0
1433, 0.0
1434, 0.0
1435, 0.0
1436, 0.0
1437, 0.0
1438, 0.0
1439, 0.0
1440, 0.0
1441, 0.0
1442, 0.0
1443, 0.0
1444, 0.0
1445, 0.0
1446, 0.0
1447, 0.0
1448, 0.0
1449, 0.0
1450, 0.0
1451, 0.0
1452, 0.0
1453, 0.0
1454, 0.0
1455, 0.0
1456, 0.0
1457, 0.0
1458, 0.0
1459, 0.0
1460, 0.0
1461, 0.0
1462, 0.0
1463, 0.0
1464, 0.0
1465, 0.0
1466, 0.0
1467, 0.0
1468, 0.0
1469, 0.0
1470, 0.0
1471, 0.0
1472, 0.0
1473, 0.0
1474, 0.0
1475, 0.0
1476, 0.0
1477, 0.0
1478, 0.0
1479, 0.0
1480, 0.0
1481, 0.0
1482, 0.0
1483, 0.0
1484, 0.0
1485, 0.0
1486, 0.0
1487, 0.0
1488, 0.0
1489, 0.0
1490, 0.0
1491, 0.0
1492, 0.0
1493, 0.0
1494, 0.0
1495, 0.0
1496, 0.0
1497, 0.0
1498, 0.0
1499, 0.0
1500, 0.0
1501, 0.0
1502, 0.0
1503, 0.0
1504, 0.0
1505, 0.0
1506, 0.0
1507, 0.0
1508, 0.0
1509, 0.0
1510, 0.0
1511, 0.0
1512, 0.0
1513, 0.0
1514, 0.0
1515, 0.0
1516, 0.0
1517, 0.0
1518, 0.0
1519, 0.0
1520, 0.0
1521, 0.0
1522, 0.0
1523, 0.0
1524, 0.0
1525, 0.0
1526, 0.0
1527, 0.0
1528, 0.0
1529, 0.0
1530, 0.0
1531, 0.0
1532, 0.0
1533, 0.0
1534, 0.0
1535, 0.0
1536, 0.0
1537, 0.0
1538, 0.0
1539, 0.0
1540, 0.0
1541, 0.0
1542, 0.0
1543, 0.0
1544, 0.0
1545, 0.0
1546, 0.0
1547, 0.0
1548, 0.0
1549, 0.0
1550, 0.0
1551, 0.0
1552, 0.0
1553, 0.0
1554, 0.0
1555, 0.0
1556, 0.0
1557, 0.0
1558, 0.0
1559, 0.0
1560, 0.0
1561, 0.0
1562, 0.0
1563, 0.0
1564, 0.0
1565, 0.0
1566, 0.0
1567, 0.0
1568, 0.0
1569, 0.0
1570, 0.0
1571, 0.0
1572, 0.0
1573, 0.0
1574, 0.0
1575, 0.0
1576, 0.0
1577, 0.0
1578, 0.0
1579, 0.0
1580, 0.0
1581, 0.0
1582, 0.0
1583, 0.0
1584, 0.0
1585, 0.0
1586, 0.0
1587, 0.0
1588, 0.0
1589, 0.0
1590, 0.0
1591, 0.0
1592, 0.0
1593, 0.0
1594, 0.0
1595, 0.0
1596, 0.0
1597, 0.0
1598, 0.0
1599, 0.0
