30, 0.0
31, 0.0
32, 0.0
33, 0.0
34, 0.0
35, 0.0
36, 0.0
37, 0.0
38, 0.0
39, 0.0
40, 0.0
41, 0.0
42, 0.0
43, 0.0
44, 0.0
45, 0.0
46, 0.0
47, 0.0
48, 0.0
49, 0.0
50, 0.0
51, 0.0
52, 0.0
53, 0.0
54, 0.0
55, 0.0
56, 0.0
57, 0.0
58, 0.0
59, 0.0
60, 0.0
61, 0.0
62, 0.0
63, 0.0
64, 0.0
65, 0.0
66, 0.0
67, 0.0
68, 0.0
69, 0.0
70, 0.0
71, 0.0
72, 0.0
73, 0.0
74, 0.0
75, 0.0
76, 0.0
77, 0.0
78, 0.0
79, 0.0
80, 0.0
81, 0.0
82, 0.0
83, 0.0
84, 0.0
85, 0.0
86, 0.0
87, 0.0
88, 0.0
89, 0.0
90, 0.0
91, 0.0
92, 0.0
93.0, 0.00012961030365119813
94.0, 0.0005321267746176486
95.0, 0.001403903442231283
96.0, 0.0021003658856424863
97.0, 0.0026501468441060766
98.0, 0.003422680150814451
99.0, 0.003159317734822431
100.0, 0.002658984102749814
101.0, 0.002357949312190287
102.0, 0.002984523019075774
103.0, 0.0023118296597482396
104.0, 0.0009689208161734835
105.0, 0.0011197036742315169
106.0, 0.0005765313337228881
107.0, 0.0004090319206828887
108.0, 0.0010971095607393937
109.0, 0.0013510588390844203
110.0, 0.0022861652847819885
111.0, 0.003511300846890967
112.0, 0.004248633858214117
113.0, 0.004871804912641548
114.0, 0.005571337577027894
115.0, 0.006336887785909159
116.0, 0.0059860334948046885
117.0, 0.00575153820033321
118.0, 0.0054117134124848035
119.0, 0.004628018312736425
120.0, 0.004241277370775455
121.0, 0.0038865240567451513
122.0, 0.0034582065835137648
123.0, 0.0025837382165844205
124.0, 0.0022789021589238326
125.0, 0.0020696851508055247
126.0, 0.0015851657665724513
127.0, 0.0008424955365025186
128.0, 0.0003398233270923065
129.0, 0.0001431171893655393
130.0, 0.0004383105747672334
131.0, 0.0004162454874141467
132.0, 0.0003562907336061691
133.0, 0.00038548451357864186
134.0, 0.001320267819482222
135.0, 0.0013263362523309385
136.0, 0.00105852124353776
137.0, 0.0019113536856576615
138.0, 0.001551733451419925
139.0, 0.001085280244888944
140.0, 0.0008439049420316382
141.0, 0.0015684800956301613
142.0, 0.0021892647184309955
143.0, 0.002446713765460592
144.0, 0.0019395718338205026
145.0, 0.0021110212510861022
146.0, 0.002032061492946065
147.0, 0.0017179577771018787
148.0, 0.0017946602499879206
149.0, 0.0020904358710587675
150.0, 0.0024368964439315803
151.0, 0.0027444925273846644
152.0, 0.0034233026924125392
153.0, 0.0037275576575139576
154.0, 0.0040295764568880465
155.0, 0.00528112636643214
156.0, 0.006042902757545314
157.0, 0.0068222623763322335
158.0, 0.0077956242642376865
159.0, 0.009478205568603626
160.0, 0.011513842488346878
161.0, 0.013929661083716568
162.0, 0.01685333370581434
163.0, 0.019192501958578047
164.0, 0.022244265316260316
165.0, 0.025952369005017895
166.0, 0.029511932781232198
167.0, 0.032769290784613034
168.0, 0.035543485629692874
169.0, 0.03768593394945226
170.0, 0.038361207506792554
171.0, 0.03831316603987612
172.0, 0.03728435490860406
173.0, 0.034544256799860604
174.0, 0.030636600114881212
175.0, 0.027170338286573045
176.0, 0.02433230034231517
177.0, 0.02085765599296554
178.0, 0.01820559586491152
179.0, 0.015823572506466578
180.0, 0.013330408880661622
181.0, 0.010677010631314328
182.0, 0.009003094681211252
183.0, 0.008052754222273561
184.0, 0.007090751937259007
185.0, 0.006003253320712585
186.0, 0.005014845186246853
187.0, 0.004202550479166815
188.0, 0.003592385771090069
189.0, 0.003042878873713666
190.0, 0.0026064876069472544
191.0, 0.0023658639986531655
192.0, 0.001980933525827616
193.0, 0.0018515079677897174
194.0, 0.0018716653079059742
195.0, 0.0015341517374872326
196.0, 0.0015234347104924007
197.0, 0.0012623719101040815
198.0, 0.0005371956397701467
199.0, 0.00013635064516820717
200.0, 0.0002311009558126587
201.0, 0.0005550383272033948
202.0, 0.0008127998627090728
203.0, 0.001014271093535076
204.0, 0.0007217927614299304
205.0, 0.00020200328986328
206.0, 0.000811685565691686
207.0, 0.0007990528416921461
208.0, 0.0005044203030379021
209.0, 8.366044494216834e-05
210.0, 0.0007073328105234693
211.0, 0.0006086867066422517
212.0, 0.0002754907435256445
213.0, 0.00033000755869883513
214.0, 0.00027366969761666884
215.0, 0.00032760737367792427
216.0, 0.0004999027094374418
217.0, 0.0007223702551279879
218.0, 0.0005018679726139339
219.0, 0.0006169279935878094
220.0, 0.0013507707015123203
221.0, 0.000474193861318685
222.0, 0.00011167449253075022
223.0, 0.00015838585627419162
224.0, 0.0005626747684435262
225.0, 0.00030479345394627335
226.0, 0.0006251838903413306
227.0, 0.0013260247260911005
228.0, 0.001205256033956039
229.0, 0.0011591102755204334
230.0, 0.001096142641671698
231.0, 0.0009987171611855403
232.0, 0.0011670114964088007
233.0, 0.00102206320992691
234.0, 0.0006363938546849232
235.0, 4.10737165678132e-05
236.0, 0.0007750396532146936
237.0, 0.0014667059170245227
238.0, 0.0019360337793398932
239.0, 0.0019043140388780165
240.0, 0.0014548855441924113
241.0, 0.0016462925004450952
242.0, 0.0026050217244595253
243.0, 0.0024034518674330824
244.0, 0.0026797344195758567
245.0, 0.0032032686989712233
246.0, 0.003832823858789397
247.0, 0.003969818573517524
248.0, 0.0041547616850743825
249.0, 0.004607604750203529
250.0, 0.005796128418395567
251.0, 0.005626583271371049
252.0, 0.005997487754279915
253.0, 0.007072793631253879
254.0, 0.007845815386761412
255.0, 0.009187053296634329
256.0, 0.010491301958836581
257.0, 0.011475221321722745
258.0, 0.012699003253680886
259.0, 0.014155302476324056
260.0, 0.015582541616568185
261.0, 0.01664889056629174
262.0, 0.018542855914438106
263.0, 0.02050369130630568
264.0, 0.02251470946859935
265.0, 0.024737693453325132
266.0, 0.027101281401035567
267.0, 0.02967698521944034
268.0, 0.032501667293674416
269.0, 0.03565912433231998
270.0, 0.04003779096487886
271.0, 0.04465080969687062
272.0, 0.048866920180028944
273.0, 0.05385377425864003
274.0, 0.0590986754887413
275.0, 0.06409791925120756
276.0, 0.06800789122394305
277.0, 0.07442672535093603
278.0, 0.08012091018898772
279.0, 0.08478786184452664
280.0, 0.0886616580530818
281.0, 0.09218376804556178
282.0, 0.09520604350301914
283.0, 0.09765195600862897
284.0, 0.09947279534321282
285.0, 0.10048667766630283
286.0, 0.100605693347309
287.0, 0.09967293234546992
288.0, 0.0981810441214607
289.0, 0.09611835022306413
290.0, 0.09310609712097781
291.0, 0.0883983411582337
292.0, 0.08422493641617307
293.0, 0.08020058014681003
294.0, 0.07595924195672595
295.0, 0.07036605502172656
296.0, 0.06547836848065995
297.0, 0.06062218216199839
298.0, 0.05561592486809815
299.0, 0.050617965752395945
300.0, 0.04640044060331722
301.0, 0.04242762966095748
302.0, 0.03839735053368602
303.0, 0.03491039298676235
304.0, 0.03186971957432841
305.0, 0.028837749652699144
306.0, 0.025246626653130325
307.0, 0.023071275274251478
308.0, 0.02097363237741269
309.0, 0.018937400895400767
310.0, 0.017205139249246375
311.0, 0.015339565284020149
312.0, 0.013732962706350434
313.0, 0.012439925419802373
314.0, 0.011298187741462849
315.0, 0.010553952401612911
316.0, 0.009938466604994168
317.0, 0.00930020147813639
318.0, 0.00798630314734026
319.0, 0.007719036355115924
320.0, 0.007594182023373694
321.0, 0.006887009288644605
322.0, 0.0068356468248176845
323.0, 0.00676509204951537
324.0, 0.006566170912451023
325.0, 0.006068435564272228
326.0, 0.005766328553817438
327.0, 0.005479101024705838
328.0, 0.005126494105563414
329.0, 0.004523591957996399
330.0, 0.004405790200880437
331.0, 0.004863852694964358
332.0, 0.0056676735988058155
333.0, 0.005390740680647596
334.0, 0.004302886683626596
335.0, 0.004043583153029488
336.0, 0.005174821550589114
337.0, 0.0052863216269418475
338.0, 0.004654455758894478
339.0, 0.004283727801346318
340.0, 0.00493882790673581
341.0, 0.005297685175533974
342.0, 0.005736019239675561
343.0, 0.006309385850266315
344.0, 0.007104560730577242
345.0, 0.0077832225058943
346.0, 0.008627433295816072
347.0, 0.009367348540380425
348.0, 0.009349227117898687
349.0, 0.009713657834080989
350.0, 0.010008730829713928
351.0, 0.010132676647462265
352.0, 0.00996872979546571
353.0, 0.009956036328664906
354.0, 0.009707442211734989
355.0, 0.00915493134886501
356.0, 0.008641439538560345
357.0, 0.008186911059807834
358.0, 0.0075070342468398854
359.0, 0.006461332389112976
360.0, 0.005197328520520693
361.0, 0.004423005900928464
362.0, 0.003905151649173158
363.0, 0.003485241445880765
364.0, 0.003679283648947007
365.0, 0.0033456364191970884
366.0, 0.00270766218209531
367.0, 0.002014411344767004
368.0, 0.0020269532381249292
369.0, 0.0018550665089457697
370.0, 0.0017101069799268923
371.0, 0.0020768313861359864
372.0, 0.001294243661776253
373.0, 0.0009612753607776205
374.0, 0.0011377989629820292
375.0, 0.001484086524003797
376.0, 0.0013897940944251185
377.0, 0.0014884411256938397
378.0, 0.001598634442817734
379.0, 0.00034867462704583766
380.0, 0.000619336385371194
381.0, 0.000981431150124174
382.0, 0.0009793495657602043
383.0, 0.0005981702195013151
384.0, 0.0006168660402062021
385.0, 0.0005553024020554748
386.0, 0.00026639924730216123
387.0, 0.0007825495662246891
388.0, 0.0007508476594105924
389.0, 0.0005597196386454715
390.0, 0.0004569722627775208
391.0, 0.00036811703046293035
392.0, 0.00022786194642068403
393.0, 0.00021361149253301226
394.0, 0.0004986259453387113
395.0, 0.0004766734946347745
396.0, 0.0003080174785798437
397.0, 0.0002239813460780315
398.0, 0.0005308257535904765
399.0, 0.00023277668896074937
400.0, 0.0001944160013147667
401.0, 0.00041910484381464614
402.0, 0.0008542541387606384
403.0, 0.0008003956381614214
404.0, 0.0005144104962023545
405.0, 0.0002115007821761208
406.0, 0.0003325230957468677
407.0, 0.0003543281650132008
408.0, 0.0004642391753537782
409.0, 0.0005451124974358093
410.0, 0.0001436477202485709
411.0, 0.00010269939166918306
412.0, 0.00010099495005428049
413.0, 0.00013644034216021172
414.0, 0.0004820895171322115
415.0, 0.0002149775766661141
416.0, 0.00011537498714622884
417.0, 0.0002891436371471952
418.0, 0.00010759924397348215
419.0, 0.0006244670825348928
420.0, 0.0008337263562012662
421.0, 0.00045185910118709184
422.0, 0.0001128912677548419
423.0, 0.0005084149000037357
424.0, 0.0007189650126512749
425.0, 0.0004130115509983081
426.0, 0.0004955846771720251
427.0, 0.0003554707735006323
428.0, 0.00037906587109645207
429.0, 0.0007049518342902325
430.0, 0.0001716078835368613
431.0, 0.00039896113019446944
432.0, 0.0006510217882860213
433.0, 0.0004849948703093528
434.0, 0.000787043468313271
435.0, 0.000568710472527538
436.0, 0.0003101004559698055
437.0, 0.00037758009828109634
438.0, 0.00064489815006211
439.0, 0.0006969413517873756
440.0, 0.000687287012977301
441.0, 0.0007517868984544993
442.0, 0.000832414661563146
443.0, 0.0009131178505810019
444.0, 0.0008902185182318778
445.0, 0.0006540165745154722
446.0, 0.0009017537645423201
447.0, 0.0008142262123505943
448.0, 0.0007756683282786176
449.0, 0.0012454248163069276
450.0, 0.0011300860794146927
451.0, 0.001049996563178866
452.0, 0.0010409069069495344
453.0, 0.0011315763528132556
454.0, 0.0014811430322142463
455.0, 0.0015124920244482018
456.0, 0.0014553132599079584
457.0, 0.0016556592222215954
458.0, 0.0012371096224042303
459.0, 0.001141286089500893
460.0, 0.0013245121131724865
461.0, 0.0016659821759514486
462.0, 0.001588381304420416
463.0, 0.0017395317296664838
464.0, 0.0017757116010848814
465.0, 0.0010908680156795907
466.0, 0.0011500793693706424
467.0, 0.0013435104211428814
468.0, 0.0014982933558425028
469.0, 0.0013972544897616404
470.0, 0.0016823155380757543
471.0, 0.0017152298465108239
472.0, 0.0016199011062588075
473.0, 0.0016736400060688356
474.0, 0.0011199111529518135
475.0, 0.0010002781527670152
476.0, 0.0010857503585680393
477.0, 0.0008712988121789408
478.0, 0.0012330569325260218
479.0, 0.0016068934683339858
480.0, 0.001814859882984474
481.0, 0.0016223458662010834
482.0, 0.002031632735164645
483.0, 0.002060861852151638
484.0, 0.00170168522978984
485.0, 0.0010408694533063383
486.0, 0.001602736873093836
487.0, 0.0016316476983509588
488.0, 0.001420625295464303
489.0, 0.0016072554356393216
490.0, 0.0018350670614475928
491.0, 0.0018957852357370426
492.0, 0.0017876396374143328
493.0, 0.00152119512838345
494.0, 0.0015869864064111206
495.0, 0.0014986027915915028
496.0, 0.001387305505970863
497.0, 0.0014707044557525136
498.0, 0.002068548485702923
499.0, 0.0021057074015423077
500.0, 0.0018670926466773357
501.0, 0.00177232616442973
502.0, 0.0021570873188006706
503.0, 0.0020218363342799166
504.0, 0.0016575480857986776
505.0, 0.0014363022808369507
506.0, 0.001432264174725667
507.0, 0.0017764992682486676
508.0, 0.002159030433604258
509.0, 0.0022534184388097603
510.0, 0.0020177434170819816
511.0, 0.0021003677692463937
512.0, 0.0022389442267354426
513.0, 0.002189248051420155
514.0, 0.002091699390085657
515.0, 0.002124942836448085
516.0, 0.0022399429166717892
517.0, 0.002386280764323557
518.0, 0.0022912363905023742
519.0, 0.0020107648861374477
520.0, 0.0019352552387578528
521.0, 0.002293849682577452
522.0, 0.002337434586726838
523.0, 0.002495662916907102
524.0, 0.0023362485346807315
525.0, 0.0017486536010100722
526.0, 0.00236156532033994
527.0, 0.0025051304668450613
528.0, 0.0022077701660049424
529.0, 0.00165804909236357
530.0, 0.0022505627003766623
531.0, 0.002732568632025125
532.0, 0.0027124249312705916
533.0, 0.002218503188258874
534.0, 0.002362599692929501
535.0, 0.00246988053020321
536.0, 0.002483305246644586
537.0, 0.0024000254814111857
538.0, 0.00229104756752501
539.0, 0.0024679784614643004
540.0, 0.002523885935059209
541.0, 0.002412445228850228
542.0, 0.002321518577501437
543.0, 0.002408054382931456
544.0, 0.002267417650880919
545.0, 0.002007149743474859
546.0, 0.0021000778490301913
547.0, 0.002279707573590819
548.0, 0.002634112255946342
549.0, 0.002830365873017824
550.0, 0.0021886540186364144
551.0, 0.0021245147143427547
552.0, 0.0016539068229378155
553.0, 0.0012046433520670453
554.0, 0.0015370113169266401
555.0, 0.0015913718534886598
556.0, 0.001984145270297113
557.0, 0.0021573803512659946
558.0, 0.0014701876840605475
559.0, 0.00253062612145672
560.0, 0.002537017930094855
561.0, 0.0022561001080042722
562.0, 0.0023389664988968674
563.0, 0.0025120349916664475
564.0, 0.002202069209648465
565.0, 0.002057674961478801
566.0, 0.002401046502193543
567.0, 0.0023794825866573065
568.0, 0.00245692665979746
569.0, 0.00224110020093711
570.0, 0.0016735974899341835
571.0, 0.0014684006205813284
572.0, 0.0017042886318788496
573.0, 0.002071712627995761
574.0, 0.0022362604429133496
575.0, 0.0012818899317212423
576.0, 0.0015869792978637836
577.0, 0.0018331489180887992
578.0, 0.00183442933613274
579.0, 0.0018142115250793609
580.0, 0.0013009704628205079
581.0, 0.0013496663674448395
582.0, 0.001645769245278258
583.0, 0.0014162385687991354
584.0, 0.001733326479850765
585.0, 0.0018151130053682468
586.0, 0.0016217342026504202
587.0, 0.0011646049121380251
588.0, 0.001367129197538619
589.0, 0.001500924632975831
590.0, 0.001372958854761645
591.0, 0.0008807747301151759
592.0, 0.0008733079730431766
593.0, 0.0010922188867789294
594.0, 0.001342292881197412
595.0, 0.0015191389277744768
596.0, 0.0016391851124417055
597.0, 0.001517985467282245
598.0, 0.0010795271413765874
599.0, 0.0004505592426987422
600.0, 0.0002505549793457829
601.0, 8.772296907836444e-05
602.0, 0.00013545183478636544
603.0, 0.0002779049931678193
604.0, 0.0001413205552092524
605.0, 0.0005769339846611238
606.0, 0.0011253906688369567
607.0, 0.0014239057438933196
608.0, 0.0009993409067207682
609.0, 0.0011993877526677518
610.0, 0.001109726327301902
611.0, 0.0009335352634606701
612.0, 0.0008986924801991104
613.0, 0.0009894641011343754
614.0, 0.0010098137466303073
615.0, 0.0009770480723450443
616.0, 0.000917921564714624
617.0, 0.000959750237028321
618.0, 0.0009996878088130632
619.0, 0.0009712773300372237
620.0, 0.0008256128845395757
621.0, 0.00046455268151449
622.0, 0.00026979213388620267
623.0, 0.00016287974977793011
624.0, 0.00011132012454035635
625.0, 7.729327352604061e-05
626.0, 0.00022577503922058668
627.0, 0.00015537343611546917
628.0, 0.0001342931007429717
629.0, 0.0005627799697688523
630.0, 0.0009267011694368135
631.0, 0.001025125023574275
632.0, 0.0010426820319480387
633.0, 0.0010831592831488561
634.0, 0.0004942757304466
635.0, 0.0005642904779521487
636.0, 0.0005626535904240068
637.0, 0.00025432257620928625
638.0, 0.00018592266437806047
639.0, 0.0002512583021322826
640.0, 0.0001802722052938979
641.0, 8.543303892223969e-05
642.0, 0.00043709695786959483
643.0, 0.00031217467921531336
644.0, 0.00041463673734978785
645.0, 0.0005908711385113994
646.0, 0.0005096719444731965
647.0, 0.00017367106488687216
648.0, 0.0004914195256419055
649.0, 0.0007571928611364918
650.0, 0.00045026962812444834
651.0, 0.0004722907151152813
652.0, 0.0009632776079451666
653.0, 0.0010231947706039674
654.0, 0.0005206972033800568
655.0, 0.0007089597121328161
656.0, 0.0006628727534616552
657.0, 0.0006429648047303016
658.0, 0.0006324380375356248
659.0, 0.00046064873060045933
660.0, 0.0008771890154442459
661.0, 0.0006095380654150209
662.0, 0.0002728024873318946
663.0, 0.0007049018784600128
664.0, 0.000547700265365018
665.0, 0.0004496676035497196
666.0, 0.0004065943222908787
667.0, 0.0004070629868895626
668.0, 0.0003949506252707888
669.0, 0.0003071023190689943
670.0, 0.0003455664446037471
671.0, 0.0005428635960224026
672.0, 0.0007919247619224506
673.0, 0.0008244609108413549
674.0, 0.0006209765986525918
675.0, 0.0003919593170533139
676.0, 0.00046321456765273546
677.0, 0.0007726068147377461
678.0, 0.0007493417600292643
679.0, 0.0007511123351719982
680.0, 0.0010048823073411776
681.0, 0.0007355683439796441
682.0, 0.000685322665975237
683.0, 0.0005867315515365872
684.0, 0.00045941998013829965
685.0, 0.0007738989810897286
686.0, 0.0008314252016578565
687.0, 0.001178643947490161
688.0, 0.0013349785344034023
689.0, 0.00033458928060274486
690.0, 0.0009120490413919755
691.0, 0.0008308559849778762
692.0, 0.0006629098604461041
693.0, 0.0009239218616530415
694.0, 0.0011244557349306848
695.0, 0.0008098660820317859
696.0, 0.0005905577804349372
697.0, 0.0006309258494449004
698.0, 0.0006056488182633457
699.0, 0.0004255439078583546
700.0, 0.00025272833664524073
701.0, 0.0001622868791675693
702.0, 0.00022938886290869957
703.0, 0.0006025576412677714
704.0, 0.0008714697382840879
705.0, 0.0008699003449619631
706.0, 0.0005864586363893559
707.0, 0.0010310101427864014
708.0, 0.0007307702677318786
709.0, 0.0006945925677091203
710.0, 0.0010290531873556451
711.0, 0.0009190465816084262
712.0, 0.0019641789511613337
713.0, 0.0020351581114709813
714.0, 0.0020175320247055525
715.0, 0.0034648746296755003
716.0, 0.004252019803371324
717.0, 0.00477233996854328
718.0, 0.005836102285821643
719.0, 0.007500639053956525
720.0, 0.00688667168393702
721.0, 0.0083843010517228
722.0, 0.009258271043437325
723.0, 0.009385055220138619
724.0, 0.010172922366690589
725.0, 0.009734567298253366
726.0, 0.009512390747211044
727.0, 0.00946346852173634
728.0, 0.009337507098188745
729.0, 0.007563986816522858
730.0, 0.006760313956682799
731.0, 0.006724862437228304
732.0, 0.006984378819162343
733.0, 0.0061409106928600726
734.0, 0.006194598225069831
735.0, 0.005799070770486997
736.0, 0.005147917873795458
737.0, 0.004841888320024881
738.0, 0.0049803078101147355
739.0, 0.004329061599481926
740.0, 0.0036077042248376535
741.0, 0.003369820079245864
742.0, 0.004028426258015024
743.0, 0.003328091335667285
744.0, 0.0025909708279722257
745.0, 0.0022349548896449783
746.0, 0.002420776037925286
747.0, 0.0026350225715986346
748.0, 0.0027633467193085076
749.0, 0.0025428243786410967
750.0, 0.0018801632885729906
751.0, 0.001965165709804647
752.0, 0.0019288175164772542
753.0, 0.00206274264661512
754.0, 0.0021946385721416115
755.0, 0.0015743289994307205
756.0, 0.0010829652479168585
757.0, 0.0007924761214096298
758.0, 0.0009210120772343038
759.0, 0.0015899461964778907
760.0, 0.001312250611164394
761.0, 0.0014609701735938062
762.0, 0.0015178082766210807
763.0, 0.0012982281011865192
764.0, 0.0009576089533358599
765.0, 0.0014842505894830846
766.0, 0.0012138304939965452
767.0, 0.000742205289911137
768.0, 0.0010470633101714198
769.0, 0.0005423529449599937
770.0, 0.0010079200634990396
771.0, 0.0016395969840079323
772.0, 0.0018183160321230203
773.0, 0.0007552643872703521
774.0, 0.0007620025494649524
775.0, 0.0006790815022986098
776.0, 0.0006025970258689521
777.0, 0.0008979246612417568
778.0, 0.0009972683821619628
779.0, 0.0007835866053268372
780.0, 0.0005649054259217704
781.0, 0.0004947958424030398
782.0, 0.0004960601553302213
783.0, 0.0006113999755508267
784.0, 0.0007054831324017997
785.0, 0.0007589089173993702
786.0, 0.000782635862118068
787.0, 0.0009999218356311274
788.0, 0.0012054157849745882
789.0, 0.0009196435337120745
790.0, 0.0001947636078073435
791.0, 0.00029615167833412984
792.0, 0.00018863477951919087
793.0, 0.0001465608903979671
794.0, 0.0002936994357405036
795.0, 0.0006948226608921046
796.0, 0.00021773026216881792
797.0, 0.00031556408487939946
798.0, 0.0003771619531811845
799.0, 0.00018955714420499373
800.0, 0.00014456085745632313
801.0, 0.0001310984424527323
802.0, 9.909283385064232e-05
803.0, 7.179888287813381e-05
804.0, 8.841915789244906e-05
805.0, 0.00020498357393437412
806.0, 0.00040926356154207276
807.0, 0.0005711784200081402
808.0, 0.0005472234939863884
809.0, 7.400835534275931e-05
810.0, 0.0005603456706297383
811.0, 0.0007519235296461752
812.0, 0.000570555680577254
813.0, 0.00017572054932178525
814.0, 0.0006386992869239731
815.0, 0.00030967180211053497
816.0, 0.00021978651996458026
817.0, 0.00048433991423860087
818.0, 0.00047021335112665903
819.0, 0.0009553961256793266
820.0, 0.0007091015571823254
821.0, 0.00027657006458903325
822.0, 0.00016958227101288045
823.0, 0.00022939899884072838
824.0, 0.00019955177819404812
825.0, 0.000395504509155854
826.0, 0.0006831105106580699
827.0, 0.0006701010139693822
828.0, 0.0004925878349608855
829.0, 0.0005706509236130415
830.0, 0.00047578725867242027
831.0, 9.25770359244633e-05
832.0, 0.00013705542234769547
833.0, 0.00044092359630990523
834.0, 0.0008069510588080124
835.0, 0.0008395998301634372
836.0, 0.00016223972880744544
837.0, 0.00037050271749598264
838.0, 0.0004082667124404911
839.0, 0.0002734417805545878
840.0, 0.0002295107576104569
841.0, 0.0010095999213547992
842.0, 0.0007879763534792434
843.0, 0.00044881553902177164
844.0, 0.00020258781811293854
845.0, 0.00018250718526576133
846.0, 0.0004750650942770752
847.0, 0.0006103620811851653
848.0, 0.0005487212103623769
849.0, 0.0003891825097719198
850.0, 0.00032537178959833845
851.0, 0.0003918153326586113
852.0, 0.000629245610111334
853.0, 0.0009381377222807033
854.0, 0.0010559997824903997
855.0, 0.00022531768997379115
856.0, 0.0004049231293885905
857.0, 0.0002796403042368644
858.0, 0.0003641528189036983
859.0, 0.0012507373924770793
860.0, 0.0013857848505868014
861.0, 0.0008971381479007292
862.0, 0.00043660196282873715
863.0, 0.00041420026656677146
864.0, 0.0011960435034288014
865.0, 0.001312042324672191
866.0, 0.0015669183382413408
867.0, 0.0016546227373900584
868.0, 0.0016154985730457829
869.0, 0.0024809921449336476
870.0, 0.003951490861509276
871.0, 0.005488091158355672
872.0, 0.0072239143284787465
873.0, 0.009276484601401014
874.0, 0.010358546376075847
875.0, 0.010285249112066878
876.0, 0.009318336253486105
877.0, 0.007402203690330279
878.0, 0.004298615852277766
879.0, 0.002635096376195663
880.0, 0.0019187656690380073
881.0, 0.0015068338110549983
882.0, 0.0010058536167735347
883.0, 0.00047703083598769165
884.0, 0.00039817269941966923
885.0, 0.0005045954283156175
886.0, 0.0004959486454641016
887.0, 0.00016803380900949833
888.0, 9.581789217445827e-05
889.0, 0.0002223531034126774
890.0, 0.0003859568693104728
891.0, 0.0005179303882248741
892.0, 0.0005770453435357499
893.0, 0.0002567827280233037
894.0, 0.0002942067982979348
895.0, 0.0002592717810499697
896.0, 7.276385868652886e-05
897.0, 0.00012978282297216792
898.0, 5.7934803290609965e-05
899.0, 0.0002012881012606921
900.0, 0.00042122749167259417
901.0, 0.0005120442875823686
902.0, 9.512641671342604e-05
903.0, 0.0002965558330824401
904.0, 0.00034589557170605395
905.0, 0.0003327553932656259
906.0, 0.0004896492218397317
907.0, 0.00011603356135533632
908.0, 0.00019978924383870153
909.0, 0.00027920559295654696
910.0, 0.000353597936724672
911.0, 0.0007071269222875187
912.0, 0.0006441634700033246
913.0, 0.0004952396183415786
914.0, 0.00040086739404733725
915.0, 0.0004110374901908123
916.0, 0.00044791062084530695
917.0, 0.0007033654979731925
918.0, 0.0008061860162072724
919.0, 0.0006033957325502641
920.0, 0.00023187201732988378
921.0, 0.0008369929322713606
922.0, 0.0005082890786444115
923.0, 0.00021735883793355296
924.0, 0.00020940673212043723
925.0, 0.0004906489704618737
926.0, 0.0003274535913363654
927.0, 0.0004376971492008467
928.0, 0.0003385506599462645
929.0, 0.00018946752715633144
930.0, 0.000448885754419763
931.0, 0.0007870538432351652
932.0, 0.0009977470211528527
933.0, 0.0007667957510086325
934.0, 0.0004829535592773217
935.0, 0.001306447886719157
936.0, 0.0008242007018844494
937.0, 0.0011577313414918612
938.0, 0.0012802825293652257
939.0, 0.0007357583963762267
940.0, 0.00020487168863162636
941.0, 0.0006049924846291554
942.0, 0.0007102668493698949
943.0, 0.0005836957511844467
944.0, 0.00044809645816796406
945.0, 0.0006757973712588205
946.0, 0.00028775365476549206
947.0, 0.0005974459860705258
948.0, 0.0008119245775010384
949.0, 0.00016837479486986112
950.0, 0.0009437267127141673
951.0, 0.0005668990213641163
952.0, 0.00029400988351412283
953.0, 0.0006262876391592205
954.0, 0.0016133275193655173
955.0, 0.0005228038257757657
956.0, 0.0004961120290946676
957.0, 0.0007994106953613447
958.0, 0.0008460903701998652
959.0, 0.00012926172601542116
960.0, 0.000840094331522239
961.0, 0.0011494030853592403
962.0, 0.001303485551465006
963.0, 0.001228136534338556
964.0, 0.000546565041059426
965.0, 0.0003453852191377971
966.0, 0.0003952945916789675
967.0, 0.00040792685634146873
968.0, 0.00038666398308170863
969.0, 0.0007622979503214799
970.0, 0.0008167757024075885
971.0, 0.0007745695644043746
972.0, 0.0008162165655703987
973.0, 0.0009521206323130694
974.0, 0.000845148020649611
975.0, 0.0009720724959791299
976.0, 0.0008543795466621629
977.0, 0.0008684381319298458
978.0, 0.001175128474110473
979.0, 0.001114944614433139
980.0, 0.001556935289576472
981.0, 0.001768022938659579
982.0, 0.0019182190943035212
983.0, 0.002161423232200717
984.0, 0.0020931969109841695
985.0, 0.002299819189085244
986.0, 0.0018666727373678558
987.0, 0.0013749576988501039
988.0, 0.0014690630491097413
989.0, 0.001645178495704871
990.0, 0.001399457455909481
991.0, 0.0014260928334239905
992.0, 0.0014596805529970287
993.0, 0.0011690186365592185
994.0, 0.001362292668112799
995.0, 0.0015701309802552766
996.0, 0.0015451938888347628
997.0, 0.0015582018749753243
998.0, 0.0019141511651591823
999.0, 0.0018553036694465626
1000.0, 0.0015148044996241786
1001.0, 0.0016297808207898791
1002.0, 0.001703608607735652
1003.0, 0.0010504391046068724
1004.0, 0.0015653105966893855
1005.0, 0.0020385842905719796
1006.0, 0.0018311007600881168
1007.0, 0.001268417762902486
1008.0, 0.0010847064223434056
1009.0, 0.0019208092256118288
1010.0, 0.0016514817516360687
1011.0, 0.001924068110774569
1012.0, 0.0025164084711390058
1013.0, 0.0024825895770027267
1014.0, 0.0020705049128461276
1015.0, 0.0024704979173722696
1016.0, 0.0028449106352207475
1017.0, 0.003031158680675343
1018.0, 0.003170667110884026
1019.0, 0.0034682628872774656
1020.0, 0.0032840541930236676
1021.0, 0.002961804890348899
1022.0, 0.00308742058370931
1023.0, 0.00418122197835293
1024.0, 0.004581185525163352
1025.0, 0.003972923860872589
1026.0, 0.0037439492221334665
1027.0, 0.003829111251678317
1028.0, 0.00367229154516726
1029.0, 0.004411373759085649
1030.0, 0.004649231521040595
1031.0, 0.005168492103428669
1032.0, 0.0054664457159458715
1033.0, 0.004789057730815759
1034.0, 0.00495321174481317
1035.0, 0.00538501596266758
1036.0, 0.005080173722557668
1037.0, 0.004842723251412212
1038.0, 0.005883435908773164
1039.0, 0.007302439292385789
1040.0, 0.006353329876955402
1041.0, 0.006423705131586671
1042.0, 0.007366317212346971
1043.0, 0.008021525328209508
1044.0, 0.008078720656451559
1045.0, 0.008620764391862283
1046.0, 0.009315384737850957
1047.0, 0.010236117744333839
1048.0, 0.01130260311864571
1049.0, 0.011145278672890516
1050.0, 0.010989132353912636
1051.0, 0.011121319592383846
1052.0, 0.011135647299493215
1053.0, 0.01060513522521552
1054.0, 0.009552082453277993
1055.0, 0.010296366230744498
1056.0, 0.010239588576260448
1057.0, 0.01035977804105908
1058.0, 0.01140763684556692
1059.0, 0.011836315456114146
1060.0, 0.01160368519581279
1061.0, 0.012138267528695061
1062.0, 0.01250542430868946
1063.0, 0.012631218077788687
1064.0, 0.014922463397529884
1065.0, 0.015431899949086461
1066.0, 0.01638691777623299
1067.0, 0.01746531423273462
1068.0, 0.018529386235919557
1069.0, 0.020006836934304113
1070.0, 0.022421545313218327
1071.0, 0.024866130611000334
1072.0, 0.026247600058179943
1073.0, 0.026853368598604137
1074.0, 0.02844818765833251
1075.0, 0.0297571548844453
1076.0, 0.031144388413894775
1077.0, 0.033448865370967
1078.0, 0.036473935013519566
1079.0, 0.03937102810611399
1080.0, 0.04433860381907488
1081.0, 0.05025178482413199
1082.0, 0.05749537551318032
1083.0, 0.06743266742606613
1084.0, 0.0816401641183524
1085.0, 0.10016698297380638
1086.0, 0.12643182966039646
1087.0, 0.16763694453483038
1088.0, 0.2266262167986882
1089.0, 0.3075228877733088
1090.0, 0.4331091147805095
1091.0, 0.601481626753942
1092.0, 0.7670045217986318
1093.0, 0.9075954572688847
1094.0, 0.9904265690274391
1095.0, 0.9331006350599794
1096.0, 0.8035191037290258
1097.0, 0.653212579813337
1098.0, 0.502907095648143
1099.0, 0.3681094601389695
1100.0, 0.25995639097578505
1101.0, 0.1905691249458474
1102.0, 0.14099776891918428
1103.0, 0.10543738796172873
1104.0, 0.08001030222611775
1105.0, 0.06254874144045382
1106.0, 0.04982258810288029
1107.0, 0.04240429041161755
1108.0, 0.03578945175164567
1109.0, 0.030015429375712385
1110.0, 0.027038544139849848
1111.0, 0.02396512109993942
1112.0, 0.021135564244955114
1113.0, 0.019333023307084394
1114.0, 0.01763000128682548
1115.0, 0.015198769410093294
1116.0, 0.013680303467211288
1117.0, 0.012809969043752954
1118.0, 0.011653930597581803
1119.0, 0.010654055182253026
1120.0, 0.010194720180227598
1121.0, 0.010167859682907421
1122.0, 0.009558263006494745
1123.0, 0.008865088129292613
1124.0, 0.008684740664679084
1125.0, 0.009123195615022988
1126.0, 0.009700678603659819
1127.0, 0.0077526983541426064
1128.0, 0.006865478732187393
1129.0, 0.006656046345778337
1130.0, 0.006367305343351485
1131.0, 0.005312059415730218
1132.0, 0.004612947567725015
1133.0, 0.004874782876576266
1134.0, 0.004403852732890217
1135.0, 0.0041838280223648605
1136.0, 0.004859495046286711
1137.0, 0.004177297864967999
1138.0, 0.00391136045973765
1139.0, 0.003747088619364377
1140.0, 0.0038392022924864985
1141.0, 0.0037572034251100155
1142.0, 0.002320252690080876
1143.0, 0.0033548861081428806
1144.0, 0.00275098363393844
1145.0, 0.0021976660834864643
1146.0, 0.0026094760853037483
1147.0, 0.0038799831262190175
1148.0, 0.0018925696014088645
1149.0, 0.002204249888769008
1150.0, 0.002657434266303258
1151.0, 0.0026247241740780087
1152.0, 0.0022087584615332976
1153.0, 0.0024560349490891456
1154.0, 0.0017072001649047867
1155.0, 0.001577723491753359
1156.0, 0.0017706149825608933
1157.0, 0.002040881184741464
1158.0, 0.0024328777344889176
1159.0, 0.0023519887481325214
1160.0, 0.0017294192110872866
1161.0, 0.001384988612300829
1162.0, 0.0013575779058956031
1163.0, 0.0013198053807576794
1164.0, 0.0015136981093103906
1165.0, 0.0015024958348325505
1166.0, 0.0015458946672795497
1167.0, 0.001578749549619051
1168.0, 0.0015247965183793235
1169.0, 0.0014359799236217856
1170.0, 0.0015433525611481065
1171.0, 0.0014371236631498094
1172.0, 0.001104695591211837
1173.0, 0.0008686163344224121
1174.0, 0.0012060184264122194
1175.0, 0.0010581571239210803
1176.0, 0.0013466732805269453
1177.0, 0.0011359032977770397
1178.0, 0.000675866472948608
1179.0, 0.0005401479020926287
1180.0, 0.0009590482776524461
1181.0, 0.0017768119731106406
1182.0, 0.001992048226465082
1183.0, 0.0016620807005652133
1184.0, 0.0014193251404889652
1185.0, 0.002279810462197184
1186.0, 0.0009021898171837626
1187.0, 0.00035446778460374614
1188.0, 0.0005530496613346403
1189.0, 0.0009529576806145915
1190.0, 0.0009590167731999943
1191.0, 0.0007230008811746248
1192.0, 0.00023806949423180166
1193.0, 0.0004688554484948793
1194.0, 0.001109788075819464
1195.0, 0.0015107690240029497
1196.0, 0.00088965415772424
1197.0, 0.0008609762147178541
1198.0, 0.0006970712557660996
1199.0, 0.00045350715497465384
1200.0, 0.000369646613300034
1201.0, 0.0006271875113539913
1202.0, 0.0006510483886777873
1203.0, 0.0008153222449616946
1204.0, 0.0014727928115949402
1205.0, 0.0012920637067997268
1206.0, 0.00023585377804612978
1207.0, 0.0005922080506125583
1208.0, 0.001514040005110312
1209.0, 0.00129669515980003
1210.0, 0.001414553859569787
1211.0, 0.0018785383212353973
1212.0, 0.0019499372861030075
1213.0, 0.001223748699274429
1214.0, 0.001675413465186126
1215.0, 0.0015635840845533138
1216.0, 0.0009512363977978252
1217.0, 0.0003634272113413954
1218.0, 0.0004930936294581188
1219.0, 8.365736828548826e-05
1220.0, 0.0006654869437656979
1221.0, 0.0008211763876959889
1222.0, 0.0007566341576676958
1223.0, 0.0012015503733558124
1224.0, 0.0019870913260005025
1225.0, 0.0013450468396882017
1226.0, 0.0005306488585255999
1227.0, 0.0006452592298179893
1228.0, 0.001490152720902247
1229.0, 0.0015630846080355422
1230.0, 0.0009117581375278024
1231.0, 0.0012273838719072318
1232.0, 0.0007895161731004648
1233.0, 0.000425108797259263
1234.0, 0.000948146015534268
1235.0, 0.0009021006840019754
1236.0, 0.0005677273839243393
1237.0, 0.0004839657631121575
1238.0, 0.0005814842675536637
1239.0, 0.0009335624368118611
1240.0, 0.001537662728686087
1241.0, 0.0008837368899945249
1242.0, 0.0010531289654494911
1243.0, 0.0015090713173761465
1244.0, 0.0012185675835861627
1245.0, 0.00038869283421426516
1246.0, 0.0012329209588063416
1247.0, 0.0011347574141113476
1248.0, 0.0004402367008075707
1249.0, 0.0002734525003290763
1250.0, 0.0004965454264707475
1251.0, 0.0005468780879288175
1252.0, 0.0005530129280527806
1253.0, 0.0007058316028669189
1254.0, 0.00041609648726112806
1255.0, 0.0001118722693139321
1256.0, 0.0004012698720110505
1257.0, 0.0015895059002995033
1258.0, 0.0009695331945320977
1259.0, 0.0007261290298898212
1260.0, 0.001244117790970485
1261.0, 0.0012685176706908287
1262.0, 0.0007107328559870568
1263.0, 0.001961186690810546
1264.0, 0.001027292751197273
1265.0, 0.00046893739567430316
1266.0, 0.0008516840297119893
1267.0, 0.0012934776046272173
1268.0, 0.0009580455287092155
1269.0, 0.0012946254445014658
1270.0, 0.0014497572234347343
1271.0, 0.0013768730462653885
1272.0, 0.0009427648814240171
1273.0, 0.00042547280839342315
1274.0, 0.0003585070876534466
1275.0, 0.0008866601163955088
1276.0, 0.0009346048466103768
1277.0, 0.0014069377508452064
1278.0, 0.001189147038666621
1279.0, 0.000273788730978043
1280.0, 0.00037775851252108033
1281.0, 0.00036507166084665384
1282.0, 0.0005562123228721741
1283.0, 0.0006787358147872976
1284.0, 0.0008151006581469329
1285.0, 0.0008930291995575272
1286.0, 0.00030409402719364044
1287.0, 0.0011555703100408917
1288.0, 0.0006525839903526827
1289.0, 0.00034735671822334365
1290.0, 0.0004484188195650679
1291.0, 0.0004760492735014773
1292.0, 0.00025666639190639916
1293.0, 0.0006585592737899544
1294.0, 0.0007877197443803978
1295.0, 0.00047440193703211987
1296.0, 0.0002879255206887798
1297.0, 0.0008813067265870489
1298.0, 0.0006307154896003267
1299.0, 0.0010923346134848041
1300.0, 0.0006085346185261487
1301.0, 0.0001705520882476799
1302.0, 0.0003096628959757836
1303.0, 0.0005945701118592943
1304.0, 0.00042169104832860926
1305.0, 0.0006440030799083601
1306.0, 0.0003931170012009365
1307.0, 0.00039551844919229065
1308.0, 0.0008882920591244624
1309.0, 0.0009395910158758211
1310.0, 0.0005239835467826886
1311.0, 0.0001473115482827463
1312.0, 0.00016577059898172748
1313.0, 0.00032833967051941937
1314.0, 0.00047736530259209694
1315.0, 0.0009746301379943724
1316.0, 0.0007191760800229016
1317.0, 0.00037337146203551505
1318.0, 0.0005122615634568563
1319.0, 0.000616996096499929
1320.0, 0.00021676924052529013
1321.0, 4.793151461415234e-05
1322.0, 0.00031728837450232644
1323.0, 0.00040415065832432885
1324.0, 0.0006423228493604385
1325.0, 0.0008899825371245175
1326.0, 0.0008214172775608901
1327.0, 0.00033610796721119567
1328.0, 0.0008402523332718074
1329.0, 0.0005776540937053292
1330.0, 0.0002211363327787461
1331.0, 0.00037331251018010833
1332.0, 0.0010009100906027061
1333.0, 0.000417885964863061
1334.0, 0.0003555450711098391
1335.0, 0.0013456614589883208
1336.0, 0.0013156446313762823
1337.0, 0.0005580138112544453
1338.0, 0.0005740352627498132
1339.0, 0.0006325161764507773
1340.0, 0.00033604646516485976
1341.0, 0.0005248462793618878
1342.0, 0.0005904617099993551
1343.0, 0.00033368401270647227
1344.0, 3.458616288764605e-05
1345.0, 0.0002476240873868583
1346.0, 0.00047644062646891484
1347.0, 0.00043304961038135523
1348.0, 0.0004303573539397481
1349.0, 0.0005148032374851637
1350.0, 0.0004787633323358714
1351.0, 0.00012952778250708595
1352.0, 0.000746746038632089
1353.0, 0.0004925953793133253
1354.0, 0.0006392373953342511
1355.0, 0.0012378619662739739
1356.0, 0.001341819134943833
1357.0, 0.0009516811951158118
1358.0, 0.0014319820680494563
1359.0, 0.0006181518247968253
1360.0, 0.00041399757022218196
1361.0, 0.0008564399606950922
1362.0, 0.0007543960662973297
1363.0, 0.0010856426022169182
1364.0, 0.00038599708739198504
1365.0, 0.0008640529697397492
1366.0, 0.0011935576611642829
1367.0, 0.0012385209751540048
1368.0, 0.001667888143952654
1369.0, 0.0020518478337837724
1370.0, 0.0006426211637056616
1371.0, 0.0007993743559496713
1372.0, 0.0008141433279098701
1373.0, 0.0004892642599323416
1374.0, 0.0005514867880138706
1375.0, 0.0006889238541874371
1376.0, 0.0004155319613764431
1377.0, 0.000778698973253955
1378.0, 0.0012260948834847008
1379.0, 0.0009978025227433953
1380.0, 0.00023108398974182808
1381.0, 0.0014593767388276784
1382.0, 0.0011570349795051323
1383.0, 0.0016770084609512089
1384.0, 0.0020662297320143378
1385.0, 0.00195062901330876
1386.0, 0.0016763582927515844
1387.0, 0.00230705075681237
1388.0, 0.0019217340306071453
1389.0, 0.0016950341732880738
1390.0, 0.0014384089851363494
1391.0, 0.0015630678945795268
1392.0, 0.0019031499792440784
1393.0, 0.001121124818562183
1394.0, 0.0014959013956569655
1395.0, 0.0013631199219086058
1396.0, 0.0018726598532234969
1397.0, 0.0027704512346112963
1398.0, 0.0030698042168820394
1399.0, 0.0018508592801918054
1400.0, 0.0022432425497135246
1401.0, 0.0021693707397669247
1402.0, 0.0017634199614807418
1403.0, 0.0018806041409363343
1404.0, 0.0025348158918847567
1405.0, 0.002759781295992331
1406.0, 0.0018940920576520758
1407.0, 0.0028892218987799827
1408.0, 0.002686365510008999
1409.0, 0.0025826259445131494
1410.0, 0.0030231798258460946
1411.0, 0.003409816391543557
1412.0, 0.0034874887180300924
1413.0, 0.004169394336913988
1414.0, 0.004400975947381942
1415.0, 0.004743083540962964
1416.0, 0.005032058409345592
1417.0, 0.005043688422357421
1418.0, 0.005479874950552116
1419.0, 0.005715696148627877
1420.0, 0.00671863146050561
1421.0, 0.006844690861930251
1422.0, 0.006846664443986937
1423.0, 0.007596493188739224
1424.0, 0.008510395547079387
1425.0, 0.007246421259610522
1426.0, 0.008786399240693988
1427.0, 0.00975219575494817
1428.0, 0.010340695610885024
1429.0, 0.010834942665364361
1430.0, 0.010907525629517075
1431.0, 0.011187965871367143
1432.0, 0.01170699894060344
1433.0, 0.012172543961379519
1434.0, 0.012747031822239923
1435.0, 0.013476255368192662
1436.0, 0.014258709020490517
1437.0, 0.014924252812593413
1438.0, 0.015941387061444465
1439.0, 0.01587909486288979
1440.0, 0.015896846966731132
1441.0, 0.015820672239439455
1442.0, 0.015389824808301346
1443.0, 0.01519128430312035
1444.0, 0.014843855009359013
1445.0, 0.012747770228587653
1446.0, 0.011908635190647048
1447.0, 0.01095485542936583
1448.0, 0.009315580704181873
1449.0, 0.008235492520965301
1450.0, 0.008328348002112922
1451.0, 0.006918912735801773
1452.0, 0.006994940780335744
1453.0, 0.006547361413083585
1454.0, 0.005613908479431573
1455.0, 0.005245061020607682
1456.0, 0.005022162237415087
1457.0, 0.005080822810038005
1458.0, 0.003872139986014048
1459.0, 0.0039073910954166655
1460.0, 0.0038536948437861178
1461.0, 0.003088403332115591
1462.0, 0.0033053179162245575
1463.0, 0.002985744867057695
1464.0, 0.0029568333534994618
1465.0, 0.0030732512646947136
1466.0, 0.0031277032708481715
1467.0, 0.0027856733608637063
1468.0, 0.0020975357359535388
1469.0, 0.0023826597243020342
1470.0, 0.002331336154837384
1471.0, 0.0016696874035449427
1472.0, 0.0018060053289465712
1473.0, 0.0022728720512271362
1474.0, 0.0021104154177757455
1475.0, 0.0011873087072092944
1476.0, 0.002563685818103025
1477.0, 0.0022054645333364547
1478.0, 0.0017546640633424922
1479.0, 0.0015270822917444959
1480.0, 0.001343861588182265
1481.0, 0.0010442840786480207
1482.0, 0.001174911571707391
1483.0, 0.001589727930635976
1484.0, 0.0010181312244291396
1485.0, 0.0013610541772560334
1486.0, 0.0016894628666953406
1487.0, 0.0011601330145492301
1488.0, 0.0006912294754040793
1489.0, 0.0017179519825998597
1490.0, 0.0012595140842258004
1491.0, 0.00048699408627998054
1492.0, 0.0009197564571647978
1493.0, 0.0012632611628008905
1494.0, 0.0001565914286713333
1495.0, 0.0007561799691509488
1496.0, 0.001050903828454893
1497.0, 0.00035505328677138445
1498.0, 0.00022448127383389323
1499.0, 0.0005634919593616558
1500.0, 0.0008457177020730402
1501.0, 0.0008722793480252218
1502.0, 0.0013864763326685058
1503.0, 0.0006975187316525699
1504.0, 0.0008493353284786462
1505.0, 0.0005806751608434768
1506.0, 0.00041236394850510335
1507.0, 0.0008060813450203719
1508.0, 0.00043379974207777554
1509.0, 0.0012256283162844707
1510.0, 0.0008552329327148415
1511.0, 0.0009166012274523476
1512.0, 0.0010003596620222909
1513.0, 0.0010445422978775651
1514.0, 0.0012123298365519252
1515.0, 0.0006179114363271719
1516.0, 9.366780868089769e-05
1517.0, 0.00045237000189619523
1518.0, 0.001052470638623279
1519.0, 0.0012542286725014695
1520.0, 0.0011315484753197712
1521.0, 0.0013402450257514636
1522.0, 0.0013938159243533268
1523.0, 0.0002686126443244636
1524, 0.0
1525, 0.0
1526, 0.0
1527, 0.0
1528, 0.0
1529, 0.0
1530, 0.0
1531, 0.0
1532, 0.0
1533, 0.0
1534, 0.0
1535, 0.0
1536, 0.0
1537, 0.0
1538, 0.0
1539, 0.0
1540, 0.0
1541, 0.0
1542, 0.0
1543, 0.0
1544, 0.0
1545, 0.0
1546, 0.0
1547, 0.0
1548, 0.0
1549, 0.0
1550, 0.0
1551, 0.0
1552, 0.0
1553, 0.0
1554, 0.0
1555, 0.0
1556, 0.0
1557, 0.0
1558, 0.0
1559, 0.0
1560, 0.0
1561, 0.0
1562, 0.0
1563, 0.0
1564, 0.0
1565, 0.0
1566, 0.0
1567, 0.0
1568, 0.0
1569, 0.0
1570, 0.0
1571, 0.0
1572, 0.0
1573, 0.0
1574, 0.0
1575, 0.0
1576, 0.0
1577, 0.0
1578, 0.0
1579, 0.0
1580, 0.0
1581, 0.0
1582, 0.0
1583, 0.0
1584, 0.0
1585, 0.0
1586, 0.0
1587, 0.0
1588, 0.0
1589, 0.0
1590, 0.0
1591, 0.0
1592, 0.0
1593, 0.0
1594, 0.0
1595, 0.0
1596, 0.0
1597, 0.0
1598, 0.0
1599, 0.0
