30, 0.0
31, 0.0
32, 0.0
33, 0.0
34, 0.0
35, 0.0
36, 0.0
37, 0.0
38, 0.0
39, 0.0
40, 0.0
41, 0.0
42, 0.0
43, 0.0
44, 0.0
45, 0.0
46, 0.0
47, 0.0
48, 0.0
49, 0.0
50, 0.0
51, 0.0
52, 0.0
53, 0.0
54, 0.0
55, 0.0
56, 0.0
57, 0.0
58, 0.0
59, 0.0
60, 0.0
61, 0.0
62, 0.0
63, 0.0
64, 0.0
65, 0.0
66, 0.0
67, 0.0
68, 0.0
69, 0.0
70, 0.0
71, 0.0
72, 0.0
73, 0.0
74, 0.0
75, 0.0
76, 0.0
77, 0.0
78, 0.0
79, 0.0
80, 0.0
81, 0.0
82, 0.0
83, 0.0
84, 0.0
85, 0.0
86, 0.0
87, 0.0
88, 0.0
89, 0.0
90, 0.0
91, 0.0
92, 0.0
93, 0.0
94, 0.0
95, 0.0
96, 0.0
97, 0.0
98, 0.0
99, 0.0
100, 0.0
101, 0.0
102, 0.0
103, 0.0
104, 0.0
105, 0.0
106, 0.0
107, 0.0
108, 0.0
109, 0.0
110, 0.0
111, 0.0
112, 0.0
113, 0.0
114, 0.0
115, 0.0
116, 0.0
117, 0.0
118, 0.0
119, 0.0
120, 0.0
121, 0.0
122, 0.0
123, 0.0
124, 0.0
125, 0.0
126, 0.0
127, 0.0
128, 0.0
129, 0.0
130, 0.0
131, 0.0
132, 0.0
133, 0.0
134.0, 0.0021533735776929665
135.0, 0.0024969624836848423
136.0, 0.004055479915978512
137.0, 0.022306102378664178
138.0, 0.037125820172647345
139.0, 0.04528617008277934
140.0, 0.046990212026648354
141.0, 0.04306421551821843
142.0, 0.03930004000074443
143.0, 0.03417929732954036
144.0, 0.03225108734927165
145.0, 0.03470184374233054
146.0, 0.029033621619490052
147.0, 0.0253177653490417
148.0, 0.018308241613403796
149.0, 0.0071255202923494465
150.0, 0.005504299941837302
151.0, 0.011459079979823674
152.0, 0.01744072753383642
153.0, 0.022424637510088077
154.0, 0.029619111356666974
155.0, 0.029280825303420584
156.0, 0.027380368928389416
157.0, 0.027200438691958404
158.0, 0.030185174091111436
159.0, 0.041484235474090254
160.0, 0.050340587769814794
161.0, 0.06426480136888689
162.0, 0.08926306714196064
163.0, 0.11795433142558368
164.0, 0.09914848971869629
165.0, 0.05907728649096969
166.0, 0.02771393896883835
167.0, 0.013511801706557434
168.0, 0.006604394689709942
169.0, 0.0016905494584323116
170.0, 0.00400172209548066
171.0, 0.00024726347015303316
172.0, 0.006321785223580918
173.0, 0.005781921571482883
174.0, 0.0013296648494506476
175.0, 0.000550169678192824
176.0, 0.005587286152841094
177.0, 0.01088528583738669
178.0, 0.014997524721783447
179.0, 0.018480627388831706
180.0, 0.024164516891114252
181.0, 0.029717457820856177
182.0, 0.03706023938312323
183.0, 0.04753778283448088
184.0, 0.061546278106548676
185.0, 0.07980771075707808
186.0, 0.09146223994342491
187.0, 0.09651184785813344
188.0, 0.09715442098830487
189.0, 0.08930577145342296
190.0, 0.09405287491138234
191.0, 0.10326945479634937
192.0, 0.11297412558430489
193.0, 0.12795803911032066
194.0, 0.1442476275738402
195.0, 0.15235686246425148
196.0, 0.15379291795335825
197.0, 0.1562672025445962
198.0, 0.1643491245276249
199.0, 0.17509015717931606
200.0, 0.1845125324621454
201.0, 0.19082778471294318
202.0, 0.19568279126824611
203.0, 0.1956905715387555
204.0, 0.18973571815420567
205.0, 0.1780185055949541
206.0, 0.1615179757607992
207.0, 0.13912640603320747
208.0, 0.12239544396309052
209.0, 0.1150172390234079
210.0, 0.11558125148445601
211.0, 0.12113582617861583
212.0, 0.12855841551853228
213.0, 0.1440741919908159
214.0, 0.16682322092844884
215.0, 0.1915029121023308
216.0, 0.21752993026772538
217.0, 0.23471100933557673
218.0, 0.23956608337210702
219.0, 0.22755380902813627
220.0, 0.18701728840481258
221.0, 0.1500313548798102
222.0, 0.1219522412661151
223.0, 0.09948162434359872
224.0, 0.07671479239720312
225.0, 0.05965618862344712
226.0, 0.053320461383022995
227.0, 0.04957357531079057
228.0, 0.04204555497166273
229.0, 0.037856498634653436
230.0, 0.03455122301636086
231.0, 0.03269526382824849
232.0, 0.032855981792518765
233.0, 0.03377463864618737
234.0, 0.034011635728085333
235.0, 0.0336033770049763
236.0, 0.036527412209689365
237.0, 0.04251075743085843
238.0, 0.04283059910672507
239.0, 0.05720786175778487
240.0, 0.06163938161240937
241.0, 0.053513598624580674
242.0, 0.050571863722972586
243.0, 0.04610054047602527
244.0, 0.03933826233926192
245.0, 0.03794856347706593
246.0, 0.0407819098626534
247.0, 0.03655956275686302
248.0, 0.026438636581239183
249.0, 0.01960218182915853
250.0, 0.015870411595226414
251.0, 0.011346748828454021
252.0, 0.005304914576575896
253.0, 0.005556182187905401
254.0, 0.0023301070843122214
255.0, 0.004823298620818395
256.0, 0.0035281920688808154
257.0, 0.003739900755163189
258.0, 0.0024132376108665474
259.0, 0.0006312533416536437
260.0, 0.0007630417995594754
261.0, 0.0014391178946963794
262.0, 0.00216146624977544
263.0, 0.0011864794350040409
264.0, 0.0017345792480082973
265.0, 0.003864726104506319
266.0, 0.007301962838208073
267.0, 0.011249234628690808
268.0, 0.014976351057267811
269.0, 0.016651678245332757
270.0, 0.017069460204160482
271.0, 0.02019029257052668
272.0, 0.020944043862611464
273.0, 0.023139174695233404
274.0, 0.03040126246968568
275.0, 0.0351493516486768
276.0, 0.03642085888483882
277.0, 0.03871009079895915
278.0, 0.04604308895272862
279.0, 0.05832669170002346
280.0, 0.062458250339174834
281.0, 0.06579687319610021
282.0, 0.06593098931782738
283.0, 0.06112158291002093
284.0, 0.05691591398327136
285.0, 0.05803475080096579
286.0, 0.06362711278242571
287.0, 0.06457740610132344
288.0, 0.053489464185191814
289.0, 0.04842915222497351
290.0, 0.04923839157425076
291.0, 0.04340067974354195
292.0, 0.029722557599064114
293.0, 0.019916158690722018
294.0, 0.013503524143316884
295.0, 0.011481316068290013
296.0, 0.0134289898828351
297.0, 0.01890081531855809
298.0, 0.026779145867614325
299.0, 0.028930421423787826
300.0, 0.030550457445428253
301.0, 0.034159764520601446
302.0, 0.04011142000430281
303.0, 0.048076529417211654
304.0, 0.055177562068357965
305.0, 0.0621374576816119
306.0, 0.07267450591195705
307.0, 0.08853904434016881
308.0, 0.10312285208983606
309.0, 0.12654177270758385
310.0, 0.15100314783978466
311.0, 0.17589863260734007
312.0, 0.21025234235446374
313.0, 0.25751180280131253
314.0, 0.30901859302774554
315.0, 0.3558283544545386
316.0, 0.37985278868298117
317.0, 0.35766156457560905
318.0, 0.31146086376244203
319.0, 0.25202282107866103
320.0, 0.19729797845148905
321.0, 0.15667757121902434
322.0, 0.12207733803323233
323.0, 0.09273180532922926
324.0, 0.07297463668377883
325.0, 0.06188967022007816
326.0, 0.054112468842884315
327.0, 0.041350031111367466
328.0, 0.038223834875643334
329.0, 0.038208946225472884
330.0, 0.03631624213366705
331.0, 0.03189064289638357
332.0, 0.02709870620556529
333.0, 0.02316767447913417
334.0, 0.020348706224584377
335.0, 0.018545904239057682
336.0, 0.017588053334535284
337.0, 0.017825606353344785
338.0, 0.015211280421098289
339.0, 0.01056734084106343
340.0, 0.005350004753062494
341.0, 0.0006810761369512561
342.0, 0.0020887299862469995
343.0, 0.0018264317930825832
344.0, 0.003491173178595079
345.0, 0.0009580694164566812
346.0, 0.002365806689626865
347.0, 0.0005495571709648666
348.0, 0.0012797529058697981
349.0, 0.000798697970129676
350.0, 0.0019531924403096016
351.0, 0.00028123953041074654
352.0, 0.0018357459133401882
353.0, 0.003902852506751048
354.0, 0.011574854919217776
355.0, 0.017069425303583265
356.0, 0.024134004842576554
357.0, 0.026791001788815116
358.0, 0.031744344330226826
359.0, 0.03536396363805115
360.0, 0.03611357081332459
361.0, 0.038410092714838244
362.0, 0.034962837959891
363.0, 0.031061741671014515
364.0, 0.03192844765668716
365.0, 0.038098821661319955
366.0, 0.04232029099875725
367.0, 0.04840076176727816
368.0, 0.057904157888101986
369.0, 0.06970068053917651
370.0, 0.08225127844250317
371.0, 0.09475409290403608
372.0, 0.09859127827406519
373.0, 0.10578550621733719
374.0, 0.11232316566354801
375.0, 0.114144899088919
376.0, 0.12277136076779602
377.0, 0.13383830296861943
378.0, 0.14178222120037207
379.0, 0.1548420847914216
380.0, 0.1787967990551668
381.0, 0.2087400559081838
382.0, 0.23567927316902026
383.0, 0.27154868691795947
384.0, 0.31997714888011203
385.0, 0.3711528112696011
386.0, 0.409459714673688
387.0, 0.42313503403599223
388.0, 0.3874910640652147
389.0, 0.3210296994176511
390.0, 0.2511961902522337
391.0, 0.1961082268751883
392.0, 0.1551663554476025
393.0, 0.11981258569330289
394.0, 0.09466013883470303
395.0, 0.07916796254497557
396.0, 0.06397563983290938
397.0, 0.05041246101769598
398.0, 0.046696301922476265
399.0, 0.04631293067666598
400.0, 0.042436804715954526
401.0, 0.03524917547920017
402.0, 0.030415540175329797
403.0, 0.0233797977055967
404.0, 0.018870043024532768
405.0, 0.01908614517211981
406.0, 0.020519810726850284
407.0, 0.009495236102164796
408.0, 0.0042345192775427596
409.0, 0.007883515978660549
410.0, 0.010409664254189228
411.0, 0.0011851270123415807
412.0, 0.0007766085868543191
413.0, 0.0020517347374215712
414.0, 0.001202144282086614
415.0, 0.002548569393797019
416.0, 0.004015003389969094
417.0, 0.005490913625105896
418.0, 0.004053320054431835
419.0, 0.00348046257038186
420.0, 0.001208843322356375
421.0, 0.0017574738031443863
422.0, 0.0012531160644588353
423.0, 0.0011832885626784394
424.0, 0.0006865264540908604
425.0, 0.003030253510594175
426.0, 0.004738241871767397
427.0, 0.0009172064618496639
428.0, 0.004916845063067053
429.0, 0.0014728995144601118
430.0, 0.0023554907967642063
431.0, 0.0037905141522836926
432.0, 0.00792020070007195
433.0, 0.010957945209082486
434.0, 0.008922962166821646
435.0, 0.009887548715639956
436.0, 0.013691357825674063
437.0, 0.0174859318595505
438.0, 0.023059682226466014
439.0, 0.02598798952012142
440.0, 0.029670611082895086
441.0, 0.032770825095197936
442.0, 0.032771277756878825
443.0, 0.029229279920763393
444.0, 0.021896889352275024
445.0, 0.019780569274880713
446.0, 0.018824478168415957
447.0, 0.015262427852151445
448.0, 0.009628935391654606
449.0, 0.005661491459183924
450.0, 0.006227512164951434
451.0, 0.011805758481824444
452.0, 0.018430480292103067
453.0, 0.020157428368686794
454.0, 0.017470666959204083
455.0, 0.016404639666515092
456.0, 0.025046474978541757
457.0, 0.0339221763932322
458.0, 0.03526422171602279
459.0, 0.03541200489199866
460.0, 0.03942465331360022
461.0, 0.04397193339206322
462.0, 0.047903485412566595
463.0, 0.051949697881450776
464.0, 0.0553610906382274
465.0, 0.04413479392484508
466.0, 0.04445650567819027
467.0, 0.047992354953008846
468.0, 0.049985125140554164
469.0, 0.05231236390965627
470.0, 0.05009277430844572
471.0, 0.04391639940768388
472.0, 0.039874107325344695
473.0, 0.043614771912143364
474.0, 0.04855719080191206
475.0, 0.04473386089203255
476.0, 0.04250746069906486
477.0, 0.041516584638782265
478.0, 0.04750940327427623
479.0, 0.057842860554907546
480.0, 0.06391761025509664
481.0, 0.06279389057661022
482.0, 0.06122571674463673
483.0, 0.056444481114222296
484.0, 0.054634111877800054
485.0, 0.05762643904579279
486.0, 0.05645036503330245
487.0, 0.049385199651858926
488.0, 0.054344129508713826
489.0, 0.05926156951848189
490.0, 0.062033586888757646
491.0, 0.06559882204250396
492.0, 0.06847127630959171
493.0, 0.07975994195640947
494.0, 0.08900389462043226
495.0, 0.09710125603894745
496.0, 0.1067045969165919
497.0, 0.11616116052354725
498.0, 0.12146530360798187
499.0, 0.1339190841227629
500.0, 0.1488575656918597
501.0, 0.168607313576446
502.0, 0.19375792020378718
503.0, 0.21561357617605667
504.0, 0.24411778720797328
505.0, 0.27809429634517163
506.0, 0.31370409237087726
507.0, 0.35061988299147867
508.0, 0.39125075399431947
509.0, 0.4376676334257988
510.0, 0.49455021457907933
511.0, 0.5469425681265985
512.0, 0.6063707356137505
513.0, 0.6786856097371196
514.0, 0.7523242845956507
515.0, 0.8283690382834336
516.0, 0.9087936902018685
517.0, 0.9668759223583065
518.0, 0.9950823721985095
519.0, 0.9951694196677874
520.0, 0.9570354123008653
521.0, 0.882214428155394
522.0, 0.7906365261551626
523.0, 0.6957242625286589
524.0, 0.6041572785592576
525.0, 0.5190016783719785
526.0, 0.4452489025221547
527.0, 0.38713964587977784
528.0, 0.33493503200432523
529.0, 0.2923595496296455
530.0, 0.2624705514587109
531.0, 0.24008959465730836
532.0, 0.22285383827739896
533.0, 0.21201435572880853
534.0, 0.20685493777779917
535.0, 0.2049246678600795
536.0, 0.20613029574044892
537.0, 0.21203694902267434
538.0, 0.2142358678943032
539.0, 0.21685834022526124
540.0, 0.2106884699971448
541.0, 0.19727787789913198
542.0, 0.18168323727664398
543.0, 0.1542641832815771
544.0, 0.13615093856633556
545.0, 0.11555910722813825
546.0, 0.09579430607354661
547.0, 0.07973158785833456
548.0, 0.06512852954114774
549.0, 0.05338954551443033
550.0, 0.04336968574492976
551.0, 0.03627997685539352
552.0, 0.03279154052919998
553.0, 0.027508377970977896
554.0, 0.016563061773587344
555.0, 0.01605437672860232
556.0, 0.013840867450682156
557.0, 0.010729618082081487
558.0, 0.009327857874536064
559.0, 0.009761267384482498
560.0, 0.00750578137644835
561.0, 0.001113539399157439
562.0, 0.0008640323577149225
563.0, 0.004670544121400716
564.0, 0.00312340664556261
565.0, 0.0015697639210173278
566.0, 0.0013229454403208155
567.0, 0.0008639332712071792
568.0, 0.00027975992292166084
569.0, 0.003049377077540701
570.0, 0.004610072739666482
571.0, 0.0035351474721994104
572.0, 0.0059829500942949025
573.0, 0.0015171770256487594
574.0, 0.000908057782929715
575.0, 0.0018643036575517558
576.0, 0.005603683919891075
577.0, 0.00828572713394567
578.0, 0.0031103939181060256
579.0, 0.002040960600782011
580.0, 0.0042295787729977035
581.0, 0.008258907317116435
582.0, 0.008882142155138096
583.0, 0.009783659349720874
584.0, 0.014428684608637688
585.0, 0.020088766225779917
586.0, 0.023268271422083805
587.0, 0.02879732403818701
588.0, 0.030580165614052527
589.0, 0.029578776303026272
590.0, 0.03888219033889374
591.0, 0.05497410416428431
592.0, 0.06294574005557325
593.0, 0.06453655376460006
594.0, 0.06741668801660684
595.0, 0.07353173855141408
596.0, 0.07889096051378132
597.0, 0.07710119076970817
598.0, 0.07306113556119638
599.0, 0.07252921558592268
600.0, 0.07460304544616699
601.0, 0.07823239440992556
602.0, 0.08549690761087704
603.0, 0.0911808717638376
604.0, 0.09363054713014053
605.0, 0.10026309216962487
606.0, 0.10401400105005074
607.0, 0.10268491603369946
608.0, 0.09797647264565922
609.0, 0.08477665445179172
610.0, 0.07817524998077893
611.0, 0.0703605725808499
612.0, 0.06058125600117918
613.0, 0.052755832481914976
614.0, 0.04719294461320862
615.0, 0.03934866322323028
616.0, 0.03777373008297296
617.0, 0.034256405552620973
618.0, 0.029654133062793842
619.0, 0.029813177731737344
620.0, 0.03290638797708383
621.0, 0.03239726618283631
622.0, 0.03581559940075317
623.0, 0.03699906970930646
624.0, 0.039096546077596155
625.0, 0.0438070351216116
626.0, 0.04905472192131118
627.0, 0.05178921193694111
628.0, 0.054337501973739134
629.0, 0.05375190405775381
630.0, 0.053150993848157975
631.0, 0.05189030595228043
632.0, 0.050792826384326625
633.0, 0.05123498454769184
634.0, 0.051456398668619424
635.0, 0.042623305906149114
636.0, 0.035243793878982896
637.0, 0.031222094225221767
638.0, 0.028816336739298766
639.0, 0.024847879230878663
640.0, 0.02003756881529551
641.0, 0.01950405602481305
642.0, 0.012454265653492815
643.0, 0.012005313212011922
644.0, 0.012055856394163575
645.0, 0.010099557723125678
646.0, 0.00867326919877703
647.0, 0.007259464198596728
648.0, 0.004979113842112091
649.0, 0.006930858138927137
650.0, 0.005963082545993398
651.0, 0.0032872689398820757
652.0, 0.0008001819907439978
653.0, 0.0031374970165341633
654.0, 0.00046676129832109867
655.0, 0.00015952269937771174
656.0, 0.0064646092930152246
657.0, 0.006075336386193177
658.0, 0.001775341988864468
659.0, 0.001718402766633095
660.0, 0.0021365368193112825
661.0, 0.007347038646138323
662.0, 0.0073853130570954665
663.0, 0.008041428164064196
664.0, 0.00707711213578158
665.0, 0.00598635348417481
666.0, 0.008899180191181853
667.0, 0.013279297650299346
668.0, 0.01388430436207456
669.0, 0.010138845673826884
670.0, 0.01076918933168853
671.0, 0.0140599780114738
672.0, 0.014535658281600496
673.0, 0.0143323627859816
674.0, 0.016334277771875027
675.0, 0.017145463772142055
676.0, 0.016881899830796472
677.0, 0.020242338824750628
678.0, 0.025826766987702355
679.0, 0.029773620852120354
680.0, 0.03242358043364019
681.0, 0.03438031979504614
682.0, 0.03921774082259049
683.0, 0.04632682262717042
684.0, 0.04992323900179503
685.0, 0.052856935867811455
686.0, 0.06051817814668445
687.0, 0.06352938729595978
688.0, 0.060779742219159834
689.0, 0.06132709292565494
690.0, 0.0585530491891408
691.0, 0.053344069236271115
692.0, 0.04831942593086876
693.0, 0.041909898686812344
694.0, 0.037618690155754406
695.0, 0.028112432992002962
696.0, 0.026133879656220695
697.0, 0.022140718895446384
698.0, 0.016640095161446662
699.0, 0.013984657334229182
700.0, 0.010591515282653872
701.0, 0.013094172338539795
702.0, 0.005691829017032398
703.0, 0.003855654258763211
704.0, 0.0034927563151117406
705.0, 0.003141655755213708
706.0, 0.0035682388939743985
707.0, 0.0016290336025137342
708.0, 0.0004343058547080791
709.0, 0.004464981903308178
710.0, 0.005728037498588875
711.0, 0.00208975520064467
712.0, 0.0002670933808878622
713.0, 0.002184985970853933
714.0, 0.0024425790011475936
715.0, 0.0033795923857632302
716.0, 0.005200528142790361
717.0, 0.0004422692044919992
718.0, 0.004578908821529375
719.0, 0.0012646638259199835
720.0, 0.00522087458848088
721.0, 0.0010027750283900625
722.0, 0.0028688836976587025
723.0, 0.0024330275503951456
724.0, 0.001284801184473586
725.0, 0.00038970836035377953
726.0, 0.0010738052847625325
727.0, 0.00205050889735613
728.0, 0.00037047593525196365
729.0, 0.0038750433710264603
730.0, 0.006169388455438487
731.0, 0.004990642085094086
732.0, 0.005773529715403667
733.0, 0.004694314980166184
734.0, 0.002167646555031905
735.0, 0.005131450314869771
736.0, 0.005378084814022871
737.0, 0.006905995979294809
738.0, 0.010712397909898386
739.0, 0.010101406237911798
740.0, 0.01207305765920074
741.0, 0.014985725365727514
742.0, 0.011469589159396115
743.0, 0.0122123496752395
744.0, 0.01666207540981554
745.0, 0.02131641728059774
746.0, 0.022325084120148813
747.0, 0.02418180108175247
748.0, 0.026474787430862356
749.0, 0.026753767544401414
750.0, 0.029183314649980193
751.0, 0.0277862168892528
752.0, 0.02681096265046371
753.0, 0.025357929021720717
754.0, 0.017385061842711894
755.0, 0.012680616173593255
756.0, 0.01591561939757637
757.0, 0.01739861330931746
758.0, 0.01670080647616868
759.0, 0.014245786914208948
760.0, 0.0145539188576342
761.0, 0.015944455476958663
762.0, 0.017569854677755764
763.0, 0.019236807412509747
764.0, 0.02120395234472629
765.0, 0.024620452683604854
766.0, 0.028831472607980767
767.0, 0.030153059792255497
768.0, 0.033509746487154574
769.0, 0.03457468585110507
770.0, 0.035975472580088874
771.0, 0.04006543894803011
772.0, 0.04256429281906545
773.0, 0.04491965039006517
774.0, 0.050225843399115344
775.0, 0.055159189827818304
776.0, 0.05797201313444996
777.0, 0.06445233237074567
778.0, 0.0716002174260134
779.0, 0.07305753391549431
780.0, 0.07478789195640259
781.0, 0.0782113594643698
782.0, 0.0823819245630812
783.0, 0.07811143487260337
784.0, 0.06898941373753062
785.0, 0.059205123697339615
786.0, 0.04908398049675844
787.0, 0.0406392156450631
788.0, 0.03897924728941115
789.0, 0.026239190368761604
790.0, 0.025705297647455976
791.0, 0.022196072755778912
792.0, 0.02026122168349021
793.0, 0.016550562816274962
794.0, 0.010756698924536122
795.0, 0.012353347497332363
796.0, 0.014689282977896699
797.0, 0.011646324415434582
798.0, 0.006878068020416318
799.0, 0.005733340402434983
800.0, 0.010880200622383995
801.0, 0.010765860070912724
802.0, 0.004041538478213383
803.0, 0.006481168618074124
804.0, 0.010554251703557898
805.0, 0.008304286516200667
806.0, 0.005703933100259941
807.0, 0.0031553850116694112
808.0, 0.004869694724605512
809.0, 0.00909769383284087
810.0, 0.010048309435340994
811.0, 0.007783365087724379
812.0, 0.00597096212239414
813.0, 0.0031463509587776124
814.0, 0.0038759646427220314
815.0, 0.007598217344699671
816.0, 0.008079200163951321
817.0, 0.007643002159521945
818.0, 0.00993164628379609
819.0, 0.008786505139421481
820.0, 0.003088980412729414
821.0, 0.01004443621485559
822.0, 0.00571831401709053
823.0, 0.0013018502603203063
824.0, 0.0025076999499105447
825.0, 0.0059930183463461914
826.0, 0.00625204759598548
827.0, 0.004143183800255855
828.0, 0.007696533080833313
829.0, 0.005261921844745214
830.0, 0.0023880222847170764
831.0, 0.005973750495191312
832.0, 0.007775885645666498
833.0, 0.00441221790364465
834.0, 0.0033875537714891384
835.0, 0.007410927933639966
836.0, 0.00819415629513961
837.0, 0.0030797396748823676
838.0, 0.007315164060704974
839.0, 0.006550884153621307
840.0, 0.009130910203695514
841.0, 0.012169687422354683
842.0, 0.008582385828294882
843.0, 0.005197416809240461
844.0, 0.007308211947853584
845.0, 0.0068919886038010265
846.0, 0.010287656664662437
847.0, 0.010116415528656962
848.0, 0.009351306856239123
849.0, 0.0066260386035241784
850.0, 0.0061765634535158554
851.0, 0.00959145378316821
852.0, 0.009924142947914754
853.0, 0.009607340397177018
854.0, 0.007332947820626694
855.0, 0.010087179409209491
856.0, 0.009334575326419235
857.0, 0.01058183027419378
858.0, 0.01169202633473789
859.0, 0.009283429906643199
860.0, 0.01001887186789536
861.0, 0.012325599201149708
862.0, 0.00991414600488313
863.0, 0.009474452544866974
864.0, 0.008464820803627116
865.0, 0.009081132415168619
866.0, 0.010552435328840858
867.0, 0.009550531561985525
868.0, 0.0066063931096864825
869.0, 0.006825138527303983
870.0, 0.008233326296995807
871.0, 0.005428997867331762
872.0, 0.0069835691714097885
873.0, 0.003233914665466609
874.0, 0.0016512168029271725
875.0, 0.004338692962202091
876.0, 0.005957438295818737
877.0, 0.002931778585066427
878.0, 0.0017162266774400007
879.0, 0.002079938075885018
880.0, 0.0033089083487574775
881.0, 0.0033088394956165773
882.0, 0.0005077143016186843
883.0, 0.0013445254550504904
884.0, 0.0037591886788500557
885.0, 0.004204686804398897
886.0, 0.0022279529376472095
887.0, 0.0024996663317459517
888.0, 0.0013950411110014778
889.0, 0.0024935636180558676
890.0, 0.0019068222094594353
891.0, 0.0009647320080786017
892.0, 0.0019416821075681728
893.0, 0.001725650337063646
894.0, 0.0003091284268236309
895.0, 0.003618837479071573
896.0, 0.006402419434819986
897.0, 0.0023923897053211456
898.0, 0.0009107406190417145
899.0, 0.0057719451859059015
900.0, 0.005031828576156774
901.0, 0.005616750621829664
902.0, 0.004539668585379223
903.0, 0.0009256041615869319
904.0, 0.001531559679503478
905.0, 0.004793096031016587
906.0, 0.004295232707238285
907.0, 0.0068031492483570264
908.0, 0.007446660133563881
909.0, 0.0026364883401538298
910.0, 0.003791832001582416
911.0, 0.010518689971572286
912.0, 0.01518377381896846
913.0, 0.016938294533388354
914.0, 0.018814412532837905
915.0, 0.021281604718222234
916.0, 0.02546043821973862
917.0, 0.03318452331502737
918.0, 0.04574273723787198
919.0, 0.05254913720303763
920.0, 0.053167804664714026
921.0, 0.060024622564323706
922.0, 0.07238686894715401
923.0, 0.08109148034902765
924.0, 0.09049188226181254
925.0, 0.10995425972556098
926.0, 0.12633742733912665
927.0, 0.14478704629514463
928.0, 0.15895585684235372
929.0, 0.17052086902373492
930.0, 0.17613098176615327
931.0, 0.17801699682056102
932.0, 0.17653934927059334
933.0, 0.16946074978114267
934.0, 0.16480844443183276
935.0, 0.15559957334561014
936.0, 0.14511594274246556
937.0, 0.1338854587149606
938.0, 0.1257261411233865
939.0, 0.11604854259109329
940.0, 0.10758258359369416
941.0, 0.10011082248844642
942.0, 0.09248118574254847
943.0, 0.08847743447071726
944.0, 0.08644359505771018
945.0, 0.08505880988473308
946.0, 0.08665167131108752
947.0, 0.08721093316171104
948.0, 0.0878143922421566
949.0, 0.08690945078202938
950.0, 0.08485982241445185
951.0, 0.08430829586751461
952.0, 0.08305670784269827
953.0, 0.07858605245419155
954.0, 0.07500224316597068
955.0, 0.0689289695375072
956.0, 0.0671811880921765
957.0, 0.06019460250651002
958.0, 0.05381159469989409
959.0, 0.05107469591586957
960.0, 0.047120954038069526
961.0, 0.042728877788917256
962.0, 0.03847985203955216
963.0, 0.03135363815921362
964.0, 0.02730696453413642
965.0, 0.032145693187617536
966.0, 0.03124236381564388
967.0, 0.03205737439586499
968.0, 0.03108734747217201
969.0, 0.0298913901537966
970.0, 0.029942322735362414
971.0, 0.03328646363536335
972.0, 0.039338004853786475
973.0, 0.04545300552182068
974.0, 0.051831147236875055
975.0, 0.05920874642825141
976.0, 0.06873970734263038
977.0, 0.0837478949355247
978.0, 0.09534955875605719
979.0, 0.11206261479229229
980.0, 0.12569087034149265
981.0, 0.13933556389836393
982.0, 0.15502616455922807
983.0, 0.16485040664570122
984.0, 0.1675577788835529
985.0, 0.16637850095584727
986.0, 0.16525850543738282
987.0, 0.16759486651773556
988.0, 0.15951072658665888
989.0, 0.15567685343358736
990.0, 0.14105899679747783
991.0, 0.1305202515267562
992.0, 0.12063870648491261
993.0, 0.11151991110334818
994.0, 0.10193851153934637
995.0, 0.08452929880690284
996.0, 0.06920439692769319
997.0, 0.06272453533012672
998.0, 0.05035451731497598
999.0, 0.04187691491113562
1000.0, 0.037131321304713166
1001.0, 0.031849832805701556
1002.0, 0.02687443476363276
1003.0, 0.022488092917971034
1004.0, 0.020530433174334166
1005.0, 0.01929049875412249
1006.0, 0.015049746780847991
1007.0, 0.012154738894232518
1008.0, 0.014365627850562822
1009.0, 0.00973334179163608
1010.0, 0.00497683223063954
1011.0, 0.008095250646936737
1012.0, 0.005287138453991719
1013.0, 0.004061615749601518
1014.0, 0.00485158601637047
1015.0, 0.0055472674387811996
1016.0, 0.0064758609874965385
1017.0, 0.004973698462479855
1018.0, 0.0022815924023340483
1019.0, 0.0029370851261993733
1020.0, 0.0016598512146646725
1021.0, 0.0007585096177613815
1022.0, 0.002662335985094582
1023.0, 0.002023524381259486
1024.0, 0.001223663002433098
1025.0, 0.0006748349523072771
1026.0, 0.0001746402783625629
1027.0, 0.0007296758036748736
1028.0, 0.0009145579962218281
1029.0, 0.0010602025681508834
1030.0, 0.001545284515851444
1031.0, 0.004847384018793192
1032.0, 0.0015060164189552095
1033.0, 0.005299322221189766
1034.0, 0.0013348925128907714
1035.0, 0.0027683384373092352
1036.0, 0.0009715197169114804
1037.0, 0.002515304240529526
1038.0, 0.0025673791437358356
1039.0, 0.006636219879594807
1040.0, 0.004514624199390418
1041.0, 0.0017368893738766546
1042.0, 0.0033504140636278837
1043.0, 0.0011904770241776869
1044.0, 0.005944330315107889
1045.0, 0.003048119376257151
1046.0, 0.004896268650819239
1047.0, 0.0017711129080721904
1048.0, 0.005486998107648688
1049.0, 0.0070152976361407635
1050.0, 0.008210346102100748
1051.0, 0.008933820761132336
1052.0, 0.007131799381442024
1053.0, 0.008888911038968756
1054.0, 0.016302087613606443
1055.0, 0.02161332677321283
1056.0, 0.021930567479349836
1057.0, 0.028320475128481487
1058.0, 0.03519099311664876
1059.0, 0.04257459768336394
1060.0, 0.04581793878501707
1061.0, 0.04339440925362544
1062.0, 0.03693719517357307
1063.0, 0.03162519215652157
1064.0, 0.030791536431967376
1065.0, 0.0321375127048434
1066.0, 0.03297864110533462
1067.0, 0.037754423897154714
1068.0, 0.04763272652361695
1069.0, 0.04814384117937836
1070.0, 0.04853140421310709
1071.0, 0.05623971377195499
1072.0, 0.05330212428553409
1073.0, 0.0528220623624345
1074.0, 0.05472084363473398
1075.0, 0.058611431012439756
1076.0, 0.06506392105419052
1077.0, 0.0740975847714185
1078.0, 0.0807624984186395
1079.0, 0.08401851481966749
1080.0, 0.08457818041013206
1081.0, 0.0763426695429088
1082.0, 0.07064416211251931
1083.0, 0.060827583702525403
1084.0, 0.05204706843226709
1085.0, 0.041347772580587944
1086.0, 0.03606972153616345
1087.0, 0.030193341080857295
1088.0, 0.025997443635413307
1089.0, 0.021605422875862215
1090.0, 0.017734484030693606
1091.0, 0.016272084280291043
1092.0, 0.017833436252323386
1093.0, 0.019160238227547827
1094.0, 0.016966447245228708
1095.0, 0.012678558142449878
1096.0, 0.006786838165840792
1097.0, 0.008196777908716616
1098.0, 0.004978666938462388
1099.0, 0.005856609191895018
1100.0, 0.0066316431528672375
1101.0, 0.008444235405458824
1102.0, 0.005352873791175476
1103.0, 0.0006638377843927873
1104.0, 0.00020354984537337945
1105.0, 0.0006391417157135139
1106.0, 0.0016936740108951156
1107.0, 0.0034930144819976957
1108.0, 0.0026376680478740274
1109.0, 0.0016054687623810221
1110.0, 0.0015750620806367086
1111.0, 0.0006987176987480713
1112.0, 0.0008584763730895748
1113.0, 0.0032569269461802967
1114.0, 0.0015671570613014214
1115.0, 0.0014564058455596486
1116.0, 0.0007829188877360337
1117.0, 5.784928621544777e-05
1118.0, 0.0038843035132725794
1119.0, 0.003068160167086612
1120.0, 0.00010545127020896781
1121.0, 0.00033126008827565225
1122.0, 0.0023165663270452545
1123.0, 0.0012151837631388216
1124.0, 0.006132814840286997
1125.0, 0.0029384854782542706
1126.0, 0.005384713885326839
1127.0, 0.005099324278517872
1128.0, 0.009714672898245798
1129.0, 0.00604727618009456
1130.0, 0.006636973791016792
1131.0, 0.011580645167753777
1132.0, 0.008149607280522931
1133.0, 0.006219302890337154
1134.0, 0.010535981413112613
1135.0, 0.011779244321624789
1136.0, 0.01190570846655863
1137.0, 0.01352908566388521
1138.0, 0.015624257646258109
1139.0, 0.01649740805635689
1140.0, 0.012059287806515596
1141.0, 0.012788077381522898
1142.0, 0.010376899882240984
1143.0, 0.004308859180962687
1144.0, 0.0016535723770239937
1145.0, 0.0035225604775215476
1146.0, 0.0059313939099734266
1147.0, 0.0068033465635758215
1148.0, 0.007327131958026612
1149.0, 0.006396411433976842
1150.0, 0.006346805331630662
1151.0, 0.006325598190905232
1152.0, 0.005717986472863545
1153.0, 0.007036441777020529
1154.0, 0.007692020310654453
1155.0, 0.006469072758579683
1156.0, 0.010174492556696208
1157.0, 0.011206592632878189
1158.0, 0.007227839905484436
1159.0, 0.005808420236501369
1160.0, 0.007288198774223048
1161.0, 0.010897622572042529
1162.0, 0.004398179398749975
1163.0, 0.004355954744289698
1164.0, 0.005997101012041152
1165.0, 0.00410225598895092
1166.0, 0.006204154530594334
1167.0, 0.007012102298727693
1168.0, 0.007851085954421291
1169.0, 0.007318458903943096
1170.0, 0.005493008935315091
1171.0, 0.0069841371185282155
1172.0, 0.007489663507607922
1173.0, 0.007716286721172833
1174.0, 0.005622814576541401
1175.0, 0.005750991762641834
1176.0, 0.007136745473494608
1177.0, 0.0065169472131205285
1178.0, 0.005221108986313132
1179.0, 0.002907409559205328
1180.0, 0.003566485048603088
1181.0, 0.003067162532467058
1182.0, 0.0031555137589927428
1183.0, 0.0074590866788530885
1184.0, 0.005544850150002436
1185.0, 0.0015300309370746058
1186.0, 0.004721811984422789
1187.0, 0.006553202016379312
1188.0, 0.003421845304675811
1189.0, 0.0033289095425472273
1190.0, 0.005494405627306462
1191.0, 0.006852813672579449
1192.0, 0.007349819120060117
1193.0, 0.003907058743945895
1194.0, 0.0005515759168903719
1195.0, 0.003880018971590981
1196.0, 0.006640588385216136
1197.0, 0.01014157280486788
1198.0, 0.0058257632253311395
1199.0, 0.00404315843687868
1200.0, 0.008014242941776295
1201.0, 0.009394904148948897
1202.0, 0.009547175041875347
1203.0, 0.009111774376121562
1204.0, 0.011430937203219402
1205.0, 0.009464611411456814
1206.0, 0.005094775876802229
1207.0, 0.005319580355699336
1208.0, 0.004779742470713295
1209.0, 0.0024865520839385206
1210.0, 0.0015462788961801747
1211.0, 0.0014929471007385762
1212.0, 0.002592268553926276
1213.0, 0.0036879274181539426
1214.0, 0.001851294477639747
1215.0, 0.002073607046551802
1216.0, 0.010464856092948734
1217.0, 0.01005598071438148
1218.0, 0.009540835775152367
1219.0, 0.006920182963513307
1220.0, 0.0045463707908119004
1221.0, 0.0020244875033704817
1222.0, 0.003639429430697798
1223.0, 0.004361431442693589
1224.0, 0.00412508552181577
1225.0, 0.0058775993594446735
1226.0, 0.006860004260081774
1227.0, 0.007543962770407542
1228.0, 0.00491173241494691
1229.0, 0.0011906399431916188
1230.0, 0.002915935406783418
1231.0, 0.004592401487867682
1232.0, 0.0018174336281510334
1233.0, 0.003911637741283387
1234.0, 0.006625075891311972
1235.0, 0.0040730776556661494
1236.0, 0.00874980926510705
1237.0, 0.006161307701114835
1238.0, 0.004177112921467401
1239.0, 0.0027912766417762212
1240.0, 0.0018326266230931946
1241.0, 0.00041816985114139546
1242.0, 0.0019252277090726392
1243.0, 0.0025546979408339783
1244.0, 0.0045325576577844445
1245.0, 0.006863900347531395
1246.0, 0.0016810182450220693
1247.0, 0.0005268565100627458
1248.0, 0.00010240700887502152
1249.0, 0.0005518499452452453
1250.0, 0.0033964847527320164
1251.0, 0.0048877555947856215
1252.0, 0.00334791676565482
1253.0, 0.004046346338080151
1254.0, 0.004555534154435484
1255.0, 0.002657582187603413
1256.0, 0.00012837289929343448
1257.0, 0.0007837104427404652
1258.0, 0.0011350124488786082
1259.0, 0.0013447043722818759
1260.0, 0.004910919049683437
1261.0, 0.005939080228208143
1262.0, 0.004813884773077442
1263.0, 0.005148794148313824
1264.0, 0.005215976207334307
1265.0, 0.005058715408222882
1266.0, 0.00574871178563308
1267.0, 0.00799237027800724
1268.0, 0.0037167232770458163
1269.0, 0.003317390943433846
1270.0, 0.00442207041322578
1271.0, 0.005857356316071027
1272.0, 0.004588725906919848
1273.0, 0.004184110425610814
1274.0, 0.00630605981645884
1275.0, 0.0040603649493484535
1276.0, 0.0030450442069177553
1277.0, 0.0032193635990840842
1278.0, 0.0025874500391609924
1279.0, 0.0011711162009444833
1280.0, 0.0028113762978263855
1281.0, 0.002354826899686067
1282.0, 3.913370182189659e-05
1283.0, 0.000859704255181176
1284, 0.0
1285, 0.0
1286, 0.0
1287, 0.0
1288, 0.0
1289, 0.0
1290, 0.0
1291, 0.0
1292, 0.0
1293, 0.0
1294, 0.0
1295, 0.0
1296, 0.0
1297, 0.0
1298, 0.0
1299, 0.0
1300, 0.0
1301, 0.0
1302, 0.0
1303, 0.0
1304, 0.0
1305, 0.0
1306, 0.0
1307, 0.0
1308, 0.0
1309, 0.0
1310, 0.0
1311, 0.0
1312, 0.0
1313, 0.0
1314, 0.0
1315, 0.0
1316, 0.0
1317, 0.0
1318, 0.0
1319, 0.0
1320, 0.0
1321, 0.0
1322, 0.0
1323, 0.0
1324, 0.0
1325, 0.0
1326, 0.0
1327, 0.0
1328, 0.0
1329, 0.0
1330, 0.0
1331, 0.0
1332, 0.0
1333, 0.0
1334, 0.0
1335, 0.0
1336, 0.0
1337, 0.0
1338, 0.0
1339, 0.0
1340, 0.0
1341, 0.0
1342, 0.0
1343, 0.0
1344, 0.0
1345, 0.0
1346, 0.0
1347, 0.0
1348, 0.0
1349, 0.0
1350, 0.0
1351, 0.0
1352, 0.0
1353, 0.0
1354, 0.0
1355, 0.0
1356, 0.0
1357, 0.0
1358, 0.0
1359, 0.0
1360, 0.0
1361, 0.0
1362, 0.0
1363, 0.0
1364, 0.0
1365, 0.0
1366, 0.0
1367, 0.0
1368, 0.0
1369, 0.0
1370, 0.0
1371, 0.0
1372, 0.0
1373, 0.0
1374, 0.0
1375, 0.0
1376, 0.0
1377, 0.0
1378, 0.0
1379, 0.0
1380, 0.0
1381, 0.0
1382, 0.0
1383, 0.0
1384, 0.0
1385, 0.0
1386, 0.0
1387, 0.0
1388, 0.0
1389, 0.0
1390, 0.0
1391, 0.0
1392, 0.0
1393, 0.0
1394, 0.0
1395, 0.0
1396, 0.0
1397, 0.0
1398, 0.0
1399, 0.0
1400, 0.0
1401, 0.0
1402, 0.0
1403, 0.0
1404, 0.0
1405, 0.0
1406, 0.0
1407, 0.0
1408, 0.0
1409, 0.0
1410, 0.0
1411, 0.0
1412, 0.0
1413, 0.0
1414, 0.0
1415, 0.0
1416, 0.0
1417, 0.0
1418, 0.0
1419, 0.0
1420, 0.0
1421, 0.0
1422, 0.0
1423, 0.0
1424, 0.0
1425, 0.0
1426, 0.0
1427, 0.0
1428, 0.0
1429, 0.0
1430, 0.0
1431, 0.0
1432, 0.0
1433, 0.0
1434, 0.0
1435, 0.0
1436, 0.0
1437, 0.0
1438, 0.0
1439, 0.0
1440, 0.0
1441, 0.0
1442, 0.0
1443, 0.0
1444, 0.0
1445, 0.0
1446, 0.0
1447, 0.0
1448, 0.0
1449, 0.0
1450, 0.0
1451, 0.0
1452, 0.0
1453, 0.0
1454, 0.0
1455, 0.0
1456, 0.0
1457, 0.0
1458, 0.0
1459, 0.0
1460, 0.0
1461, 0.0
1462, 0.0
1463, 0.0
1464, 0.0
1465, 0.0
1466, 0.0
1467, 0.0
1468, 0.0
1469, 0.0
1470, 0.0
1471, 0.0
1472, 0.0
1473, 0.0
1474, 0.0
1475, 0.0
1476, 0.0
1477, 0.0
1478, 0.0
1479, 0.0
1480, 0.0
1481, 0.0
1482, 0.0
1483, 0.0
1484, 0.0
1485, 0.0
1486, 0.0
1487, 0.0
1488, 0.0
1489, 0.0
1490, 0.0
1491, 0.0
1492, 0.0
1493, 0.0
1494, 0.0
1495, 0.0
1496, 0.0
1497, 0.0
1498, 0.0
1499, 0.0
1500, 0.0
1501, 0.0
1502, 0.0
1503, 0.0
1504, 0.0
1505, 0.0
1506, 0.0
1507, 0.0
1508, 0.0
1509, 0.0
1510, 0.0
1511, 0.0
1512, 0.0
1513, 0.0
1514, 0.0
1515, 0.0
1516, 0.0
1517, 0.0
1518, 0.0
1519, 0.0
1520, 0.0
1521, 0.0
1522, 0.0
1523, 0.0
1524, 0.0
1525, 0.0
1526, 0.0
1527, 0.0
1528, 0.0
1529, 0.0
1530, 0.0
1531, 0.0
1532, 0.0
1533, 0.0
1534, 0.0
1535, 0.0
1536, 0.0
1537, 0.0
1538, 0.0
1539, 0.0
1540, 0.0
1541, 0.0
1542, 0.0
1543, 0.0
1544, 0.0
1545, 0.0
1546, 0.0
1547, 0.0
1548, 0.0
1549, 0.0
1550, 0.0
1551, 0.0
1552, 0.0
1553, 0.0
1554, 0.0
1555, 0.0
1556, 0.0
1557, 0.0
1558, 0.0
1559, 0.0
1560, 0.0
1561, 0.0
1562, 0.0
1563, 0.0
1564, 0.0
1565, 0.0
1566, 0.0
1567, 0.0
1568, 0.0
1569, 0.0
1570, 0.0
1571, 0.0
1572, 0.0
1573, 0.0
1574, 0.0
1575, 0.0
1576, 0.0
1577, 0.0
1578, 0.0
1579, 0.0
1580, 0.0
1581, 0.0
1582, 0.0
1583, 0.0
1584, 0.0
1585, 0.0
1586, 0.0
1587, 0.0
1588, 0.0
1589, 0.0
1590, 0.0
1591, 0.0
1592, 0.0
1593, 0.0
1594, 0.0
1595, 0.0
1596, 0.0
1597, 0.0
1598, 0.0
1599, 0.0
