30, 0.0
31, 0.0
32, 0.0
33, 0.0
34, 0.0
35, 0.0
36, 0.0
37, 0.0
38, 0.0
39, 0.0
40, 0.0
41, 0.0
42, 0.0
43, 0.0
44, 0.0
45, 0.0
46, 0.0
47, 0.0
48, 0.0
49, 0.0
50, 0.0
51, 0.0
52, 0.0
53, 0.0
54, 0.0
55, 0.0
56, 0.0
57, 0.0
58, 0.0
59, 0.0
60, 0.0
61, 0.0
62, 0.0
63, 0.0
64, 0.0
65, 0.0
66, 0.0
67, 0.0
68, 0.0
69, 0.0
70, 0.0
71, 0.0
72, 0.0
73, 0.0
74, 0.0
75, 0.0
76, 0.0
77, 0.0
78, 0.0
79, 0.0
80, 0.0
81, 0.0
82, 0.0
83, 0.0
84, 0.0
85, 0.0
86, 0.0
87, 0.0
88, 0.0
89, 0.0
90, 0.0
91, 0.0
92, 0.0
93, 0.0
94, 0.0
95, 0.0
96, 0.0
97, 0.0
98, 0.0
99, 0.0
100, 0.0
101, 0.0
102, 0.0
103, 0.0
104, 0.0
105, 0.0
106, 0.0
107, 0.0
108, 0.0
109, 0.0
110, 0.0
111, 0.0
112, 0.0
113, 0.0
114, 0.0
115, 0.0
116, 0.0
117, 0.0
118, 0.0
119, 0.0
120, 0.0
121, 0.0
122, 0.0
123, 0.0
124, 0.0
125, 0.0
126, 0.0
127, 0.0
128, 0.0
129, 0.0
130, 0.0
131, 0.0
132, 0.0
133, 0.0
134, 0.0
135, 0.0
136, 0.0
137, 0.0
138, 0.0
139, 0.0
140, 0.0
141, 0.0
142, 0.0
143, 0.0
144, 0.0
145, 0.0
146, 0.0
147, 0.0
148, 0.0
149, 0.0
150, 0.0
151, 0.0
152, 0.0
153, 0.0
154, 0.0
155, 0.0
156, 0.0
157, 0.0
158, 0.0
159, 0.0
160, 0.0
161, 0.0
162, 0.0
163, 0.0
164, 0.0
165, 0.0
166, 0.0
167, 0.0
168, 0.0
169, 0.0
170, 0.0
171, 0.0
172, 0.0
173, 0.0
174, 0.0
175, 0.0
176, 0.0
177, 0.0
178, 0.0
179.0, 0.001853498348235181
180.0, 0.00288432079947255
181.0, 0.0024764810462240047
182.0, 0.002451396487095913
183.0, 0.002371389003772412
184.0, 0.03292709842170475
185.0, 0.05740348564251141
186.0, 0.08343674998275001
187.0, 0.11847612428780202
188.0, 0.1134709558271317
189.0, 0.11983472349607067
190.0, 0.1115837966847876
191.0, 0.12158704881479561
192.0, 0.15076417698421268
193.0, 0.16261564140121065
194.0, 0.19317832669545365
195.0, 0.23319381134090858
196.0, 0.2580186397368377
197.0, 0.27224506886187566
198.0, 0.2913171183558672
199.0, 0.3285143270233964
200.0, 0.44353180252646807
201.0, 0.49478761064445953
202.0, 0.5346174482177475
203.0, 0.5526961635491122
204.0, 0.4660046326346249
205.0, 0.3363667561071897
206.0, 0.20237228529389975
207.0, 0.11592215571993016
208.0, 0.08705189513888187
209.0, 0.1018434127141283
210.0, 0.12634757040078842
211.0, 0.16824955452655943
212.0, 0.20145329653425778
213.0, 0.22924752657578742
214.0, 0.25463867138886703
215.0, 0.27853927768998044
216.0, 0.30214137934892804
217.0, 0.3186732695427503
218.0, 0.33133370185175914
219.0, 0.34329339262759834
220.0, 0.35509111165488844
221.0, 0.36145483040981685
222.0, 0.3654040874571414
223.0, 0.36380480716726915
224.0, 0.36075072359461985
225.0, 0.35549933586639876
226.0, 0.3453884899828367
227.0, 0.33736034441851936
228.0, 0.32885418687142964
229.0, 0.3090984632442282
230.0, 0.28869871898252936
231.0, 0.2742923475718795
232.0, 0.26005294161629616
233.0, 0.23848882449891734
234.0, 0.22112015373030477
235.0, 0.20427612808762224
236.0, 0.1870745653019298
237.0, 0.17032290437063685
238.0, 0.15599207838384113
239.0, 0.13507531302855438
240.0, 0.12355961912584923
241.0, 0.11484806322211193
242.0, 0.11083148725755708
243.0, 0.12018481633460475
244.0, 0.11620522865752547
245.0, 0.1250220694347276
246.0, 0.12465890470727818
247.0, 0.11715168474637651
248.0, 0.1080367357902045
249.0, 0.09654974323439278
250.0, 0.09375540818830805
251.0, 0.06509430456014219
252.0, 0.06323802956127614
253.0, 0.08355251309630346
254.0, 0.09411378766767896
255.0, 0.09441794837890806
256.0, 0.05107868117181497
257.0, 0.04722640122665048
258.0, 0.04932472184221469
259.0, 0.038682020668159414
260.0, 0.029516000650367233
261.0, 0.05239231001940772
262.0, 0.021642763364793597
263.0, 0.02131819946893508
264.0, 0.033106431299893296
265.0, 0.03676077059281696
266.0, 0.06372271430473678
267.0, 0.03974222266632815
268.0, 0.045693644414557893
269.0, 0.03856918343615043
270.0, 0.030076041396616276
271.0, 0.04523480935169663
272.0, 0.048100184316412976
273.0, 0.047796496656728485
274.0, 0.046858685256277566
275.0, 0.05712322012365443
276.0, 0.06943996589285316
277.0, 0.06236963500560214
278.0, 0.06661523031181125
279.0, 0.048327731005237455
280.0, 0.04042978657616355
281.0, 0.030257200942843343
282.0, 0.016148289345258488
283.0, 0.023094058996030776
284.0, 0.018037036624428415
285.0, 0.012734704800406912
286.0, 0.015335531940362265
287.0, 0.0191562775575571
288.0, 0.018257434787469454
289.0, 0.021463882810526854
290.0, 0.029100513296033047
291.0, 0.04586423920380221
292.0, 0.056637808310977394
293.0, 0.06206040968166285
294.0, 0.0687413069507374
295.0, 0.0674025874860337
296.0, 0.061875929117832906
297.0, 0.050419158676549364
298.0, 0.040614311025595366
299.0, 0.02973579603283826
300.0, 0.009912366285665199
301.0, 0.004377960734359716
302.0, 0.009993902761631753
303.0, 0.02263248401855678
304.0, 0.027198449228666523
305.0, 0.0253711883348426
306.0, 0.03868686131504317
307.0, 0.04833837443795057
308.0, 0.047919363032157415
309.0, 0.03815847136519672
310.0, 0.02903683366292872
311.0, 0.026306507337143736
312.0, 0.023839745854537825
313.0, 0.02320092886713969
314.0, 0.01675910802668947
315.0, 0.00689519798274175
316.0, 0.0021531244406957674
317.0, 0.010467584007375534
318.0, 0.03257013214376919
319.0, 0.04483759392036388
320.0, 0.055080931581120526
321.0, 0.07609627943898592
322.0, 0.10028661221428554
323.0, 0.11861800649004994
324.0, 0.152666712993986
325.0, 0.18385040361429794
326.0, 0.23470176576688684
327.0, 0.28670645091995306
328.0, 0.3369476929511923
329.0, 0.3905641952329136
330.0, 0.4323995700279605
331.0, 0.4719322494904134
332.0, 0.4954973383185315
333.0, 0.5040225647623816
334.0, 0.5018499093110871
335.0, 0.4925390005909101
336.0, 0.4670641649469161
337.0, 0.4276490950819522
338.0, 0.3958010819830226
339.0, 0.35903873398534275
340.0, 0.3204504372185366
341.0, 0.2984422283441122
342.0, 0.2837402326575546
343.0, 0.25013529308967003
344.0, 0.21167858708705348
345.0, 0.1888522561486913
346.0, 0.1783627718334637
347.0, 0.15533276651430789
348.0, 0.14593455848979095
349.0, 0.13352454619485915
350.0, 0.1220153407604589
351.0, 0.10932691388703589
352.0, 0.09461730167121327
353.0, 0.08047200594803888
354.0, 0.07404322991141099
355.0, 0.0728449357635119
356.0, 0.07467052936631204
357.0, 0.07660778174250346
358.0, 0.08046572119956567
359.0, 0.09163876990978473
360.0, 0.08298644920242446
361.0, 0.07701650387983966
362.0, 0.08393032137973987
363.0, 0.09153401064850655
364.0, 0.09246119392560057
365.0, 0.09360480884802962
366.0, 0.09623222666423673
367.0, 0.09486542480746792
368.0, 0.09735816306089272
369.0, 0.09854340388433465
370.0, 0.09948948558085438
371.0, 0.11084019656286238
372.0, 0.10341099376291359
373.0, 0.09925684234309676
374.0, 0.09925656691115879
375.0, 0.09314454924576389
376.0, 0.08125251259416456
377.0, 0.07989985573066277
378.0, 0.08926392463212866
379.0, 0.07115940349751179
380.0, 0.06589494157772718
381.0, 0.05452672974722988
382.0, 0.0352137506236491
383.0, 0.03887682578720349
384.0, 0.0373495215352873
385.0, 0.03305572373263232
386.0, 0.03019581955165565
387.0, 0.02688579078062668
388.0, 0.0231508526406791
389.0, 0.021918453604588564
390.0, 0.019773609000429297
391.0, 0.018861900109957516
392.0, 0.017480607989729686
393.0, 0.015287142517843712
394.0, 0.013191904486173488
395.0, 0.01172128298433167
396.0, 0.002201230057536879
397.0, 0.0015780997410798215
398.0, 0.0030464481029903725
399.0, 0.010161193237400973
400.0, 0.015012823472111693
401.0, 0.006403495439584116
402.0, 0.013275165894331786
403.0, 0.014053674228962384
404.0, 0.00592922514487617
405.0, 0.0032284207996166
406.0, 0.007711860063070751
407.0, 0.010185724786538643
408.0, 0.003920232708916874
409.0, 0.0023080268767591127
410.0, 0.010384966544347413
411.0, 0.009111950543743901
412.0, 0.003766371935269126
413.0, 0.008906858090061493
414.0, 0.017157655207550113
415.0, 0.013441759710961787
416.0, 0.019041094202973115
417.0, 0.026010245236842124
418.0, 0.035726115489261544
419.0, 0.04644075079666147
420.0, 0.0395940438462354
421.0, 0.04890052044649263
422.0, 0.04568250260943684
423.0, 0.04943224046728975
424.0, 0.05958410041002156
425.0, 0.06283040947705335
426.0, 0.04354841989931917
427.0, 0.0577999442605434
428.0, 0.04463280899198685
429.0, 0.038743016703906535
430.0, 0.04115768817771849
431.0, 0.043440180742635816
432.0, 0.03845528358553108
433.0, 0.02821878125822711
434.0, 0.04125194997310577
435.0, 0.04149264464821249
436.0, 0.030245860702180303
437.0, 0.025091458849950128
438.0, 0.039456218885294415
439.0, 0.03169261791981818
440.0, 0.02735507536025209
441.0, 0.033258466614326535
442.0, 0.03695190129988067
443.0, 0.039550349226287765
444.0, 0.046908316953558564
445.0, 0.04995549599781755
446.0, 0.07228037401385512
447.0, 0.0742869958483988
448.0, 0.07978941009645783
449.0, 0.08617395362554922
450.0, 0.08730824213225245
451.0, 0.09325936215058843
452.0, 0.11274314255251847
453.0, 0.10711471220983662
454.0, 0.12387959585272254
455.0, 0.1521028359971858
456.0, 0.17237803474343183
457.0, 0.1788418447033553
458.0, 0.18640303262572974
459.0, 0.22228430665096172
460.0, 0.25678123970462535
461.0, 0.2957796489583904
462.0, 0.33980322106581834
463.0, 0.3847778835764757
464.0, 0.4384948032842387
465.0, 0.48683349248340024
466.0, 0.5414630426779253
467.0, 0.6056635977018432
468.0, 0.6655890061101661
469.0, 0.718516065486852
470.0, 0.7946715422123495
471.0, 0.8426570492917119
472.0, 0.9057012558026324
473.0, 0.9443327801031492
474.0, 0.9677218225052505
475.0, 0.9873326080844332
476.0, 0.9987921671670875
477.0, 0.9870656348087143
478.0, 0.9542639639835214
479.0, 0.9374102754403058
480.0, 0.875574345568083
481.0, 0.7911197751958945
482.0, 0.7398271037651247
483.0, 0.6762887996635277
484.0, 0.6182527423978345
485.0, 0.575816763471117
486.0, 0.5421998554158391
487.0, 0.5003462723825606
488.0, 0.4533460108305875
489.0, 0.43383051475527445
490.0, 0.4090339454225017
491.0, 0.38599386859517376
492.0, 0.37303967066664806
493.0, 0.36642016981637043
494.0, 0.3624911989022329
495.0, 0.36284986489844145
496.0, 0.37935109233333464
497.0, 0.370058746898422
498.0, 0.3841101032484097
499.0, 0.3916627270858743
500.0, 0.40961424981243894
501.0, 0.4531502565730239
502.0, 0.4917374164958228
503.0, 0.5092641709723856
504.0, 0.5585145070206273
505.0, 0.6103214220045181
506.0, 0.6628994746467151
507.0, 0.7185826867055104
508.0, 0.7765434844898809
509.0, 0.8307994772033959
510.0, 0.8859733037215684
511.0, 0.9264323456897154
512.0, 0.9391482106392414
513.0, 0.940701391785546
514.0, 0.9353614393576495
515.0, 0.8860355456107338
516.0, 0.8278379865799406
517.0, 0.787871742910549
518.0, 0.730881398260524
519.0, 0.6610457385002576
520.0, 0.5894772214448877
521.0, 0.52433278662106
522.0, 0.4700568863324409
523.0, 0.43168425272893696
524.0, 0.41277558858051816
525.0, 0.35499894334438564
526.0, 0.29960552021364045
527.0, 0.29164335792875956
528.0, 0.30132489151993413
529.0, 0.21887012846650514
530.0, 0.18731201486569274
531.0, 0.16604098925536712
532.0, 0.15177016110420777
533.0, 0.13443825677486732
534.0, 0.1081153850269588
535.0, 0.10060255323545557
536.0, 0.0955755855018741
537.0, 0.07314061667353425
538.0, 0.06134782857661512
539.0, 0.059252686848150334
540.0, 0.051149124473474694
541.0, 0.025953013849607926
542.0, 0.02052983678238005
543.0, 0.04171948955707411
544.0, 0.02537578545749872
545.0, 0.0226942153437329
546.0, 0.028592653814718347
547.0, 0.021402845159752548
548.0, 0.016781042499140034
549.0, 0.019019874373121432
550.0, 0.03250186787628753
551.0, 0.039097255952961325
552.0, 0.03730267402822327
553.0, 0.030618023246988542
554.0, 0.02521778163938819
555.0, 0.03042855221674079
556.0, 0.04163651575773869
557.0, 0.046652055942570866
558.0, 0.05852265095970339
559.0, 0.06945333045226786
560.0, 0.07193291364409711
561.0, 0.07102956942863824
562.0, 0.0889865398221392
563.0, 0.09312526578643272
564.0, 0.09822530074919816
565.0, 0.12476109713448741
566.0, 0.14986504400538944
567.0, 0.15544136798561747
568.0, 0.16297247965831052
569.0, 0.17307243283335189
570.0, 0.18282296256259473
571.0, 0.20188755763328609
572.0, 0.22235132918397796
573.0, 0.23740074453028598
574.0, 0.2438314619017579
575.0, 0.24153442333586814
576.0, 0.24748707216085736
577.0, 0.23905385589945316
578.0, 0.24247458246504225
579.0, 0.23977513412142484
580.0, 0.233594192652675
581.0, 0.23697258922249198
582.0, 0.22199679962803714
583.0, 0.21506147731954273
584.0, 0.20720188433051295
585.0, 0.2015766049652366
586.0, 0.19159699168347447
587.0, 0.18220621095391312
588.0, 0.1861387288589608
589.0, 0.19178309677298172
590.0, 0.19064555380656212
591.0, 0.19955458526719375
592.0, 0.20952105972630475
593.0, 0.22045370801477548
594.0, 0.23447389667959076
595.0, 0.2511085857150678
596.0, 0.26671592427421753
597.0, 0.2862445890904662
598.0, 0.3152514095451028
599.0, 0.3418647839200258
600.0, 0.37282160875459225
601.0, 0.4072920422920523
602.0, 0.4312085300399319
603.0, 0.4798096573401842
604.0, 0.5186339602720808
605.0, 0.5806503579713798
606.0, 0.6237659213658855
607.0, 0.6630538913331311
608.0, 0.7207071063505326
609.0, 0.7803089099079153
610.0, 0.8151087004713429
611.0, 0.8433471089482216
612.0, 0.871906516578183
613.0, 0.9177710257702775
614.0, 0.9550094473732276
615.0, 0.9686490083333765
616.0, 0.9875586481068138
617.0, 0.975528889519582
618.0, 0.9568738503621993
619.0, 0.9344925073514573
620.0, 0.9180046016332266
621.0, 0.8913169777059182
622.0, 0.8514388799242895
623.0, 0.8286813357058644
624.0, 0.7870620258713648
625.0, 0.7324474498148432
626.0, 0.6865212694706815
627.0, 0.6457693723865395
628.0, 0.602601455600007
629.0, 0.5603736689640725
630.0, 0.5342529527723989
631.0, 0.502574915487018
632.0, 0.481969497644777
633.0, 0.4549030072075858
634.0, 0.4277943041488331
635.0, 0.40092930929815307
636.0, 0.37503632031189493
637.0, 0.35735382036722896
638.0, 0.35455562163681387
639.0, 0.32730498873466013
640.0, 0.3264930410038395
641.0, 0.3121092882113757
642.0, 0.3017458371673914
643.0, 0.30460335839468583
644.0, 0.2929421938940539
645.0, 0.30265848911135057
646.0, 0.28649894468734177
647.0, 0.2858570460386591
648.0, 0.29184787722663474
649.0, 0.2936582702013502
650.0, 0.293772121601211
651.0, 0.3007831585149435
652.0, 0.29099366269044724
653.0, 0.30220490261854926
654.0, 0.2996156187601061
655.0, 0.29524098498363427
656.0, 0.28921025425045743
657.0, 0.2878080946630863
658.0, 0.2950656591195193
659.0, 0.28107568139426514
660.0, 0.2743158693234493
661.0, 0.27744391177618904
662.0, 0.29147844363593495
663.0, 0.2906567884584986
664.0, 0.27256860028041424
665.0, 0.2517047749241526
666.0, 0.2284409765513284
667.0, 0.2620693509914665
668.0, 0.2845313154157246
669.0, 0.2959492817797299
670.0, 0.27560009509551836
671.0, 0.2603364917061254
672.0, 0.27596898795011493
673.0, 0.2722235160218232
674.0, 0.2675555122562906
675.0, 0.30523748848952753
676.0, 0.3128301512189144
677.0, 0.3285972206717738
678.0, 0.3480591709124766
679.0, 0.3597402438693505
680.0, 0.37619241017643623
681.0, 0.40547340485883476
682.0, 0.4161403446888771
683.0, 0.4250840938045931
684.0, 0.44211126485512403
685.0, 0.46654989416393783
686.0, 0.48158268305959345
687.0, 0.47690944874485025
688.0, 0.48689191689852124
689.0, 0.4643946399824383
690.0, 0.46354871192340863
691.0, 0.4580700659877048
692.0, 0.4437277301290747
693.0, 0.4245204858624414
694.0, 0.4092304801598913
695.0, 0.40611867272956975
696.0, 0.39271316988293004
697.0, 0.3706577861433923
698.0, 0.34186144989784767
699.0, 0.3349655713861552
700.0, 0.33026521168344786
701.0, 0.3111079783090596
702.0, 0.2929908938306861
703.0, 0.288040357876526
704.0, 0.2589922723692065
705.0, 0.26194315442715815
706.0, 0.25434704388882773
707.0, 0.2359723295162778
708.0, 0.22663200194041555
709.0, 0.2292180314005418
710.0, 0.20759075837686242
711.0, 0.2077830730349213
712.0, 0.17937212517008744
713.0, 0.17000290780984018
714.0, 0.15871337425235105
715.0, 0.15072854513111233
716.0, 0.15147364234649033
717.0, 0.14499669187931538
718.0, 0.12185502359118468
719.0, 0.11740673896884632
720.0, 0.11349270516496354
721.0, 0.10174615773727565
722.0, 0.09091424738537693
723.0, 0.0853805569466283
724.0, 0.08006458979914818
725.0, 0.06926895736468412
726.0, 0.07520540676352908
727.0, 0.05916817026709764
728.0, 0.04974350149879848
729.0, 0.05099802111095921
730.0, 0.04970728675479564
731.0, 0.043172610702952245
732.0, 0.042465722989734
733.0, 0.036102566821375734
734.0, 0.035651153144094075
735.0, 0.02609639595315074
736.0, 0.01810909446718712
737.0, 0.019523226712767704
738.0, 0.02385789922732438
739.0, 0.02565234970168269
740.0, 0.03283524184815659
741.0, 0.029579499255393674
742.0, 0.020360480224421017
743.0, 0.020989997701439587
744.0, 0.022277945569114384
745.0, 0.02050075722059309
746.0, 0.028652520439446865
747.0, 0.04483185457886561
748.0, 0.014121456868940572
749.0, 0.00922071593306523
750.0, 0.02507678368971751
751.0, 0.012093969000412146
752.0, 0.007055724380918621
753.0, 0.00894380329055733
754.0, 0.007072382657970147
755.0, 0.005727745509734405
756.0, 0.0010284541993708035
757.0, 0.0012180418915607191
758.0, 0.002677898910969713
759.0, 0.00965120445832751
760.0, 0.013571828622690515
761.0, 0.01504939650819681
762.0, 0.012946587562055613
763.0, 0.001958770124009325
764.0, 0.01551193205824248
765.0, 0.005630501125853537
766.0, 0.006284038777857525
767.0, 0.008975434507810834
768.0, 0.007286457887518913
769.0, 0.003437363666121695
770.0, 0.00501134025436129
771.0, 0.013660324923923741
772.0, 0.0028998903725827403
773.0, 0.0019825128731276553
774.0, 0.006571950416810539
775.0, 0.007019152676282527
776.0, 0.009867452092819291
777.0, 0.012074803675851764
778.0, 0.006419199476822464
779.0, 0.002076956040016371
780.0, 0.007929021271874736
781.0, 0.002172816542660706
782.0, 0.002100082443833332
783.0, 0.004751905575511129
784.0, 0.004248726717543821
785.0, 0.004445620680359846
786.0, 0.01026761742601379
787.0, 0.010985186356297418
788.0, 0.008147461977304904
789.0, 0.020218996961007138
790.0, 0.01795802687318047
791.0, 0.0109234292307562
792.0, 0.007660389393244225
793.0, 0.006609671663041755
794.0, 0.006121264080298519
795.0, 0.016397533583902456
796.0, 0.005519266015523707
797.0, 0.007508581118477327
798.0, 0.015242043030729813
799.0, 0.012472810442101091
800.0, 0.009084467482652339
801.0, 0.007670104401764661
802.0, 0.006529595654979106
803.0, 0.021390133366445335
804.0, 0.006777923362904368
805.0, 0.015382485710156196
806.0, 0.0065863312394979535
807.0, 0.0056666171132444595
808.0, 0.005497136878977343
809.0, 0.003216277020066991
810.0, 0.004713309895781236
811.0, 0.004153475917966819
812.0, 0.005378752806131754
813.0, 0.004093807628082096
814.0, 0.004330612617101772
815.0, 0.0023193788779078722
816.0, 0.005040008305717185
817.0, 0.006392522269107435
818.0, 0.0023568505903219764
819.0, 0.007724965553887986
820.0, 0.0008353987132021182
821.0, 0.0076769899698911955
822.0, 0.0070398333389953705
823.0, 0.004878447225713219
824.0, 0.0020777947233470125
825.0, 0.0019393528151056593
826.0, 0.005192019109128947
827.0, 0.005921321977564847
828.0, 0.0021793129623189377
829.0, 0.0005652423059811914
830.0, 0.007597490660540111
831.0, 0.006435228567660958
832.0, 0.006135535571903362
833.0, 0.00532544739466518
834.0, 0.0033676837296074762
835.0, 0.006304402979608839
836.0, 0.007465209344765933
837.0, 0.002569119334805365
838.0, 0.020324398530984576
839.0, 0.00847686409954268
840.0, 0.008806529841405373
841.0, 0.008306270699429925
842.0, 0.0044650137547760736
843.0, 0.014129971828392493
844.0, 0.020076164500463078
845.0, 0.021742942593011117
846.0, 0.019412719802251566
847.0, 0.018565061331744546
848.0, 0.014815687809659986
849.0, 0.014552389837202476
850.0, 0.021851656468471512
851.0, 0.028814662172672915
852.0, 0.023251850161024816
853.0, 0.020806399124292774
854.0, 0.02139786750944647
855.0, 0.01115897838450921
856.0, 0.011251619555791527
857.0, 0.02018079071176789
858.0, 0.023841888437675388
859.0, 0.018063983389872952
860.0, 0.015650754044778052
861.0, 0.02777527506249424
862.0, 0.025840434376255782
863.0, 0.032466518297505596
864.0, 0.028785392061910255
865.0, 0.029356923467504424
866.0, 0.024077216449856564
867.0, 0.022800684191384656
868.0, 0.02983133238960608
869.0, 0.02080349490433596
870.0, 0.023110623180398
871.0, 0.02662998877575508
872.0, 0.026081996296034575
873.0, 0.03731020645984371
874.0, 0.0357189161728782
875.0, 0.030444213642756807
876.0, 0.03488220844423618
877.0, 0.039974073646189844
878.0, 0.03063073809730914
879.0, 0.0435658339820852
880.0, 0.05035203480001267
881.0, 0.03607717059439826
882.0, 0.033850405052290845
883.0, 0.03043930354518172
884.0, 0.03471769370772793
885.0, 0.047242598843059994
886.0, 0.04361377602218445
887.0, 0.042676623383274506
888.0, 0.02990478572398238
889.0, 0.041712122136271915
890.0, 0.046849300593743315
891.0, 0.051131434678389924
892.0, 0.05116645136065667
893.0, 0.05111616017237528
894.0, 0.05689386713994955
895.0, 0.06067665038225736
896.0, 0.05190258519357563
897.0, 0.05302868947308427
898.0, 0.05433876105104782
899.0, 0.05992083211025142
900.0, 0.06441429677896938
901.0, 0.0675674701903849
902.0, 0.07014087133995779
903.0, 0.07176221586092416
904.0, 0.07284106356372999
905.0, 0.07236159305992422
906.0, 0.07297412473052269
907.0, 0.07328198154849769
908.0, 0.07196685725693776
909.0, 0.07159219230876081
910.0, 0.07235546374400259
911.0, 0.07210508691495061
912.0, 0.07211906431834508
913.0, 0.07855349134967796
914.0, 0.07848312045459027
915.0, 0.0835852637426243
916.0, 0.08072543011648406
917.0, 0.08345567794254174
918.0, 0.0833309424789515
919.0, 0.08595518212677179
920.0, 0.08680872611748508
921.0, 0.07638885332250317
922.0, 0.07256073529901738
923.0, 0.07132332380446008
924.0, 0.0841821170960229
925.0, 0.08263083552780452
926.0, 0.08865811923951623
927.0, 0.09123822577686495
928.0, 0.09153666252424227
929.0, 0.09674760923336932
930.0, 0.10280652661897452
931.0, 0.09780337965490422
932.0, 0.10505047588565469
933.0, 0.11065254603264872
934.0, 0.09802951440893927
935.0, 0.1185476245101413
936.0, 0.12380778445311628
937.0, 0.12328166691532146
938.0, 0.1336641238491906
939.0, 0.14215236463640132
940.0, 0.1392689528400195
941.0, 0.14928528749255468
942.0, 0.14634403931177367
943.0, 0.15565323236706768
944.0, 0.17031177048196447
945.0, 0.1746064548614373
946.0, 0.17776334387592146
947.0, 0.18200102471632362
948.0, 0.1856514185003222
949.0, 0.19471893964728917
950.0, 0.19018546452430224
951.0, 0.2017828540708803
952.0, 0.19840604310810936
953.0, 0.19029860148002423
954.0, 0.18408206120226095
955.0, 0.18298917962517353
956.0, 0.18264347497749434
957.0, 0.18258534761122627
958.0, 0.18560144502944234
959.0, 0.17934565694819324
960.0, 0.1770651783463276
961.0, 0.17817267139327814
962.0, 0.17399867065097205
963.0, 0.173317211449352
964.0, 0.17370514256038405
965.0, 0.17281746999341796
966.0, 0.1704172411092129
967.0, 0.16689886851963168
968.0, 0.16331078679764913
969.0, 0.16310814008478042
970.0, 0.15041974515329803
971.0, 0.1447535918724754
972.0, 0.15045223351204184
973.0, 0.14779171514718434
974.0, 0.15101754314182317
975.0, 0.15569064693783932
976.0, 0.15029873622947176
977.0, 0.14259273385554544
978.0, 0.13348327427266185
979.0, 0.14238476123613505
980.0, 0.12174601661741126
981.0, 0.1194092171442721
982.0, 0.10747275554502878
983.0, 0.10438725152353351
984.0, 0.10925180040591474
985.0, 0.10816143549361185
986.0, 0.09842210428118177
987.0, 0.09123875900497072
988.0, 0.08961993521121661
989.0, 0.06987438997957025
990.0, 0.08568726584376889
991.0, 0.08950994185243293
992.0, 0.09256086285098974
993.0, 0.08722745568631181
994.0, 0.0854595958394222
995.0, 0.09012742886290534
996.0, 0.08773879650125746
997.0, 0.08920835963800201
998.0, 0.09138876322520276
999.0, 0.0955612107055593
1000.0, 0.10003127459772926
1001.0, 0.10541035421206159
1002.0, 0.09763796630318287
1003.0, 0.08827491257970091
1004.0, 0.08543153332786096
1005.0, 0.08276581373355812
1006.0, 0.07648137604529576
1007.0, 0.07831312219593287
1008.0, 0.06880919913875691
1009.0, 0.06940142938675334
1010.0, 0.07319565931359286
1011.0, 0.06774046307737164
1012.0, 0.07106313969040015
1013.0, 0.07945844561347153
1014.0, 0.08494298796706677
1015.0, 0.08470957956141555
1016.0, 0.07801356449183605
1017.0, 0.06813777171641111
1018.0, 0.061430992809643085
1019.0, 0.06804407056446352
1020.0, 0.06731843473650462
1021.0, 0.052743691239364815
1022.0, 0.059558531756295136
1023.0, 0.06291568630958173
1024.0, 0.05462625924248082
1025.0, 0.057505919515198116
1026.0, 0.07366540048612809
1027.0, 0.06873076974736271
1028.0, 0.06745476105408973
1029.0, 0.06041966296684262
1030.0, 0.06131138513417536
1031.0, 0.05458396853735583
1032.0, 0.05694091101359009
1033.0, 0.06251053136331162
1034.0, 0.06487345917069379
1035.0, 0.0604442757069552
1036.0, 0.05075339918408604
1037.0, 0.05388511924728214
1038.0, 0.07207985169806752
1039.0, 0.06355198287478628
1040.0, 0.07153203204154691
1041.0, 0.08244095831365889
1042.0, 0.07497128189408
1043.0, 0.07324954317245588
1044.0, 0.06955967970167441
1045.0, 0.062133043535241406
1046.0, 0.07306852130310998
1047.0, 0.09524340842758836
1048.0, 0.0857279417043222
1049.0, 0.09121002413635215
1050.0, 0.09761310185888306
1051.0, 0.07599451115218453
1052.0, 0.08000223691942045
1053.0, 0.08045228519792179
1054.0, 0.07517888794510823
1055.0, 0.07574323130992211
1056.0, 0.0803540226726344
1057.0, 0.08223621998945764
1058.0, 0.08570894137972776
1059.0, 0.08377562469014188
1060.0, 0.0887597893664397
1061.0, 0.09083844277890907
1062.0, 0.08245468660909945
1063.0, 0.08400029851445306
1064.0, 0.0935393513614977
1065.0, 0.10518460858481761
1066.0, 0.10664334251875182
1067.0, 0.09647330277724271
1068.0, 0.09836954909562008
1069.0, 0.10084148317557404
1070.0, 0.09362079874142261
1071.0, 0.08837854210122273
1072.0, 0.09249361614534932
1073.0, 0.08941156689221894
1074.0, 0.08582993524798097
1075.0, 0.08546093246279433
1076.0, 0.08821546908842871
1077.0, 0.08589680035501097
1078.0, 0.08074345413131939
1079.0, 0.10158495403201442
1080.0, 0.12000208774309148
1081.0, 0.09520323279634745
1082.0, 0.09421586056469543
1083.0, 0.09756004459383616
1084.0, 0.09001010373854339
1085.0, 0.08892363164371306
1086.0, 0.08264004517360314
1087.0, 0.08134873394984181
1088.0, 0.08930794636367959
1089.0, 0.0857035492522912
1090.0, 0.08913655208032642
1091.0, 0.08346319883588948
1092.0, 0.07578123314834101
1093.0, 0.07019763420616845
1094.0, 0.07822522628540629
1095.0, 0.08884157863572827
1096.0, 0.08849496181140917
1097.0, 0.08811113443096237
1098.0, 0.08215997353645765
1099.0, 0.07103375135745485
1100.0, 0.07286620999843242
1101.0, 0.07087522970913791
1102.0, 0.06600691891731925
1103.0, 0.07841695372054866
1104.0, 0.07158765115599529
1105.0, 0.06830561756968975
1106.0, 0.06428355021847339
1107.0, 0.0657625426966735
1108.0, 0.0661538375894882
1109.0, 0.059029736167512316
1110.0, 0.04659470698242759
1111.0, 0.04355621520173046
1112.0, 0.06429020626179509
1113.0, 0.07120077295323629
1114.0, 0.06501486846525077
1115.0, 0.08030927513874331
1116.0, 0.08570978168539835
1117.0, 0.08481274287220572
1118.0, 0.08511821847877125
1119.0, 0.0839125453813691
1120.0, 0.08605486360438852
1121.0, 0.08611645376984753
1122.0, 0.08505797450265841
1123.0, 0.09942028040987613
1124.0, 0.09434153572634257
1125.0, 0.08468599392156895
1126.0, 0.06949602057580137
1127.0, 0.08106394724692638
1128.0, 0.06144568716718249
1129.0, 0.054551116340236745
1130.0, 0.04951780437097779
1131.0, 0.049668439994805115
1132.0, 0.050142859405098744
1133.0, 0.04188871269788935
1134.0, 0.0397085770490834
1135.0, 0.05393934841814284
1136.0, 0.033780234568389925
1137.0, 0.022658442872318288
1138.0, 0.04113546885465067
1139.0, 0.03036124283413365
1140.0, 0.029857011197343075
1141.0, 0.028298489558945816
1142.0, 0.028397616647032664
1143.0, 0.02983411888311293
1144.0, 0.027131149828115472
1145.0, 0.026297479875385707
1146.0, 0.033925771912308895
1147.0, 0.031809223474678565
1148.0, 0.035418615935177776
1149.0, 0.018279494454259686
1150.0, 0.02780837725691788
1151.0, 0.018848466989436194
1152.0, 0.011076699787406429
1153.0, 0.02158646761318912
1154.0, 0.019591059098773476
1155.0, 0.014786080844563829
1156.0, 0.014358007913257233
1157.0, 0.011507859558083346
1158.0, 0.015367673746098594
1159.0, 0.018746461119248103
1160.0, 0.023949095991541307
1161.0, 0.01724342811022582
1162.0, 0.011908286443005529
1163.0, 0.015446059119380733
1164.0, 0.012881696249173102
1165.0, 0.019759203410281152
1166.0, 0.016280857367692508
1167.0, 0.019987768919183562
1168.0, 0.03180085118706961
1169.0, 0.02920919024640509
1170.0, 0.014470400285438214
1171.0, 0.003760957529360891
1172.0, 0.005365208549249818
1173.0, 0.013958725812547958
1174.0, 0.017870635146648096
1175.0, 0.024925505195653428
1176.0, 0.01022502660955742
1177.0, 0.006099169954834934
1178.0, 0.015555209537067375
1179.0, 0.013692799890561682
1180.0, 0.004044984319998555
1181.0, 0.009727908109565937
1182.0, 0.027397591052773236
1183.0, 0.029154454465188898
1184.0, 0.016509839129495746
1185.0, 0.029736561224451695
1186.0, 0.015473539952826632
1187.0, 0.0074877992338341325
1188.0, 0.021559133795425244
1189.0, 0.012751489437382512
1190.0, 0.018949670653810688
1191.0, 0.026848939761907373
1192.0, 0.027011305687142332
1193.0, 0.02361180044315312
1194.0, 0.02194542724857108
1195.0, 0.022297385117810573
1196.0, 0.016562310026710544
1197.0, 0.01116646011533397
1198.0, 0.0068165765537107435
1199.0, 0.007215071357168892
1200.0, 0.01468190588953481
1201.0, 0.0075896825190705204
1202.0, 0.004587836975679442
1203.0, 0.003094855417488702
1204.0, 0.004608568207237474
1205.0, 0.003276817365699763
1206.0, 0.009271693732647072
1207.0, 0.016532776375448
1208.0, 0.007720818493325043
1209.0, 0.013161879415418413
1210.0, 0.004491667859998504
1211.0, 0.006936243487043986
1212.0, 0.008962605082610937
1213.0, 0.006857451635784152
1214.0, 0.0014292525512055658
1215.0, 0.006317187335544075
1216.0, 0.01333858536668849
1217.0, 0.007947131869173977
1218.0, 0.005431556174370766
1219.0, 0.00941606780467321
1220.0, 0.01054555002963624
1221.0, 0.009245551914198182
1222.0, 0.007534413567999283
1223.0, 0.014054134188528314
1224.0, 0.006560374114756438
1225.0, 0.009583248345632463
1226.0, 0.029246024712715882
1227.0, 0.020127926561929178
1228.0, 0.013184545096794384
1229.0, 0.01143875810418908
1230.0, 0.011889550484331761
1231.0, 0.014394402726694797
1232.0, 0.019729136466746146
1233.0, 0.02422751922098055
1234.0, 0.01974787475102538
1235.0, 0.011290912416510307
1236.0, 0.021001733197244424
1237.0, 0.027886452282234957
1238.0, 0.015891995714589983
1239.0, 0.025365389775213545
1240.0, 0.03921335815415623
1241.0, 0.017760279493550243
1242.0, 0.023415451300485498
1243.0, 0.014574823135349153
1244.0, 0.012485569661702679
1245.0, 0.009319453589569258
1246.0, 0.013340630195478142
1247.0, 0.019215547915163656
1248.0, 0.019719338325031272
1249.0, 0.03256676111026525
1250.0, 0.013677030862123818
1251.0, 0.014343125920010791
1252.0, 0.011754941125758301
1253.0, 0.016019646240606346
1254.0, 0.021544889217787626
1255.0, 0.02070589683698171
1256.0, 0.022423779264445252
1257.0, 0.023311995748447552
1258.0, 0.02234331801430614
1259.0, 0.024881901220702968
1260.0, 0.026283511752585146
1261.0, 0.027630087903946273
1262.0, 0.027484219406032483
1263.0, 0.018256816326892588
1264.0, 0.019249422827564405
1265.0, 0.0265998324151019
1266.0, 0.005815926731377399
1267.0, 0.010983636368828126
1268.0, 0.02004013690248307
1269.0, 0.0180338402918052
1270.0, 0.011771687308053135
1271.0, 0.007430099912848418
1272.0, 0.008036865459016955
1273.0, 0.00823192639897882
1274.0, 0.010611518293766303
1275.0, 0.01552797020210505
1276.0, 0.011601524413863473
1277.0, 0.005337903216834621
1278.0, 0.01800198153044468
1279.0, 0.022514384608168184
1280.0, 0.006677891110298285
1281.0, 0.0036432939669165773
1282.0, 0.009485455758460139
1283.0, 0.0190752167095685
1284.0, 0.008245135439649491
1285.0, 0.005100510266734352
1286.0, 0.006860170994264492
1287.0, 0.004631462788748564
1288.0, 0.009227901929365494
1289.0, 0.010759795336866083
1290.0, 0.014975153404190995
1291.0, 0.02817080538109302
1292.0, 0.033834998503317955
1293.0, 0.024593833026352555
1294.0, 0.007959302964968539
1295.0, 0.009230601460474608
1296.0, 0.016395453913475133
1297.0, 0.021605240190996973
1298.0, 0.01939115315799498
1299.0, 0.024597609967203938
1300.0, 0.026324732356804326
1301.0, 0.02839068309015506
1302.0, 0.028454230953838925
1303.0, 0.02456017987704444
1304.0, 0.018975556709340716
1305.0, 0.0222939604375294
1306.0, 0.03183231455063915
1307.0, 0.03548578448728508
1308.0, 0.03940136397578515
1309.0, 0.04507266151254003
1310.0, 0.02399151972422164
1311.0, 0.027216335773984877
1312.0, 0.04212758753093139
1313.0, 0.031280772285684044
1314.0, 0.040376242084886965
1315.0, 0.03789880945651606
1316.0, 0.03304920664172299
1317.0, 0.03464526603832773
1318.0, 0.046695032130549284
1319.0, 0.053114857335388836
1320.0, 0.052041872174485714
1321.0, 0.05191033405410868
1322.0, 0.05364412958808385
1323.0, 0.05314889183388711
1324.0, 0.05278618206697462
1325.0, 0.05362994541093117
1326.0, 0.04519331324223047
1327.0, 0.04127257729507513
1328.0, 0.04117704732588589
1329.0, 0.058023443910609436
1330.0, 0.04507362162378083
1331.0, 0.04679298043068173
1332.0, 0.06407049063294692
1333.0, 0.061107110012892395
1334.0, 0.05979320327722292
1335.0, 0.0631179874207656
1336.0, 0.05587926074784472
1337.0, 0.051687671089258154
1338.0, 0.0534068856401512
1339.0, 0.055446722143847896
1340.0, 0.06289830122722759
1341.0, 0.06430262269757556
1342.0, 0.05740625420622158
1343.0, 0.0843842753386266
1344.0, 0.08037617520726077
1345.0, 0.0638697664115648
1346.0, 0.05555714043504511
1347.0, 0.06500265493711227
1348.0, 0.05917345740789132
1349.0, 0.05607194270632001
1350.0, 0.07381280229178944
1351.0, 0.06392292913317067
1352.0, 0.06473671255186868
1353.0, 0.06249731801664085
1354.0, 0.06721431107293947
1355.0, 0.07365496728850125
1356.0, 0.07399047487322535
1357.0, 0.07140177350987759
1358.0, 0.06469188031134931
1359.0, 0.07259808379353075
1360.0, 0.08409281032641193
1361.0, 0.07020632670491753
1362.0, 0.08379122380253855
1363.0, 0.07698576908192642
1364.0, 0.07451014536958847
1365.0, 0.10049129122903533
1366.0, 0.13264851378702766
1367.0, 0.09332660593184472
1368.0, 0.10334701026274988
1369.0, 0.09533237616127424
1370.0, 0.09089483259906928
1371.0, 0.09546985521656247
1372.0, 0.09952136640797957
1373.0, 0.10151009486038838
1374.0, 0.10259954377780153
1375.0, 0.0997003317493845
1376.0, 0.09546253562631361
1377.0, 0.09600372118889833
1378.0, 0.09278483289451687
1379.0, 0.1032188586344268
1380.0, 0.10858940643987686
1381.0, 0.10624187313394631
1382.0, 0.12343801012665483
1383.0, 0.11048910391791159
1384.0, 0.1047814031131658
1385.0, 0.11693786090602198
1386.0, 0.10984923125619271
1387.0, 0.10839008150371943
1388.0, 0.11502055470907349
1389.0, 0.1086438710953569
1390.0, 0.10091372909181867
1391.0, 0.10386797084599712
1392.0, 0.10014958816266856
1393.0, 0.09136215351182585
1394.0, 0.0941195430198429
1395.0, 0.10063042805307036
1396.0, 0.10101632080125833
1397.0, 0.09897501159459815
1398.0, 0.10690064759982038
1399.0, 0.1004352577597165
1400.0, 0.09277324634043077
1401.0, 0.09402784466796082
1402.0, 0.09897094314086748
1403.0, 0.08116362470974635
1404.0, 0.08822871799679231
1405.0, 0.08477768801380195
1406.0, 0.09005201970334355
1407.0, 0.08961775247614943
1408.0, 0.08274809629697509
1409.0, 0.08279884439356062
1410.0, 0.0962578786763781
1411.0, 0.09501779098783368
1412.0, 0.08540462379199802
1413.0, 0.07892056641347764
1414.0, 0.06882811791417226
1415.0, 0.06657738377488204
1416.0, 0.07226582671918222
1417.0, 0.07299407720706728
1418.0, 0.0732148722185615
1419.0, 0.06728173541700117
1420.0, 0.0555447575173587
1421.0, 0.05234626481042097
1422.0, 0.0493708041369921
1423.0, 0.04680790782725966
1424.0, 0.04496849806578451
1425.0, 0.051526207399799726
1426.0, 0.04663526585727669
1427.0, 0.054014898606820405
1428.0, 0.04737843457159229
1429.0, 0.050302709304114374
1430.0, 0.03690459337899153
1431.0, 0.033566735767417546
1432.0, 0.042077979388966305
1433.0, 0.047629994759238216
1434.0, 0.0498172070337802
1435.0, 0.04725176082679147
1436.0, 0.04407942677531504
1437.0, 0.041471187650145194
1438.0, 0.03267043829312727
1439.0, 0.03539417139446936
1440.0, 0.04400200610798543
1441.0, 0.04195712652506965
1442.0, 0.03438742007672069
1443.0, 0.021948952961521478
1444.0, 0.03635660920731654
1445.0, 0.01510615539549051
1446.0, 0.016755734506081886
1447.0, 0.027202211485443162
1448.0, 0.01383170979100952
1449.0, 0.011892657226028547
1450.0, 0.015420718075802076
1451.0, 0.012763504588433863
1452.0, 0.018418152103536783
1453.0, 0.011912174372877145
1454.0, 0.009424639529673725
1455.0, 0.014484831205993498
1456.0, 0.017171470806538962
1457.0, 0.019230760353898247
1458.0, 0.016375916988425273
1459.0, 0.01386954987474875
1460.0, 0.015193679335185038
1461.0, 0.0030111059798229303
1462.0, 0.00189216668847171
1463.0, 0.00018963783128749095
1464.0, 0.0011832853197893717
1465.0, 0.00607777891552468
1466.0, 0.005940581360120942
1467.0, 0.0038884724287791793
1468.0, 0.0006325425564456385
1469.0, 0.006157591311264869
1470.0, 0.0069789755699290225
1471.0, 0.007366336029475288
1472.0, 0.007909747660799065
1473.0, 0.0036789301819904604
1474.0, 0.0033027335434688415
1475.0, 0.00731286241361952
1476.0, 0.003154589375224253
1477.0, 0.01265614286449318
1478.0, 0.010047294707450038
1479.0, 0.003549947494745343
1480.0, 0.008747075499790707
1481.0, 0.00986231019199107
1482.0, 0.006426479762971443
1483.0, 0.009524389091474458
1484.0, 0.010539670832708424
1485.0, 0.004378933311171024
1486.0, 0.004100842706632728
1487.0, 0.008411372348661664
1488.0, 0.0034808921646068054
1489.0, 0.0106028945955589
1490.0, 0.004695178419580234
1491.0, 0.0052985453979359195
1492.0, 0.00874958523694281
1493.0, 0.009873414539165414
1494.0, 0.030304320713310594
1495.0, 0.03328758919029623
1496.0, 0.034650573758688345
1497.0, 0.03473762777777128
1498.0, 0.0301082962696677
1499.0, 0.030471436812716253
1500.0, 0.029812338043635967
1501.0, 0.02850774884288984
1502.0, 0.029923905180696923
1503.0, 0.027613035294395703
1504.0, 0.021584725205320524
1505.0, 0.016053345476708555
1506.0, 0.010912100540643094
1507.0, 0.005800976588851989
1508.0, 0.0022462525410549463
1509.0, 0.0007375952538183769
1510.0, 0.00035331491875570647
1511.0, 0.0010112704950119983
1512.0, 0.00295171542921495
1513.0, 0.005625624028738836
1514.0, 0.010522078643120195
1515.0, 0.016531999424030674
1516.0, 0.019416012222593
1517.0, 0.022717692620161795
1518.0, 0.017497424008728158
1519.0, 0.011881185884391923
1520.0, 0.023689749735915255
1521.0, 0.0042040392247948005
1522.0, 0.017592790335216928
1523.0, 0.006893353456403444
1524.0, 0.013329222218767282
1525.0, 0.017841716127665917
1526.0, 0.015518730176562762
1527.0, 0.02021171707333611
1528.0, 0.018459831403865933
1529.0, 0.02170113169230512
1530.0, 0.024831227421052083
1531.0, 0.021077577669418104
1532.0, 0.035322708591225944
1533.0, 0.03418968855406504
1534.0, 0.036291789002389795
1535.0, 0.028768255688902414
1536.0, 0.017013758340569698
1537.0, 0.015557042948856547
1538.0, 0.016977197797745567
1539.0, 0.013336353072862224
1540.0, 0.014464051781016575
1541.0, 0.015127576194927776
1542.0, 0.015837515502287673
1543.0, 0.025457304120529593
1544.0, 0.01650176838752964
1545.0, 0.012486313805550497
1546.0, 0.02655831735160312
1547.0, 0.03336724407411555
1548.0, 0.02878617783065302
1549.0, 0.009772133579916863
1550.0, 0.017384000795924594
1551.0, 0.012855692333421239
1552.0, 0.010053545367226953
1553.0, 0.022236208964775635
1554.0, 0.002027822043403022
1555.0, 0.016416319339752444
1556.0, 0.016242922283047558
1557.0, 0.022903932714217083
1558.0, 0.015450017238280394
1559.0, 0.011904395688527669
1560.0, 0.02179002792715261
1561.0, 0.025986601054601367
1562.0, 0.018192455276715796
1563.0, 0.021748902628651662
1564.0, 0.005335729092129986
1565.0, 0.002470079516066668
1566.0, 0.013490696097179665
1567.0, 0.01853484183279759
1568.0, 0.015843280066254548
1569.0, 0.004996380435054651
1570.0, 4.72090654612081e-07
1571, 0.0
1572, 0.0
1573, 0.0
1574, 0.0
1575, 0.0
1576, 0.0
1577, 0.0
1578, 0.0
1579, 0.0
1580, 0.0
1581, 0.0
1582, 0.0
1583, 0.0
1584, 0.0
1585, 0.0
1586, 0.0
1587, 0.0
1588, 0.0
1589, 0.0
1590, 0.0
1591, 0.0
1592, 0.0
1593, 0.0
1594, 0.0
1595, 0.0
1596, 0.0
1597, 0.0
1598, 0.0
1599, 0.0
