30, 0.0
31, 0.0
32, 0.0
33, 0.0
34, 0.0
35, 0.0
36, 0.0
37, 0.0
38, 0.0
39, 0.0
40, 0.0
41, 0.0
42, 0.0
43, 0.0
44, 0.0
45, 0.0
46, 0.0
47, 0.0
48, 0.0
49, 0.0
50, 0.0
51, 0.0
52, 0.0
53, 0.0
54, 0.0
55, 0.0
56, 0.0
57, 0.0
58, 0.0
59, 0.0
60, 0.0
61, 0.0
62, 0.0
63, 0.0
64, 0.0
65, 0.0
66, 0.0
67, 0.0
68, 0.0
69, 0.0
70, 0.0
71, 0.0
72, 0.0
73, 0.0
74, 0.0
75, 0.0
76, 0.0
77, 0.0
78, 0.0
79, 0.0
80, 0.0
81, 0.0
82, 0.0
83, 0.0
84, 0.0
85, 0.0
86, 0.0
87, 0.0
88, 0.0
89, 0.0
90, 0.0
91.0, 0.0027870323055554
92.0, 0.017133727866849507
93.0, 0.024303696662098535
94.0, 0.01878005665366945
95.0, 0.016386101609669513
96.0, 0.018464864885493502
97.0, 0.011711639398215533
98.0, 0.011753707967016486
99.0, 0.008998801933561743
100.0, 0.008012888943522246
101.0, 0.007395158529830862
102.0, 0.003349572745574722
103.0, 0.000853684515743467
104.0, 0.002627097838045976
105.0, 0.0011374284715602791
106.0, 0.007471905714395305
107.0, 0.025496561596115238
108.0, 0.046072809164957124
109.0, 0.05798437440750034
110.0, 0.05381715921765825
111.0, 0.052641700788707606
112.0, 0.05569118372384896
113.0, 0.06139015141013152
114.0, 0.07182200890863731
115.0, 0.08209444513580788
116.0, 0.09554318520656425
117.0, 0.11115525268058037
118.0, 0.12223666650234859
119.0, 0.1371932010713328
120.0, 0.15446162431800836
121.0, 0.17812832700095618
122.0, 0.21642017606619443
123.0, 0.2692077271163611
124.0, 0.3430029556507535
125.0, 0.4236403052391991
126.0, 0.4846663770881643
127.0, 0.5065233756514603
128.0, 0.4521905106234523
129.0, 0.35288471408737837
130.0, 0.25759914269346407
131.0, 0.18861080890778162
132.0, 0.1469362980025732
133.0, 0.11699967295509534
134.0, 0.09186380929043732
135.0, 0.07871798812605754
136.0, 0.0697175160489132
137.0, 0.06312402587437499
138.0, 0.05867583576302523
139.0, 0.05636132179271676
140.0, 0.06226959861787205
141.0, 0.061664100616815966
142.0, 0.05653246556121927
143.0, 0.05413479312371591
144.0, 0.05316538414751707
145.0, 0.05392056502502745
146.0, 0.05770387861877373
147.0, 0.0655168712794169
148.0, 0.07812028010314123
149.0, 0.08807529640242068
150.0, 0.10009373895729878
151.0, 0.1106798070168376
152.0, 0.11188575454124533
153.0, 0.09118894498238982
154.0, 0.06099286590857763
155.0, 0.03599581243616873
156.0, 0.02522619436752522
157.0, 0.014055054844619021
158.0, 0.006308567536088475
159.0, 0.002768403836116775
160.0, 0.0018221745479635326
161.0, 0.000308212192942091
162.0, 0.001271313950755148
163.0, 0.000931362939816062
164.0, 0.0032012271753456426
165.0, 0.0013784037855212165
166.0, 0.0003379354007716336
167.0, 0.0008650329427120273
168.0, 0.001412584744115477
169.0, 0.0005860675707669642
170.0, 0.00020460018775631057
171.0, 0.0008931533989607196
172.0, 0.0010432287249905225
173.0, 0.00035058216933064174
174.0, 0.0011642834491415602
175.0, 0.0006575457062783521
176.0, 0.00039705146218564006
177.0, 0.0007719329893463621
178.0, 0.00010994873765782324
179.0, 0.0007262656588037578
180.0, 0.0003997192935516016
181.0, 9.395600688210938e-05
182.0, 0.00011841212018921109
183.0, 0.0001267668303144319
184.0, 0.00044804189086318307
185.0, 0.0003383155944256562
186.0, 0.0015964421436679237
187.0, 0.00262088633914698
188.0, 0.002703334970488761
189.0, 0.0022582396324152066
190.0, 0.002072500958348506
191.0, 0.0025984923020771315
192.0, 0.003105029859675014
193.0, 0.0027587176831726902
194.0, 0.0023695920492122925
195.0, 0.0025261896678359973
196.0, 0.002894658830712331
197.0, 0.0029434479626340654
198.0, 0.0024153861959009073
199.0, 0.002329800184295508
200.0, 0.003466040582473569
201.0, 0.0026175778763652163
202.0, 0.002516537524434436
203.0, 0.0024752170094803263
204.0, 0.0016032573454240844
205.0, 0.0013691171284045955
206.0, 0.0011134269564361922
207.0, 0.0015183685927581663
208.0, 0.001887809273634912
209.0, 0.0008527711725764414
210.0, 0.0013565596542603885
211.0, 0.0017910726687986936
212.0, 0.002212558582131033
213.0, 0.0028358058629721853
214.0, 0.002420450208037702
215.0, 0.002053973169130461
216.0, 0.002394308499625343
217.0, 0.003050149909215582
218.0, 0.0031054280207195185
219.0, 0.004428897003260801
220.0, 0.004737229722218618
221.0, 0.004242331566829486
222.0, 0.003726397306885727
223.0, 0.003912886092353234
224.0, 0.004096075076573771
225.0, 0.003950417279763997
226.0, 0.003691520954864638
227.0, 0.003906331682473543
228.0, 0.003824569472026812
229.0, 0.004821662924317259
230.0, 0.005580052004308665
231.0, 0.004385602790227996
232.0, 0.001215364069690629
233.0, 0.00015865129603873007
234.0, 0.00011082853550267857
235.0, 0.0010678053896973055
236.0, 0.001955592336003735
237.0, 0.0050217037553977086
238.0, 0.0032610899324242194
239.0, 0.0005945924596376024
240.0, 0.001509747458701916
241.0, 0.0016110653174754967
242.0, 0.0014995287905141927
243.0, 0.0007902008890369886
244.0, 0.0003244697195141155
245.0, 0.0013799068431867643
246.0, 0.0024991922084673674
247.0, 0.0025401710698000545
248.0, 0.0022545803204321773
249.0, 0.0025304581149602425
250.0, 0.0035520915993677922
251.0, 0.003183370553717066
252.0, 0.003248349998636533
253.0, 0.003875037031391162
254.0, 0.003898766104196881
255.0, 0.0036283432710754035
256.0, 0.004237215397840255
257.0, 0.004833526958940893
258.0, 0.004992517870480864
259.0, 0.005765656714143098
260.0, 0.005785011037907276
261.0, 0.006605826901876506
262.0, 0.007872891645758703
263.0, 0.008639991057877166
264.0, 0.009282674135159444
265.0, 0.008769452134207078
266.0, 0.008982635780940095
267.0, 0.010775800071958115
268.0, 0.0131237507715777
269.0, 0.014939815445365084
270.0, 0.015861677353552775
271.0, 0.017248533307839195
272.0, 0.019770815048998316
273.0, 0.021706223415447905
274.0, 0.023856845853025208
275.0, 0.025518827047556102
276.0, 0.027130763078300747
277.0, 0.02952807085672909
278.0, 0.03127365645293426
279.0, 0.03282327263424688
280.0, 0.0347724304684715
281.0, 0.03626625125732291
282.0, 0.03554246749682921
283.0, 0.0353044483119775
284.0, 0.03434962025389467
285.0, 0.03191288624005864
286.0, 0.028233409869840256
287.0, 0.025001355375953122
288.0, 0.022175688650785407
289.0, 0.01937134526827217
290.0, 0.016395260377990287
291.0, 0.01325449280503217
292.0, 0.010217402141679887
293.0, 0.008279203485123869
294.0, 0.006868616078150875
295.0, 0.0051114861855772525
296.0, 0.0030381500002370234
297.0, 0.003526681037828985
298.0, 0.0017942230054083046
299.0, 0.00036042603484293654
300.0, 0.0005752343094700376
301.0, 0.0019388110029700946
302.0, 0.0021133021308267995
303.0, 0.0019365686189861512
304.0, 0.0021263293640264177
305.0, 0.002669636733327822
306.0, 0.0030021902732848427
307.0, 0.0018862264641967914
308.0, 0.00167846513863677
309.0, 0.0025813582723700655
310.0, 0.002426094505757699
311.0, 0.0014965024501536956
312.0, 0.0016142616366783928
313.0, 0.002211100628700851
314.0, 0.00221460138809307
315.0, 0.001043376372889774
316.0, 0.000683368531416102
317.0, 0.00018933965596448175
318.0, 0.0008458443328079474
319.0, 0.0009627741781023492
320.0, 0.0014382439542837892
321.0, 0.0014531029593733938
322.0, 0.0024046120637116228
323.0, 0.0042382374737548
324.0, 0.005754248572253358
325.0, 0.006218753955802081
326.0, 0.006718196329865379
327.0, 0.007641162695248162
328.0, 0.009005487550442616
329.0, 0.010690441006493311
330.0, 0.010702123755817135
331.0, 0.011446950396245959
332.0, 0.012781257604441328
333.0, 0.014053559332391252
334.0, 0.015298706941516175
335.0, 0.01705031761056725
336.0, 0.019177259448800044
337.0, 0.020977330082170145
338.0, 0.022468602233335303
339.0, 0.025179423840126888
340.0, 0.026192049614393313
341.0, 0.02909731129565572
342.0, 0.0328583903802053
343.0, 0.03558014961657566
344.0, 0.04115760105864151
345.0, 0.0459170708827854
346.0, 0.05156237758268762
347.0, 0.0588775682755189
348.0, 0.0671813828406165
349.0, 0.0772517747542766
350.0, 0.08801606718250718
351.0, 0.10115246951747688
352.0, 0.11744192501062284
353.0, 0.1365477538475074
354.0, 0.16093013639308
355.0, 0.18624999278759571
356.0, 0.21217862476587537
357.0, 0.23992554680114295
358.0, 0.2707399554022081
359.0, 0.30187744511802894
360.0, 0.3359070786746619
361.0, 0.37393068219348635
362.0, 0.4164920323376822
363.0, 0.4645691083922646
364.0, 0.5172024250646573
365.0, 0.5781892806756799
366.0, 0.6457868059687669
367.0, 0.7156547767190878
368.0, 0.7835253944289626
369.0, 0.8413623727452786
370.0, 0.879777763901511
371.0, 0.8872383356013092
372.0, 0.8536043981484458
373.0, 0.7743787452101375
374.0, 0.6670644513081586
375.0, 0.5498643967778436
376.0, 0.43820374373357274
377.0, 0.34394102400969556
378.0, 0.26934645887861464
379.0, 0.2106436789906868
380.0, 0.16746318038174615
381.0, 0.13508496386943067
382.0, 0.10881623809286459
383.0, 0.09066030441680212
384.0, 0.07734912274437086
385.0, 0.06680822748290816
386.0, 0.05917583259127757
387.0, 0.055121803155447326
388.0, 0.053773046594702424
389.0, 0.05445627251146086
390.0, 0.05793010263810011
391.0, 0.06387587845161635
392.0, 0.0713222010771903
393.0, 0.07954669277902937
394.0, 0.09074992140537501
395.0, 0.1033038146439884
396.0, 0.11768554307895361
397.0, 0.1347129644308065
398.0, 0.151270578352658
399.0, 0.17278168171608754
400.0, 0.19713084422157479
401.0, 0.22348228362294137
402.0, 0.25301007353115357
403.0, 0.287734468975152
404.0, 0.3253274643293979
405.0, 0.36210726554053446
406.0, 0.3958038631291698
407.0, 0.4250946853608786
408.0, 0.44417019681274833
409.0, 0.44874252235861545
410.0, 0.4351012604473291
411.0, 0.4063093168445284
412.0, 0.36912084716612686
413.0, 0.3262963137925678
414.0, 0.2828002981846499
415.0, 0.24257745917109447
416.0, 0.20710087047644402
417.0, 0.17714183620442522
418.0, 0.15508957569210088
419.0, 0.13577553906748388
420.0, 0.1188789163868204
421.0, 0.105032718470782
422.0, 0.0940134440935935
423.0, 0.08381559558357739
424.0, 0.0756616434895381
425.0, 0.06832615488084036
426.0, 0.06210590912468639
427.0, 0.057664194445513045
428.0, 0.054499687373903545
429.0, 0.049821645212735285
430.0, 0.04553197732645055
431.0, 0.04225330723972963
432.0, 0.039294027118958644
433.0, 0.03586838216177694
434.0, 0.03333607988152154
435.0, 0.031084489493397077
436.0, 0.0280588849936031
437.0, 0.024892198426591537
438.0, 0.023809575023637397
439.0, 0.022194340359656284
440.0, 0.02084254019497945
441.0, 0.019347029281240172
442.0, 0.017134224569721357
443.0, 0.01456920139780034
444.0, 0.013210335496220943
445.0, 0.011134693875998476
446.0, 0.009170770101635467
447.0, 0.007535278709611225
448.0, 0.005477550343099452
449.0, 0.0041433068602726355
450.0, 0.0015895109903064338
451.0, 0.0005361000859918964
452.0, 0.0017263574090702644
453.0, 0.0025794621475685115
454.0, 0.002595293536191673
455.0, 0.003422471512715426
456.0, 0.004308616304348061
457.0, 0.00470798951850863
458.0, 0.00468285641642441
459.0, 0.004253387575274177
460.0, 0.0035190377430444654
461.0, 0.0028086849663398967
462.0, 0.002205109337233718
463.0, 0.0012339790119260993
464.0, 0.0010549600671674489
465.0, 0.0029227933004884734
466.0, 0.003922721847117648
467.0, 0.00546897554881928
468.0, 0.008167784846903193
469.0, 0.010704376245716086
470.0, 0.012209370796318645
471.0, 0.01498314630583916
472.0, 0.01823934305509599
473.0, 0.02164620689956779
474.0, 0.02572278666916681
475.0, 0.028553466400605656
476.0, 0.031863647384207404
477.0, 0.03443832741867816
478.0, 0.035814760499681006
479.0, 0.03722466865114699
480.0, 0.040399816920066285
481.0, 0.042399062461233254
482.0, 0.04493560764930481
483.0, 0.0484706299152232
484.0, 0.052587828037295226
485.0, 0.05747327043429999
486.0, 0.06367821434587274
487.0, 0.07338513149598647
488.0, 0.08494037830435264
489.0, 0.09671116141728357
490.0, 0.10910112590058643
491.0, 0.12654971877120708
492.0, 0.14535069257863223
493.0, 0.16573412430105292
494.0, 0.18828131568075346
495.0, 0.21300933537857902
496.0, 0.24082157859896383
497.0, 0.2729660971056603
498.0, 0.30784424286066464
499.0, 0.34547500529264086
500.0, 0.3862503144921565
501.0, 0.429057866080702
502.0, 0.4692949137323593
503.0, 0.507795250311906
504.0, 0.5343946944057552
505.0, 0.5429996967271545
506.0, 0.5347892364619213
507.0, 0.5113617616924787
508.0, 0.47199246897182656
509.0, 0.4268024708611781
510.0, 0.3802358458704557
511.0, 0.33274854813822863
512.0, 0.29022750833946426
513.0, 0.2528069481879599
514.0, 0.2208823955562479
515.0, 0.19209065426373775
516.0, 0.16548116344109917
517.0, 0.1431755964254107
518.0, 0.1256301388235031
519.0, 0.11052217172203965
520.0, 0.09655759779907844
521.0, 0.0850007684201219
522.0, 0.0769943926965047
523.0, 0.06844251573247359
524.0, 0.06012821889254469
525.0, 0.05389482074054194
526.0, 0.04805499482429935
527.0, 0.041594000021069756
528.0, 0.03665523377535157
529.0, 0.03258475889476799
530.0, 0.02936369265645757
531.0, 0.02612678748244039
532.0, 0.02282986406572967
533.0, 0.020048741442090373
534.0, 0.017349078190509227
535.0, 0.014974904753366016
536.0, 0.012767965167300386
537.0, 0.010612416643022997
538.0, 0.008772399572154194
539.0, 0.007763730762985968
540.0, 0.0069441167569374235
541.0, 0.005505951874258842
542.0, 0.004033998998526832
543.0, 0.002703963868906773
544.0, 0.001546576722019682
545.0, 0.0020118265078245988
546.0, 0.001296485722116511
547.0, 0.0009224741562402107
548.0, 0.0008630960476670936
549.0, 0.0004431004444120884
550.0, 0.00020845500543825935
551.0, 0.001270005966527665
552.0, 0.00034949396065773254
553.0, 0.0002021892468859215
554.0, 0.0006477175860671532
555.0, 0.00013822803878760825
556.0, 0.0006370604807208256
557.0, 0.0007897528597387055
558.0, 0.0006278679200883543
559.0, 0.00015531419293272612
560.0, 0.0006473706223185668
561.0, 0.0002162139537031733
562.0, 0.00013774770363975412
563.0, 0.00043530722882253434
564.0, 0.00026019959376874724
565.0, 0.00029601728139783535
566.0, 0.0005011964562799072
567.0, 0.0008663084292991225
568.0, 0.00040188031084049806
569.0, 0.0004336345386979505
570.0, 7.588962375273961e-05
571.0, 0.000142899421799528
572.0, 0.00037449761718525923
573.0, 0.0007518405897625712
574.0, 0.0007136614235036963
575.0, 0.0007085064209015458
576.0, 0.0013992472880233905
577.0, 0.0026033135436970617
578.0, 0.0031450630145648125
579.0, 0.002975694603469106
580.0, 0.003199755112192599
581.0, 0.003213017603901763
582.0, 0.0035316375159052324
583.0, 0.004700785511041899
584.0, 0.005353289913181126
585.0, 0.006318597653125153
586.0, 0.006415578525038541
587.0, 0.006484412319380851
588.0, 0.007028795924631731
589.0, 0.007561184841729321
590.0, 0.007839723160374039
591.0, 0.008247315963461732
592.0, 0.009069444315842248
593.0, 0.009500538854839386
594.0, 0.00941112556594406
595.0, 0.009451150315484297
596.0, 0.008413439725083446
597.0, 0.009912841918873158
598.0, 0.010812401239402204
599.0, 0.010293315363160766
600.0, 0.00958886962168689
601.0, 0.009797047932035053
602.0, 0.010391793595102311
603.0, 0.010986286948314043
604.0, 0.011172871451787858
605.0, 0.0107834448905519
606.0, 0.010313736943199363
607.0, 0.010484618504285673
608.0, 0.010208692264235824
609.0, 0.009595435885760088
610.0, 0.009187124866540847
611.0, 0.00843603090769194
612.0, 0.007191820233201695
613.0, 0.00821337967212546
614.0, 0.00649425721570657
615.0, 0.005772416058363008
616.0, 0.00589241612714371
617.0, 0.0058491494113912775
618.0, 0.005675892300511888
619.0, 0.005233192332680202
620.0, 0.004595622838187849
621.0, 0.003418519473497086
622.0, 0.0027963303386736487
623.0, 0.003092619120641709
624.0, 0.0036210883700511566
625.0, 0.003393026186264492
626.0, 0.0030305231907371425
627.0, 0.0030113767462094654
628.0, 0.0029472510043493457
629.0, 0.002502171920065655
630.0, 0.00207571441772881
631.0, 0.0022217388099879365
632.0, 0.003332053486755481
633.0, 0.003118326263709612
634.0, 0.002774106193912753
635.0, 0.003095985986059756
636.0, 0.0027198753970839123
637.0, 0.0032122089405109537
638.0, 0.0023578727882407006
639.0, 0.0024951898875459812
640.0, 0.002870678748959638
641.0, 0.0026759076725741794
642.0, 0.0031453327976174355
643.0, 0.002497314722971288
644.0, 0.003200051531166903
645.0, 0.0031985558689464327
646.0, 0.002776161962590324
647.0, 0.0028470527374144365
648.0, 0.002914930702628705
649.0, 0.0034975520949793804
650.0, 0.0033142154446352146
651.0, 0.0027320770153249543
652.0, 0.0027201756126760497
653.0, 0.0032609399432224355
654.0, 0.003289661856767112
655.0, 0.00303686113216791
656.0, 0.00260856302796487
657.0, 0.0028270994599699883
658.0, 0.002581575065565745
659.0, 0.0018592421430229198
660.0, 0.0020899738985830194
661.0, 0.0013201360128965002
662.0, 0.0028146092494358062
663.0, 0.0027352211506260055
664.0, 0.001695746100892271
665.0, 0.0016590457086101628
666.0, 0.0024184388423667594
667.0, 0.0019304712158115024
668.0, 0.0019717467793229156
669.0, 0.0017401658093105057
670.0, 0.0009180190140150796
671.0, 0.0005336757187416373
672.0, 0.001277295105508759
673.0, 0.00112847698315832
674.0, 0.0002994521477524246
675.0, 0.00012449453108336398
676.0, 0.00018075669496084705
677.0, 0.00014715252588540792
678.0, 0.000164197958044437
679.0, 0.0003329106622180801
680.0, 0.00010992856655286842
681.0, 0.0002940614680608375
682.0, 0.00010275785003821142
683.0, 0.0003402511460663608
684.0, 0.0005086297149444449
685.0, 0.0006443163205000092
686.0, 0.00046109883863028816
687.0, 0.0002471013077634601
688.0, 0.0003182675435676966
689.0, 9.166108706112274e-05
690.0, 0.0007829458396198484
691.0, 0.0003848772262491401
692.0, 0.00013542838714792967
693.0, 0.00019891691121938008
694.0, 0.00026635855557347315
695.0, 0.00034038832975135795
696.0, 0.0005958730325805839
697.0, 0.00018142258120376723
698.0, 0.0005876102119282292
699.0, 0.0001858362177854079
700.0, 0.00018866172158438498
701.0, 0.0008931184714369252
702.0, 0.0014000440137676927
703.0, 0.001511238025366927
704.0, 0.001996718796870816
705.0, 0.00314906302059731
706.0, 0.003183979903454813
707.0, 0.003700571165328742
708.0, 0.004742472257619904
709.0, 0.005620707080680083
710.0, 0.007209848499992775
711.0, 0.007784192680181742
712.0, 0.00965899037047116
713.0, 0.011018678773772
714.0, 0.012648785294026025
715.0, 0.015205549546972452
716.0, 0.01709086837446307
717.0, 0.019190197185894573
718.0, 0.022894347781040037
719.0, 0.026869646159315325
720.0, 0.03048148516066035
721.0, 0.034325340079143944
722.0, 0.03935885764157577
723.0, 0.0455817094237176
724.0, 0.05187168494447055
725.0, 0.057411959872704234
726.0, 0.06381429858094542
727.0, 0.07179710889750948
728.0, 0.0799650828817356
729.0, 0.08692115687722358
730.0, 0.09413699449618715
731.0, 0.1025201078754873
732.0, 0.11087501446115658
733.0, 0.11904351580739776
734.0, 0.12639684346796742
735.0, 0.13160311759152094
736.0, 0.13488189659499497
737.0, 0.13434831288263785
738.0, 0.131005289393343
739.0, 0.12566642610201176
740.0, 0.11700683491138025
741.0, 0.10609634984399037
742.0, 0.09682817712148896
743.0, 0.08642165820506349
744.0, 0.07524247438734863
745.0, 0.06748850885098068
746.0, 0.06134254880266615
747.0, 0.054981119421113216
748.0, 0.049142174182604824
749.0, 0.043436740902617815
750.0, 0.039842908483104726
751.0, 0.037046842393349294
752.0, 0.033877500289781676
753.0, 0.030734302707491324
754.0, 0.028271059072987183
755.0, 0.026289863036151148
756.0, 0.023950990974831284
757.0, 0.022115895048387988
758.0, 0.021124456756709317
759.0, 0.020249787362254832
760.0, 0.019128994379127528
761.0, 0.0177102689844979
762.0, 0.01571845734493873
763.0, 0.013872897454679919
764.0, 0.014610024674461486
765.0, 0.01408654966312583
766.0, 0.012933670831856167
767.0, 0.012638721413722217
768.0, 0.01208215562960346
769.0, 0.010917433360721648
770.0, 0.01048107183097678
771.0, 0.010248969403510177
772.0, 0.00957066026538667
773.0, 0.008596507029353927
774.0, 0.007991141723724627
775.0, 0.008100899888832712
776.0, 0.007306002477990257
777.0, 0.006240635220682607
778.0, 0.005362623024068354
779.0, 0.004964593501621587
780.0, 0.005266446154969424
781.0, 0.005674430896247314
782.0, 0.005071284678919954
783.0, 0.004884897376982063
784.0, 0.005337581906063939
785.0, 0.0045183225449680784
786.0, 0.0037902506006512234
787.0, 0.0034143253651799264
788.0, 0.002750439793443523
789.0, 0.00320496322424594
790.0, 0.0017758723268904517
791.0, 0.0012074849960215677
792.0, 0.0022250344299926243
793.0, 0.0024656465673830626
794.0, 0.001843335047033089
795.0, 0.0016941571011512473
796.0, 0.00011589280901590755
797.0, 0.0006865321064884451
798.0, 0.00022285499198780655
799.0, 0.0002603454832592356
800.0, 0.00028186744227408453
801.0, 0.0006056226872505018
802.0, 0.0002723727041436506
803.0, 0.0011051033585006398
804.0, 0.00047629613642099746
805.0, 0.00024079330989563056
806.0, 0.00028283250197631246
807.0, 0.0003351080177632855
808.0, 0.0010387635168690459
809.0, 0.001012740429163868
810.0, 0.001294731198717265
811.0, 0.00021030917208429798
812.0, 0.0007272867521996554
813.0, 0.001405971914677054
814.0, 0.003129463013236966
815.0, 0.0021160689220435145
816.0, 0.001122138554550907
817.0, 0.0010321325211024893
818.0, 0.002288562957544266
819.0, 0.0009887257014739206
820.0, 0.0011434946212347794
821.0, 0.0024487615155271325
822.0, 0.002516839072362623
823.0, 0.002092868965051187
824.0, 0.0036273583313443684
825.0, 0.0034824718843058373
826.0, 0.0030858901313779957
827.0, 0.0032787661338354577
828.0, 0.0037775148190643017
829.0, 0.0040158751919209664
830.0, 0.003951555332905047
831.0, 0.004206549780904223
832.0, 0.0038014728686743783
833.0, 0.004162067511484519
834.0, 0.004957183815225802
835.0, 0.004979665298898886
836.0, 0.00477573212460516
837.0, 0.0051667068230394795
838.0, 0.005027463892758338
839.0, 0.004565683565827428
840.0, 0.005283393484636533
841.0, 0.005818233716691103
842.0, 0.006115728439783858
843.0, 0.006418588977961482
844.0, 0.0065345731718712535
845.0, 0.00627145361725229
846.0, 0.006024169676653711
847.0, 0.00536931466872428
848.0, 0.0057853798252085285
849.0, 0.006854389814694926
850.0, 0.006484433108783092
851.0, 0.005084534475438326
852.0, 0.005170430406338022
853.0, 0.0045926395896919376
854.0, 0.004626925993293111
855.0, 0.004642768852765771
856.0, 0.004733864277608845
857.0, 0.004216802389463117
858.0, 0.003199952926499157
859.0, 0.0029600754630286544
860.0, 0.0030798794210428024
861.0, 0.0014678240770804624
862.0, 0.001749536861998239
863.0, 0.001278792099665287
864.0, 0.000579574254388291
865.0, 0.0005795010024497541
866.0, 0.0006192993951072641
867.0, 0.00012649907715641672
868.0, 0.0009690435964535394
869.0, 0.0009980113812374004
870.0, 0.0017635848643879227
871.0, 0.0015033394520337225
872.0, 0.0005239979881933695
873.0, 0.0005855088273774796
874.0, 0.0014306729636292621
875.0, 0.0010559311417638365
876.0, 0.00014741531314058483
877.0, 0.0008934238741801289
878.0, 0.001311108076763403
879.0, 0.002125407746456527
880.0, 0.002703212441569131
881.0, 0.0025848128059808044
882.0, 0.0038481715167850844
883.0, 0.004350393592780807
884.0, 0.006505203422778396
885.0, 0.006580871941274122
886.0, 0.007734978605653807
887.0, 0.009494969749310793
888.0, 0.010882638923658107
889.0, 0.012874610360274494
890.0, 0.013063809314276155
891.0, 0.015029213692016801
892.0, 0.016293074538025393
893.0, 0.017262986926184037
894.0, 0.01735722772339853
895.0, 0.016773649768355044
896.0, 0.016543128279496236
897.0, 0.016497375463256213
898.0, 0.01458115753200395
899.0, 0.014815777176184913
900.0, 0.014409838127930522
901.0, 0.013799309864280854
902.0, 0.0128809317948975
903.0, 0.012396854612632803
904.0, 0.012841925712869571
905.0, 0.012393497475747847
906.0, 0.012503913892665246
907.0, 0.012525862977289165
908.0, 0.01341954859690879
909.0, 0.0151186669159611
910.0, 0.01606638636919865
911.0, 0.01696652159010986
912.0, 0.019472589237391827
913.0, 0.02118681579257381
914.0, 0.02407434529975848
915.0, 0.027394872154774493
916.0, 0.030578346958088393
917.0, 0.035062920222438544
918.0, 0.040165225974508015
919.0, 0.04519046201838478
920.0, 0.05119442426542949
921.0, 0.0585683400719369
922.0, 0.06526686610961498
923.0, 0.07357990485792192
924.0, 0.0847621220911892
925.0, 0.09562083190415956
926.0, 0.10713806475142384
927.0, 0.12164932602987465
928.0, 0.1381770636339981
929.0, 0.15700528899357127
930.0, 0.1786971579217358
931.0, 0.2024991718402439
932.0, 0.23229897519404152
933.0, 0.26376079428471183
934.0, 0.2990630276685925
935.0, 0.34040287463332064
936.0, 0.38504360932410947
937.0, 0.4335121402344486
938.0, 0.4878396451773171
939.0, 0.5436097164912086
940.0, 0.6051880786415215
941.0, 0.6672364757405054
942.0, 0.7311698951006302
943.0, 0.7993063322218932
944.0, 0.8657668836888688
945.0, 0.924512239473503
946.0, 0.9675542121497194
947.0, 0.9956338063414923
948.0, 0.9963503405537268
949.0, 0.9667177457952881
950.0, 0.9103695565663165
951.0, 0.8336101569280725
952.0, 0.7425490821529588
953.0, 0.6474766063122049
954.0, 0.5589595243662984
955.0, 0.4759680846948709
956.0, 0.40596297858592273
957.0, 0.34652679587531643
958.0, 0.29433453133603665
959.0, 0.25148125442193225
960.0, 0.21885120275684614
961.0, 0.18957478024506255
962.0, 0.1655380606305029
963.0, 0.14428644941851168
964.0, 0.12952471169594154
965.0, 0.11682953718021787
966.0, 0.10504347035847084
967.0, 0.09616171542618562
968.0, 0.08961612568481939
969.0, 0.08292237916370386
970.0, 0.07722098761780634
971.0, 0.07171754340800017
972.0, 0.06663342939504965
973.0, 0.06325705840190447
974.0, 0.05917812229739017
975.0, 0.05513741536418917
976.0, 0.05218251698508125
977.0, 0.04887635438977525
978.0, 0.04433609906880081
979.0, 0.04134186460350243
980.0, 0.0372417999069871
981.0, 0.03272752986893207
982.0, 0.029660868687522143
983.0, 0.02673611290381678
984.0, 0.023274479757822316
985.0, 0.020266871498356393
986.0, 0.017962000923244067
987.0, 0.015907597829746396
988.0, 0.01244742795952681
989.0, 0.011264314851091915
990.0, 0.009294201850923542
991.0, 0.007785861507891668
992.0, 0.00660373794846476
993.0, 0.004828219875637321
994.0, 0.0033657509069556107
995.0, 0.0027647811741801356
996.0, 0.001817111855331274
997.0, 0.0016840822626608652
998.0, 0.0009338738276494785
999.0, 0.0006952930802335526
1000.0, 0.00031615556721019644
1001.0, 0.00023262302234516424
1002.0, 0.0005397883980213429
1003.0, 0.0007623637783302769
1004.0, 0.0006361342236692168
1005.0, 0.0007696925908654583
1006.0, 0.0011270333887116349
1007.0, 0.0012742275639397052
1008.0, 0.0014932946791128456
1009.0, 0.0010563896709946579
1010.0, 0.0006162663479715844
1011.0, 0.0010167961980530268
1012.0, 0.0010671224182668615
1013.0, 6.654605525925625e-05
1014.0, 0.0008263273409365662
1015.0, 0.0006443458470792556
1016.0, 0.00017156641323518072
1017.0, 0.00028257915155024
1018.0, 0.0001706658476454153
1019.0, 0.000591486436963459
1020.0, 0.0006483379535966637
1021.0, 0.00011383461374814132
1022.0, 0.0001341341008775757
1023.0, 0.0005611892362566065
1024.0, 0.0010798670003139953
1025.0, 0.0006030336444317491
1026.0, 0.00048158637405781076
1027.0, 0.0007463056779625092
1028.0, 0.0006371317388329526
1029.0, 0.0003440014749711917
1030.0, 0.0006631437262882576
1031.0, 0.0012221707537936688
1032.0, 0.0012193558969816516
1033.0, 0.0015690391988715023
1034.0, 0.0014815089897193584
1035.0, 0.002050397619598106
1036.0, 0.002936259180908811
1037.0, 0.003043716620431522
1038.0, 0.0027877344175264696
1039.0, 0.0031296044546527
1040.0, 0.003435143665046512
1041.0, 0.0033031337888638312
1042.0, 0.003540786565173122
1043.0, 0.003947785870770361
1044.0, 0.003831049257817873
1045.0, 0.004109246444454079
1046.0, 0.004475225857911686
1047.0, 0.0046055673760846795
1048.0, 0.004772861656153909
1049.0, 0.00493007174035866
1050.0, 0.007123156030792419
1051.0, 0.005218976970564163
1052.0, 0.00421016998634329
1053.0, 0.0044530898944651785
1054.0, 0.004209679322130574
1055.0, 0.0040431601176217965
1056.0, 0.004669738329758316
1057.0, 0.00511772155599584
1058.0, 0.004404250531321726
1059.0, 0.0038820197287536195
1060.0, 0.00390862349856511
1061.0, 0.004941783021652068
1062.0, 0.0043785212683239766
1063.0, 0.004156147474777996
1064.0, 0.004047164298064374
1065.0, 0.0038545167975762716
1066.0, 0.0038605776977185466
1067.0, 0.003937970577780781
1068.0, 0.004353524195311791
1069.0, 0.00434205592676518
1070.0, 0.003907553814010321
1071.0, 0.004145938561027915
1072.0, 0.003993615880090388
1073.0, 0.0036297922005876166
1074.0, 0.0038456887467791623
1075.0, 0.0038680889115684427
1076.0, 0.003600216384901291
1077.0, 0.003868888923125431
1078.0, 0.00304592917513146
1079.0, 0.0026466812430341762
1080.0, 0.0030270033835275156
1081.0, 0.003507788689859825
1082.0, 0.003362484147922478
1083.0, 0.003791327832474946
1084.0, 0.003601556930643184
1085.0, 0.003021975403846274
1086.0, 0.003286451080906143
1087.0, 0.0036138478883627617
1088.0, 0.004185013543299371
1089.0, 0.004134245232596876
1090.0, 0.0035304622330202618
1091.0, 0.003381222387912272
1092.0, 0.003377268533204009
1093.0, 0.0033762002148670592
1094.0, 0.003860205090540516
1095.0, 0.0040788816792105085
1096.0, 0.0034906879212449186
1097.0, 0.003304543329606652
1098.0, 0.0033633084573536595
1099.0, 0.003067251546855643
1100.0, 0.002971744334803717
1101.0, 0.002898626512605668
1102.0, 0.0027943488501580714
1103.0, 0.0029129136329035608
1104.0, 0.0027216439537985342
1105.0, 0.0025283206875636993
1106.0, 0.00283040965783747
1107.0, 0.002853452831933329
1108.0, 0.0021947672834022134
1109.0, 0.002121651380582743
1110.0, 0.001886649034868715
1111.0, 0.002208046123706136
1112.0, 0.0014776474460194689
1113.0, 0.0008884093675432
1114.0, 0.0012612481104437468
1115.0, 0.0017239157180177524
1116.0, 0.0014701186135922576
1117.0, 0.001187437285750592
1118.0, 0.0021419336504690718
1119.0, 0.003702995264376877
1120.0, 0.003574040897049677
1121.0, 0.0018052887524597511
1122.0, 0.0009583846566832207
1123.0, 0.0014561339958288106
1124.0, 0.0008528116957079792
1125.0, 0.00039756249295418427
1126.0, 0.0011008821690565037
1127.0, 0.0013932713487569395
1128.0, 0.0010264849208617228
1129.0, 0.0009029545286818688
1130.0, 0.00013839124823620158
1131.0, 0.00030085952424599004
1132.0, 0.0004987199841203396
1133.0, 0.0004997817832066441
1134.0, 0.0006375143958453298
1135.0, 0.00046413278718809966
1136.0, 4.970411302255041e-05
1137.0, 8.78002203723078e-05
1138.0, 0.000671123304584141
1139.0, 0.00010182515470797348
1140.0, 9.815021512891447e-05
1141.0, 0.00022838721897174073
1142.0, 0.00010917150722981509
1143.0, 0.00039798842486636236
1144.0, 0.00027415742875708964
1145.0, 0.0002970014551000338
1146.0, 0.0001477213609987262
1147.0, 0.00011159496914826713
1148.0, 3.299685824506608e-05
1149.0, 6.869852365140209e-05
1150.0, 7.361997681958804e-05
1151.0, 0.0002336836274522889
1152.0, 0.00045796215531789073
1153.0, 0.0003167954331310424
1154.0, 0.0004322738734754771
1155.0, 0.000384312462316238
1156.0, 9.935452296855197e-05
1157.0, 5.168259653833972e-05
1158.0, 1.7105210707216492e-05
1159.0, 8.019103007300967e-05
1160.0, 0.000305037056328399
1161.0, 0.00043191602196271357
1162.0, 0.0007517542527050732
1163.0, 0.0005051755152048709
1164.0, 0.0008367465742207929
1165.0, 0.0004325855891766874
1166.0, 0.00014169182417520272
1167.0, 1.5730064400379876e-05
1168.0, 0.00015436158058384068
1169.0, 0.00033214631873764366
1170.0, 0.0001521427022410213
1171.0, 0.00025607190312852804
1172.0, 5.591932188435842e-05
1173.0, 8.069577435705484e-05
1174.0, 0.0004107592811028021
1175.0, 0.0002579471001230199
1176.0, 4.1778618298021105e-05
1177.0, 5.731563393394252e-05
1178.0, 0.0002818276397261738
1179.0, 0.0005403270859118882
1180.0, 0.0005832341311828087
1181.0, 0.0007651778010092656
1182.0, 0.0009251689126321072
1183.0, 0.0006899392066668587
1184.0, 0.0006141576877583665
1185.0, 0.0005797501936898945
1186.0, 0.00025477144577839395
1187.0, 0.0004889533946850848
1188.0, 0.00015362972333763655
1189.0, 0.0005552606649814567
1190.0, 0.000946370581110941
1191.0, 0.0008650148374257656
1192.0, 0.00065138403127549
1193.0, 0.00025825344496226274
1194.0, 0.00010446733391774093
1195.0, 0.0005199599885003863
1196.0, 0.0007362764768665775
1197.0, 0.0007720913853388452
1198.0, 0.0007716235347428754
1199.0, 0.0006436446652800126
1200.0, 0.0009885870722771647
1201.0, 0.0005133292912754485
1202.0, 0.0006364672608859109
1203.0, 0.0010584502475412705
1204.0, 0.0007301247960179295
1205.0, 0.0006464569836872369
1206.0, 0.0012417530820784098
1207.0, 0.0011251167291117144
1208.0, 0.000626462193638012
1209.0, 0.0008830568901228095
1210.0, 0.0007946380202644958
1211.0, 0.0014235808574262884
1212.0, 0.0010493350101714106
1213.0, 0.001239555391669861
1214.0, 0.001765798926043987
1215.0, 0.0021323916770585333
1216.0, 0.0022506811776096813
1217.0, 0.001981076034687266
1218.0, 0.0018384861795904478
1219.0, 0.0021699927223196
1220.0, 0.0022996345549319767
1221.0, 0.0023384598893986517
1222.0, 0.0030524604865098184
1223.0, 0.002934002653243289
1224.0, 0.0021000835817265823
1225.0, 0.0022546041551049544
1226.0, 0.0027864341282031065
1227.0, 0.0027093279020780226
1228.0, 0.002689608199889833
1229.0, 0.00270878921618779
1230.0, 0.0023161906767062744
1231.0, 0.0020176470015097593
1232.0, 0.0022382361413233244
1233.0, 0.002262659795528446
1234.0, 0.002191317676455606
1235.0, 0.002260007036561923
1236.0, 0.0021812087406464843
1237.0, 0.002492798719799071
1238.0, 0.00257255865304187
1239.0, 0.0023781488875712063
1240.0, 0.0020734113209946777
1241.0, 0.002319120249809121
1242.0, 0.0025275120446304404
1243.0, 0.002485909211308289
1244.0, 0.0025772233748037714
1245.0, 0.002696409450308392
1246.0, 0.0026734132477018737
1247.0, 0.0027051977675528536
1248.0, 0.0024862557665644262
1249.0, 0.00201937380103632
1250.0, 0.0021379241991860013
1251.0, 0.0022100917938759836
1252.0, 0.0018984120521834842
1253.0, 0.0021287982581094504
1254.0, 0.0023891154941308424
1255.0, 0.0019919469579907493
1256.0, 0.0015224738393188068
1257.0, 0.001645338159297445
1258.0, 0.0018963683885613448
1259.0, 0.0017473528929346609
1260.0, 0.001785341730126185
1261.0, 0.001718140731230762
1262.0, 0.0012085859297749923
1263.0, 0.0016225085052461088
1264.0, 0.0016382927599508455
1265.0, 0.000838567256517634
1266.0, 0.0013522559250937927
1267.0, 0.0013521124382156367
1268.0, 0.0013377705074807886
1269.0, 0.0012229376300674718
1270.0, 0.0008712738493876818
1271.0, 0.0009131511204672337
1272.0, 0.000875503058935389
1273.0, 0.0004931392200898349
1274.0, 0.0009884701656370793
1275.0, 0.0009155501829833804
1276.0, 0.0005253921266222305
1277.0, 0.0005016091325665457
1278.0, 0.0002399646809285935
1279.0, 0.00031694313068053283
1280.0, 0.00048138803643409415
1281.0, 0.0005967295482338681
1282.0, 0.0004743613260672727
1283.0, 0.0007096729490937316
1284.0, 0.000339508756662259
1285.0, 8.507789940733715e-05
1286.0, 0.00010970319351598635
1287.0, 0.00023899159977665616
1288.0, 0.0004308180433521235
1289.0, 0.00018399098309060613
1290.0, 0.00027809200010087094
1291.0, 0.0003421794584615681
1292.0, 0.00037342907702576163
1293.0, 6.147601398156767e-05
1294.0, 0.0002085324130200402
1295.0, 0.00044976270196424366
1296.0, 0.0003425394298568518
1297.0, 0.0006860218720714091
1298.0, 0.0002452754677017066
1299.0, 0.00021518661821514577
1300.0, 0.0006354973062324774
1301.0, 0.00022483300612887252
1302, 0.0
1303, 0.0
1304, 0.0
1305, 0.0
1306, 0.0
1307, 0.0
1308, 0.0
1309, 0.0
1310, 0.0
1311, 0.0
1312, 0.0
1313, 0.0
1314, 0.0
1315, 0.0
1316, 0.0
1317, 0.0
1318, 0.0
1319, 0.0
1320, 0.0
1321, 0.0
1322, 0.0
1323, 0.0
1324, 0.0
1325, 0.0
1326, 0.0
1327, 0.0
1328, 0.0
1329, 0.0
1330, 0.0
1331, 0.0
1332, 0.0
1333, 0.0
1334, 0.0
1335, 0.0
1336, 0.0
1337, 0.0
1338, 0.0
1339, 0.0
1340, 0.0
1341, 0.0
1342, 0.0
1343, 0.0
1344, 0.0
1345, 0.0
1346, 0.0
1347, 0.0
1348, 0.0
1349, 0.0
1350, 0.0
1351, 0.0
1352, 0.0
1353, 0.0
1354, 0.0
1355, 0.0
1356, 0.0
1357, 0.0
1358, 0.0
1359, 0.0
1360, 0.0
1361, 0.0
1362, 0.0
1363, 0.0
1364, 0.0
1365, 0.0
1366, 0.0
1367, 0.0
1368, 0.0
1369, 0.0
1370, 0.0
1371, 0.0
1372, 0.0
1373, 0.0
1374, 0.0
1375, 0.0
1376, 0.0
1377, 0.0
1378, 0.0
1379, 0.0
1380, 0.0
1381, 0.0
1382, 0.0
1383, 0.0
1384, 0.0
1385, 0.0
1386, 0.0
1387, 0.0
1388, 0.0
1389, 0.0
1390, 0.0
1391, 0.0
1392, 0.0
1393, 0.0
1394, 0.0
1395, 0.0
1396, 0.0
1397, 0.0
1398, 0.0
1399, 0.0
1400, 0.0
1401, 0.0
1402, 0.0
1403, 0.0
1404, 0.0
1405, 0.0
1406, 0.0
1407, 0.0
1408, 0.0
1409, 0.0
1410, 0.0
1411, 0.0
1412, 0.0
1413, 0.0
1414, 0.0
1415, 0.0
1416, 0.0
1417, 0.0
1418, 0.0
1419, 0.0
1420, 0.0
1421, 0.0
1422, 0.0
1423, 0.0
1424, 0.0
1425, 0.0
1426, 0.0
1427, 0.0
1428, 0.0
1429, 0.0
1430, 0.0
1431, 0.0
1432, 0.0
1433, 0.0
1434, 0.0
1435, 0.0
1436, 0.0
1437, 0.0
1438, 0.0
1439, 0.0
1440, 0.0
1441, 0.0
1442, 0.0
1443, 0.0
1444, 0.0
1445, 0.0
1446, 0.0
1447, 0.0
1448, 0.0
1449, 0.0
1450, 0.0
1451, 0.0
1452, 0.0
1453, 0.0
1454, 0.0
1455, 0.0
1456, 0.0
1457, 0.0
1458, 0.0
1459, 0.0
1460, 0.0
1461, 0.0
1462, 0.0
1463, 0.0
1464, 0.0
1465, 0.0
1466, 0.0
1467, 0.0
1468, 0.0
1469, 0.0
1470, 0.0
1471, 0.0
1472, 0.0
1473, 0.0
1474, 0.0
1475, 0.0
1476, 0.0
1477, 0.0
1478, 0.0
1479, 0.0
1480, 0.0
1481, 0.0
1482, 0.0
1483, 0.0
1484, 0.0
1485, 0.0
1486, 0.0
1487, 0.0
1488, 0.0
1489, 0.0
1490, 0.0
1491, 0.0
1492, 0.0
1493, 0.0
1494, 0.0
1495, 0.0
1496, 0.0
1497, 0.0
1498, 0.0
1499, 0.0
1500, 0.0
1501, 0.0
1502, 0.0
1503, 0.0
1504, 0.0
1505, 0.0
1506, 0.0
1507, 0.0
1508, 0.0
1509, 0.0
1510, 0.0
1511, 0.0
1512, 0.0
1513, 0.0
1514, 0.0
1515, 0.0
1516, 0.0
1517, 0.0
1518, 0.0
1519, 0.0
1520, 0.0
1521, 0.0
1522, 0.0
1523, 0.0
1524, 0.0
1525, 0.0
1526, 0.0
1527, 0.0
1528, 0.0
1529, 0.0
1530, 0.0
1531, 0.0
1532, 0.0
1533, 0.0
1534, 0.0
1535, 0.0
1536, 0.0
1537, 0.0
1538, 0.0
1539, 0.0
1540, 0.0
1541, 0.0
1542, 0.0
1543, 0.0
1544, 0.0
1545, 0.0
1546, 0.0
1547, 0.0
1548, 0.0
1549, 0.0
1550, 0.0
1551, 0.0
1552, 0.0
1553, 0.0
1554, 0.0
1555, 0.0
1556, 0.0
1557, 0.0
1558, 0.0
1559, 0.0
1560, 0.0
1561, 0.0
1562, 0.0
1563, 0.0
1564, 0.0
1565, 0.0
1566, 0.0
1567, 0.0
1568, 0.0
1569, 0.0
1570, 0.0
1571, 0.0
1572, 0.0
1573, 0.0
1574, 0.0
1575, 0.0
1576, 0.0
1577, 0.0
1578, 0.0
1579, 0.0
1580, 0.0
1581, 0.0
1582, 0.0
1583, 0.0
1584, 0.0
1585, 0.0
1586, 0.0
1587, 0.0
1588, 0.0
1589, 0.0
1590, 0.0
1591, 0.0
1592, 0.0
1593, 0.0
1594, 0.0
1595, 0.0
1596, 0.0
1597, 0.0
1598, 0.0
1599, 0.0
