30, 0.0
31, 0.0
32, 0.0
33, 0.0
34, 0.0
35, 0.0
36, 0.0
37, 0.0
38, 0.0
39, 0.0
40, 0.0
41, 0.0
42, 0.0
43, 0.0
44, 0.0
45, 0.0
46, 0.0
47, 0.0
48, 0.0
49, 0.0
50, 0.0
51, 0.0
52, 0.0
53, 0.0
54, 0.0
55, 0.0
56, 0.0
57, 0.0
58, 0.0
59, 0.0
60, 0.0
61, 0.0
62, 0.0
63, 0.0
64, 0.0
65, 0.0
66, 0.0
67, 0.0
68, 0.0
69, 0.0
70, 0.0
71, 0.0
72, 0.0
73, 0.0
74, 0.0
75, 0.0
76, 0.0
77, 0.0
78, 0.0
79, 0.0
80, 0.0
81, 0.0
82, 0.0
83, 0.0
84, 0.0
85, 0.0
86, 0.0
87, 0.0
88, 0.0
89, 0.0
90, 0.0
91.0, 4.759681282845265e-05
92.0, 0.0003746754779210157
93.0, 0.0013561122126960227
94.0, 0.002833828960583966
95.0, 0.004358341635660007
96.0, 0.0060836448615167425
97.0, 0.008148773908229868
98.0, 0.01007849727974918
99.0, 0.011793730089025671
100.0, 0.013679325788255576
101.0, 0.01625944193841209
102.0, 0.01945606304041128
103.0, 0.022381005865566437
104.0, 0.02412587933391877
105.0, 0.02522266339925193
106.0, 0.026173354343130777
107.0, 0.02720854988543258
108.0, 0.029216858237653805
109.0, 0.032614814313903284
110.0, 0.03774579477547467
111.0, 0.043997645400950094
112.0, 0.050068777556669004
113.0, 0.05478507574684403
114.0, 0.05563692760352387
115.0, 0.051628619517248675
116.0, 0.04708056636994718
117.0, 0.04248644801835011
118.0, 0.03792912099737815
119.0, 0.03355636809739186
120.0, 0.029138349248534527
121.0, 0.02480242384470583
122.0, 0.02059081174646055
123.0, 0.016467783065812244
124.0, 0.012318591224577777
125.0, 0.008383385026928888
126.0, 0.004799346609294189
127.0, 0.0014976488525756937
128.0, 0.0017235771687419345
129.0, 0.004582992214519108
130.0, 0.007074612488129078
131.0, 0.00930718002387897
132.0, 0.011361592398042701
133.0, 0.01286384106708068
134.0, 0.013723280721449243
135.0, 0.013894812423508821
136.0, 0.013024184072975547
137.0, 0.010268403802326999
138.0, 0.005740064936696353
139.0, 0.001761685408575496
140.0, 0.007636739175542078
141.0, 0.013198662895508358
142.0, 0.017705593360260476
143.0, 0.019968484647348187
144.0, 0.020027808075772705
145.0, 0.019953269747454226
146.0, 0.020183264112272965
147.0, 0.021722443214917442
148.0, 0.02528080801466737
149.0, 0.03174454770543334
150.0, 0.03938737704750189
151.0, 0.04827886856832963
152.0, 0.058211860010165574
153.0, 0.068762295979971
154.0, 0.07930495118692701
155.0, 0.09052721035557616
156.0, 0.10174686969287017
157.0, 0.11237356188498704
158.0, 0.12252251493012917
159.0, 0.13081176033370662
160.0, 0.1352033525497176
161.0, 0.13422494297692242
162.0, 0.1273000993077468
163.0, 0.11906099334371849
164.0, 0.11075744850493341
165.0, 0.10166296702526505
166.0, 0.09543903398563672
167.0, 0.09240335720879847
168.0, 0.09115998622519042
169.0, 0.09117150895372911
170.0, 0.09251715086720776
171.0, 0.09569404632488492
172.0, 0.10033721848045181
173.0, 0.10601109269221419
174.0, 0.11324214395479716
175.0, 0.12304303391138761
176.0, 0.13491075509007203
177.0, 0.14916602703903323
178.0, 0.16435485326181126
179.0, 0.17854863585549893
180.0, 0.19032659507346747
181.0, 0.1981753094483486
182.0, 0.20098931272957798
183.0, 0.19839613808242781
184.0, 0.19132743604029
185.0, 0.18582640584686239
186.0, 0.18407838222082423
187.0, 0.18646531319592044
188.0, 0.19316479364217676
189.0, 0.2052997838444771
190.0, 0.2216711371588543
191.0, 0.24241176785076454
192.0, 0.26763690716337446
193.0, 0.29560564709690273
194.0, 0.32257258451173476
195.0, 0.3452410288955378
196.0, 0.36019022804879064
197.0, 0.3643754132649797
198.0, 0.3570699626000391
199.0, 0.3424886859384701
200.0, 0.324433124700418
201.0, 0.30624806352500666
202.0, 0.2907951137953558
203.0, 0.27926469906502294
204.0, 0.2720684290260495
205.0, 0.2703074702076599
206.0, 0.27599326768570265
207.0, 0.2862581938691397
208.0, 0.29947101879023763
209.0, 0.3105814028227553
210.0, 0.3138352545427378
211.0, 0.30546460845273293
212.0, 0.286202184289216
213.0, 0.26096482846403735
214.0, 0.2336581451344859
215.0, 0.2050455261532018
216.0, 0.1773739561316208
217.0, 0.1520231257168594
218.0, 0.12939813693524008
219.0, 0.10985158703466022
220.0, 0.0964019025989729
221.0, 0.08723365526291292
222.0, 0.08202701757325209
223.0, 0.0810556679279981
224.0, 0.08362964423443973
225.0, 0.08842659030858394
226.0, 0.09435316393402923
227.0, 0.10158594486279532
228.0, 0.11123682396352703
229.0, 0.12051464364760732
230.0, 0.12893763364405292
231.0, 0.13637077409653667
232.0, 0.14294222232358889
233.0, 0.14912913833838454
234.0, 0.15497061439271304
235.0, 0.15953223296947563
236.0, 0.16408248703463355
237.0, 0.1715941129703786
238.0, 0.17942538935975785
239.0, 0.18927905360026448
240.0, 0.20089387683896032
241.0, 0.21313694482326617
242.0, 0.22404345635876818
243.0, 0.2325026887035067
244.0, 0.23796405918432198
245.0, 0.23989831026685973
246.0, 0.23780216245829297
247.0, 0.23184255940633222
248.0, 0.2257685105422178
249.0, 0.22093508485493676
250.0, 0.21816647404139736
251.0, 0.2194455627674756
252.0, 0.22596523440220218
253.0, 0.23670679596653757
254.0, 0.2506200916323567
255.0, 0.2669106411472059
256.0, 0.28454445531139255
257.0, 0.30176350214986936
258.0, 0.31819491581520226
259.0, 0.33356599043962737
260.0, 0.34689164745719525
261.0, 0.3607480346706504
262.0, 0.37378153588873564
263.0, 0.3862798789522882
264.0, 0.3993550691309191
265.0, 0.4101168315942092
266.0, 0.4207326253087317
267.0, 0.4320555872786038
268.0, 0.44548533382969796
269.0, 0.4646636120956298
270.0, 0.48716654922192515
271.0, 0.5115820190547304
272.0, 0.5359701018304698
273.0, 0.556844217598014
274.0, 0.5699292438657604
275.0, 0.5728967196788625
276.0, 0.5697573315499413
277.0, 0.5653954956311636
278.0, 0.5631374849815958
279.0, 0.5648381007058136
280.0, 0.5647530341058892
281.0, 0.5573383362761277
282.0, 0.5376794410025574
283.0, 0.5005725400516361
284.0, 0.44919740269988023
285.0, 0.38789415916587916
286.0, 0.3237771305192922
287.0, 0.26440491743026506
288.0, 0.21367007903717056
289.0, 0.17012417018583015
290.0, 0.13487588224689168
291.0, 0.10780108237690354
292.0, 0.0866501549794863
293.0, 0.06965028600972334
294.0, 0.05612236863274197
295.0, 0.04531929348446399
296.0, 0.03679262336574492
297.0, 0.03065330599419827
298.0, 0.025613133425718797
299.0, 0.021584966645321252
300.0, 0.01838813777694083
301.0, 0.015664441464484594
302.0, 0.013455651794697297
303.0, 0.011722721807818482
304.0, 0.010573946389829999
305.0, 0.009711094404222378
306.0, 0.00853668695521121
307.0, 0.007899478849323687
308.0, 0.0069293668579363645
309.0, 0.0055675292325456675
310.0, 0.004341549375590526
311.0, 0.003799284844066781
312.0, 0.002436769633479843
313.0, 0.0008539440225126278
314.0, 0.0003469991714007162
315.0, 0.0012590361301980525
316.0, 0.002560791908516511
317.0, 0.0038606958662515418
318.0, 0.005271144955783943
319.0, 0.0066674634597527855
320.0, 0.007740287053903987
321.0, 0.009159234873272575
322.0, 0.010058702999422879
323.0, 0.010574401673842803
324.0, 0.01093262344532983
325.0, 0.011105442360619439
326.0, 0.011252671790911741
327.0, 0.01101197027954732
328.0, 0.010456887941582234
329.0, 0.009804284755133053
330.0, 0.00919308608101589
331.0, 0.007826282675120545
332.0, 0.006506173213632444
333.0, 0.005047782339036218
334.0, 0.0028538285515829916
335.0, 0.0008358451475070628
336.0, 0.0018977504603553677
337.0, 0.005041668597458313
338.0, 0.008239596433382845
339.0, 0.011337902677337903
340.0, 0.01581760261204883
341.0, 0.020035215536939453
342.0, 0.023960525030964637
343.0, 0.028300856583245482
344.0, 0.03338680172271876
345.0, 0.03785323605277559
346.0, 0.04286213062590786
347.0, 0.04837201533628716
348.0, 0.05383167184166975
349.0, 0.05888555409173044
350.0, 0.06414136651759796
351.0, 0.0693114549017841
352.0, 0.07418804026699188
353.0, 0.07870515206775887
354.0, 0.08276659393582582
355.0, 0.08605385482987564
356.0, 0.08889329915862595
357.0, 0.09054988722614506
358.0, 0.09048174639342936
359.0, 0.09007106991434957
360.0, 0.0882464718622316
361.0, 0.08519972497811355
362.0, 0.08168124677176296
363.0, 0.07811235588204572
364.0, 0.07329343889833964
365.0, 0.06781902561793866
366.0, 0.06295528081703067
367.0, 0.058860579342950546
368.0, 0.054770283829887384
369.0, 0.05078998243393634
370.0, 0.0467708915939957
371.0, 0.04333933628023387
372.0, 0.04058717702258402
373.0, 0.038000939416579574
374.0, 0.035485441376587865
375.0, 0.03330807302345689
376.0, 0.031430006543207545
377.0, 0.029624202541459976
378.0, 0.02765317455401776
379.0, 0.026086450147897997
380.0, 0.024635257738487397
381.0, 0.02302717230723572
382.0, 0.0215299282491329
383.0, 0.02080128167150157
384.0, 0.020158397669481215
385.0, 0.019596394654832983
386.0, 0.019204328486756846
387.0, 0.018738553557262207
388.0, 0.017532058018883655
389.0, 0.016232941113595706
390.0, 0.014293472026940562
391.0, 0.011881511228159107
392.0, 0.009711975664482772
393.0, 0.008255063169487735
394.0, 0.006918773039015889
395.0, 0.006363585124673793
396.0, 0.00669635210870737
397.0, 0.007676783155954851
398.0, 0.00914462921484836
399.0, 0.011633497800469673
400.0, 0.014248458699833832
401.0, 0.017021547849667706
402.0, 0.020666849077912514
403.0, 0.02658946969600137
404.0, 0.03184928177278305
405.0, 0.03824230300958086
406.0, 0.045896237679469584
407.0, 0.05400566280823887
408.0, 0.06242539497513403
409.0, 0.07174475382510688
410.0, 0.08162445680783134
411.0, 0.09192423724395445
412.0, 0.10284447838110927
413.0, 0.11443788139082027
414.0, 0.12662976277359045
415.0, 0.13973994565949288
416.0, 0.15425469518397517
417.0, 0.1702708859287699
418.0, 0.18693363414800387
419.0, 0.20286691949158941
420.0, 0.21723758502875645
421.0, 0.22958333709675738
422.0, 0.23862595522040805
423.0, 0.24133846211465915
424.0, 0.23634045359218153
425.0, 0.22337040328037439
426.0, 0.20395413030894796
427.0, 0.18069286936459764
428.0, 0.1561257333663647
429.0, 0.1319960053527544
430.0, 0.11119645795600427
431.0, 0.09366322493740226
432.0, 0.07869379639270087
433.0, 0.06656585501604634
434.0, 0.05795294951820203
435.0, 0.05087954264188685
436.0, 0.04507289623160516
437.0, 0.04093819595380758
438.0, 0.038261018030418446
439.0, 0.0360716915637231
440.0, 0.034851651028381496
441.0, 0.03437494365249327
442.0, 0.03433450030912742
443.0, 0.034698441609844956
444.0, 0.035282894657408935
445.0, 0.035886578115263135
446.0, 0.03691789293572523
447.0, 0.038108997359850835
448.0, 0.0388932240688297
449.0, 0.04003975334226035
450.0, 0.041407021407135945
451.0, 0.04237990686881773
452.0, 0.04279913678030216
453.0, 0.042888940177030224
454.0, 0.04297854534556147
455.0, 0.04310417630370845
456.0, 0.043369044582113984
457.0, 0.043849628625898245
458.0, 0.044515636582156425
459.0, 0.045204892105921886
460.0, 0.04616121148047165
461.0, 0.04748090571663445
462.0, 0.04954139055430994
463.0, 0.05225665842963664
464.0, 0.05495938177566978
465.0, 0.05868693667141901
466.0, 0.06196085773195014
467.0, 0.06571383369731364
468.0, 0.07028740033823203
469.0, 0.07461972180616287
470.0, 0.07815711067926888
471.0, 0.08164599207898554
472.0, 0.08456361269018695
473.0, 0.08624554342482454
474.0, 0.08615827589133838
475.0, 0.08411226736495332
476.0, 0.08053313952235308
477.0, 0.07495660215825328
478.0, 0.06803256732093227
479.0, 0.060624886172949
480.0, 0.052366191118087255
481.0, 0.04435888075129548
482.0, 0.03691151424271444
483.0, 0.030006978265144285
484.0, 0.023935797426647556
485.0, 0.01924272145655338
486.0, 0.014687004372477476
487.0, 0.01081244917365413
488.0, 0.0077748501652470225
489.0, 0.0053883153655210686
490.0, 0.003442328580065149
491.0, 0.0020170571204547252
492.0, 0.000872808925509441
493.0, 0.00043253590441641877
494.0, 0.0015525583488983398
495.0, 0.0022239841987404785
496.0, 0.002729811455687846
497.0, 0.00272485919595357
498.0, 0.0029267897546354678
499.0, 0.002748956155034968
500.0, 0.00191622855654239
501.0, 0.0018527061884411533
502.0, 0.0016688306977071011
503.0, 0.0012514157898218762
504.0, 0.0007789377873221077
505.0, 0.00031977012354768893
506.0, 0.00021199096096291507
507.0, 0.0008062252323219931
508.0, 0.0018761042237525575
509.0, 0.002878837940668106
510.0, 0.0037828725070905207
511.0, 0.004953554435849928
512.0, 0.0062385742091738364
513.0, 0.007438859951197308
514.0, 0.008788304742998649
515.0, 0.01057326302271626
516.0, 0.012516027676701597
517.0, 0.014018675998852297
518.0, 0.016405911226520097
519.0, 0.018844128007714546
520.0, 0.021485391183341945
521.0, 0.02439155370409753
522.0, 0.02729949068805594
523.0, 0.030746105382088638
524.0, 0.03413492434506424
525.0, 0.03828794791171371
526.0, 0.04237475570928709
527.0, 0.04586034706162375
528.0, 0.05050206916315865
529.0, 0.054486875869984075
530.0, 0.058868013256321676
531.0, 0.06304581717009612
532.0, 0.06638825322514237
533.0, 0.06917711411869423
534.0, 0.0717024000440199
535.0, 0.07272217379605436
536.0, 0.07261723015068608
537.0, 0.07142337642908304
538.0, 0.06898704874719168
539.0, 0.06586340386807264
540.0, 0.06227740934143121
541.0, 0.05846047556265152
542.0, 0.054444999802181836
543.0, 0.05061639408030637
544.0, 0.047403904832986406
545.0, 0.04443717115687789
546.0, 0.0412372183719269
547.0, 0.039021213751330726
548.0, 0.037643454490235706
549.0, 0.036307722916531386
550.0, 0.03495527272242989
551.0, 0.03373761358835088
552.0, 0.03255860718111794
553.0, 0.03125052265706672
554.0, 0.02984979578540737
555.0, 0.028617471439101465
556.0, 0.027354944336278126
557.0, 0.025843845566793415
558.0, 0.024683731208480865
559.0, 0.023689145342020317
560.0, 0.022456435130099796
561.0, 0.02095461497931873
562.0, 0.019610494363908593
563.0, 0.018596005562055515
564.0, 0.017603583398809828
565.0, 0.01634633668014814
566.0, 0.015012978621165296
567.0, 0.014795790902060044
568.0, 0.013480780750280563
569.0, 0.012181561640057122
570.0, 0.011332707858686782
571.0, 0.010515807377080189
572.0, 0.009518220697322704
573.0, 0.008776020713512649
574.0, 0.007832875169874918
575.0, 0.006975325199053242
576.0, 0.006362900132567122
577.0, 0.005921965529015554
578.0, 0.0054982615384312605
579.0, 0.00466060316501182
580.0, 0.004600179205621067
581.0, 0.004559072878334696
582.0, 0.004129776241085906
583.0, 0.003892268579593791
584.0, 0.003757100411135414
585.0, 0.0034135105533289593
586.0, 0.003125887919577296
587.0, 0.003053867023918848
588.0, 0.002986172438612968
589.0, 0.0025682505691060125
590.0, 0.002611366932027443
591.0, 0.00212873245828836
592.0, 0.0015765164886993438
593.0, 0.0013861171388497978
594.0, 0.001376566678364986
595.0, 0.000948154794273834
596.0, 0.0011373910224523438
597.0, 0.0004923749417992776
598.0, 4.811941672238036e-05
599.0, 0.000249597910582007
600.0, 0.0003568685175663877
601.0, 0.00010860770739266616
602.0, 0.000388015082271351
603.0, 0.00039335686956550026
604.0, 0.00041414149302508184
605.0, 0.0003701450601791591
606.0, 5.984444175123305e-05
607.0, 0.00036844718290584297
608.0, 0.0001497546173587903
609.0, 0.00013571902317819983
610.0, 0.00017198621937728958
611.0, 0.0001675137151501749
612.0, 0.000650431541346895
613.0, 0.00038986648048225375
614.0, 0.0001326606802436373
615.0, 0.0001959222117601505
616.0, 0.00045621845915358466
617.0, 0.0007249960556097348
618.0, 0.0009463816768515234
619.0, 0.0011246874389837496
620.0, 0.0008959758405474532
621.0, 0.0006617346501017521
622.0, 0.0007475490316710255
623.0, 0.0009259702384523782
624.0, 0.0007064146363988505
625.0, 0.0007302704550438858
626.0, 0.0007662882357060539
627.0, 0.0004648839922860936
628.0, 0.00012637369923562523
629.0, 0.00011434593222338681
630.0, 9.522224851614511e-05
631.0, 0.00021056488291312792
632.0, 0.00013646179438995705
633.0, 0.0003421569909679865
634.0, 0.0006642312957667278
635.0, 0.0005275103023831955
636.0, 0.0004359968916084011
637.0, 0.0006787829453673615
638.0, 0.0003501212338592063
639.0, 9.314565947607129e-05
640.0, 5.3381255882002886e-05
641.0, 0.0002959975909521722
642.0, 0.0002063394494941808
643.0, 0.0004731080751904992
644.0, 0.00032558407397031443
645.0, 0.00020017932467081246
646.0, 0.00020523303408737456
647.0, 9.726588017627054e-05
648.0, 0.00040563047719304417
649.0, 0.0002093675906071324
650.0, 0.00022940170042328516
651.0, 0.0004655535103452511
652.0, 0.0007557146558002902
653.0, 0.001035617353401477
654.0, 0.0011352369764280694
655.0, 0.0009754533784327269
656.0, 0.0008944442952860782
657.0, 0.0009294135987493264
658.0, 0.0011185393067129098
659.0, 0.0014545522968393751
660.0, 0.0016206240298837376
661.0, 0.0016135220305278021
662.0, 0.0020523225823701674
663.0, 0.00228450593512198
664.0, 0.002622355245413871
665.0, 0.0033679431088216266
666.0, 0.003552212971326887
667.0, 0.004012732813552442
668.0, 0.005029982034975474
669.0, 0.0061284928674992835
670.0, 0.007483764366084666
671.0, 0.009163114241300514
672.0, 0.010010770970372663
673.0, 0.011507496074847643
674.0, 0.013566188314974543
675.0, 0.01544858139915502
676.0, 0.01749073385396358
677.0, 0.020078545338912786
678.0, 0.02274558399075227
679.0, 0.025719261068996233
680.0, 0.02946086465160763
681.0, 0.03338891282306982
682.0, 0.038059321340643604
683.0, 0.043485370916601096
684.0, 0.048782996637494386
685.0, 0.05523593981450654
686.0, 0.062375571039019403
687.0, 0.07017417461066364
688.0, 0.07876144234596538
689.0, 0.08829091075957274
690.0, 0.09871824506048979
691.0, 0.1095268815337543
692.0, 0.12065252928157548
693.0, 0.1331154253518172
694.0, 0.1455047198382956
695.0, 0.15763031524658133
696.0, 0.17018503144809163
697.0, 0.18225708767587717
698.0, 0.19471153618922832
699.0, 0.20528228677498606
700.0, 0.21375548903275732
701.0, 0.21974964874147077
702.0, 0.22293720273927517
703.0, 0.22373400101095267
704.0, 0.2211724826668735
705.0, 0.21667090487752783
706.0, 0.20934015804114892
707.0, 0.1996749534390449
708.0, 0.1887873283210483
709.0, 0.17710651846327757
710.0, 0.16473653181058215
711.0, 0.1529195591324872
712.0, 0.14197264364503911
713.0, 0.1314551717296953
714.0, 0.12172303730755998
715.0, 0.11347453205775129
716.0, 0.1057718756910751
717.0, 0.09928563305738233
718.0, 0.09335626425563182
719.0, 0.08842502355154751
720.0, 0.0846199401907635
721.0, 0.08155306609395897
722.0, 0.07907337151795547
723.0, 0.07794794198720999
724.0, 0.07675291520289505
725.0, 0.07581156400220741
726.0, 0.0751945441369697
727.0, 0.0749223974391615
728.0, 0.07518821145821705
729.0, 0.0759994106518726
730.0, 0.07656768728457226
731.0, 0.07725886059421082
732.0, 0.07881057799074612
733.0, 0.0807583731646507
734.0, 0.08254441941601093
735.0, 0.08465739205935416
736.0, 0.08648292756435347
737.0, 0.08874794460709245
738.0, 0.09093239610232727
739.0, 0.093529388793142
740.0, 0.09672352528969105
741.0, 0.09976722974100881
742.0, 0.1019178594794033
743.0, 0.10526394156807696
744.0, 0.10824436589442915
745.0, 0.11127525435527723
746.0, 0.11409186295590505
747.0, 0.11624023072927003
748.0, 0.11841806844045863
749.0, 0.11993631622343992
750.0, 0.12096048849741718
751.0, 0.1222414979714207
752.0, 0.1220943804358212
753.0, 0.12008878448323265
754.0, 0.1175445719397109
755.0, 0.11485512668245741
756.0, 0.11115273658936814
757.0, 0.10644524335009099
758.0, 0.10107718218297143
759.0, 0.09485752240248164
760.0, 0.08794704058206308
761.0, 0.08129598544263056
762.0, 0.07474004495211024
763.0, 0.06800442557401155
764.0, 0.061521602668393315
765.0, 0.05556429053473272
766.0, 0.04993457546337508
767.0, 0.04449447154867894
768.0, 0.03973288194610581
769.0, 0.035593829763008906
770.0, 0.031018881925216447
771.0, 0.027189103192980853
772.0, 0.024086473273169314
773.0, 0.02130022152773707
774.0, 0.018912748193450925
775.0, 0.01673343590064641
776.0, 0.014582189165419625
777.0, 0.012945677022958627
778.0, 0.011238911816677105
779.0, 0.009828637444836561
780.0, 0.008748920730503186
781.0, 0.007268285130135464
782.0, 0.005903782309095329
783.0, 0.0050468278888638855
784.0, 0.004156875711979682
785.0, 0.0036038132222300104
786.0, 0.0032913979630264456
787.0, 0.00261862295886071
788.0, 0.0016806308824806196
789.0, 0.0016070703171196788
790.0, 0.0016065996730440645
791.0, 0.0014052514940489425
792.0, 0.0009483511519488249
793.0, 0.0006159556404613667
794.0, 0.0006548149223961409
795.0, 0.0005824576008915289
796.0, 0.00019504494705576875
797.0, 9.465381740362702e-05
798.0, 0.0005173416681607859
799.0, 0.0008328645391544107
800.0, 0.0009962753661651544
801.0, 0.000995469645355355
802.0, 0.0006313223807626728
803.0, 0.0007504494616579266
804.0, 0.0010741986184160306
805.0, 0.0013219033436227784
806.0, 0.0014430056931548764
807.0, 0.001634986677774221
808.0, 0.0018031875878064454
809.0, 0.0013210833542861332
810.0, 0.0013463500912639433
811.0, 0.001624315147501895
812.0, 0.0015888898586320442
813.0, 0.0015388798993063344
814.0, 0.0012993577287166546
815.0, 0.0009088457992103341
816.0, 0.001305437306465671
817.0, 0.0010354729204280946
818.0, 0.0008261786997594727
819.0, 0.0008510508324346413
820.0, 0.0006856938507551059
821.0, 0.0004192307435184953
822.0, 0.0004000363652686489
823.0, 0.0005383097524112462
824.0, 0.0005856260932092157
825.0, 0.00032395738298568715
826.0, 0.0002512532968477208
827.0, 0.00028175223896449535
828.0, 0.0002830017408307386
829.0, 0.0002290127047889209
830.0, 2.9736838734776403e-05
831.0, 0.0001906578582375189
832.0, 0.0011770268980362596
833.0, 0.0013437436415120049
834.0, 0.0012350971322273965
835.0, 0.0014315903352910908
836.0, 0.0018514821136786635
837.0, 0.0022774068211215237
838.0, 0.0027446424480704443
839.0, 0.0027232471710911476
840.0, 0.003570856739782044
841.0, 0.004565355023625901
842.0, 0.005104037331758583
843.0, 0.005659687236699911
844.0, 0.006710878604218986
845.0, 0.007708625329863861
846.0, 0.008982743710590569
847.0, 0.010585288725306811
848.0, 0.012427421958396547
849.0, 0.014250305016381873
850.0, 0.01624225459200105
851.0, 0.01884779510894686
852.0, 0.02218947975001683
853.0, 0.026732553651988167
854.0, 0.03148226206849735
855.0, 0.03759548362888032
856.0, 0.0460397654742148
857.0, 0.05690558130976568
858.0, 0.06997493979774252
859.0, 0.08515293232281058
860.0, 0.10110052859768894
861.0, 0.11930188887099882
862.0, 0.1373327390205149
863.0, 0.15677926824303576
864.0, 0.17998290106424636
865.0, 0.2081654768324824
866.0, 0.2418980759443447
867.0, 0.2809989394738068
868.0, 0.3231786151957692
869.0, 0.366214493977121
870.0, 0.40572204862291217
871.0, 0.4336347994149283
872.0, 0.4425303622638987
873.0, 0.4275892834160041
874.0, 0.39118967261584003
875.0, 0.3462598941436351
876.0, 0.30461304347785734
877.0, 0.2744388340848062
878.0, 0.256755658477847
879.0, 0.2491674296215261
880.0, 0.24946495233074598
881.0, 0.2566199024222422
882.0, 0.26882473706131554
883.0, 0.28378712636175435
884.0, 0.30036089669009197
885.0, 0.3145407381662415
886.0, 0.32295217639996426
887.0, 0.32196793656822503
888.0, 0.30903404157385866
889.0, 0.2847104318065489
890.0, 0.25157004388292853
891.0, 0.2128564647562029
892.0, 0.17601933710594345
893.0, 0.14391916861747342
894.0, 0.11698263797722597
895.0, 0.09526535341156359
896.0, 0.0782957996900574
897.0, 0.06506885652476782
898.0, 0.05470211193174635
899.0, 0.04617909028652171
900.0, 0.038999428724416856
901.0, 0.033214229712121755
902.0, 0.02833421833620802
903.0, 0.024158663479374936
904.0, 0.020947491535924095
905.0, 0.01800892778026073
906.0, 0.015537724650881555
907.0, 0.013224107985508595
908.0, 0.011459024655988954
909.0, 0.010373272360876323
910.0, 0.009539358151989617
911.0, 0.008713202509539627
912.0, 0.008266566389735048
913.0, 0.008565841652782784
914.0, 0.008378404557452162
915.0, 0.009019348773539744
916.0, 0.010959834333059745
917.0, 0.013085382501900954
918.0, 0.015472098579534334
919.0, 0.01916524528760195
920.0, 0.02419003005243944
921.0, 0.030388079986446836
922.0, 0.03826502400340435
923.0, 0.04587299288349292
924.0, 0.05413939118258832
925.0, 0.062461372267673704
926.0, 0.07158599863853192
927.0, 0.08306371660570996
928.0, 0.09698007651399594
929.0, 0.115138861333855
930.0, 0.13828292802892145
931.0, 0.16374122048948136
932.0, 0.1887287880135713
933.0, 0.2116494441471658
934.0, 0.22644744935702218
935.0, 0.22472778055355463
936.0, 0.20442664508299216
937.0, 0.17528477880467072
938.0, 0.15196648702113366
939.0, 0.14200992291985842
940.0, 0.14689907979367403
941.0, 0.16510046873470705
942.0, 0.19331540261479416
943.0, 0.22783042685940944
944.0, 0.2645560263918474
945.0, 0.3013237786911094
946.0, 0.3415827203826246
947.0, 0.38914873195239535
948.0, 0.44834266850152177
949.0, 0.5256084920961998
950.0, 0.6226112849329205
951.0, 0.7335059559553453
952.0, 0.8450145389410477
953.0, 0.9425602611810058
954.0, 0.9999628017646741
955.0, 0.9700730294595639
956.0, 0.8405672855134513
957.0, 0.6546760317934196
958.0, 0.4731656539775128
959.0, 0.3307771933835884
960.0, 0.2329601346899224
961.0, 0.1686530000709245
962.0, 0.12515556418281557
963.0, 0.0954865427001072
964.0, 0.07464617252387475
965.0, 0.05979074507442412
966.0, 0.0481731502991497
967.0, 0.03883600164946666
968.0, 0.031880483483999585
969.0, 0.026537400015092177
970.0, 0.021950335411236116
971.0, 0.018175951126855154
972.0, 0.015303074692836172
973.0, 0.012719633120655558
974.0, 0.010754579851096926
975.0, 0.009031030072909124
976.0, 0.0072919356196836085
977.0, 0.005988930038257471
978.0, 0.004929205079001018
979.0, 0.004124840216274873
980.0, 0.003691665315639272
981.0, 0.0028679896562310157
982.0, 0.002029529006421397
983.0, 0.0017465522665051048
984.0, 0.0015362734740849804
985.0, 0.0010010245264219155
986.0, 0.0008002970130657623
987.0, 0.0004080638440791877
988.0, 8.277143850882532e-05
989.0, 0.00044335157985599317
990.0, 0.00035794009423462656
991.0, 0.00031326875464845723
992.0, 0.0006943245001735937
993.0, 0.001253233694546503
994.0, 0.0015623725803923935
995.0, 0.0013086060148557292
996.0, 0.0013289870515427755
997.0, 0.0017588059704189865
998.0, 0.0018624661764775972
999.0, 0.0014319656673001395
1000.0, 0.0012820798360519592
1001.0, 0.0012571343899003464
1002.0, 0.0010228793681386907
1003.0, 0.0008871991685012496
1004.0, 0.0006528283753976608
1005.0, 0.0006150216626122504
1006.0, 0.0004905552363134137
1007.0, 0.0006139172971112887
1008.0, 0.00040952878948088544
1009.0, 6.383494622964002e-05
1010.0, 0.0001224933582174999
1011.0, 0.00020685173398789054
1012.0, 0.000517209192556865
1013.0, 0.000556512312393627
1014.0, 2.6379830948076202e-05
1015.0, 0.0009170788374202369
1016.0, 0.0012019527942780197
1017.0, 0.000652374047470978
1018.0, 0.00040585687207302334
1019.0, 0.0008594030460088867
1020.0, 0.0013780515103332396
1021.0, 0.0014655294648306526
1022.0, 0.0015920652370625063
1023.0, 0.0015785785497881425
1024.0, 0.001346810614917561
1025.0, 0.0010632032593481126
1026.0, 0.0011834856233743608
1027.0, 0.0014836146486097922
1028.0, 0.0020695117716885655
1029.0, 0.0023348763210218394
1030.0, 0.001766566866304023
1031.0, 0.0019087501351081634
1032.0, 0.002506300069421054
1033.0, 0.00266893952878854
1034.0, 0.0026104780400471577
1035.0, 0.0028099261294815864
1036.0, 0.003233326363543798
1037.0, 0.0031917853933450735
1038.0, 0.002778414094570632
1039.0, 0.002585791121607301
1040.0, 0.0022852279625428995
1041.0, 0.0027760614497083285
1042.0, 0.002693445494720785
1043.0, 0.002447896355298908
1044.0, 0.0024993500156359626
1045.0, 0.0027157425658140923
1046.0, 0.003167094720518455
1047.0, 0.0032636112088164975
1048.0, 0.0029298787326785935
1049.0, 0.00319940142821899
1050.0, 0.0032878157435355646
1051.0, 0.0030266660217010645
1052.0, 0.0030900893697999314
1053.0, 0.0033059641706669014
1054.0, 0.003412965935500976
1055.0, 0.0033074970831242475
1056.0, 0.003161844476082763
1057.0, 0.0030527162506626304
1058.0, 0.002898623354859905
1059.0, 0.0027830525462193647
1060.0, 0.0025734265320492625
1061.0, 0.00259304280607287
1062.0, 0.0024693950537205836
1063.0, 0.0022506051919640004
1064.0, 0.0020208788999556576
1065.0, 0.0017267413450676487
1066.0, 0.0016024605947260616
1067.0, 0.001635876786070723
1068.0, 0.001391706733443975
1069.0, 0.00125565433636333
1070.0, 0.0014752025957693981
1071.0, 0.0017717694443021056
1072.0, 0.001449681273507297
1073.0, 0.0017458059912828568
1074.0, 0.0019615733287190163
1075.0, 0.0021378278255002672
1076.0, 0.0022313206873927445
1077.0, 0.0019765984809635897
1078.0, 0.002036896406268521
1079.0, 0.0021935338086509115
1080.0, 0.001912885402071838
1081.0, 0.002202972282561501
1082.0, 0.001830044689141286
1083.0, 0.0017088296150050604
1084.0, 0.0016021225805164156
1085.0, 0.0014881243426092324
1086.0, 0.001540422684467811
1087.0, 0.001499084970590694
1088.0, 0.0013425231366310825
1089.0, 0.0013924163313960593
1090.0, 0.0010736427229401666
1091.0, 0.0013693911307267287
1092.0, 0.0018292075907480301
1093.0, 0.001964441854063019
1094.0, 0.0019899088429653302
1095.0, 0.0021635471611772565
1096.0, 0.0018947359768886208
1097.0, 0.001290845920102658
1098.0, 0.0013142411032841018
1099.0, 0.0011796412936341228
1100.0, 0.001202994149115461
1101.0, 0.0014432703318606644
1102.0, 0.001389838646928634
1103.0, 0.0012931954457204272
1104.0, 0.00124091122850257
1105.0, 0.0013128911137665414
1106.0, 0.0013347357509161423
1107.0, 0.0012528695113286975
1108.0, 0.0011937321617538185
1109.0, 0.0009251064159202626
1110.0, 0.0009824173856614058
1111.0, 0.0008645669803913229
1112.0, 0.0014422932644824618
1113.0, 0.0010290489101922884
1114.0, 0.0008968835144268936
1115.0, 0.00044408316508148105
1116.0, 0.0003975732573804744
1117.0, 0.0010196930624911922
1118.0, 0.0010433975432612513
1119.0, 0.0008703660198275411
1120.0, 0.0009872534159866898
1121.0, 0.0011421155139042826
1122.0, 0.0010810224461328488
1123.0, 0.0010519441665191673
1124.0, 0.0007737865175247717
1125.0, 0.0004676095218144703
1126.0, 0.000125396673060351
1127.0, 0.0001402854133004187
1128.0, 0.0008827645308199093
1129.0, 0.0007794102193545147
1130.0, 0.00028754307242485644
1131.0, 8.651114408290541e-05
1132.0, 0.0003959221128427872
1133.0, 0.0004498976120489745
1134.0, 0.00045764066469841777
1135.0, 0.00023215836365791622
1136.0, 0.0005179306283994248
1137.0, 0.0005478920406340115
1138.0, 0.0005910077089341637
1139.0, 0.0009257124587738765
1140.0, 0.0004844048072194454
1141.0, 0.0004095382949389204
1142.0, 0.0008634263715060206
1143.0, 0.0010404591999373502
1144.0, 0.0009977000846501465
1145.0, 0.0007182011582005932
1146.0, 0.0004842825373668558
1147.0, 0.0003552120953628448
1148.0, 0.0004232681158823048
1149.0, 0.000632289479411295
1150.0, 0.0006739475351623649
1151.0, 0.0009506884744210976
1152.0, 0.0007051011780009085
1153.0, 0.0009323059966186219
1154.0, 0.0009245730847314546
1155.0, 0.0010082839826957971
1156.0, 0.0010939481348169829
1157.0, 0.0009584827950172733
1158.0, 0.0009211543859278926
1159.0, 0.0006552346445135834
1160.0, 0.00035080157299276145
1161.0, 0.0003772205227411338
1162.0, 0.00032434899584562305
1163.0, 0.00010376378772364215
1164.0, 0.00014109620030191173
1165.0, 0.00025999252829903664
1166.0, 0.0004044627047856915
1167.0, 0.00033082194836923007
1168.0, 0.00030877129246529694
1169.0, 0.000508805276944031
1170.0, 0.00041051457206321706
1171.0, 0.0005337647194608911
1172.0, 0.0008272334001307103
1173.0, 0.000577240841147285
1174.0, 0.00034068979887661496
1175.0, 0.0005709397801910739
1176.0, 0.0004103248580294895
1177.0, 0.00013718556390213875
1178.0, 0.00011380756355934816
1179.0, 5.017896653871063e-05
1180.0, 8.309848902216823e-06
1181.0, 0.0002439237660715765
1182.0, 0.00016406699304729745
1183.0, 2.9133213256481302e-05
1184.0, 0.00019836567700018957
1185.0, 0.0003626651678582281
1186.0, 0.0004201661167965138
1187.0, 0.00028222288525614307
1188.0, 0.0005108167265774929
1189.0, 0.00010471948829499207
1190.0, 0.000166308986744206
1191.0, 0.00010445996928999993
1192.0, 6.929706600588507e-05
1193.0, 7.982469935563425e-06
1194.0, 2.9043802509122292e-05
1195.0, 2.1187589511617458e-05
1196.0, 0.0003103323576919217
1197.0, 0.0006118352911875623
1198.0, 0.0007008959097888191
1199.0, 0.0006025091409892672
1200.0, 0.00034672396115726126
1201.0, 0.00027983976842732854
1202.0, 0.00045620292097156367
1203.0, 0.00026052718135710656
1204.0, 3.469466022627107e-05
1205.0, 0.0005116880279056843
1206.0, 0.0004164452810378786
1207.0, 0.00013272196361403517
1208.0, 0.00010553306181594046
1209.0, 0.00025088692816463757
1210.0, 0.0006559871708676746
1211.0, 0.0005953172387187788
1212.0, 0.0008909013279396853
1213.0, 0.0007026708225825925
1214.0, 0.0006349394753579147
1215.0, 0.000580128764470477
1216.0, 0.0006924080338664414
1217.0, 0.0007391061493116912
1218.0, 0.00038875602734857585
1219.0, 8.999811673256356e-05
1220.0, 0.00027508582658584654
1221.0, 0.0005087468599424405
1222.0, 9.519386988333784e-05
1223.0, 5.10274037037316e-05
1224.0, 0.00011857799476019071
1225.0, 0.00014621066171071983
1226.0, 0.000502135733450128
1227.0, 8.07513465236428e-05
1228.0, 2.157390941844964e-05
1229.0, 9.020208706832725e-05
1230.0, 0.00016091248899332013
1231.0, 0.00019579313787532827
1232.0, 0.0003004561685711032
1233.0, 0.00039745497230932474
1234.0, 0.00034873921335092925
1235.0, 0.00044028904411186115
1236.0, 0.0003342125674311613
1237.0, 0.0001254314894735112
1238.0, 0.00023797977735430086
1239.0, 1.7614238737549238e-05
1240.0, 9.248918765405629e-05
1241.0, 0.00011627290504510817
1242.0, 2.1707792526659622e-05
1243.0, 0.00019982514433157153
1244.0, 0.00021220862416258853
1245.0, 0.0001784898632230449
1246.0, 7.103731193362545e-05
1247.0, 0.00018435820423105982
1248.0, 0.000367432871904704
1249.0, 0.00044306438974761093
1250.0, 0.0005867636166974574
1251.0, 0.0007685457538320293
1252.0, 0.000878384485168907
1253.0, 0.0007598917622629283
1254.0, 0.000912987303564539
1255.0, 0.0007017870975330369
1256.0, 0.0002508539145901865
1257.0, 0.0004516061904423939
1258.0, 0.0005325379310094954
1259.0, 0.0002328472350910328
1260.0, 0.0002030706272832631
1261.0, 0.0002803486683818397
1262.0, 0.000379357545773367
1263.0, 0.0005715923345035675
1264.0, 0.00045022845155570033
1265.0, 0.0006096463358109752
1266.0, 0.0006528446199014444
1267.0, 0.0002745650033951437
1268.0, 0.0009392573018660129
1269.0, 0.0008997141209880457
1270.0, 0.0010447745465604046
1271.0, 0.0009049854643443677
1272.0, 0.0006142010512555501
1273.0, 0.0006439662464605416
1274.0, 0.00043951211690147746
1275.0, 0.00035230439914535485
1276.0, 0.0005490287116545734
1277.0, 0.0004869886270984582
1278.0, 0.000244109561824097
1279.0, 0.0003340599847538739
1280.0, 0.000859295557444077
1281.0, 0.0004492115690365697
1282.0, 0.0005115404409250119
1283.0, 8.897407176505231e-05
1284.0, 0.0001387204243468733
1285.0, 3.3591225570800954e-05
1286.0, 9.18249077161619e-05
1287.0, 0.0003549276959039282
1288.0, 0.0002622978221090088
1289.0, 7.77704197615022e-05
1290.0, 7.476932676710711e-05
1291.0, 2.4140299517555854e-05
1292.0, 0.00022011782082571212
1293.0, 0.0003276974157366649
1294.0, 0.000858921585261138
1295.0, 0.0006672972249154395
1296.0, 0.0007755178542979156
1297.0, 0.0003320066457987056
1298.0, 0.0007584598477026102
1299.0, 0.0010212870693463013
1300.0, 0.001319861024435263
1301.0, 0.0012934710575056114
1302.0, 0.000534668359516288
1303.0, 5.862248007659513e-06
1304, 0.0
1305, 0.0
1306, 0.0
1307, 0.0
1308, 0.0
1309, 0.0
1310, 0.0
1311, 0.0
1312, 0.0
1313, 0.0
1314, 0.0
1315, 0.0
1316, 0.0
1317, 0.0
1318, 0.0
1319, 0.0
1320, 0.0
1321, 0.0
1322, 0.0
1323, 0.0
1324, 0.0
1325, 0.0
1326, 0.0
1327, 0.0
1328, 0.0
1329, 0.0
1330, 0.0
1331, 0.0
1332, 0.0
1333, 0.0
1334, 0.0
1335, 0.0
1336, 0.0
1337, 0.0
1338, 0.0
1339, 0.0
1340, 0.0
1341, 0.0
1342, 0.0
1343, 0.0
1344, 0.0
1345, 0.0
1346, 0.0
1347, 0.0
1348, 0.0
1349, 0.0
1350, 0.0
1351, 0.0
1352, 0.0
1353, 0.0
1354, 0.0
1355, 0.0
1356, 0.0
1357, 0.0
1358, 0.0
1359, 0.0
1360, 0.0
1361, 0.0
1362, 0.0
1363, 0.0
1364, 0.0
1365, 0.0
1366, 0.0
1367, 0.0
1368, 0.0
1369, 0.0
1370, 0.0
1371, 0.0
1372, 0.0
1373, 0.0
1374, 0.0
1375, 0.0
1376, 0.0
1377, 0.0
1378, 0.0
1379, 0.0
1380, 0.0
1381, 0.0
1382, 0.0
1383, 0.0
1384, 0.0
1385, 0.0
1386, 0.0
1387, 0.0
1388, 0.0
1389, 0.0
1390, 0.0
1391, 0.0
1392, 0.0
1393, 0.0
1394, 0.0
1395, 0.0
1396, 0.0
1397, 0.0
1398, 0.0
1399, 0.0
1400, 0.0
1401, 0.0
1402, 0.0
1403, 0.0
1404, 0.0
1405, 0.0
1406, 0.0
1407, 0.0
1408, 0.0
1409, 0.0
1410, 0.0
1411, 0.0
1412, 0.0
1413, 0.0
1414, 0.0
1415, 0.0
1416, 0.0
1417, 0.0
1418, 0.0
1419, 0.0
1420, 0.0
1421, 0.0
1422, 0.0
1423, 0.0
1424, 0.0
1425, 0.0
1426, 0.0
1427, 0.0
1428, 0.0
1429, 0.0
1430, 0.0
1431, 0.0
1432, 0.0
1433, 0.0
1434, 0.0
1435, 0.0
1436, 0.0
1437, 0.0
1438, 0.0
1439, 0.0
1440, 0.0
1441, 0.0
1442, 0.0
1443, 0.0
1444, 0.0
1445, 0.0
1446, 0.0
1447, 0.0
1448, 0.0
1449, 0.0
1450, 0.0
1451, 0.0
1452, 0.0
1453, 0.0
1454, 0.0
1455, 0.0
1456, 0.0
1457, 0.0
1458, 0.0
1459, 0.0
1460, 0.0
1461, 0.0
1462, 0.0
1463, 0.0
1464, 0.0
1465, 0.0
1466, 0.0
1467, 0.0
1468, 0.0
1469, 0.0
1470, 0.0
1471, 0.0
1472, 0.0
1473, 0.0
1474, 0.0
1475, 0.0
1476, 0.0
1477, 0.0
1478, 0.0
1479, 0.0
1480, 0.0
1481, 0.0
1482, 0.0
1483, 0.0
1484, 0.0
1485, 0.0
1486, 0.0
1487, 0.0
1488, 0.0
1489, 0.0
1490, 0.0
1491, 0.0
1492, 0.0
1493, 0.0
1494, 0.0
1495, 0.0
1496, 0.0
1497, 0.0
1498, 0.0
1499, 0.0
1500, 0.0
1501, 0.0
1502, 0.0
1503, 0.0
1504, 0.0
1505, 0.0
1506, 0.0
1507, 0.0
1508, 0.0
1509, 0.0
1510, 0.0
1511, 0.0
1512, 0.0
1513, 0.0
1514, 0.0
1515, 0.0
1516, 0.0
1517, 0.0
1518, 0.0
1519, 0.0
1520, 0.0
1521, 0.0
1522, 0.0
1523, 0.0
1524, 0.0
1525, 0.0
1526, 0.0
1527, 0.0
1528, 0.0
1529, 0.0
1530, 0.0
1531, 0.0
1532, 0.0
1533, 0.0
1534, 0.0
1535, 0.0
1536, 0.0
1537, 0.0
1538, 0.0
1539, 0.0
1540, 0.0
1541, 0.0
1542, 0.0
1543, 0.0
1544, 0.0
1545, 0.0
1546, 0.0
1547, 0.0
1548, 0.0
1549, 0.0
1550, 0.0
1551, 0.0
1552, 0.0
1553, 0.0
1554, 0.0
1555, 0.0
1556, 0.0
1557, 0.0
1558, 0.0
1559, 0.0
1560, 0.0
1561, 0.0
1562, 0.0
1563, 0.0
1564, 0.0
1565, 0.0
1566, 0.0
1567, 0.0
1568, 0.0
1569, 0.0
1570, 0.0
1571, 0.0
1572, 0.0
1573, 0.0
1574, 0.0
1575, 0.0
1576, 0.0
1577, 0.0
1578, 0.0
1579, 0.0
1580, 0.0
1581, 0.0
1582, 0.0
1583, 0.0
1584, 0.0
1585, 0.0
1586, 0.0
1587, 0.0
1588, 0.0
1589, 0.0
1590, 0.0
1591, 0.0
1592, 0.0
1593, 0.0
1594, 0.0
1595, 0.0
1596, 0.0
1597, 0.0
1598, 0.0
1599, 0.0
