30, 0.0
31, 0.0
32, 0.0
33, 0.0
34, 0.0
35, 0.0
36, 0.0
37, 0.0
38, 0.0
39, 0.0
40, 0.0
41, 0.0
42, 0.0
43, 0.0
44, 0.0
45, 0.0
46, 0.0
47, 0.0
48, 0.0
49, 0.0
50, 0.0
51, 0.0
52, 0.0
53, 0.0
54, 0.0
55, 0.0
56, 0.0
57, 0.0
58, 0.0
59, 0.0
60, 0.0
61, 0.0
62, 0.0
63, 0.0
64, 0.0
65, 0.0
66, 0.0
67, 0.0
68, 0.0
69, 0.0
70, 0.0
71, 0.0
72, 0.0
73, 0.0
74, 0.0
75, 0.0
76, 0.0
77, 0.0
78, 0.0
79, 0.0
80, 0.0
81, 0.0
82, 0.0
83, 0.0
84, 0.0
85, 0.0
86, 0.0
87, 0.0
88, 0.0
89, 0.0
90, 0.0
91, 0.0
92, 0.0
93, 0.0
94, 0.0
95, 0.0
96, 0.0
97, 0.0
98, 0.0
99, 0.0
100, 0.0
101, 0.0
102, 0.0
103, 0.0
104, 0.0
105, 0.0
106, 0.0
107, 0.0
108, 0.0
109, 0.0
110, 0.0
111, 0.0
112, 0.0
113, 0.0
114, 0.0
115, 0.0
116, 0.0
117, 0.0
118, 0.0
119, 0.0
120, 0.0
121, 0.0
122, 0.0
123, 0.0
124, 0.0
125, 0.0
126, 0.0
127, 0.0
128, 0.0
129, 0.0
130, 0.0
131, 0.0
132, 0.0
133, 0.0
134, 0.0
135, 0.0
136, 0.0
137, 0.0
138, 0.0
139, 0.0
140, 0.0
141, 0.0
142, 0.0
143, 0.0
144, 0.0
145, 0.0
146, 0.0
147, 0.0
148, 0.0
149, 0.0
150, 0.0
151, 0.0
152, 0.0
153, 0.0
154, 0.0
155, 0.0
156, 0.0
157, 0.0
158, 0.0
159, 0.0
160, 0.0
161, 0.0
162, 0.0
163, 0.0
164, 0.0
165, 0.0
166, 0.0
167, 0.0
168, 0.0
169, 0.0
170, 0.0
171.0, 0.0013796439927774113
172.0, 0.003771013184909605
173.0, 0.006230795917697529
174.0, 0.007479051658330051
175.0, 0.00532576798052606
176.0, 0.007001012456105144
177.0, 0.006937552310895793
178.0, 0.004094325609911431
179.0, 0.008901268740891425
180.0, 0.012051676693958135
181.0, 0.010092890547588848
182.0, 0.007911986158069595
183.0, 0.012642851783691508
184.0, 0.014516238702789539
185.0, 0.011483845477670547
186.0, 0.009969060962676602
187.0, 0.013402655817575639
188.0, 0.007265312568829664
189.0, 0.0015951515975656941
190.0, 0.0011702980080884077
191.0, 0.0034473694735838597
192.0, 0.0023879646932965792
193.0, 0.00559634051658221
194.0, 0.0033825470944624596
195.0, 0.0029868839953319497
196.0, 0.0023412472489573732
197.0, 0.00409677673398823
198.0, 0.008538434053749133
199.0, 0.010822283699649615
200.0, 0.008332773630201674
201.0, 0.007369438705669944
202.0, 0.006517034988317662
203.0, 0.005859719243996187
204.0, 0.005348579070897944
205.0, 0.005858508331429386
206.0, 0.008614384499815213
207.0, 0.0057560509336261915
208.0, 0.005762583223041383
209.0, 0.013085648945954906
210.0, 0.014510122989727989
211.0, 0.012282429330521252
212.0, 0.009727931124285265
213.0, 0.010458052779802055
214.0, 0.01685954265827814
215.0, 0.012294684502704904
216.0, 0.007659827891565412
217.0, 0.007578495240026269
218.0, 0.010562876188727081
219.0, 0.005956574200866122
220.0, 0.00974689398698393
221.0, 0.011234363192395562
222.0, 0.006683950959528678
223.0, 0.00576496066702658
224.0, 0.008747351946228792
225.0, 0.0058982595702170015
226.0, 0.002318309413065098
227.0, 0.004489561229976267
228.0, 0.004995907244804977
229.0, 0.003599439439492885
230.0, 0.0026137132702270124
231.0, 0.002591289752034106
232.0, 0.0025887915925739365
233.0, 0.004757469532832804
234.0, 0.005495134468137521
235.0, 0.002734427234067776
236.0, 0.0029255513629925104
237.0, 0.0031617144798235753
238.0, 0.0031316772269500332
239.0, 0.001569654169164937
240.0, 0.0036324474696258955
241.0, 0.004813939005846016
242.0, 0.004189638310192751
243.0, 0.0017179103081968472
244.0, 0.0009020638275416422
245.0, 0.001644533642396414
246.0, 0.0066081861256157785
247.0, 0.0073985157439203485
248.0, 0.004858654786261323
249.0, 0.003919202698003821
250.0, 0.0075607712214402194
251.0, 0.005298574406110546
252.0, 0.007274511468714375
253.0, 0.008385751338452214
254.0, 0.005015976065184418
255.0, 0.0029152143259823186
256.0, 0.0008731365719307471
257.0, 0.006769043529229761
258.0, 0.01124320970774975
259.0, 0.002448767851343606
260.0, 0.007870726770868863
261.0, 0.005791532512076028
262.0, 0.004318014328386678
263.0, 0.008229317523665276
264.0, 0.007439021299641627
265.0, 0.01372542062527317
266.0, 0.01551510290219702
267.0, 0.014812108551799675
268.0, 0.01889501120926536
269.0, 0.02661162020640092
270.0, 0.0183447393256691
271.0, 0.014665118531159578
272.0, 0.02023073102583941
273.0, 0.021383944678564016
274.0, 0.02024244140544256
275.0, 0.02275468420469703
276.0, 0.025146022495596623
277.0, 0.025096321454358812
278.0, 0.02864571345742281
279.0, 0.03466657107655171
280.0, 0.03589337246335172
281.0, 0.036060346647845756
282.0, 0.04033474282934773
283.0, 0.03178962596761477
284.0, 0.029060450997243695
285.0, 0.03310938407285413
286.0, 0.037432774708677695
287.0, 0.03537909415055776
288.0, 0.041948780045492115
289.0, 0.045460384127398744
290.0, 0.04339333749416832
291.0, 0.040374746021256
292.0, 0.040032674604837545
293.0, 0.038161677201731824
294.0, 0.03318717046435386
295.0, 0.02691747790299402
296.0, 0.021319142978248527
297.0, 0.018883806624030976
298.0, 0.017793150612633753
299.0, 0.01835914949587341
300.0, 0.018996011297110368
301.0, 0.017552272780046594
302.0, 0.019652051390635562
303.0, 0.01976168236941447
304.0, 0.02072046076655116
305.0, 0.02253999580679393
306.0, 0.018794600630760244
307.0, 0.025343572537406257
308.0, 0.02274108601532805
309.0, 0.017604601681710092
310.0, 0.021451199167384145
311.0, 0.019193889031275682
312.0, 0.01805116741006242
313.0, 0.02015252112945591
314.0, 0.023235824502676503
315.0, 0.024217437553840898
316.0, 0.027261033728937407
317.0, 0.027686616097709338
318.0, 0.03069607132914808
319.0, 0.034628518045236305
320.0, 0.02953268954917145
321.0, 0.02032961472247078
322.0, 0.020275424400776898
323.0, 0.02215079897252184
324.0, 0.02034407903853806
325.0, 0.02204112337374573
326.0, 0.020697408288498146
327.0, 0.019380006610914692
328.0, 0.018075995955433553
329.0, 0.016641634685548898
330.0, 0.02117196610799702
331.0, 0.023828117700824273
332.0, 0.0236287781694689
333.0, 0.023469225790162897
334.0, 0.026348409939439477
335.0, 0.029175363077787137
336.0, 0.029626597706355746
337.0, 0.025012269916420006
338.0, 0.017446203803866724
339.0, 0.013455989651980135
340.0, 0.01650998217534444
341.0, 0.013497598782914944
342.0, 0.00980660849285472
343.0, 0.010110598358094669
344.0, 0.00889982949724269
345.0, 0.009752729321193912
346.0, 0.009913112212205775
347.0, 0.009819266111994131
348.0, 0.009200026897346877
349.0, 0.004867770702803842
350.0, 0.00734682990025839
351.0, 0.011043426198124873
352.0, 0.01622573305984574
353.0, 0.021306711657096643
354.0, 0.013921111701361321
355.0, 0.01016601415520349
356.0, 0.008345066163231569
357.0, 0.009890217266969209
358.0, 0.017120887489338887
359.0, 0.022641734468607698
360.0, 0.02185240771524336
361.0, 0.019099355822777057
362.0, 0.017731757624682865
363.0, 0.017836968816667
364.0, 0.016024653580891456
365.0, 0.014884187546495316
366.0, 0.01082259489251102
367.0, 0.008631180284919254
368.0, 0.016578375409716805
369.0, 0.013459799572970405
370.0, 0.005526186931698929
371.0, 0.0024618335451404706
372.0, 0.004415996729437031
373.0, 0.00304585432367266
374.0, 0.002703939680639503
375.0, 0.0024825980013230323
376.0, 0.0012571203912106884
377.0, 0.0016261951260582036
378.0, 0.0015331597277801698
379.0, 0.004549344488077397
380.0, 0.0015982336493721955
381.0, 0.0029281788827980426
382.0, 0.002397104919925176
383.0, 0.006374452158034008
384.0, 0.007453304732855913
385.0, 0.008002156000685478
386.0, 0.010236992889051874
387.0, 0.012547969864215736
388.0, 0.013116981817540587
389.0, 0.010235281820223137
390.0, 0.012299909514371628
391.0, 0.009959817610445322
392.0, 0.004408636739195822
393.0, 0.01565433210040477
394.0, 0.00876228521522966
395.0, 0.003766619108780201
396.0, 0.0056537473407458514
397.0, 0.009057761730459671
398.0, 0.007911545743646638
399.0, 0.010635349967007468
400.0, 0.01177893672310917
401.0, 0.008868350667712858
402.0, 0.005612022071123762
403.0, 0.010413576122708526
404.0, 0.011439917689824197
405.0, 0.011112295536093386
406.0, 0.010423952694939844
407.0, 0.0097870835507054
408.0, 0.00962343425770973
409.0, 0.005116017144839971
410.0, 0.0028835547962678325
411.0, 0.0015569887835801286
412.0, 0.0017444110700508206
413.0, 0.002357548147398096
414.0, 0.0028070816416307836
415.0, 0.003634489304865651
416.0, 0.005300758600646663
417.0, 0.008589143131857446
418.0, 0.01520238111253364
419.0, 0.017165842310698086
420.0, 0.0192278947547663
421.0, 0.020151151085450677
422.0, 0.022301813452473656
423.0, 0.031200670392735875
424.0, 0.03190988277450238
425.0, 0.02913734051593789
426.0, 0.02728936683044663
427.0, 0.029583756585618046
428.0, 0.0373806101402953
429.0, 0.04357372352315294
430.0, 0.04555783554190347
431.0, 0.04984341569721508
432.0, 0.054807993630437736
433.0, 0.05335882536606677
434.0, 0.060622197342467224
435.0, 0.06540342013428785
436.0, 0.07185331187911953
437.0, 0.0751137621931236
438.0, 0.07026554271787663
439.0, 0.0781240319924385
440.0, 0.07808579892029069
441.0, 0.08467358483049743
442.0, 0.094477020146521
443.0, 0.09631489904518599
444.0, 0.10283540752492973
445.0, 0.10156328687990535
446.0, 0.10361631230044398
447.0, 0.10944720796401775
448.0, 0.11537655404058546
449.0, 0.12348959876880145
450.0, 0.12762579294686377
451.0, 0.13138910644855448
452.0, 0.13739740508679074
453.0, 0.14475835070359053
454.0, 0.1497837087596861
455.0, 0.15241634037807866
456.0, 0.14707786434207132
457.0, 0.14121699480986
458.0, 0.1355317890967501
459.0, 0.11822987210557805
460.0, 0.10164055614704266
461.0, 0.08298722655246403
462.0, 0.06685460021500253
463.0, 0.05543741661344649
464.0, 0.0471207038377225
465.0, 0.0446788824554271
466.0, 0.03995970969642583
467.0, 0.034617204336320685
468.0, 0.0303853870406099
469.0, 0.0280845091028869
470.0, 0.03156016132942586
471.0, 0.03682224120728683
472.0, 0.038909057736486
473.0, 0.03341727304943504
474.0, 0.022582252286323712
475.0, 0.024391302918283123
476.0, 0.02572996053271702
477.0, 0.022904375460628734
478.0, 0.019918927055843277
479.0, 0.01933960909293976
480.0, 0.019428020858487445
481.0, 0.018075826372227738
482.0, 0.01754981555607646
483.0, 0.015657852052241246
484.0, 0.011852377423639506
485.0, 0.008387168124119734
486.0, 0.009399043708397887
487.0, 0.0014851045668275136
488.0, 0.002321258421940929
489.0, 0.008934251067368943
490.0, 0.0036889535687038124
491.0, 0.002374302766908208
492.0, 0.001205088975451746
493.0, 0.0032694592824806935
494.0, 0.004249823300900554
495.0, 0.002584618897639275
496.0, 0.010182227150958015
497.0, 0.01574034736460069
498.0, 0.008788348116094169
499.0, 0.002316539504908223
500.0, 0.004603402883273886
501.0, 0.011320316205220284
502.0, 0.009571080821670018
503.0, 0.005668565814511028
504.0, 0.004928594620802508
505.0, 0.004837104065800078
506.0, 0.0025835342686589234
507.0, 0.004030085594883765
508.0, 0.007229942890308896
509.0, 0.005417257130947076
510.0, 0.002098668671992342
511.0, 0.0019294983051450175
512.0, 0.003710681862646166
513.0, 0.0030028098976809274
514.0, 0.003525125277174103
515.0, 0.005792038525913583
516.0, 0.005026484053543615
517.0, 0.0026682789626709925
518.0, 0.0014891912511454317
519.0, 0.003215507489022459
520.0, 0.002087866580624577
521.0, 0.0013059982642525394
522.0, 0.0033461616730782453
523.0, 0.005570854799498446
524.0, 0.007455928090047177
525.0, 0.005608477916461331
526.0, 0.004413582133378869
527.0, 0.008201853648875181
528.0, 0.013981825456058873
529.0, 0.007306184794013245
530.0, 0.0018391380538777713
531.0, 0.0007442769236958361
532.0, 0.0019674732165174476
533.0, 0.005031220308397569
534.0, 0.0031029282124114027
535.0, 0.004141786842974025
536.0, 0.004747147875638548
537.0, 0.007973772266460379
538.0, 0.005088346164654362
539.0, 0.005357927996376969
540.0, 0.012761113868212694
541.0, 0.01581669512352144
542.0, 0.015983503723522016
543.0, 0.015023013225609038
544.0, 0.014814472870901945
545.0, 0.017409944550949914
546.0, 0.017098710967967855
547.0, 0.016882868144305868
548.0, 0.016356233757013613
549.0, 0.015489844005688648
550.0, 0.015538166718440596
551.0, 0.01686365333947812
552.0, 0.009511885220985842
553.0, 0.009990093224954725
554.0, 0.014401991583663676
555.0, 0.014394143094128098
556.0, 0.012820870386995586
557.0, 0.012504257911457064
558.0, 0.02157164577967417
559.0, 0.02461176916223233
560.0, 0.020362994673065644
561.0, 0.021252920487912226
562.0, 0.03008288326478412
563.0, 0.03359754052639699
564.0, 0.029115684120999095
565.0, 0.02520696385494149
566.0, 0.02525294965425815
567.0, 0.025197610044134428
568.0, 0.031261610681736246
569.0, 0.025851426104332526
570.0, 0.02173873501594545
571.0, 0.020999473097001786
572.0, 0.01890569399387642
573.0, 0.018951584165758047
574.0, 0.01696233345892754
575.0, 0.012651910202922858
576.0, 0.009636284491662738
577.0, 0.008508194634973374
578.0, 0.007475526804821405
579.0, 0.006040678284648252
580.0, 0.008917877263726974
581.0, 0.010239775142303672
582.0, 0.01190371890307884
583.0, 0.01582965944594299
584.0, 0.01939653242643442
585.0, 0.021249180873386793
586.0, 0.020222801192029974
587.0, 0.023043413514114666
588.0, 0.0265176743397422
589.0, 0.02649216677169328
590.0, 0.02619727605423614
591.0, 0.02794975463594341
592.0, 0.020974310319989833
593.0, 0.018095815954782015
594.0, 0.022161630926163873
595.0, 0.023364727723989346
596.0, 0.017336383591418005
597.0, 0.01763845615407191
598.0, 0.013345132047342537
599.0, 0.01539094107122326
600.0, 0.022508762935877575
601.0, 0.02133513837423468
602.0, 0.018317115814965926
603.0, 0.02268560156816989
604.0, 0.02475092675340359
605.0, 0.022034458146760465
606.0, 0.01720302636078772
607.0, 0.014480972513896186
608.0, 0.020871412060155043
609.0, 0.01381169141249115
610.0, 0.012256693201310698
611.0, 0.01188984547050735
612.0, 0.009721325538236762
613.0, 0.01808889733470731
614.0, 0.011357713740890242
615.0, 0.01283162213930095
616.0, 0.015401665589720389
617.0, 0.01873626605667348
618.0, 0.02482441414483062
619.0, 0.026414179905491064
620.0, 0.023309980482584224
621.0, 0.02609678824850803
622.0, 0.02827289365261596
623.0, 0.02825720630582253
624.0, 0.02969835340995313
625.0, 0.034493167334051424
626.0, 0.03536846942166308
627.0, 0.03639190222402452
628.0, 0.03747191848704729
629.0, 0.036450801019853776
630.0, 0.03403857448218774
631.0, 0.03402446175453927
632.0, 0.029807528654970772
633.0, 0.02740428624505549
634.0, 0.02663919661841963
635.0, 0.023847142359429294
636.0, 0.019100874427202895
637.0, 0.02281150701941936
638.0, 0.02600533385489718
639.0, 0.02595864695717164
640.0, 0.02598391661809627
641.0, 0.028582100714227822
642.0, 0.03062886088752784
643.0, 0.02506708784067529
644.0, 0.023659236963262355
645.0, 0.027145693065607646
646.0, 0.031456872416836285
647.0, 0.03190409663741684
648.0, 0.028441849266985886
649.0, 0.031655218107002316
650.0, 0.023710952213284484
651.0, 0.019852998137144102
652.0, 0.01999309985758483
653.0, 0.01887089948027063
654.0, 0.016877617666543242
655.0, 0.018410460706085426
656.0, 0.015353568876431854
657.0, 0.009022304234957756
658.0, 0.004209583598392998
659.0, 0.005294510148786888
660.0, 0.010101914729486289
661.0, 0.006045870731489642
662.0, 0.005292796350411958
663.0, 0.006314399306735214
664.0, 0.009822133772784862
665.0, 0.009919503774367521
666.0, 0.00577828582608451
667.0, 0.009547010002785156
668.0, 0.008482341635139029
669.0, 0.0073134653437639035
670.0, 0.010360367596724663
671.0, 0.00926160875120812
672.0, 0.001513260626782861
673.0, 0.0010990574833486247
674.0, 0.008258529015479531
675.0, 0.00784267239683972
676.0, 0.0020107450269758556
677.0, 0.00264316233412302
678.0, 0.005146752899856162
679.0, 0.004433938960379018
680.0, 0.00850224872919583
681.0, 0.011333127960772085
682.0, 0.012157336095773226
683.0, 0.008765912312045387
684.0, 0.0030069251354687444
685.0, 0.001007967363672015
686.0, 0.005406911521543346
687.0, 0.007279753699290715
688.0, 0.002379910775547744
689.0, 0.0026250290883780224
690.0, 0.008030775470914513
691.0, 0.008039290089751851
692.0, 0.005410127072572196
693.0, 0.003177648878065537
694.0, 0.002485560124921828
695.0, 0.0024083804191588234
696.0, 0.005095443747649641
697.0, 0.007693362383563274
698.0, 0.002317822843620176
699.0, 0.002183509961922151
700.0, 0.004729000311545549
701.0, 0.007607249306682789
702.0, 0.006084962269140859
703.0, 0.005132000239441255
704.0, 0.007719651521248202
705.0, 0.008146555927351645
706.0, 0.006541883057076495
707.0, 0.007916964110647578
708.0, 0.009405855038819985
709.0, 0.0067311956107623475
710.0, 0.0016641335643936962
711.0, 0.0013739653824363105
712.0, 0.00508360551165801
713.0, 0.008120365844693141
714.0, 0.006369040421405305
715.0, 0.0037638764536529817
716.0, 0.005381847641504165
717.0, 0.008553033363137686
718.0, 0.008157669423567502
719.0, 0.005275633349090179
720.0, 0.0018631923710127091
721.0, 0.0011169466376847114
722.0, 0.002597090290532325
723.0, 0.005035590807319895
724.0, 0.009108755728546454
725.0, 0.004824972898544745
726.0, 0.0043013697092029735
727.0, 0.006088627412062427
728.0, 0.01218199367473223
729.0, 0.020752739457991613
730.0, 0.011731305352279202
731.0, 0.009763173832488963
732.0, 0.0056961763781928085
733.0, 0.0067625569495467315
734.0, 0.010198810328385835
735.0, 0.009354655468904296
736.0, 0.00635191202009035
737.0, 0.003672536121532269
738.0, 0.004256376426315851
739.0, 0.0023343280403544686
740.0, 0.005201941804667487
741.0, 0.007199898822840751
742.0, 0.0011490837417230458
743.0, 0.0049334866458973356
744.0, 0.001782767543637975
745.0, 0.003130081109915268
746.0, 0.005660850154471129
747.0, 0.0038500333090280827
748.0, 0.0018504433922455648
749.0, 0.006036304554761583
750.0, 0.007152013009224616
751.0, 0.007389637129375822
752.0, 0.011273551014912607
753.0, 0.00859978726519053
754.0, 0.006247895447507659
755.0, 0.011405408114600887
756.0, 0.010625443689642597
757.0, 0.007458103612394169
758.0, 0.0068780762827197715
759.0, 0.005620322647168577
760.0, 0.004376640086528019
761.0, 0.005157230957277394
762.0, 0.006686084013353654
763.0, 0.005315948912761078
764.0, 0.0032621893614895054
765.0, 0.0020710748147592713
766.0, 0.0031925030293235173
767.0, 0.005575571598689492
768.0, 0.008594108016930193
769.0, 0.011663169575777682
770.0, 0.0066419524550860665
771.0, 0.00964640793191005
772.0, 0.009356384698920151
773.0, 0.011396152003882224
774.0, 0.01582226537540251
775.0, 0.013661463916494723
776.0, 0.004343185961401267
777.0, 0.005372993832145745
778.0, 0.0021813976166373495
779.0, 0.0028845640214649497
780.0, 0.004629659781241684
781.0, 0.002359890539099438
782.0, 0.001778946830751335
783.0, 0.004731048581415963
784.0, 0.006347865140546839
785.0, 0.005344421289177812
786.0, 0.004598451836203618
787.0, 0.0063208027247959354
788.0, 0.0048808944387926136
789.0, 0.002798398097039326
790.0, 0.004580601399318576
791.0, 0.0060952420322021245
792.0, 0.006237312502294443
793.0, 0.008070175002635186
794.0, 0.00889190670425906
795.0, 0.006431559048632786
796.0, 0.00362373745620984
797.0, 0.006517157371778814
798.0, 0.00396999838427365
799.0, 0.0019493795308263263
800.0, 0.0018278065995888596
801.0, 0.006831225993756362
802.0, 0.011578841260986466
803.0, 0.007190541508526461
804.0, 0.0031342360051406807
805.0, 0.0022736331474634648
806.0, 0.006583917507987251
807.0, 0.0042739151742294665
808.0, 0.005114094993992881
809.0, 0.011493264460585668
810.0, 0.006911362330835175
811.0, 0.004305672128366467
812.0, 0.0036012013496455894
813.0, 0.003975053581722331
814.0, 0.006416175547725688
815.0, 0.010714661588797192
816.0, 0.010168685423311478
817.0, 0.0062082289705579965
818.0, 0.004777590758071184
819.0, 0.0068585442697799
820.0, 0.004057774849396108
821.0, 0.00531072655301458
822.0, 0.004626684204354187
823.0, 0.0038926314843111235
824.0, 0.010824940708210709
825.0, 0.004517270610302908
826.0, 0.006408654222797677
827.0, 0.009842266850151693
828.0, 0.008780342411490033
829.0, 0.007770352288850137
830.0, 0.010879953933977827
831.0, 0.01598508178121447
832.0, 0.01842149373484381
833.0, 0.009737542972636128
834.0, 0.006130822887750894
835.0, 0.0027552680594090328
836.0, 0.003142201645952061
837.0, 0.0023143019606298703
838.0, 0.006614820005055079
839.0, 0.0020424926279765175
840.0, 0.005475819191735723
841.0, 0.0060885623346282995
842.0, 0.005421713470198018
843.0, 0.00641656137366835
844.0, 0.008835150733426759
845.0, 0.009533312266438627
846.0, 0.0065455900269679596
847.0, 0.004562526699252346
848.0, 0.006802872597234573
849.0, 0.003990554665702541
850.0, 0.0037333582992889213
851.0, 0.00553690408867119
852.0, 0.004679054735692815
853.0, 0.0025685486166980207
854.0, 0.0039180985766798515
855.0, 0.0021357230324690786
856.0, 0.004110535756634301
857.0, 0.006903449429377998
858.0, 0.0036383184146558086
859.0, 0.0025246521659741767
860.0, 0.005296305618385331
861.0, 0.001193230490051396
862.0, 0.005001775126289829
863.0, 0.0016576831331112118
864.0, 0.0023927154528430505
865.0, 0.0036566571080872976
866.0, 0.006321814807217278
867.0, 0.0076270956874588056
868.0, 0.0013818971111354556
869.0, 0.0073603117802356005
870.0, 0.011016033061103204
871.0, 0.015006299154730911
872.0, 0.013589206369290101
873.0, 0.013830169381649375
874.0, 0.014097886062731779
875.0, 0.0070766564561724095
876.0, 0.006591046149633168
877.0, 0.005650474116585201
878.0, 0.003973613099244508
879.0, 0.0025939665134784213
880.0, 0.0012501812427573834
881.0, 0.0017177660778462708
882.0, 0.003923276110306758
883.0, 0.00380727425074847
884.0, 0.00344558307228382
885.0, 0.003187496473890176
886.0, 0.006791095299560439
887.0, 0.006414568486970032
888.0, 0.007241540969775097
889.0, 0.008721191499834252
890.0, 0.004334310555689758
891.0, 0.0023090698151619423
892.0, 0.005260051622500144
893.0, 0.0070701546170061445
894.0, 0.003831172270116146
895.0, 0.006367874110421416
896.0, 0.00794683418309883
897.0, 0.0059271503367290855
898.0, 0.011430395184689053
899.0, 0.008119575022392429
900.0, 0.0040208436282523265
901.0, 0.006420376534835145
902.0, 0.005817410702483434
903.0, 0.006264464657989995
904.0, 0.005795157338999982
905.0, 0.0034948752017695405
906.0, 0.006285120253608176
907.0, 0.0016580266999569053
908.0, 0.007181058289370284
909.0, 0.007979387811010498
910.0, 0.00864911354858821
911.0, 0.0075473330747410135
912.0, 0.009640079051894885
913.0, 0.015023919391509757
914.0, 0.011385037129904158
915.0, 0.012647052877381722
916.0, 0.014292568027557953
917.0, 0.015336017047897776
918.0, 0.01037637717928144
919.0, 0.007267892885334571
920.0, 0.0077340053478463485
921.0, 0.0053489662691860885
922.0, 0.002271720078720854
923.0, 0.005302101720496368
924.0, 0.0018932353778182188
925.0, 0.001209214712450353
926.0, 0.0029792165293277537
927.0, 0.004539007234877174
928.0, 0.004883079786175095
929.0, 0.009123882321138081
930.0, 0.013305570186871157
931.0, 0.007903306961252975
932.0, 0.013532172004056101
933.0, 0.009834944882910713
934.0, 0.011360409335570202
935.0, 0.009110807972775697
936.0, 0.0014476501843955
937.0, 0.0035783616172785806
938.0, 0.008350877690095583
939.0, 0.00501479118696755
940.0, 0.003361888452307691
941.0, 0.001374059422409915
942.0, 0.005704969942987969
943.0, 0.007729640051212769
944.0, 0.006166708117672845
945.0, 0.006254772579682738
946.0, 0.003581369718763197
947.0, 0.004073949072603747
948.0, 0.001571087918484875
949.0, 0.002567965268559138
950.0, 0.004917221770648445
951.0, 0.003264646463549339
952.0, 0.0015962100575503315
953.0, 0.0021459815011256054
954.0, 0.00369519125161249
955.0, 0.006944263222891992
956.0, 0.004941973833231872
957.0, 0.004788624845033485
958.0, 0.009627548805533683
959.0, 0.00936447847829381
960.0, 0.010057222493900944
961.0, 0.012530121495619096
962.0, 0.008415222811719468
963.0, 0.01059973378683699
964.0, 0.013108265503057659
965.0, 0.016125313305802684
966.0, 0.018798902398008535
967.0, 0.01244181724971005
968.0, 0.011720057911430179
969.0, 0.018299624783969966
970.0, 0.0176753029641997
971.0, 0.008860736429868316
972.0, 0.015732756588563653
973.0, 0.02571404367053386
974.0, 0.02804738389130556
975.0, 0.027181930424558878
976.0, 0.03220300817071822
977.0, 0.04431739604743524
978.0, 0.0543767499633792
979.0, 0.060274356956777735
980.0, 0.07495359506065202
981.0, 0.080667216575567
982.0, 0.09044404647280366
983.0, 0.1187702000932848
984.0, 0.1350778788457664
985.0, 0.151157908431226
986.0, 0.17757588954119385
987.0, 0.20679631200942203
988.0, 0.24262719328890545
989.0, 0.27654596779588975
990.0, 0.3261365427627513
991.0, 0.3724139314162221
992.0, 0.4264350673263247
993.0, 0.48553418322574227
994.0, 0.5454640855664853
995.0, 0.5895563685097107
996.0, 0.600564187222334
997.0, 0.5846430848890459
998.0, 0.5166925422214299
999.0, 0.43783878483610583
1000.0, 0.3681502378496612
1001.0, 0.31909385900086035
1002.0, 0.2900419979262174
1003.0, 0.2774994135736644
1004.0, 0.2782605585150416
1005.0, 0.28646642803220396
1006.0, 0.2992290324456383
1007.0, 0.3245615373063695
1008.0, 0.3696704176112972
1009.0, 0.43730350461431144
1010.0, 0.5341895685685365
1011.0, 0.6576715700645214
1012.0, 0.7930537232752763
1013.0, 0.9195888698953529
1014.0, 0.9985361127861918
1015.0, 0.9354616517264255
1016.0, 0.7458861562686379
1017.0, 0.5152271671216087
1018.0, 0.3290718725135738
1019.0, 0.20736093096954888
1020.0, 0.1351494126897219
1021.0, 0.09711966337806785
1022.0, 0.07498474712601337
1023.0, 0.053817862187634145
1024.0, 0.04279534416796493
1025.0, 0.031939262235933435
1026.0, 0.02620490613342066
1027.0, 0.021840199771778493
1028.0, 0.024923374686415554
1029.0, 0.02584582636832696
1030.0, 0.019520883822260658
1031.0, 0.015919953252191553
1032.0, 0.019117606531065017
1033.0, 0.01512197300571198
1034.0, 0.010593886456656171
1035.0, 0.018284445719036656
1036.0, 0.011889455683981368
1037.0, 0.005476920150329298
1038.0, 0.005985489826591612
1039.0, 0.004003255383963516
1040.0, 0.001850750934430362
1041.0, 0.0013977622774012047
1042.0, 0.001241016172810994
1043.0, 0.0014187370660609813
1044.0, 0.0011391180022089049
1045.0, 0.0018371279785878018
1046.0, 0.0028446798540889624
1047.0, 0.0028532948462471784
1048.0, 0.0030443022114075916
1049.0, 0.010455087860450723
1050.0, 0.012506023135265821
1051.0, 0.009520403455975657
1052.0, 0.004109227262881867
1053.0, 0.01282327727051517
1054.0, 0.010382150573259993
1055.0, 0.003597037856654506
1056.0, 0.0010676864062516371
1057.0, 0.002451452682008609
1058.0, 0.006197802680105923
1059.0, 0.005897097119461894
1060.0, 0.0031837107845302313
1061.0, 0.004356349327585791
1062.0, 0.004786449036101086
1063.0, 0.0058259176184659875
1064.0, 0.006152401040550013
1065.0, 0.0032242898113095603
1066.0, 0.0038177108114311126
1067.0, 0.004140879021622286
1068.0, 0.0018819043405637246
1069.0, 0.0017508561005637022
1070.0, 0.003905721063718932
1071.0, 0.00925350824971619
1072.0, 0.005549123442257398
1073.0, 0.004721435244633197
1074.0, 0.0022096397499819015
1075.0, 0.007137573964498658
1076.0, 0.009401491595319715
1077.0, 0.011543169335275008
1078.0, 0.014854860177035842
1079.0, 0.009853595308302023
1080.0, 0.009829972725712234
1081.0, 0.011828432802363247
1082.0, 0.009571195743359419
1083.0, 0.012067495075754699
1084.0, 0.013315393624659094
1085.0, 0.016313143527026758
1086.0, 0.016534823861434185
1087.0, 0.012601925141628405
1088.0, 0.009180736003998017
1089.0, 0.009816712214278956
1090.0, 0.01259555287557749
1091.0, 0.009852289372941407
1092.0, 0.011536346532183614
1093.0, 0.019328815914446233
1094.0, 0.0147999595899134
1095.0, 0.014896953793782527
1096.0, 0.011926460283528194
1097.0, 0.011463554991350475
1098.0, 0.018152373095764684
1099.0, 0.021121063778907215
1100.0, 0.02355826602032661
1101.0, 0.030549724835134157
1102.0, 0.035869635005053614
1103.0, 0.03362636146456667
1104.0, 0.03619793474637033
1105.0, 0.033393200270271414
1106.0, 0.03426887842369473
1107.0, 0.034512929162742734
1108.0, 0.03361828082042793
1109.0, 0.03662044109336111
1110.0, 0.039010630045871304
1111.0, 0.04406596225364317
1112.0, 0.05278998390457322
1113.0, 0.051515041450351476
1114.0, 0.05602362267544283
1115.0, 0.057979569714897476
1116.0, 0.05722463721026673
1117.0, 0.060078216304671715
1118.0, 0.06424845506435514
1119.0, 0.06530312055842652
1120.0, 0.06649603753245543
1121.0, 0.06956411873076236
1122.0, 0.06253500298000872
1123.0, 0.06620957460477427
1124.0, 0.058648582340242526
1125.0, 0.053369333076101505
1126.0, 0.047421681877227555
1127.0, 0.05129001826903608
1128.0, 0.053448843247164014
1129.0, 0.049154298310891055
1130.0, 0.045952293895446285
1131.0, 0.042471454776717515
1132.0, 0.04251228138724646
1133.0, 0.04294072972373173
1134.0, 0.047600825890765724
1135.0, 0.04569279158975632
1136.0, 0.04794568932302842
1137.0, 0.04722183142188867
1138.0, 0.048028197398323175
1139.0, 0.04996430477993158
1140.0, 0.04813250634824059
1141.0, 0.04696748608104906
1142.0, 0.047934699448483095
1143.0, 0.04291801369180779
1144.0, 0.03526227706997635
1145.0, 0.03829150379403828
1146.0, 0.03974108663355949
1147.0, 0.03895988875096325
1148.0, 0.03834879839785892
1149.0, 0.035705704925308945
1150.0, 0.03224693079746576
1151.0, 0.029651700524065332
1152.0, 0.02813966845243818
1153.0, 0.026902101111523993
1154.0, 0.02196456390026767
1155.0, 0.018574833223842586
1156.0, 0.018690570177237187
1157.0, 0.017679089854654727
1158.0, 0.015372850411384224
1159.0, 0.010009088606178503
1160.0, 0.00971162359825264
1161.0, 0.01047896179941784
1162.0, 0.006388089521882384
1163.0, 0.002434690646248483
1164.0, 0.0044098300000248785
1165.0, 0.007934332568523134
1166.0, 0.009505927698681598
1167.0, 0.00468062017960938
1168.0, 0.004085193557427212
1169.0, 0.008122392521484802
1170.0, 0.005038087410037825
1171.0, 0.008299590048676985
1172.0, 0.009702502932247122
1173.0, 0.005861551709192869
1174.0, 0.006146800372088608
1175.0, 0.008229783462547043
1176.0, 0.004832021240611579
1177.0, 0.011650503097635956
1178.0, 0.012948560837675307
1179.0, 0.008626536799475473
1180.0, 0.004444543395872332
1181.0, 0.003602988298779191
1182.0, 0.0071969860380997185
1183.0, 0.005455125465271757
1184.0, 0.0016306200260437541
1185.0, 0.001369896026390932
1186.0, 0.004429052064462605
1187.0, 0.0024740274049878416
1188.0, 0.002773604914415827
1189.0, 0.0018890264044538914
1190.0, 0.0011002168244993438
1191.0, 0.0019331225224174227
1192.0, 0.007321832638746857
1193.0, 0.004058399705650083
1194.0, 0.001582574365694212
1195.0, 0.00201877904327289
1196.0, 0.0033401056422491734
1197.0, 0.002690100346133534
1198.0, 0.0019356671294494658
1199.0, 0.0009479175577171101
1200.0, 0.0016632469853953185
1201.0, 0.004860563647111163
1202.0, 0.004053659121867504
1203.0, 0.0009466211185966407
1204.0, 0.002383072942374822
1205.0, 0.0037259514387681914
1206.0, 0.006653740450694764
1207.0, 0.005026868718989292
1208.0, 0.003752635033330186
1209.0, 0.002205572247912574
1210.0, 0.0009702612571685561
1211.0, 0.006372694475539044
1212.0, 0.012717895546647802
1213.0, 0.008292682725438306
1214.0, 0.01001321587514227
1215.0, 0.006178457211835441
1216.0, 0.010149647435836429
1217.0, 0.0073188984080183135
1218.0, 0.004314845861065031
1219.0, 0.005756198485487841
1220.0, 0.006085230244197928
1221.0, 0.006979756408713175
1222.0, 0.009990214126303782
1223.0, 0.010063264265540205
1224.0, 0.007505653329871096
1225.0, 0.007897175745540283
1226.0, 0.008627770213160982
1227.0, 0.004372605759186138
1228.0, 0.008215467450523204
1229.0, 0.0024288618941145394
1230.0, 0.006326380718807598
1231.0, 0.0058740073558757695
1232.0, 0.0037988758687110594
1233.0, 0.009284368472172368
1234.0, 0.008518503255758529
1235.0, 0.0038680671427638357
1236.0, 0.0019386145754091322
1237.0, 0.003026572275780392
1238.0, 0.002824348012988619
1239.0, 0.0026746161905465424
1240.0, 0.0028577209558382113
1241.0, 0.004796133648676708
1242.0, 0.006926990807415797
1243.0, 0.007072401585167742
1244.0, 0.00899612491412758
1245.0, 0.013437300116270616
1246.0, 0.009075465471971753
1247.0, 0.0062465525810441805
1248.0, 0.009697331884464023
1249.0, 0.01083710475516987
1250.0, 0.009951747728104223
1251.0, 0.0124181484763238
1252.0, 0.013563643971932044
1253.0, 0.008104611894778244
1254.0, 0.010318783945941103
1255.0, 0.009613584503945076
1256.0, 0.010232083154358206
1257.0, 0.009037168206297314
1258.0, 0.012992690409523375
1259.0, 0.013115788877668757
1260.0, 0.011615385422976429
1261.0, 0.01002954673661374
1262.0, 0.010443099510753251
1263.0, 0.009122781098959273
1264.0, 0.007128760575351624
1265.0, 0.010437413063679627
1266.0, 0.009762507782362331
1267.0, 0.008418309716541348
1268.0, 0.009874209791888505
1269.0, 0.016543360053933056
1270.0, 0.01765007160999038
1271.0, 0.015306364577268243
1272.0, 0.013761301436330954
1273.0, 0.011514360041712728
1274.0, 0.01160717348023263
1275.0, 0.01306478881833838
1276.0, 0.008906701031877273
1277.0, 0.007401379939628321
1278.0, 0.010821697513592623
1279.0, 0.00887654459271974
1280.0, 0.006727682013138073
1281.0, 0.007140673376086142
1282.0, 0.0028544491876738615
1283.0, 0.005564517715894216
1284.0, 0.004290908809260966
1285.0, 0.006554686889953032
1286.0, 0.0070497793198501905
1287.0, 0.011832040869993902
1288.0, 0.011217079464276044
1289.0, 0.010717154739850661
1290.0, 0.009648167503019825
1291.0, 0.007010231774174725
1292.0, 0.003732276914062282
1293.0, 0.0038944980930661166
1294.0, 0.007873415908152513
1295.0, 0.004637934755092905
1296.0, 0.0015742989995343516
1297.0, 0.0015782197693659987
1298.0, 0.006152915699927708
1299.0, 0.006431778452250291
1300.0, 0.0023725757808185336
1301.0, 0.0016784649835829828
1302.0, 0.0009728043403177846
1303, 0.0
1304, 0.0
1305, 0.0
1306, 0.0
1307, 0.0
1308, 0.0
1309, 0.0
1310, 0.0
1311, 0.0
1312, 0.0
1313, 0.0
1314, 0.0
1315, 0.0
1316, 0.0
1317, 0.0
1318, 0.0
1319, 0.0
1320, 0.0
1321, 0.0
1322, 0.0
1323, 0.0
1324, 0.0
1325, 0.0
1326, 0.0
1327, 0.0
1328, 0.0
1329, 0.0
1330, 0.0
1331, 0.0
1332, 0.0
1333, 0.0
1334, 0.0
1335, 0.0
1336, 0.0
1337, 0.0
1338, 0.0
1339, 0.0
1340, 0.0
1341, 0.0
1342, 0.0
1343, 0.0
1344, 0.0
1345, 0.0
1346, 0.0
1347, 0.0
1348, 0.0
1349, 0.0
1350, 0.0
1351, 0.0
1352, 0.0
1353, 0.0
1354, 0.0
1355, 0.0
1356, 0.0
1357, 0.0
1358, 0.0
1359, 0.0
1360, 0.0
1361, 0.0
1362, 0.0
1363, 0.0
1364, 0.0
1365, 0.0
1366, 0.0
1367, 0.0
1368, 0.0
1369, 0.0
1370, 0.0
1371, 0.0
1372, 0.0
1373, 0.0
1374, 0.0
1375, 0.0
1376, 0.0
1377, 0.0
1378, 0.0
1379, 0.0
1380, 0.0
1381, 0.0
1382, 0.0
1383, 0.0
1384, 0.0
1385, 0.0
1386, 0.0
1387, 0.0
1388, 0.0
1389, 0.0
1390, 0.0
1391, 0.0
1392, 0.0
1393, 0.0
1394, 0.0
1395, 0.0
1396, 0.0
1397, 0.0
1398, 0.0
1399, 0.0
1400, 0.0
1401, 0.0
1402, 0.0
1403, 0.0
1404, 0.0
1405, 0.0
1406, 0.0
1407, 0.0
1408, 0.0
1409, 0.0
1410, 0.0
1411, 0.0
1412, 0.0
1413, 0.0
1414, 0.0
1415, 0.0
1416, 0.0
1417, 0.0
1418, 0.0
1419, 0.0
1420, 0.0
1421, 0.0
1422, 0.0
1423, 0.0
1424, 0.0
1425, 0.0
1426, 0.0
1427, 0.0
1428, 0.0
1429, 0.0
1430, 0.0
1431, 0.0
1432, 0.0
1433, 0.0
1434, 0.0
1435, 0.0
1436, 0.0
1437, 0.0
1438, 0.0
1439, 0.0
1440, 0.0
1441, 0.0
1442, 0.0
1443, 0.0
1444, 0.0
1445, 0.0
1446, 0.0
1447, 0.0
1448, 0.0
1449, 0.0
1450, 0.0
1451, 0.0
1452, 0.0
1453, 0.0
1454, 0.0
1455, 0.0
1456, 0.0
1457, 0.0
1458, 0.0
1459, 0.0
1460, 0.0
1461, 0.0
1462, 0.0
1463, 0.0
1464, 0.0
1465, 0.0
1466, 0.0
1467, 0.0
1468, 0.0
1469, 0.0
1470, 0.0
1471, 0.0
1472, 0.0
1473, 0.0
1474, 0.0
1475, 0.0
1476, 0.0
1477, 0.0
1478, 0.0
1479, 0.0
1480, 0.0
1481, 0.0
1482, 0.0
1483, 0.0
1484, 0.0
1485, 0.0
1486, 0.0
1487, 0.0
1488, 0.0
1489, 0.0
1490, 0.0
1491, 0.0
1492, 0.0
1493, 0.0
1494, 0.0
1495, 0.0
1496, 0.0
1497, 0.0
1498, 0.0
1499, 0.0
1500, 0.0
1501, 0.0
1502, 0.0
1503, 0.0
1504, 0.0
1505, 0.0
1506, 0.0
1507, 0.0
1508, 0.0
1509, 0.0
1510, 0.0
1511, 0.0
1512, 0.0
1513, 0.0
1514, 0.0
1515, 0.0
1516, 0.0
1517, 0.0
1518, 0.0
1519, 0.0
1520, 0.0
1521, 0.0
1522, 0.0
1523, 0.0
1524, 0.0
1525, 0.0
1526, 0.0
1527, 0.0
1528, 0.0
1529, 0.0
1530, 0.0
1531, 0.0
1532, 0.0
1533, 0.0
1534, 0.0
1535, 0.0
1536, 0.0
1537, 0.0
1538, 0.0
1539, 0.0
1540, 0.0
1541, 0.0
1542, 0.0
1543, 0.0
1544, 0.0
1545, 0.0
1546, 0.0
1547, 0.0
1548, 0.0
1549, 0.0
1550, 0.0
1551, 0.0
1552, 0.0
1553, 0.0
1554, 0.0
1555, 0.0
1556, 0.0
1557, 0.0
1558, 0.0
1559, 0.0
1560, 0.0
1561, 0.0
1562, 0.0
1563, 0.0
1564, 0.0
1565, 0.0
1566, 0.0
1567, 0.0
1568, 0.0
1569, 0.0
1570, 0.0
1571, 0.0
1572, 0.0
1573, 0.0
1574, 0.0
1575, 0.0
1576, 0.0
1577, 0.0
1578, 0.0
1579, 0.0
1580, 0.0
1581, 0.0
1582, 0.0
1583, 0.0
1584, 0.0
1585, 0.0
1586, 0.0
1587, 0.0
1588, 0.0
1589, 0.0
1590, 0.0
1591, 0.0
1592, 0.0
1593, 0.0
1594, 0.0
1595, 0.0
1596, 0.0
1597, 0.0
1598, 0.0
1599, 0.0
