30, 0.0
31, 0.0
32, 0.0
33, 0.0
34, 0.0
35, 0.0
36, 0.0
37, 0.0
38, 0.0
39, 0.0
40, 0.0
41, 0.0
42, 0.0
43, 0.0
44, 0.0
45, 0.0
46, 0.0
47, 0.0
48, 0.0
49, 0.0
50, 0.0
51, 0.0
52, 0.0
53, 0.0
54, 0.0
55, 0.0
56, 0.0
57, 0.0
58, 0.0
59, 0.0
60, 0.0
61, 0.0
62, 0.0
63, 0.0
64, 0.0
65, 0.0
66, 0.0
67, 0.0
68, 0.0
69, 0.0
70, 0.0
71, 0.0
72, 0.0
73, 0.0
74, 0.0
75, 0.0
76, 0.0
77, 0.0
78, 0.0
79, 0.0
80, 0.0
81, 0.0
82, 0.0
83, 0.0
84, 0.0
85, 0.0
86, 0.0
87, 0.0
88, 0.0
89, 0.0
90, 0.0
91, 0.0
92, 0.0
93, 0.0
94, 0.0
95, 0.0
96, 0.0
97, 0.0
98, 0.0
99, 0.0
100, 0.0
101, 0.0
102, 0.0
103, 0.0
104, 0.0
105, 0.0
106, 0.0
107, 0.0
108, 0.0
109, 0.0
110, 0.0
111, 0.0
112, 0.0
113, 0.0
114, 0.0
115, 0.0
116, 0.0
117, 0.0
118, 0.0
119, 0.0
120, 0.0
121, 0.0
122, 0.0
123, 0.0
124, 0.0
125, 0.0
126, 0.0
127, 0.0
128, 0.0
129, 0.0
130, 0.0
131, 0.0
132.0, 0.00014255158989908063
133.0, 0.0005128154597668312
134.0, 0.0013602312943485852
135.0, 0.006787863767227146
136.0, 0.015646953239419573
137.0, 0.02626227078908995
138.0, 0.04049969170582039
139.0, 0.0563741737044029
140.0, 0.07306875800218239
141.0, 0.08511860947748105
142.0, 0.093927458424037
143.0, 0.09646983731076386
144.0, 0.08751186596969282
145.0, 0.07902849654292013
146.0, 0.0670048074374707
147.0, 0.052251936955349215
148.0, 0.04124265504546271
149.0, 0.030361916946058738
150.0, 0.02038945263222556
151.0, 0.011922592192233378
152.0, 0.006989642245606547
153.0, 0.003050545558471219
154.0, 0.0005311642013257258
155.0, 0.0009668788663448664
156.0, 0.003821918399077813
157.0, 0.00844392174545448
158.0, 0.014505730873889768
159.0, 0.018388801224172566
160.0, 0.019929378156519947
161.0, 0.019813368552682648
162.0, 0.01839711212305959
163.0, 0.01275376366345347
164.0, 0.006180920794637891
165.0, 0.00020247574998263752
166.0, 0.00035729764309311654
167.0, 0.001721496099602573
168.0, 0.004776937515190269
169.0, 0.009947154867814037
170.0, 0.009492366993530784
171.0, 0.013843452518049271
172.0, 0.020755937050141608
173.0, 0.026445293024318136
174.0, 0.04476933946985406
175.0, 0.07056271974349997
176.0, 0.10278594394333174
177.0, 0.140027368008359
178.0, 0.16161210002677948
179.0, 0.16492096658865796
180.0, 0.1443857726481177
181.0, 0.1150498664426345
182.0, 0.08264405709224833
183.0, 0.051864745596063196
184.0, 0.035711133997982036
185.0, 0.02481987512818964
186.0, 0.01672080490880929
187.0, 0.01098264604234271
188.0, 0.009798095133451373
189.0, 0.007359707062809623
190.0, 0.005030045393540002
191.0, 0.004309157733494705
192.0, 0.008275873794204674
193.0, 0.009103353689547582
194.0, 0.007078331427806917
195.0, 0.005438680295053053
196.0, 0.005076429997033591
197.0, 0.0039060684129895345
198.0, 0.001284892282272265
199.0, 0.003108526723766781
200.0, 0.0028975670747498784
201.0, 0.002138392370440082
202.0, 0.0026457720023504014
203.0, 0.003955331875011193
204.0, 0.004420367127681688
205.0, 0.0038593955976944576
206.0, 0.002176935283152253
207.0, 0.001725795622000799
208.0, 0.0029619381476570636
209.0, 0.006238380296178322
210.0, 0.011537255774525157
211.0, 0.013065150828894133
212.0, 0.013809991136781516
213.0, 0.01772545028431457
214.0, 0.025398869994160134
215.0, 0.030183981915569504
216.0, 0.03302359821368422
217.0, 0.04134211425707863
218.0, 0.050564875796817434
219.0, 0.06408628149096779
220.0, 0.0836606260284511
221.0, 0.1072474967189396
222.0, 0.12566243935857857
223.0, 0.13584279227844137
224.0, 0.13214665002000478
225.0, 0.11704396089115518
226.0, 0.09684689696076872
227.0, 0.07611522402737357
228.0, 0.06964213904309606
229.0, 0.06759221681793255
230.0, 0.07010616791248658
231.0, 0.077274922197509
232.0, 0.08399972745874439
233.0, 0.08348163058374504
234.0, 0.07784137411051274
235.0, 0.0683507778192096
236.0, 0.056906273890513635
237.0, 0.04637973483640963
238.0, 0.036430375538194185
239.0, 0.025542113985620746
240.0, 0.020393286004316672
241.0, 0.016779622925982375
242.0, 0.013448936238998763
243.0, 0.009054201021595041
244.0, 0.008965209300603856
245.0, 0.01156062835315565
246.0, 0.015978088802532354
247.0, 0.02198247888234432
248.0, 0.02844885301441222
249.0, 0.03551803713254698
250.0, 0.04364608386557898
251.0, 0.043108269802880655
252.0, 0.039861120774862445
253.0, 0.03494323909818602
254.0, 0.02820994088544186
255.0, 0.0221863805661814
256.0, 0.01812647695865388
257.0, 0.016654957151536344
258.0, 0.01224346589656558
259.0, 0.009827487356944314
260.0, 0.008101339799360055
261.0, 0.0055552690394478355
262.0, 0.006879093483357352
263.0, 0.009686998542132844
264.0, 0.012082848074514567
265.0, 0.008843438062975724
266.0, 0.008865600028292538
267.0, 0.006485088822944886
268.0, 0.0013873632767636714
269.0, 0.005361016622783766
270.0, 0.003796916276409517
271.0, 0.0012034407514398108
272.0, 0.0004687984043505988
273.0, 0.0018786403968426481
274.0, 0.002269216416125367
275.0, 0.0024921140493360315
276.0, 0.00391096408594619
277.0, 0.0038208238106214416
278.0, 0.004238952766568507
279.0, 0.004870015752466384
280.0, 0.0037283366973413614
281.0, 0.003339460939270342
282.0, 0.003439916426625666
283.0, 0.004212032327049121
284.0, 0.008193864536934752
285.0, 0.00933685004653096
286.0, 0.01100964694375213
287.0, 0.015694016598604775
288.0, 0.024767254078445548
289.0, 0.032422423615739174
290.0, 0.036980925317225806
291.0, 0.0353775374852112
292.0, 0.02662287825195508
293.0, 0.020245504916570897
294.0, 0.016301376557153233
295.0, 0.01127726457945201
296.0, 0.008684874492713966
297.0, 0.008237423746993822
298.0, 0.009810498158247324
299.0, 0.012445243267781202
300.0, 0.013708040226721474
301.0, 0.015694708439856257
302.0, 0.019697455518349487
303.0, 0.020696331938535158
304.0, 0.019498551279528605
305.0, 0.015799308087477065
306.0, 0.008862021298339295
307.0, 0.011931639399661008
308.0, 0.012396925115040454
309.0, 0.01050520172226177
310.0, 0.009158492927107595
311.0, 0.00881664346919978
312.0, 0.008457544042813459
313.0, 0.00809939219379697
314.0, 0.009002060412583677
315.0, 0.008885169763982856
316.0, 0.008079578379603373
317.0, 0.006819059725845437
318.0, 0.00709714328245186
319.0, 0.0060367618579953
320.0, 0.006103166419338539
321.0, 0.009421407172780796
322.0, 0.00582320495413457
323.0, 0.003883441480610976
324.0, 0.0034323819246975286
325.0, 0.004175499026649879
326.0, 0.008769599952913895
327.0, 0.011639292446819424
328.0, 0.013922489380224638
329.0, 0.020498356785388597
330.0, 0.03063438037490777
331.0, 0.03936765389945973
332.0, 0.0460324436173934
333.0, 0.053313084957487086
334.0, 0.050955195907536374
335.0, 0.0410824174502726
336.0, 0.02590403927819541
337.0, 0.028032886949664097
338.0, 0.026166867408642908
339.0, 0.025583639611628926
340.0, 0.03028943755757188
341.0, 0.02867165962853063
342.0, 0.03008279064994789
343.0, 0.03274259226677593
344.0, 0.03440553473356868
345.0, 0.02902612131927455
346.0, 0.02619563562390632
347.0, 0.024916389619016554
348.0, 0.021653010205452718
349.0, 0.021888451650558208
350.0, 0.022737815127801656
351.0, 0.02369913779731542
352.0, 0.024660635653903546
353.0, 0.026966273817892992
354.0, 0.026833454404378426
355.0, 0.023909185716702374
356.0, 0.023697236086839636
357.0, 0.019730291178520033
358.0, 0.01612061150318437
359.0, 0.015044784578006376
360.0, 0.019061300557130317
361.0, 0.020735508527298427
362.0, 0.023279838792768577
363.0, 0.02918233884706687
364.0, 0.0363352900413079
365.0, 0.047610716222563895
366.0, 0.06588619688129638
367.0, 0.09527743798241826
368.0, 0.11998773102102987
369.0, 0.13744665437591996
370.0, 0.14472567848065898
371.0, 0.1355551131200241
372.0, 0.10985543036013701
373.0, 0.08572148706266333
374.0, 0.0663371942233295
375.0, 0.0548891635988939
376.0, 0.04519449091211113
377.0, 0.03702168338410255
378.0, 0.030918227418041604
379.0, 0.029529490804192877
380.0, 0.028521985321991895
381.0, 0.0284779909712291
382.0, 0.029457693244490067
383.0, 0.030429087163782825
384.0, 0.032659652508886874
385.0, 0.037993814777060854
386.0, 0.047215558973183844
387.0, 0.057487825022921
388.0, 0.0714256199539315
389.0, 0.09110861345381459
390.0, 0.11836548584746058
391.0, 0.15757709904181227
392.0, 0.20785681626969146
393.0, 0.25529330259550126
394.0, 0.28672216110624016
395.0, 0.2724482149170845
396.0, 0.24291276387042246
397.0, 0.20193319334148943
398.0, 0.1532397122447638
399.0, 0.11493853265471406
400.0, 0.08873695764027412
401.0, 0.071698237405433
402.0, 0.05933931344573975
403.0, 0.048166126737492834
404.0, 0.04115004004792829
405.0, 0.03813624530986152
406.0, 0.038412639874001696
407.0, 0.03743289921914787
408.0, 0.037058248975774075
409.0, 0.037709401665336394
410.0, 0.039864017017299594
411.0, 0.049352791737072084
412.0, 0.06127850516786816
413.0, 0.07416210227895503
414.0, 0.08626455705260846
415.0, 0.0938995188306009
416.0, 0.09965211821271343
417.0, 0.10153780470509002
418.0, 0.08500237567497186
419.0, 0.07390394917148724
420.0, 0.0618827261424207
421.0, 0.047653996895275164
422.0, 0.03868499826832424
423.0, 0.030628573762648145
424.0, 0.02435453724441646
425.0, 0.020074826298594757
426.0, 0.015336301922316341
427.0, 0.01222311414997156
428.0, 0.010044236934270858
429.0, 0.008519373561719317
430.0, 0.008541090244713175
431.0, 0.008914268231664971
432.0, 0.007765810067295088
433.0, 0.004345282731257398
434.0, 0.010773207523916764
435.0, 0.01521145456231245
436.0, 0.016914475649438664
437.0, 0.015247110297434547
438.0, 0.01220096617683852
439.0, 0.012717194649912642
440.0, 0.012453550211034153
441.0, 0.007536215868808951
442.0, 0.00804109993714326
443.0, 0.006498183220144042
444.0, 0.004237235839493005
445.0, 0.002612128372738237
446.0, 0.0023910822257488824
447.0, 0.00574206581271902
448.0, 0.007197086130211758
449.0, 0.0003059334838797388
450.0, 0.005989455557768
451.0, 0.006956280228116316
452.0, 0.006088778449067047
453.0, 0.0075552349313904674
454.0, 0.003239044530603647
455.0, 0.0011565326809174982
456.0, 0.0014768706821508156
457.0, 0.004116190072316988
458.0, 0.004035482799007873
459.0, 0.003538358777362086
460.0, 0.0038687048884915917
461.0, 0.006745007304996327
462.0, 0.0035403044148997805
463.0, 0.004215894177051035
464.0, 0.005857647066991899
465.0, 0.0030146475929761496
466.0, 0.0017726315774178629
467.0, 0.001046473201687234
468.0, 0.0009140910218872705
469.0, 0.001647941793047165
470.0, 0.004390253296228617
471.0, 0.0033902168401952577
472.0, 0.0009263411205603111
473.0, 0.0014216175713135265
474.0, 0.002585569496750502
475.0, 0.0023616374858507136
476.0, 0.003169139142212326
477.0, 0.00938398403403588
478.0, 0.006016704115960333
479.0, 0.003274412017797407
480.0, 0.003951646792233541
481.0, 0.011601714109148209
482.0, 0.00986705010214649
483.0, 0.008076480423470788
484.0, 0.00971163250056536
485.0, 0.01950648533124735
486.0, 0.0187640811131948
487.0, 0.01371899348687634
488.0, 0.01024246665240074
489.0, 0.016943303697595
490.0, 0.012580326209788549
491.0, 0.00949414273910916
492.0, 0.0090261024707717
493.0, 0.012146858479837104
494.0, 0.007530079793631247
495.0, 0.005062130542382023
496.0, 0.005310924560389609
497.0, 0.008434122548249086
498.0, 0.006042284601394188
499.0, 0.005546507877054611
500.0, 0.005412909089888617
501.0, 0.0032809977859511313
502.0, 0.0039384172434271374
503.0, 0.004496926036247521
504.0, 0.005281416430885205
505.0, 0.006769274055302389
506.0, 0.00751556078320677
507.0, 0.009351833169919695
508.0, 0.011681981978940948
509.0, 0.013851455505988038
510.0, 0.014681562773909439
511.0, 0.015795412475827
512.0, 0.016823226065939476
513.0, 0.01739818712924471
514.0, 0.01645851527091755
515.0, 0.016179061042326432
516.0, 0.014979504301239425
517.0, 0.011739618916391395
518.0, 0.011038284105025825
519.0, 0.010846018323133333
520.0, 0.012604842661551116
521.0, 0.01680096617783157
522.0, 0.014772689033846955
523.0, 0.010133148458495077
524.0, 0.008445957167666144
525.0, 0.012027851820079986
526.0, 0.009650427722242163
527.0, 0.0070919756149932225
528.0, 0.004987692461276977
529.0, 0.003940219888596916
530.0, 0.00611913805666167
531.0, 0.0030748896928072447
532.0, 0.003973337633495985
533.0, 0.009573159462758883
534.0, 0.0026201957914554317
535.0, 0.004761871037277936
536.0, 0.004917483208652083
537.0, 0.002235393121829605
538.0, 0.008835818033960843
539.0, 0.006755629332037759
540.0, 0.0033003430617354187
541.0, 0.0012691916820470831
542.0, 0.003928850442948218
543.0, 0.004516079420725039
544.0, 0.004083358031042038
545.0, 0.0039058645651536077
546.0, 0.006773120147614658
547.0, 0.009552645735597493
548.0, 0.006612142929384138
549.0, 0.0016484309773145479
550.0, 0.0033442246720514117
551.0, 0.0046106013346590095
552.0, 0.003485232911998197
553.0, 0.0013881132245287967
554.0, 0.0006778692396644858
555.0, 0.003680444985132996
556.0, 0.004139803849858896
557.0, 0.004406106697175028
558.0, 0.007358581927098616
559.0, 0.004374466998301158
560.0, 0.003089229324216158
561.0, 0.0025615747001242325
562.0, 0.0019575067579264242
563.0, 0.0009998896202386119
564.0, 0.0009109265450429614
565.0, 0.0016411881206007855
566.0, 0.002795233891998904
567.0, 0.0006974718108235157
568.0, 0.0030988205482729244
569.0, 0.004155919003874237
570.0, 0.0025184429026974074
571.0, 0.0058425160201594
572.0, 0.0035630776049478804
573.0, 0.001836508263771867
574.0, 0.0023676501748764725
575.0, 0.00429760163724159
576.0, 0.0033514007504161234
577.0, 0.005525241429193945
578.0, 0.008200572520501409
579.0, 0.0014470058348481094
580.0, 0.006432205070568064
581.0, 0.006647793147417098
582.0, 0.00441474563142661
583.0, 0.007309072771346519
584.0, 0.005847824210756043
585.0, 0.00660492178601066
586.0, 0.0070154234821008556
587.0, 0.0036391759638073045
588.0, 0.004603590418345835
589.0, 0.003913407815770726
590.0, 0.0031771502737801796
591.0, 0.003592780046965143
592.0, 0.0028661771252280113
593.0, 0.002636077905457377
594.0, 0.003445270038612336
595.0, 0.0050010422044565635
596.0, 0.003065818090783661
597.0, 0.0015129566794174743
598.0, 0.0006015921521763212
599.0, 0.0008656524944140908
600.0, 0.00408357601340405
601.0, 0.002496278354565228
602.0, 0.001764930750717454
603.0, 0.0025929360900031288
604.0, 0.0037934296629959802
605.0, 0.0034496853524601068
606.0, 0.004259922602497684
607.0, 0.0062870712687843385
608.0, 0.009166552467082178
609.0, 0.006418101309678643
610.0, 0.003189046683327471
611.0, 0.0011381338006670298
612.0, 0.0016796049880001
613.0, 0.004018157837114035
614.0, 0.006402701103672227
615.0, 0.006719002810474029
616.0, 0.0040709833356582775
617.0, 0.0016496370908209847
618.0, 0.007045407605579973
619.0, 0.009007995647262877
620.0, 0.0061047253366217444
621.0, 0.009251983533004215
622.0, 0.005558282489908131
623.0, 0.003264142338477523
624.0, 0.004452546464649913
625.0, 0.010017277628987194
626.0, 0.00797181929710857
627.0, 0.010660863864997445
628.0, 0.015537214044900285
629.0, 0.01770599030959972
630.0, 0.01673015967305549
631.0, 0.017250987891930622
632.0, 0.018186450133083943
633.0, 0.018914841724120647
634.0, 0.023284613022116877
635.0, 0.022868621211073067
636.0, 0.02222633226250906
637.0, 0.02396913971392286
638.0, 0.030511356805195313
639.0, 0.02956694340084181
640.0, 0.027647548890478876
641.0, 0.027304467493504684
642.0, 0.03093217980702229
643.0, 0.03258739481098803
644.0, 0.031096906754438516
645.0, 0.030100657620714566
646.0, 0.03494750022694728
647.0, 0.03675140595238598
648.0, 0.03764604955370292
649.0, 0.037314194230391715
650.0, 0.03640389352004772
651.0, 0.04612358574669375
652.0, 0.04476933285785973
653.0, 0.04761045104932349
654.0, 0.057576108897201
655.0, 0.05659258511886992
656.0, 0.05934278774826874
657.0, 0.06289240106085446
658.0, 0.06785021906950946
659.0, 0.07707460662504248
660.0, 0.08376852819245686
661.0, 0.09853091659671405
662.0, 0.1165999157824212
663.0, 0.13133747674864074
664.0, 0.15567526729632114
665.0, 0.18817822541355902
666.0, 0.2307590937595109
667.0, 0.28521194941367917
668.0, 0.35706516979625164
669.0, 0.4492740514150791
670.0, 0.5686399014865344
671.0, 0.7067167024616323
672.0, 0.8300707682738925
673.0, 0.9506020921211437
674.0, 0.9752660316093527
675.0, 0.9187286938896528
676.0, 0.826058944450916
677.0, 0.694214278640861
678.0, 0.5718562994506058
679.0, 0.4617063578842883
680.0, 0.36576311920583016
681.0, 0.293020576014943
682.0, 0.23688924522195134
683.0, 0.1923069572781771
684.0, 0.15770953403701837
685.0, 0.13498929171205953
686.0, 0.11481464854683594
687.0, 0.09947748188585366
688.0, 0.0886063270717023
689.0, 0.08075661347657509
690.0, 0.06673146586878627
691.0, 0.060032258139642226
692.0, 0.05539490793617779
693.0, 0.04833431362935206
694.0, 0.0448173934748787
695.0, 0.04366543744279419
696.0, 0.04191866497425261
697.0, 0.037791702706479705
698.0, 0.029188848016440224
699.0, 0.03237987246120372
700.0, 0.029345418394899448
701.0, 0.025127582609871288
702.0, 0.03280859980230825
703.0, 0.029185392164780867
704.0, 0.02510337102388424
705.0, 0.021844050625264906
706.0, 0.019565925954701933
707.0, 0.011944340249628232
708.0, 0.02141740844056501
709.0, 0.025650281936887023
710.0, 0.02203721713774013
711.0, 0.02785673951054364
712.0, 0.01830783912127463
713.0, 0.016476731081661436
714.0, 0.020604271716317003
715.0, 0.023856723863787697
716.0, 0.010163327296774567
717.0, 0.015330606099469674
718.0, 0.020453319782877292
719.0, 0.015153082034030414
720.0, 0.012392541959284402
721.0, 0.009636760166499414
722.0, 0.012731778782268636
723.0, 0.0177892913325349
724.0, 0.012348215238560079
725.0, 0.010616630520275935
726.0, 0.01410381889582332
727.0, 0.01711198433064383
728.0, 0.01423013453584314
729.0, 0.012456131017005823
730.0, 0.013389132394529348
731.0, 0.011548240050035102
732.0, 0.008818782998690763
733.0, 0.021296589226616747
734.0, 0.017108258061938924
735.0, 0.011102009296404985
736.0, 0.010334528422657226
737.0, 0.021348994786828557
738.0, 0.02619797291094304
739.0, 0.02600198691243486
740.0, 0.026909694441896625
741.0, 0.03164385311668314
742.0, 0.03192859336685576
743.0, 0.02886118451583902
744.0, 0.03149423711448792
745.0, 0.03595689660659998
746.0, 0.029494512091001283
747.0, 0.03433900885634906
748.0, 0.04099472883370486
749.0, 0.045581336854571865
750.0, 0.04657678617697351
751.0, 0.05810645304132246
752.0, 0.05419246112204705
753.0, 0.04686683256011716
754.0, 0.040099501562686324
755.0, 0.03312235130054446
756.0, 0.028578167950650275
757.0, 0.02391657061245599
758.0, 0.020079108630133926
759.0, 0.01805046144086067
760.0, 0.013539517275006328
761.0, 0.011021344149469339
762.0, 0.009563748396771684
763.0, 0.00903515834882541
764.0, 0.010440410510303897
765.0, 0.008536349138636297
766.0, 0.009533129046285062
767.0, 0.010754611998720688
768.0, 0.008136723438511665
769.0, 0.01126228955781296
770.0, 0.010724441764240287
771.0, 0.008129699714100288
772.0, 0.006124850098530299
773.0, 0.011707224252215693
774.0, 0.0051249124533696965
775.0, 0.0030559845062554255
776.0, 0.005271159059420129
777.0, 0.007618449776204256
778.0, 0.008020436798445196
779.0, 0.007154853048090869
780.0, 0.00516888241230336
781.0, 0.002924718110567116
782.0, 0.003581441034421029
783.0, 0.009425182535982537
784.0, 0.010625771127292063
785.0, 0.007019745757561936
786.0, 0.0012218086472200254
787.0, 0.007561852053611174
788.0, 0.0048403306934097605
789.0, 0.002694196876751234
790.0, 0.005726824511047805
791.0, 0.010827953163414847
792.0, 0.008111347884807047
793.0, 0.007688197786377027
794.0, 0.006967039726370213
795.0, 0.0008653682452886028
796.0, 0.010667845007976944
797.0, 0.0070679270146542525
798.0, 0.0030533989227453425
799.0, 0.0044121299085397945
800.0, 0.007416536286932087
801.0, 0.0030299190463917384
802.0, 0.0016457947923334902
803.0, 0.002208569476395216
804.0, 0.0017930536771629739
805.0, 0.005158678692867218
806.0, 0.003093919062901868
807.0, 0.002368599691318022
808.0, 0.004636761104758139
809.0, 0.005544222096234023
810.0, 0.0017662767421361262
811.0, 0.0018301602034450008
812.0, 0.005013700476205253
813.0, 0.00875350691001487
814.0, 0.004164518513914564
815.0, 0.005642544605576421
816.0, 0.010390324319328896
817.0, 0.014446220907319236
818.0, 0.010757501469475171
819.0, 0.00599335131242591
820.0, 0.004486108158364003
821.0, 0.005306104360028932
822.0, 0.006951430149029092
823.0, 0.006612098086686592
824.0, 0.005846428214838112
825.0, 0.005807418761481901
826.0, 0.005911729446310315
827.0, 0.004569510075812041
828.0, 0.00787825934122899
829.0, 0.008162706115029098
830.0, 0.005195959179416146
831.0, 0.0018484598340122718
832.0, 0.010912677278234379
833.0, 0.007584283507517369
834.0, 0.007975939136999219
835.0, 0.008757535021989667
836.0, 0.0026910987176718987
837.0, 0.0020429077174747155
838.0, 0.003124190438586097
839.0, 0.005586206540673891
840.0, 0.008534001482589216
841.0, 0.009932009283628706
842.0, 0.007782820980428093
843.0, 0.008018815830135636
844.0, 0.009831653121352344
845.0, 0.010929237707516193
846.0, 0.003072548124170793
847.0, 0.005957599260932927
848.0, 0.0047670405538307965
849.0, 0.0003126201899845468
850.0, 0.0009510638937187753
851.0, 0.006529038758659711
852.0, 0.007810292624086102
853.0, 0.0057638773071093195
854.0, 0.0020456254039184
855.0, 0.00022831706641475273
856.0, 0.002180238927608412
857.0, 0.004792192750691606
858.0, 0.008363151065359273
859.0, 0.012694531507856457
860.0, 0.0075565651870681694
861.0, 0.0034219348189931877
862.0, 0.001507562475474195
863.0, 0.003893826838824453
864.0, 0.013715443592948203
865.0, 0.006913157496051538
866.0, 0.0047112033082137164
867.0, 0.006072524487441437
868.0, 0.00852699341222337
869.0, 0.006373917308689388
870.0, 0.009759283172007435
871.0, 0.005999737823070512
872.0, 0.003192738386985165
873.0, 0.01078887157796317
874.0, 0.00888111136054004
875.0, 0.013166597417056211
876.0, 0.010032698715914218
877.0, 0.00188705214066052
878.0, 0.002474190267229797
879.0, 0.0055223006046004235
880.0, 0.003075067051032136
881.0, 0.002951036608820562
882.0, 0.006712907422605215
883.0, 0.001705245894583039
884.0, 0.010161599931462626
885.0, 0.008977479494706585
886.0, 0.005545846397037941
887.0, 0.008900384012365887
888.0, 0.004974953871721519
889.0, 0.0033107056775527536
890.0, 0.006282503736471179
891.0, 0.010564888912587115
892.0, 0.009615731519544117
893.0, 0.006688256874413183
894.0, 0.0028276010172249115
895.0, 0.0030544091115899032
896.0, 0.006890630229532245
897.0, 0.005962315549306112
898.0, 0.007854696713316128
899.0, 0.008252251245302948
900.0, 0.0082259886422275
901.0, 0.007869526910634183
902.0, 0.0015591066851706205
903.0, 0.0018182443802302122
904.0, 0.005474425654072038
905.0, 0.007675615686104947
906.0, 0.004268829429776636
907.0, 0.008597780951863244
908.0, 0.01252816063240223
909.0, 0.013953726337545701
910.0, 0.013530175621412078
911.0, 0.013843323082976276
912.0, 0.015909410636985782
913.0, 0.017792523260964404
914.0, 0.019139099654098216
915.0, 0.01848614510280791
916.0, 0.012013743316174861
917.0, 0.00930231844327407
918.0, 0.015928600059181758
919.0, 0.019095122234630994
920.0, 0.013562342213468628
921.0, 0.026177253102692886
922.0, 0.023384993085922654
923.0, 0.027929955042866543
924.0, 0.03512855662859589
925.0, 0.036660117302589175
926.0, 0.0465083902566471
927.0, 0.05346220945014587
928.0, 0.06451636160293601
929.0, 0.0768918996054932
930.0, 0.08295115659034845
931.0, 0.07972286358106911
932.0, 0.079946546693074
933.0, 0.07782533315664356
934.0, 0.06966284611927194
935.0, 0.05308262527077746
936.0, 0.055670266439368135
937.0, 0.043999337515889796
938.0, 0.03481046207275045
939.0, 0.035973215013758136
940.0, 0.037770753374102996
941.0, 0.027400417691344235
942.0, 0.023294300870382496
943.0, 0.022408373257760236
944.0, 0.0216126977660863
945.0, 0.024910873732164256
946.0, 0.02621543723769974
947.0, 0.02535552667407045
948.0, 0.024891337381117744
949.0, 0.026725791535834726
950.0, 0.024385118019966304
951.0, 0.016921820550838285
952.0, 0.015133406755604966
953.0, 0.016467993623749223
954.0, 0.013912698895032032
955.0, 0.007876548587961696
956.0, 0.01272270838472034
957.0, 0.010472774361347673
958.0, 0.004423275238776032
959.0, 0.00972978359652929
960.0, 0.004683016194417338
961.0, 0.005425021842956971
962.0, 0.0053855051603941915
963.0, 0.004019514862969468
964.0, 0.006288408123391157
965.0, 0.003516988016548814
966.0, 0.0034753503311648146
967.0, 0.005792004213306147
968.0, 0.007558687463088503
969.0, 0.0019231591514028957
970.0, 0.006389722680039298
971.0, 0.006100637901538212
972.0, 0.00492760469885967
973.0, 0.00493013519529809
974.0, 0.0026559638624776977
975.0, 0.005782628126317707
976.0, 0.006935834139467152
977.0, 0.005771134808858759
978.0, 0.004038077282949407
979.0, 0.007824277572641737
980.0, 0.0034842021707675933
981.0, 0.007328083832507074
982.0, 0.009799550363819156
983.0, 0.0050431671961386915
984.0, 0.015532716503101441
985.0, 0.013403837006733307
986.0, 0.008171809016611282
987.0, 0.0052286403319019995
988.0, 0.00727838101838634
989.0, 0.007237897145270783
990.0, 0.0072051180777640425
991.0, 0.008108506332725047
992.0, 0.008799535544565298
993.0, 0.00768766694607172
994.0, 0.003605306622095504
995.0, 0.004683409592772777
996.0, 0.007911350833347704
997.0, 0.007714842448875919
998.0, 0.00025066244093671555
999.0, 0.0027507238879240156
1000.0, 0.007748412741790986
1001.0, 0.010285951101230031
1002.0, 0.008369338911868335
1003.0, 0.0023579011229527234
1004.0, 0.0041370890130567484
1005.0, 0.0061280714884675855
1006.0, 0.006281041555214806
1007.0, 0.007357473294201071
1008.0, 0.012475976419929351
1009.0, 0.006377151281212141
1010.0, 0.008593204572787994
1011.0, 0.007897045014870372
1012.0, 0.006555659875558381
1013.0, 0.01117490429638883
1014.0, 0.0096714534940591
1015.0, 0.013319469068467076
1016.0, 0.0125292538786466
1017.0, 0.013019326352828074
1018.0, 0.02460310867403733
1019.0, 0.020667139494490398
1020.0, 0.020550443384893632
1021.0, 0.025452521512317774
1022.0, 0.03195925813028511
1023.0, 0.03556546935843532
1024.0, 0.04688686385872479
1025.0, 0.053096408122248695
1026.0, 0.06077275978602229
1027.0, 0.07723186874138592
1028.0, 0.10586390531067161
1029.0, 0.10480420219869599
1030.0, 0.11548609863755768
1031.0, 0.11348970480462466
1032.0, 0.09925661394708543
1033.0, 0.08260474064320338
1034.0, 0.06173152440103624
1035.0, 0.04993789444400849
1036.0, 0.039252282489650486
1037.0, 0.03327628080050186
1038.0, 0.03630775346605725
1039.0, 0.026104669233363454
1040.0, 0.028793471822970623
1041.0, 0.02643914805366097
1042.0, 0.02198302559735164
1043.0, 0.023283595329959886
1044.0, 0.02709994841800535
1045.0, 0.02239367158497387
1046.0, 0.022965870986309304
1047.0, 0.027709110781618758
1048.0, 0.03081838502033424
1049.0, 0.023151453690399212
1050.0, 0.030882786593073044
1051.0, 0.03263127771614035
1052.0, 0.030341088619717908
1053.0, 0.030556709181914526
1054.0, 0.03843655624805673
1055.0, 0.04401500571100112
1056.0, 0.05597518167855933
1057.0, 0.06359465329562124
1058.0, 0.06384889578387265
1059.0, 0.08543804026220582
1060.0, 0.09957006347360671
1061.0, 0.10237876938762944
1062.0, 0.09969759181482221
1063.0, 0.09472200978760936
1064.0, 0.08184901787989485
1065.0, 0.07453904099726147
1066.0, 0.06667716128499059
1067.0, 0.06354102868459426
1068.0, 0.06742672101167926
1069.0, 0.07505722810360692
1070.0, 0.06882677107654137
1071.0, 0.06652380866552178
1072.0, 0.06297741471822323
1073.0, 0.05612801670518871
1074.0, 0.04807452619944008
1075.0, 0.038949005046786785
1076.0, 0.03517404932689371
1077.0, 0.02912966993697314
1078.0, 0.022390378116481868
1079.0, 0.022695002790109765
1080.0, 0.020572345638135547
1081.0, 0.019679943407905128
1082.0, 0.01966422164301491
1083.0, 0.01862350910113595
1084.0, 0.015258621018917324
1085.0, 0.02083970759742487
1086.0, 0.031384950196517755
1087.0, 0.03299133039073388
1088.0, 0.026024181432368333
1089.0, 0.017095753231683903
1090.0, 0.019859856724238446
1091.0, 0.011744306820086075
1092.0, 0.019730118371348
1093.0, 0.023308937964519036
1094.0, 0.009579127867193912
1095.0, 0.012081432822194708
1096.0, 0.015296301651923465
1097.0, 0.011648034666374865
1098.0, 0.009089797247292511
1099.0, 0.010423790204485067
1100.0, 0.007525066275974832
1101.0, 0.004871505869160173
1102.0, 0.005260963651861795
1103.0, 0.004267110261029379
1104.0, 0.003700316039252264
1105.0, 0.011039160797112521
1106.0, 0.017641138615290843
1107.0, 0.007336673612455496
1108.0, 0.00460238751647923
1109.0, 0.009114689952771189
1110.0, 0.008392174725226756
1111.0, 0.006023383356820667
1112.0, 0.014099669374874188
1113.0, 0.009814476947838836
1114.0, 0.004511212687884047
1115.0, 0.011140710183953299
1116.0, 0.008526634787458024
1117.0, 0.003819660879013026
1118.0, 0.010249209286575417
1119.0, 0.011800456634204964
1120.0, 0.0018233736818631025
1121.0, 0.0004981069879509665
1122.0, 0.015072568788374902
1123.0, 0.011217328657681339
1124.0, 0.008174029639197685
1125.0, 0.011136022062763996
1126.0, 0.008868768490506265
1127.0, 0.0093186826827176
1128.0, 0.010753248166740455
1129.0, 0.011088074726395695
1130.0, 0.007962292448853088
1131.0, 0.0007461690784255474
1132.0, 0.001213891454849091
1133.0, 0.0009596211016734173
1134.0, 0.0050727896028232074
1135.0, 0.007597044128160261
1136.0, 0.004522690537613347
1137.0, 0.005398631569865243
1138.0, 0.005018393430063325
1139.0, 0.009592745587087828
1140.0, 0.00999826716692577
1141.0, 0.005398595574491094
1142.0, 0.007556775304947408
1143.0, 0.010019888070620398
1144.0, 0.003998686097371093
1145.0, 0.005376132400019937
1146.0, 0.010010585266208242
1147.0, 0.004025625589727414
1148.0, 0.000543955654566953
1149.0, 0.0014648894571333265
1150.0, 0.001035411988200069
1151, 0.0
1152, 0.0
1153, 0.0
1154, 0.0
1155, 0.0
1156, 0.0
1157, 0.0
1158, 0.0
1159, 0.0
1160, 0.0
1161, 0.0
1162, 0.0
1163, 0.0
1164, 0.0
1165, 0.0
1166, 0.0
1167, 0.0
1168, 0.0
1169, 0.0
1170, 0.0
1171, 0.0
1172, 0.0
1173, 0.0
1174, 0.0
1175, 0.0
1176, 0.0
1177, 0.0
1178, 0.0
1179, 0.0
1180, 0.0
1181, 0.0
1182, 0.0
1183, 0.0
1184, 0.0
1185, 0.0
1186, 0.0
1187, 0.0
1188, 0.0
1189, 0.0
1190, 0.0
1191, 0.0
1192, 0.0
1193, 0.0
1194, 0.0
1195, 0.0
1196, 0.0
1197, 0.0
1198, 0.0
1199, 0.0
1200, 0.0
1201, 0.0
1202, 0.0
1203, 0.0
1204, 0.0
1205, 0.0
1206, 0.0
1207, 0.0
1208, 0.0
1209, 0.0
1210, 0.0
1211, 0.0
1212, 0.0
1213, 0.0
1214, 0.0
1215, 0.0
1216, 0.0
1217, 0.0
1218, 0.0
1219, 0.0
1220, 0.0
1221, 0.0
1222, 0.0
1223, 0.0
1224, 0.0
1225, 0.0
1226, 0.0
1227, 0.0
1228, 0.0
1229, 0.0
1230, 0.0
1231, 0.0
1232, 0.0
1233, 0.0
1234, 0.0
1235, 0.0
1236, 0.0
1237, 0.0
1238, 0.0
1239, 0.0
1240, 0.0
1241, 0.0
1242, 0.0
1243, 0.0
1244, 0.0
1245, 0.0
1246, 0.0
1247, 0.0
1248, 0.0
1249, 0.0
1250, 0.0
1251, 0.0
1252, 0.0
1253, 0.0
1254, 0.0
1255, 0.0
1256, 0.0
1257, 0.0
1258, 0.0
1259, 0.0
1260, 0.0
1261, 0.0
1262, 0.0
1263, 0.0
1264, 0.0
1265, 0.0
1266, 0.0
1267, 0.0
1268, 0.0
1269, 0.0
1270, 0.0
1271, 0.0
1272, 0.0
1273, 0.0
1274, 0.0
1275, 0.0
1276, 0.0
1277, 0.0
1278, 0.0
1279, 0.0
1280, 0.0
1281, 0.0
1282, 0.0
1283, 0.0
1284, 0.0
1285, 0.0
1286, 0.0
1287, 0.0
1288, 0.0
1289, 0.0
1290, 0.0
1291, 0.0
1292, 0.0
1293, 0.0
1294, 0.0
1295, 0.0
1296, 0.0
1297, 0.0
1298, 0.0
1299, 0.0
1300, 0.0
1301, 0.0
1302, 0.0
1303, 0.0
1304, 0.0
1305, 0.0
1306, 0.0
1307, 0.0
1308, 0.0
1309, 0.0
1310, 0.0
1311, 0.0
1312, 0.0
1313, 0.0
1314, 0.0
1315, 0.0
1316, 0.0
1317, 0.0
1318, 0.0
1319, 0.0
1320, 0.0
1321, 0.0
1322, 0.0
1323, 0.0
1324, 0.0
1325, 0.0
1326, 0.0
1327, 0.0
1328, 0.0
1329, 0.0
1330, 0.0
1331, 0.0
1332, 0.0
1333, 0.0
1334, 0.0
1335, 0.0
1336, 0.0
1337, 0.0
1338, 0.0
1339, 0.0
1340, 0.0
1341, 0.0
1342, 0.0
1343, 0.0
1344, 0.0
1345, 0.0
1346, 0.0
1347, 0.0
1348, 0.0
1349, 0.0
1350, 0.0
1351, 0.0
1352, 0.0
1353, 0.0
1354, 0.0
1355, 0.0
1356, 0.0
1357, 0.0
1358, 0.0
1359, 0.0
1360, 0.0
1361, 0.0
1362, 0.0
1363, 0.0
1364, 0.0
1365, 0.0
1366, 0.0
1367, 0.0
1368, 0.0
1369, 0.0
1370, 0.0
1371, 0.0
1372, 0.0
1373, 0.0
1374, 0.0
1375, 0.0
1376, 0.0
1377, 0.0
1378, 0.0
1379, 0.0
1380, 0.0
1381, 0.0
1382, 0.0
1383, 0.0
1384, 0.0
1385, 0.0
1386, 0.0
1387, 0.0
1388, 0.0
1389, 0.0
1390, 0.0
1391, 0.0
1392, 0.0
1393, 0.0
1394, 0.0
1395, 0.0
1396, 0.0
1397, 0.0
1398, 0.0
1399, 0.0
1400, 0.0
1401, 0.0
1402, 0.0
1403, 0.0
1404, 0.0
1405, 0.0
1406, 0.0
1407, 0.0
1408, 0.0
1409, 0.0
1410, 0.0
1411, 0.0
1412, 0.0
1413, 0.0
1414, 0.0
1415, 0.0
1416, 0.0
1417, 0.0
1418, 0.0
1419, 0.0
1420, 0.0
1421, 0.0
1422, 0.0
1423, 0.0
1424, 0.0
1425, 0.0
1426, 0.0
1427, 0.0
1428, 0.0
1429, 0.0
1430, 0.0
1431, 0.0
1432, 0.0
1433, 0.0
1434, 0.0
1435, 0.0
1436, 0.0
1437, 0.0
1438, 0.0
1439, 0.0
1440, 0.0
1441, 0.0
1442, 0.0
1443, 0.0
1444, 0.0
1445, 0.0
1446, 0.0
1447, 0.0
1448, 0.0
1449, 0.0
1450, 0.0
1451, 0.0
1452, 0.0
1453, 0.0
1454, 0.0
1455, 0.0
1456, 0.0
1457, 0.0
1458, 0.0
1459, 0.0
1460, 0.0
1461, 0.0
1462, 0.0
1463, 0.0
1464, 0.0
1465, 0.0
1466, 0.0
1467, 0.0
1468, 0.0
1469, 0.0
1470, 0.0
1471, 0.0
1472, 0.0
1473, 0.0
1474, 0.0
1475, 0.0
1476, 0.0
1477, 0.0
1478, 0.0
1479, 0.0
1480, 0.0
1481, 0.0
1482, 0.0
1483, 0.0
1484, 0.0
1485, 0.0
1486, 0.0
1487, 0.0
1488, 0.0
1489, 0.0
1490, 0.0
1491, 0.0
1492, 0.0
1493, 0.0
1494, 0.0
1495, 0.0
1496, 0.0
1497, 0.0
1498, 0.0
1499, 0.0
1500, 0.0
1501, 0.0
1502, 0.0
1503, 0.0
1504, 0.0
1505, 0.0
1506, 0.0
1507, 0.0
1508, 0.0
1509, 0.0
1510, 0.0
1511, 0.0
1512, 0.0
1513, 0.0
1514, 0.0
1515, 0.0
1516, 0.0
1517, 0.0
1518, 0.0
1519, 0.0
1520, 0.0
1521, 0.0
1522, 0.0
1523, 0.0
1524, 0.0
1525, 0.0
1526, 0.0
1527, 0.0
1528, 0.0
1529, 0.0
1530, 0.0
1531, 0.0
1532, 0.0
1533, 0.0
1534, 0.0
1535, 0.0
1536, 0.0
1537, 0.0
1538, 0.0
1539, 0.0
1540, 0.0
1541, 0.0
1542, 0.0
1543, 0.0
1544, 0.0
1545, 0.0
1546, 0.0
1547, 0.0
1548, 0.0
1549, 0.0
1550, 0.0
1551, 0.0
1552, 0.0
1553, 0.0
1554, 0.0
1555, 0.0
1556, 0.0
1557, 0.0
1558, 0.0
1559, 0.0
1560, 0.0
1561, 0.0
1562, 0.0
1563, 0.0
1564, 0.0
1565, 0.0
1566, 0.0
1567, 0.0
1568, 0.0
1569, 0.0
1570, 0.0
1571, 0.0
1572, 0.0
1573, 0.0
1574, 0.0
1575, 0.0
1576, 0.0
1577, 0.0
1578, 0.0
1579, 0.0
1580, 0.0
1581, 0.0
1582, 0.0
1583, 0.0
1584, 0.0
1585, 0.0
1586, 0.0
1587, 0.0
1588, 0.0
1589, 0.0
1590, 0.0
1591, 0.0
1592, 0.0
1593, 0.0
1594, 0.0
1595, 0.0
1596, 0.0
1597, 0.0
1598, 0.0
1599, 0.0
