30, 0.0
31, 0.0
32, 0.0
33, 0.0
34, 0.0
35, 0.0
36, 0.0
37, 0.0
38, 0.0
39, 0.0
40, 0.0
41, 0.0
42, 0.0
43, 0.0
44, 0.0
45, 0.0
46, 0.0
47, 0.0
48, 0.0
49, 0.0
50, 0.0
51, 0.0
52, 0.0
53, 0.0
54, 0.0
55, 0.0
56, 0.0
57, 0.0
58, 0.0
59, 0.0
60, 0.0
61, 0.0
62, 0.0
63, 0.0
64, 0.0
65, 0.0
66, 0.0
67, 0.0
68, 0.0
69, 0.0
70, 0.0
71, 0.0
72, 0.0
73, 0.0
74, 0.0
75, 0.0
76, 0.0
77, 0.0
78, 0.0
79, 0.0
80, 0.0
81, 0.0
82, 0.0
83, 0.0
84, 0.0
85, 0.0
86, 0.0
87, 0.0
88, 0.0
89, 0.0
90, 0.0
91, 0.0
92, 0.0
93, 0.0
94, 0.0
95, 0.0
96, 0.0
97, 0.0
98, 0.0
99, 0.0
100, 0.0
101, 0.0
102, 0.0
103, 0.0
104, 0.0
105, 0.0
106, 0.0
107, 0.0
108, 0.0
109, 0.0
110, 0.0
111, 0.0
112, 0.0
113, 0.0
114, 0.0
115, 0.0
116, 0.0
117, 0.0
118, 0.0
119, 0.0
120, 0.0
121, 0.0
122, 0.0
123, 0.0
124, 0.0
125, 0.0
126, 0.0
127, 0.0
128, 0.0
129, 0.0
130, 0.0
131, 0.0
132, 0.0
133, 0.0
134, 0.0
135, 0.0
136, 0.0
137, 0.0
138, 0.0
139, 0.0
140, 0.0
141, 0.0
142.0, 0.00024569376419761714
143.0, 0.0005511121675014077
144.0, 0.010323413664185002
145.0, 0.012580611944095807
146.0, 0.007128141265611558
147.0, 0.001927579790419531
148.0, 0.004105099245638434
149.0, 0.004169945915901357
150.0, 0.0007938308381345385
151.0, 0.0011285933942171513
152.0, 0.008623720536343017
153.0, 0.015702674057598794
154.0, 0.020717663553986753
155.0, 0.025867451965843353
156.0, 0.032954952775908854
157.0, 0.03514712799799316
158.0, 0.04534520581397424
159.0, 0.06484163690426878
160.0, 0.08900626260851789
161.0, 0.1055828013632709
162.0, 0.0960264317394043
163.0, 0.08858921395617575
164.0, 0.09033766588844924
165.0, 0.07913687318956676
166.0, 0.059085911624467385
167.0, 0.04963284321105912
168.0, 0.04887820519987476
169.0, 0.04588406606514106
170.0, 0.0472917313194586
171.0, 0.05188722105058701
172.0, 0.05669069187809545
173.0, 0.06360738780700811
174.0, 0.08261556799668833
175.0, 0.10559976191878415
176.0, 0.1341931740121999
177.0, 0.17781745877171212
178.0, 0.2406078673760791
179.0, 0.2862057573670668
180.0, 0.26113741693398435
181.0, 0.1815828204422907
182.0, 0.10138884032431363
183.0, 0.05853037392373367
184.0, 0.03392372029647218
185.0, 0.02339764338034534
186.0, 0.021610950980300872
187.0, 0.01422019050912522
188.0, 0.015941265712203008
189.0, 0.01789474629419953
190.0, 0.016391957348820527
191.0, 0.017680252807408633
192.0, 0.025889248893838618
193.0, 0.02855477051441362
194.0, 0.023585911418990795
195.0, 0.014743203252950414
196.0, 0.006526569370052362
197.0, 0.0009980438005450423
198.0, 0.0014383379108358536
199.0, 0.00544879241491553
200.0, 0.0034663237266331494
201.0, 0.008461198828420691
202.0, 0.008028661724653243
203.0, 0.0037246618734912535
204.0, 0.006908225996284674
205.0, 0.018568093987748387
206.0, 0.028812982817069552
207.0, 0.03257292868527456
208.0, 0.032526319053601635
209.0, 0.04280128091266302
210.0, 0.04830562253022288
211.0, 0.057103927409292994
212.0, 0.07125496483346062
213.0, 0.08641843897170648
214.0, 0.10759600295908835
215.0, 0.12173546205824583
216.0, 0.1254399652670071
217.0, 0.12391985617952074
218.0, 0.12807012385247943
219.0, 0.1468901405454721
220.0, 0.17565634163139623
221.0, 0.21052727991583778
222.0, 0.2511040299923538
223.0, 0.3069455419616419
224.0, 0.32163682655864645
225.0, 0.28698240956102106
226.0, 0.2219002996304872
227.0, 0.16469367443990166
228.0, 0.13193917995573554
229.0, 0.12103090446607505
230.0, 0.12695183370219262
231.0, 0.14583621048135625
232.0, 0.16364754278871183
233.0, 0.17337681741472127
234.0, 0.16694494363159307
235.0, 0.14035056393798628
236.0, 0.10664430033906869
237.0, 0.0788484664565003
238.0, 0.057221033150876725
239.0, 0.04193490989790168
240.0, 0.03425295821792378
241.0, 0.02577972432528934
242.0, 0.023943974625799745
243.0, 0.023408846050255228
244.0, 0.0192148903949356
245.0, 0.020239639599565918
246.0, 0.02577961076906465
247.0, 0.03639711115273452
248.0, 0.050374464453521055
249.0, 0.0643344024660078
250.0, 0.07260863839765878
251.0, 0.07333168258328195
252.0, 0.07017896121184695
253.0, 0.06431904991442237
254.0, 0.04859215361904913
255.0, 0.03880452544005127
256.0, 0.030694601685602868
257.0, 0.022425300204144714
258.0, 0.016894043981606068
259.0, 0.014396977339775227
260.0, 0.01149903208559759
261.0, 0.014199481284279397
262.0, 0.020479336117389176
263.0, 0.010415037049215599
264.0, 0.005827321292142996
265.0, 0.004974933808644128
266.0, 0.0040632444425427695
267.0, 0.0009645793728167533
268.0, 0.002288872139669362
269.0, 0.006044014109073962
270.0, 0.007878392338949367
271.0, 0.006929579175026829
272.0, 0.005013127428916906
273.0, 0.004957895616947743
274.0, 0.0012867589128032467
275.0, 0.004055116876927308
276.0, 0.006300632392989014
277.0, 0.0017352137206427434
278.0, 0.0010938967675022636
279.0, 0.0009853107150129435
280.0, 0.0006296605665914827
281.0, 0.0017126362102055156
282.0, 0.0030433844369619177
283.0, 0.001629554425318948
284.0, 0.0043247933785768465
285.0, 0.007660005224099937
286.0, 0.014958662255899119
287.0, 0.01602259897511808
288.0, 0.02176737360936125
289.0, 0.031671779486250495
290.0, 0.039986610206794844
291.0, 0.04746239695915585
292.0, 0.03860711018881326
293.0, 0.025740900045145343
294.0, 0.016684000006549363
295.0, 0.009159863012796428
296.0, 0.006383134510378533
297.0, 0.005709132646162383
298.0, 0.004590913912206447
299.0, 0.0033439851470714378
300.0, 0.005254682874962734
301.0, 0.015166102291069825
302.0, 0.01853966889806979
303.0, 0.016791564495045156
304.0, 0.01766825263480686
305.0, 0.020483206493831247
306.0, 0.013731643627923056
307.0, 0.00976487448476598
308.0, 0.009918461905964295
309.0, 0.005626771795647814
310.0, 0.00307125410990731
311.0, 0.0020632066817183785
312.0, 0.006064864072191364
313.0, 0.011244254553572112
314.0, 0.006678796113189755
315.0, 0.005398223649670084
316.0, 0.0020829794153491145
317.0, 0.0005356756776983238
318.0, 0.0005572841371507203
319.0, 0.001222519933089961
320.0, 0.006191917772009521
321.0, 0.007372212068513417
322.0, 0.0034650910508764263
323.0, 0.0010525295016620088
324.0, 0.002061658522104458
325.0, 0.004625812326280423
326.0, 0.008273083642664256
327.0, 0.006544061215575086
328.0, 0.005695559708673354
329.0, 0.01666574082919805
330.0, 0.02059369671695319
331.0, 0.02478302386869978
332.0, 0.03517513540290608
333.0, 0.04556619716645924
334.0, 0.04612555398169994
335.0, 0.0405249328597343
336.0, 0.029248409165159132
337.0, 0.016426945832124704
338.0, 0.014560199300124735
339.0, 0.018918688130620687
340.0, 0.01937510292535944
341.0, 0.020701827883405813
342.0, 0.030590523630515346
343.0, 0.03754065008638595
344.0, 0.03705826320147999
345.0, 0.03495194725661767
346.0, 0.03502565227853303
347.0, 0.03656680455969385
348.0, 0.03561147374767287
349.0, 0.03781983466793103
350.0, 0.04419501746114304
351.0, 0.052580306537294015
352.0, 0.06037824108925027
353.0, 0.06597421006777283
354.0, 0.06555574592301781
355.0, 0.05584914636028495
356.0, 0.04503352841496339
357.0, 0.050084843132376905
358.0, 0.04705874093890672
359.0, 0.04789789032724143
360.0, 0.04772655575886344
361.0, 0.044846736192691444
362.0, 0.05203956645461381
363.0, 0.06447185535476853
364.0, 0.0745088565876244
365.0, 0.08757561202046849
366.0, 0.11032663815547168
367.0, 0.14239259540936178
368.0, 0.17502738090717726
369.0, 0.21459864690297514
370.0, 0.24881603495766144
371.0, 0.2597566212592512
372.0, 0.2251324819309623
373.0, 0.16414041256284315
374.0, 0.11471753571141236
375.0, 0.08456828612470545
376.0, 0.06354103229459791
377.0, 0.05341074978024436
378.0, 0.049292106319579615
379.0, 0.045019786187137596
380.0, 0.040811722263872745
381.0, 0.03988476401586779
382.0, 0.039887544112478156
383.0, 0.0416250648796538
384.0, 0.04771901121593145
385.0, 0.0573734162582782
386.0, 0.06677029929484975
387.0, 0.07592452302926342
388.0, 0.08238122486186326
389.0, 0.09296932469159191
390.0, 0.11556750669954576
391.0, 0.14968331638577925
392.0, 0.18032688125760363
393.0, 0.21439540731065757
394.0, 0.24330932719064477
395.0, 0.26052862548107447
396.0, 0.25954083179433896
397.0, 0.20033088019097864
398.0, 0.1476929017206644
399.0, 0.1038210392208389
400.0, 0.06935709716273722
401.0, 0.05344785280475562
402.0, 0.04919179073376453
403.0, 0.046966591025684866
404.0, 0.04352092337596545
405.0, 0.04074575079034931
406.0, 0.04272045046794314
407.0, 0.04017819151877226
408.0, 0.04747664012966195
409.0, 0.049565983017389965
410.0, 0.04576216292758431
411.0, 0.05188812165319872
412.0, 0.06012285120167966
413.0, 0.07208452671301409
414.0, 0.08410543036231292
415.0, 0.09415025185352668
416.0, 0.10069805399110215
417.0, 0.09470158275466176
418.0, 0.09121947235278242
419.0, 0.08040772402816443
420.0, 0.06100455060626996
421.0, 0.04337587387953181
422.0, 0.032500268078050516
423.0, 0.015778682056285992
424.0, 0.010621792649920017
425.0, 0.01644249827272921
426.0, 0.01976223887386754
427.0, 0.012323499432661929
428.0, 0.011005018195183345
429.0, 0.012895355289032273
430.0, 0.016671157722922287
431.0, 0.020162121957567482
432.0, 0.01047279726621399
433.0, 0.013558884572467645
434.0, 0.01564385069653196
435.0, 0.011319906625860191
436.0, 0.007463313335278098
437.0, 0.009636545630205755
438.0, 0.0059922945898218515
439.0, 0.004028599304267696
440.0, 0.004896704941382457
441.0, 0.0037550712084651575
442.0, 0.0016501184746366452
443.0, 0.0011691820881554041
444.0, 0.004588292118426722
445.0, 0.007054873277471689
446.0, 0.006438308160781229
447.0, 0.001700009561596106
448.0, 0.0002971028790704802
449.0, 0.003145955022701339
450.0, 0.003711278827317557
451.0, 0.0014969557974989585
452.0, 0.002333151185082567
453.0, 0.0070888489218537565
454.0, 0.003400052991234757
455.0, 0.0010222262220234669
456.0, 0.0005851695124869925
457.0, 0.0013322415851278254
458.0, 0.004756423341329029
459.0, 0.002068578456565396
460.0, 0.004984290765697797
461.0, 0.008571254430337691
462.0, 0.002357101713470903
463.0, 0.0005899441709165747
464.0, 0.0022843492175728753
465.0, 0.00140382749380918
466.0, 0.0008333894548748753
467.0, 0.0022792699144877295
468.0, 0.0010306518168496732
469.0, 0.00789060512989064
470.0, 0.007542569807191326
471.0, 0.005756045536438907
472.0, 0.010647336903977367
473.0, 0.009551003148882058
474.0, 0.009321666325106599
475.0, 0.00883205137864196
476.0, 0.005696741786747261
477.0, 0.002165585838353669
478.0, 0.004546095114724976
479.0, 0.005135263598581561
480.0, 0.0034500777939207752
481.0, 0.006863636699411892
482.0, 0.011478484837626372
483.0, 0.008294811775435394
484.0, 0.012652492967121062
485.0, 0.017149687254837974
486.0, 0.01704474906192177
487.0, 0.014741852655642013
488.0, 0.014005658917049848
489.0, 0.01323686768977793
490.0, 0.010007435349542704
491.0, 0.012140046791531559
492.0, 0.014726730006256843
493.0, 0.013489880398929805
494.0, 0.016008233278413796
495.0, 0.019514959861148463
496.0, 0.014754041325582614
497.0, 0.011286283020238578
498.0, 0.012738895402850307
499.0, 0.011315441904239379
500.0, 0.011041878878845106
501.0, 0.015610057758351
502.0, 0.01624083285733148
503.0, 0.015154269537821216
504.0, 0.01963985135358795
505.0, 0.02744256860186162
506.0, 0.028639307944687907
507.0, 0.025433605843482105
508.0, 0.024424968231106098
509.0, 0.027412779245717642
510.0, 0.028188732848403036
511.0, 0.03617252536954719
512.0, 0.043783848041300755
513.0, 0.04585001787468629
514.0, 0.0452106655697922
515.0, 0.04544295292062325
516.0, 0.04114203164356057
517.0, 0.038734040556276196
518.0, 0.03643403958769068
519.0, 0.03308627057372719
520.0, 0.030373468441849787
521.0, 0.025746330342962007
522.0, 0.02359480448923679
523.0, 0.021630517050475227
524.0, 0.01814766054935635
525.0, 0.0163635983184309
526.0, 0.02041452902684896
527.0, 0.02044628838046941
528.0, 0.023447969244161093
529.0, 0.025478149357571322
530.0, 0.025416348098863024
531.0, 0.024154302405254728
532.0, 0.016868200393005656
533.0, 0.016860245849534803
534.0, 0.017474780031490094
535.0, 0.014449291176310325
536.0, 0.009440941777264455
537.0, 0.0074812168937687966
538.0, 0.00507223684120287
539.0, 0.005118089230731083
540.0, 0.004033805679405253
541.0, 0.0025390373452866028
542.0, 0.0034618778815886596
543.0, 0.0033274068721683057
544.0, 0.004088464418308379
545.0, 0.006747456439570729
546.0, 0.010008182640176078
547.0, 0.012509872392937875
548.0, 0.013214749675629738
549.0, 0.007656255628444741
550.0, 0.015321197544365828
551.0, 0.017278331390827194
552.0, 0.012239450508011642
553.0, 0.010034574761240091
554.0, 0.005855937605379636
555.0, 0.004112151105109318
556.0, 0.003771503807477767
557.0, 0.005968310906304533
558.0, 0.007222488111588179
559.0, 0.003019603208190767
560.0, 0.007829669649760673
561.0, 0.006300950522882696
562.0, 0.0038374879685816395
563.0, 0.005819968754121281
564.0, 0.009323856411863276
565.0, 0.0033015009848288237
566.0, 0.00028445183374269486
567.0, 0.0014237870793039637
568.0, 0.005335195647550302
569.0, 0.007185064247712595
570.0, 0.004253299944087006
571.0, 0.0021604097426393878
572.0, 0.004255914257094101
573.0, 0.0087026642082756
574.0, 0.013692498632296308
575.0, 0.015039869308013105
576.0, 0.008388691339842023
577.0, 0.005542779356016288
578.0, 0.012089144255515924
579.0, 0.00752431799168299
580.0, 0.0005605303782420251
581.0, 0.005848954286860082
582.0, 0.009345487120659276
583.0, 0.010948831285885011
584.0, 0.01579811211839953
585.0, 0.01649484859102792
586.0, 0.013770897806557908
587.0, 0.014694425156994319
588.0, 0.014322175312451243
589.0, 0.008878358445861717
590.0, 0.014613721253194092
591.0, 0.018193771644697303
592.0, 0.010220732732822488
593.0, 0.004551776479651086
594.0, 0.012452788718131522
595.0, 0.011583970805184848
596.0, 0.0011840533178810093
597.0, 0.0014464807956406564
598.0, 0.008545245561272313
599.0, 0.009864251274715474
600.0, 0.005724716666803895
601.0, 0.005471671423458002
602.0, 0.00989619215178257
603.0, 0.009896829608857807
604.0, 0.003091871282493507
605.0, 0.006634182980589917
606.0, 0.0015591109532563541
607.0, 0.004259864081992034
608.0, 0.0014193500121017187
609.0, 0.0030731116828388674
610.0, 0.0024108010996213144
611.0, 0.0020410607698520796
612.0, 0.0001731093117096683
613.0, 0.0011138242508783418
614.0, 0.0005099885040106154
615.0, 0.0007010451632802673
616.0, 0.0031717850513102667
617.0, 0.0010192231531592957
618.0, 0.002528688045134236
619.0, 0.006280146697609105
620.0, 0.005034663854718237
621.0, 0.0006435919068092176
622.0, 0.0020170768715738548
623.0, 0.006642765155193754
624.0, 0.005987888329264002
625.0, 0.004534809544096645
626.0, 0.0011558730782095317
627.0, 0.0024423227512271354
628.0, 0.0031265701491757216
629.0, 0.005119423612918003
630.0, 0.0012764665776230488
631.0, 0.0009551818092099337
632.0, 0.003473345168474607
633.0, 0.005105284336588719
634.0, 0.005073077217890414
635.0, 0.008417773423158392
636.0, 0.00500773224521641
637.0, 0.006972632862399082
638.0, 0.008843398669218397
639.0, 0.00569423182833652
640.0, 0.008344173490632005
641.0, 0.010539797872738383
642.0, 0.010185637468430176
643.0, 0.01263778689241414
644.0, 0.01845198548907943
645.0, 0.022146181073968207
646.0, 0.021118824729150665
647.0, 0.03199389948203842
648.0, 0.037624546332513074
649.0, 0.0428099847213812
650.0, 0.04943845892941941
651.0, 0.05652363120580495
652.0, 0.06495555992816314
653.0, 0.06791849532719539
654.0, 0.07881034959175093
655.0, 0.09155012768885698
656.0, 0.10352516974800813
657.0, 0.11734382521481762
658.0, 0.13733348117366778
659.0, 0.15790946250087282
660.0, 0.1775034804511179
661.0, 0.19761846768164099
662.0, 0.22430218594755919
663.0, 0.2588248259871045
664.0, 0.29515764393237554
665.0, 0.3332522986436778
666.0, 0.3734639880756346
667.0, 0.42603856286835795
668.0, 0.491109101999097
669.0, 0.5665178445008239
670.0, 0.6537721072158869
671.0, 0.7538587217596053
672.0, 0.8539646790452041
673.0, 0.94475822312932
674.0, 0.9956792007860745
675.0, 0.9874200331133376
676.0, 0.9239916918675315
677.0, 0.8065550668472353
678.0, 0.6626619776569922
679.0, 0.5286049740162606
680.0, 0.41045137121206343
681.0, 0.3122679199098189
682.0, 0.24349524142442247
683.0, 0.20184923943789657
684.0, 0.1637548281429267
685.0, 0.13649572186287823
686.0, 0.11444378128234908
687.0, 0.09379894161872554
688.0, 0.07902391619889783
689.0, 0.07226805822637869
690.0, 0.06777343023833036
691.0, 0.05786808548731764
692.0, 0.052012368161318975
693.0, 0.05334088411600605
694.0, 0.05313848555992256
695.0, 0.04155684691948045
696.0, 0.03047961330140608
697.0, 0.023278285027946984
698.0, 0.019645300915981642
699.0, 0.015065001271331445
700.0, 0.009720697455794005
701.0, 0.008853379106355969
702.0, 0.007031907500820189
703.0, 0.005386638154079397
704.0, 0.004064850067101428
705.0, 0.0003837527133274156
706.0, 0.0018644710684110387
707.0, 0.0024647390237428246
708.0, 0.0010967180330029602
709.0, 0.005151239357435328
710.0, 0.004080538256119582
711.0, 0.003569429815542679
712.0, 0.002499398348974218
713.0, 0.0011136237849269533
714.0, 0.005194499991738582
715.0, 0.0011998998323381424
716.0, 0.0006142661786370444
717.0, 0.001055873002964389
718.0, 0.0014758586237805836
719.0, 0.0002599225795625856
720.0, 7.539667903460104e-05
721.0, 0.003287898624933344
722.0, 0.0033808157526353964
723.0, 0.0024096300152838092
724.0, 0.0039351607475266925
725.0, 0.007558194096419245
726.0, 0.009797705137391574
727.0, 0.007804702925383035
728.0, 0.004072789624524424
729.0, 0.003043397883409663
730.0, 0.005578936164934673
731.0, 0.003854896802900299
732.0, 0.0010433622561226493
733.0, 0.0028052494183040387
734.0, 0.005004543548853936
735.0, 0.007884755437193042
736.0, 0.011418679363770877
737.0, 0.01799168782643914
738.0, 0.02747708334158384
739.0, 0.0344237842942589
740.0, 0.03559339699990508
741.0, 0.04469125629393849
742.0, 0.05252318208340031
743.0, 0.04721710815577938
744.0, 0.038372628626711265
745.0, 0.037163843098039114
746.0, 0.03752333664510997
747.0, 0.026264647184557146
748.0, 0.03305959097335121
749.0, 0.03356545533449183
750.0, 0.03405990483508494
751.0, 0.04014981603420306
752.0, 0.042405706893238033
753.0, 0.03332084264969179
754.0, 0.028286089852367323
755.0, 0.027702569391482346
756.0, 0.018077187099339087
757.0, 0.007810726789622902
758.0, 0.005425198735964536
759.0, 0.006047898432846754
760.0, 0.0003182338447375962
761.0, 0.004752512822438745
762.0, 0.0017475672913770017
763.0, 0.0006509979855293938
764.0, 0.0007381968407452787
765.0, 0.0005959454024618222
766.0, 0.002450256169420494
767.0, 0.0008914964878768915
768.0, 0.0004686849281096393
769.0, 0.002655302651826323
770.0, 0.0040627572818228855
771.0, 0.004419543226964785
772.0, 0.005090705762026665
773.0, 0.003278745406076809
774.0, 0.00731012203865806
775.0, 0.008524585003454894
776.0, 0.008506793419799227
777.0, 0.005885761616446483
778.0, 0.0024989315021651686
779.0, 0.0038343300281945365
780.0, 0.004936887622663281
781.0, 0.001522528329430735
782.0, 0.0011050256772526083
783.0, 0.004041042765957624
784.0, 0.00489076106223285
785.0, 0.0009856022922857012
786.0, 0.000778934589192507
787.0, 0.0019776303837348696
788.0, 0.005346814925022329
789.0, 0.007299055647152447
790.0, 0.007021797443032036
791.0, 0.008554635359597185
792.0, 0.011288370921549655
793.0, 0.008383318700801896
794.0, 0.010377035948785081
795.0, 0.013093154122140146
796.0, 0.011798972046044106
797.0, 0.013874208577977408
798.0, 0.01588539849273361
799.0, 0.012946480782975785
800.0, 0.011381206581331812
801.0, 0.006847369147547606
802.0, 0.0064762833669414314
803.0, 0.0058698358481874685
804.0, 0.00882480038105283
805.0, 0.010643850441848549
806.0, 0.006659127254773007
807.0, 0.005434364287583114
808.0, 0.002692865167934956
809.0, 0.0017452840658991231
810.0, 0.0006751197369765044
811.0, 0.0024392692482179
812.0, 0.004260969431669981
813.0, 0.0033998798627865507
814.0, 0.005558270935725021
815.0, 0.0009702674659842212
816.0, 0.004049263262245545
817.0, 0.010129488470100818
818.0, 0.00804880656055177
819.0, 0.00512211155292986
820.0, 0.009179089014087304
821.0, 0.008227723686581248
822.0, 0.011123287147376376
823.0, 0.013673946915596095
824.0, 0.009859625423170941
825.0, 0.01098006582304017
826.0, 0.015570593852017724
827.0, 0.015207338251506752
828.0, 0.012671723874071896
829.0, 0.016013848840337946
830.0, 0.022107736332315754
831.0, 0.011554987973611581
832.0, 0.0044652772927462675
833.0, 0.0043698993835736685
834.0, 0.003236430924388759
835.0, 0.006248901734151291
836.0, 0.013066451400257598
837.0, 0.00772285446860224
838.0, 0.006419270880269998
839.0, 0.005445230974161514
840.0, 0.0008994794129856755
841.0, 0.0005676506226705786
842.0, 0.00551327270525663
843.0, 0.0043644611649678805
844.0, 0.006853859386048002
845.0, 0.006839381139395048
846.0, 0.005418268158342372
847.0, 0.004043674744504389
848.0, 0.0016066537208737088
849.0, 0.0008350490206755696
850.0, 0.004794589780667203
851.0, 0.0005494199162134891
852.0, 0.001428842655559407
853.0, 0.0031258378202866175
854.0, 0.005593437672893091
855.0, 0.010414884878938258
856.0, 0.015082873307226975
857.0, 0.01610635274269605
858.0, 0.0190430270336575
859.0, 0.017367710503379156
860.0, 0.012772025859205883
861.0, 0.00535130666854302
862.0, 0.003999579081310201
863.0, 0.010158634563665598
864.0, 0.012710797332758435
865.0, 0.009371867196864024
866.0, 0.012203664783019071
867.0, 0.012661990673516648
868.0, 0.013639763330194555
869.0, 0.012748647793930682
870.0, 0.00959658631506394
871.0, 0.010318900997912932
872.0, 0.01788432585428817
873.0, 0.013537574772243419
874.0, 0.0034338208295457673
875.0, 0.003955992517853528
876.0, 0.005920724061035889
877.0, 0.007458475805230775
878.0, 0.010211393836690206
879.0, 0.00795217827402635
880.0, 0.0018108901214840404
881.0, 0.002406163781445385
882.0, 0.0020750605013225977
883.0, 0.004054604162381127
884.0, 0.008769176027717077
885.0, 0.011036674186139937
886.0, 0.008953420489495217
887.0, 0.007953873391401016
888.0, 0.0032075763629524994
889.0, 0.002415750362334212
890.0, 0.0011618077139471544
891.0, 0.003662254333296325
892.0, 0.006614233194146665
893.0, 0.007617134409026535
894.0, 0.005586168711134113
895.0, 0.006458270456576937
896.0, 0.0030492363031183836
897.0, 0.0038880435133494757
898.0, 0.002074421267900097
899.0, 0.002855561791240784
900.0, 0.0061841959162107964
901.0, 0.007160014828082544
902.0, 0.00575879604480171
903.0, 0.0016284840529319808
904.0, 0.009438634332161938
905.0, 0.00890513858593106
906.0, 0.006905675293891959
907.0, 0.006706838887938267
908.0, 0.008465537305848697
909.0, 0.008288222605425069
910.0, 0.0009830971814749217
911.0, 0.00241717177517778
912.0, 0.00562643243641352
913.0, 0.005228218406539596
914.0, 0.006003093861453729
915.0, 0.010481813649991806
916.0, 0.013114595125788697
917.0, 0.012596714996846666
918.0, 0.01811061609367499
919.0, 0.0263052280624865
920.0, 0.023096208861470572
921.0, 0.02358168051503209
922.0, 0.03064473845331073
923.0, 0.03694969467251687
924.0, 0.040241280614041385
925.0, 0.04505784063371633
926.0, 0.053586473174223784
927.0, 0.05785500410360461
928.0, 0.06443796314615824
929.0, 0.07185357161191243
930.0, 0.0799731090657741
931.0, 0.08696492652636403
932.0, 0.08633928411896828
933.0, 0.07929366063100084
934.0, 0.07566254896242673
935.0, 0.06177451213105344
936.0, 0.05348256128026473
937.0, 0.047291886911577
938.0, 0.036111589070518924
939.0, 0.02614998542475831
940.0, 0.01957995762781595
941.0, 0.014910462619634591
942.0, 0.016299878731120765
943.0, 0.01540524173246026
944.0, 0.012626547656845672
945.0, 0.012443485824390659
946.0, 0.014626174334369826
947.0, 0.020156602366770953
948.0, 0.022922514367401628
949.0, 0.02123656251717396
950.0, 0.022603275372913206
951.0, 0.013997984071774376
952.0, 0.005232833866590409
953.0, 0.0052130417206939835
954.0, 0.008852804040460223
955.0, 0.008384740398351728
956.0, 0.007988242170600996
957.0, 0.009007093118996052
958.0, 0.005282945605421275
959.0, 0.004038272122042263
960.0, 0.006151952485072031
961.0, 0.002932303132793971
962.0, 0.0024629739844378895
963.0, 0.0005423464849285808
964.0, 0.0040965124914709005
965.0, 0.0026247761749551408
966.0, 0.0013340057128876936
967.0, 0.0054549723864575
968.0, 0.0034676452427072407
969.0, 0.006922481378439808
970.0, 0.0013973983668932666
971.0, 0.005422202962046638
972.0, 0.014076228384747714
973.0, 0.018768070294069555
974.0, 0.015255949732678764
975.0, 0.0009997917886507635
976.0, 0.012019581851265266
977.0, 0.013013499708012083
978.0, 0.002209490618074954
979.0, 0.002693123558815211
980.0, 0.006750940328567645
981.0, 0.0062057516539941815
982.0, 0.00659455856095144
983.0, 0.010668462889297852
984.0, 0.009148816996186198
985.0, 0.001622269651464042
986.0, 0.008585212623380103
987.0, 0.002089285759288265
988.0, 0.004417116218991028
989.0, 0.011153172688683159
990.0, 0.008216128122003634
991.0, 0.00024335671244225902
992.0, 0.0008072472403631471
993.0, 0.004957830296217749
994.0, 0.0020931332622629267
995.0, 0.0005466979715250768
996.0, 0.004123438987345528
997.0, 0.0029813747113211072
998.0, 0.00027378065805374344
999.0, 0.00209172410738124
1000.0, 0.0038579822379522337
1001.0, 0.004185669366595633
1002.0, 0.008112977836922913
1003.0, 0.008044626939076135
1004.0, 0.011256520944055036
1005.0, 0.016589749123971424
1006.0, 0.010677164733384256
1007.0, 0.006937319135437167
1008.0, 0.007956201089051682
1009.0, 0.004583427056158202
1010.0, 0.010468802740504728
1011.0, 0.01599953612825893
1012.0, 0.01475432688091953
1013.0, 0.026052452542650345
1014.0, 0.030062922657614205
1015.0, 0.03195552780369854
1016.0, 0.03706856271094685
1017.0, 0.042905027159842755
1018.0, 0.047684853024488084
1019.0, 0.05080191174861077
1020.0, 0.05101982699700315
1021.0, 0.05900074298779004
1022.0, 0.06850040221036675
1023.0, 0.07659346321330113
1024.0, 0.08056185217605895
1025.0, 0.08846239649208848
1026.0, 0.09942332265133369
1027.0, 0.10956179058847165
1028.0, 0.1282063270996822
1029.0, 0.1382982800346005
1030.0, 0.14677775915989022
1031.0, 0.1639964014653514
1032.0, 0.15116121219968648
1033.0, 0.1239856539140777
1034.0, 0.09581326410579952
1035.0, 0.06975829397403928
1036.0, 0.05377349988303302
1037.0, 0.05034430828825486
1038.0, 0.040422048317183046
1039.0, 0.029462856821058855
1040.0, 0.02500203246212791
1041.0, 0.013527021915430084
1042.0, 0.01263853208177805
1043.0, 0.014082586165239804
1044.0, 0.012715600202605004
1045.0, 0.008799234982241017
1046.0, 0.0045111796568686495
1047.0, 0.01768121679761928
1048.0, 0.01895058563910764
1049.0, 0.022590721638714496
1050.0, 0.02884323042627408
1051.0, 0.03071652537103696
1052.0, 0.03416816010499399
1053.0, 0.03925945846568935
1054.0, 0.03627931615285833
1055.0, 0.03592145919001952
1056.0, 0.058536133152977544
1057.0, 0.06585472983306738
1058.0, 0.07758867689664124
1059.0, 0.09903813364289041
1060.0, 0.11131659956806399
1061.0, 0.1186427498034166
1062.0, 0.1190841572088471
1063.0, 0.11084795940334374
1064.0, 0.09854423937880555
1065.0, 0.08513384117807091
1066.0, 0.07379118253059658
1067.0, 0.07351787308082516
1068.0, 0.06814566649206386
1069.0, 0.06745492023836286
1070.0, 0.07958449467747009
1071.0, 0.07708253653876256
1072.0, 0.07363770926743426
1073.0, 0.06731636440659307
1074.0, 0.04597240095631058
1075.0, 0.03355815611250102
1076.0, 0.029462167282171624
1077.0, 0.025787372880970244
1078.0, 0.01892190903327525
1079.0, 0.01010992747687085
1080.0, 0.00909140878529732
1081.0, 0.005397605845274023
1082.0, 0.007354790978046076
1083.0, 0.013856466128437325
1084.0, 0.009890123331913662
1085.0, 0.0023755185614707736
1086.0, 0.010767615181942813
1087.0, 0.007800510465472934
1088.0, 0.007177032889434421
1089.0, 0.010073244389261162
1090.0, 0.003922268557341702
1091.0, 0.0003848121249396496
1092.0, 0.005636462605380881
1093.0, 0.009555840530536154
1094.0, 0.010877862103469797
1095.0, 0.015333201439543752
1096.0, 0.008426263008291789
1097.0, 0.014568576181504976
1098.0, 0.003615237095896738
1099.0, 0.0008145010837230707
1100.0, 0.009885737066323879
1101.0, 0.005773661571259787
1102.0, 0.0006992170630760933
1103.0, 0.0002288430353038996
1104.0, 0.0008400954093720571
1105.0, 0.0022425449177552793
1106.0, 0.00830350211783435
1107.0, 0.003181865714398783
1108.0, 0.011552357340556223
1109.0, 0.017856779747389667
1110.0, 0.014598232126762492
1111.0, 0.006319209883337975
1112.0, 0.001490673522241889
1113.0, 0.0021390893454637586
1114.0, 0.008051325746702656
1115.0, 0.010711399124650148
1116.0, 0.0008032903220499113
1117.0, 0.002070192035137035
1118.0, 0.0014769730114998993
1119.0, 0.0109848418747992
1120.0, 0.011323269392375327
1121.0, 0.010258302383100033
1122.0, 0.009476433793505523
1123.0, 0.011176380366199522
1124.0, 0.008695096128019162
1125.0, 0.003976046249849307
1126.0, 0.007436508515201015
1127.0, 0.0030268763641829164
1128.0, 0.0013666264953312453
1129.0, 0.0042681802573062986
1130.0, 0.0006556655189169921
1131.0, 0.004067461733045498
1132.0, 0.0027596585941531884
1133.0, 0.003859635461342624
1134.0, 0.0015843782492097353
1135.0, 0.003233122312175238
1136.0, 0.005622547664530254
1137.0, 0.002001232790700948
1138.0, 0.0016607758020689256
1139.0, 0.006801098642628509
1140.0, 0.003575424833219912
1141.0, 0.003592410471481456
1142.0, 0.008446858390554745
1143.0, 0.0028945506051202487
1144.0, 0.002999875441641438
1145.0, 0.007620890330440693
1146.0, 0.006788319260393719
1147.0, 0.0031216175671270417
1148.0, 0.002595212209062034
1149.0, 0.015752451847110004
1150.0, 0.015254944566217713
1151.0, 0.005234667357638387
1152.0, 0.01616242723569467
1153.0, 0.011537604712370142
1154.0, 0.009093486836888034
1155.0, 0.0101993451226714
1156.0, 0.004953524825632795
1157.0, 0.005227086569400771
1158.0, 0.016888668021579834
1159.0, 0.01804795135645083
1160.0, 0.008521288261793405
1161.0, 0.0046064753951568956
1162.0, 0.000990790186548191
1163.0, 0.007852296536700953
1164.0, 0.007872895972149685
1165.0, 0.00931601182685604
1166.0, 0.013877142479413457
1167.0, 0.009096355262728055
1168.0, 0.007555290368871851
1169.0, 0.013557649955945507
1170.0, 0.011256198010620892
1171.0, 0.009670115425734758
1172.0, 0.009065415303166565
1173.0, 0.012504806407165512
1174.0, 0.016148976032294936
1175.0, 0.017363554636379012
1176.0, 0.005798153334628266
1177.0, 0.005165902443712022
1178.0, 0.007682732290749851
1179.0, 0.009482150882369478
1180.0, 0.006130520714141403
1181.0, 0.005860969165629032
1182.0, 0.013660278404838253
1183.0, 0.003059377997311477
1184.0, 0.012440377199874272
1185.0, 0.015252497597166749
1186.0, 0.010745096271861753
1187.0, 0.008866375336573223
1188.0, 0.006324638218404436
1189.0, 0.0041840681146052576
1190.0, 0.005691238157493379
1191.0, 0.006612748218597632
1192.0, 0.005435501528014117
1193.0, 0.003843193151731283
1194.0, 0.0031163010332256515
1195.0, 0.004349481525152034
1196.0, 0.002262043408970768
1197.0, 0.004837779147769429
1198.0, 0.009212929165430563
1199.0, 0.010620396784708287
1200.0, 0.008599380338835219
1201.0, 0.005401431313719017
1202.0, 0.011096145016808846
1203.0, 0.013170206394225621
1204.0, 0.01118635076638655
1205.0, 0.013561195183866845
1206.0, 0.014552345232283097
1207.0, 0.011878446387876235
1208.0, 0.015312218512239701
1209.0, 0.01897737700858816
1210.0, 0.02123662976185164
1211.0, 0.013684390876369171
1212.0, 0.005922432628181371
1213.0, 0.001234988053193421
1214.0, 0.0008586798367133764
1215.0, 0.010350909761465228
1216.0, 0.012913849101527182
1217.0, 0.007313503193661695
1218.0, 0.009569178556330719
1219.0, 0.01352985206162729
1220.0, 0.015584160672704519
1221.0, 0.01601799830301981
1222.0, 0.01812703275112948
1223.0, 0.022519207430256465
1224.0, 0.02255386873991098
1225.0, 0.021228779410107514
1226.0, 0.013211577199650198
1227.0, 0.0169749433171242
1228.0, 0.020992062758312655
1229.0, 0.013243902590771319
1230.0, 0.008893086869840566
1231.0, 0.013086767910936072
1232.0, 0.01305799144912237
1233.0, 0.01185535001588712
1234.0, 0.014993812763748735
1235.0, 0.012989607677853576
1236.0, 0.014952088451609119
1237.0, 0.018088425640974754
1238.0, 0.009451557432820926
1239.0, 0.013298825640647046
1240.0, 0.0058340398024834105
1241.0, 0.003083457468053508
1242.0, 0.004491142188975483
1243.0, 0.008751758492719128
1244.0, 0.012991590300302535
1245.0, 0.008044066886444746
1246.0, 0.010169883401209183
1247.0, 0.014477535222732912
1248.0, 0.013542672253152086
1249.0, 0.01222191732798312
1250.0, 0.01068903662505858
1251.0, 0.005660318603307617
1252.0, 0.010561259284616582
1253.0, 0.008150959431411526
1254.0, 0.013503994723683252
1255.0, 0.016618954056417383
1256.0, 0.008489145655717921
1257.0, 0.004886780723056605
1258.0, 0.008270170427697525
1259.0, 0.009258366443701444
1260.0, 0.011207727787111332
1261.0, 0.008113719278298515
1262.0, 0.012569878345578833
1263.0, 0.009000529286319878
1264.0, 0.0004512327513833401
1265.0, 0.008575848118848355
1266.0, 0.009232853255666694
1267.0, 0.0045593250193285105
1268.0, 0.0012884715275368575
1269.0, 0.002459129411803873
1270.0, 0.005959337450240529
1271.0, 0.01159484238618165
1272.0, 0.01722653849075096
1273.0, 0.01836797224282053
1274.0, 0.018194340172220703
1275.0, 0.016608436321962322
1276.0, 0.008660956702107965
1277.0, 0.01219668801153376
1278.0, 0.006836940698874755
1279.0, 0.004593195003413848
1280.0, 0.0010815523726110177
1281.0, 0.0022722413951321856
1282.0, 0.0007200456943475436
1283.0, 0.003844480419278778
1284.0, 0.008500136125324046
1285.0, 0.01198262179119613
1286.0, 0.009828822249804272
1287.0, 0.0054469310263498575
1288.0, 0.004159696337745386
1289.0, 0.0009181421586088669
1290.0, 0.005897437786657899
1291, 0.0
1292, 0.0
1293, 0.0
1294, 0.0
1295, 0.0
1296, 0.0
1297, 0.0
1298, 0.0
1299, 0.0
1300, 0.0
1301, 0.0
1302, 0.0
1303, 0.0
1304, 0.0
1305, 0.0
1306, 0.0
1307, 0.0
1308, 0.0
1309, 0.0
1310, 0.0
1311, 0.0
1312, 0.0
1313, 0.0
1314, 0.0
1315, 0.0
1316, 0.0
1317, 0.0
1318, 0.0
1319, 0.0
1320, 0.0
1321, 0.0
1322, 0.0
1323, 0.0
1324, 0.0
1325, 0.0
1326, 0.0
1327, 0.0
1328, 0.0
1329, 0.0
1330, 0.0
1331, 0.0
1332, 0.0
1333, 0.0
1334, 0.0
1335, 0.0
1336, 0.0
1337, 0.0
1338, 0.0
1339, 0.0
1340, 0.0
1341, 0.0
1342, 0.0
1343, 0.0
1344, 0.0
1345, 0.0
1346, 0.0
1347, 0.0
1348, 0.0
1349, 0.0
1350, 0.0
1351, 0.0
1352, 0.0
1353, 0.0
1354, 0.0
1355, 0.0
1356, 0.0
1357, 0.0
1358, 0.0
1359, 0.0
1360, 0.0
1361, 0.0
1362, 0.0
1363, 0.0
1364, 0.0
1365, 0.0
1366, 0.0
1367, 0.0
1368, 0.0
1369, 0.0
1370, 0.0
1371, 0.0
1372, 0.0
1373, 0.0
1374, 0.0
1375, 0.0
1376, 0.0
1377, 0.0
1378, 0.0
1379, 0.0
1380, 0.0
1381, 0.0
1382, 0.0
1383, 0.0
1384, 0.0
1385, 0.0
1386, 0.0
1387, 0.0
1388, 0.0
1389, 0.0
1390, 0.0
1391, 0.0
1392, 0.0
1393, 0.0
1394, 0.0
1395, 0.0
1396, 0.0
1397, 0.0
1398, 0.0
1399, 0.0
1400, 0.0
1401, 0.0
1402, 0.0
1403, 0.0
1404, 0.0
1405, 0.0
1406, 0.0
1407, 0.0
1408, 0.0
1409, 0.0
1410, 0.0
1411, 0.0
1412, 0.0
1413, 0.0
1414, 0.0
1415, 0.0
1416, 0.0
1417, 0.0
1418, 0.0
1419, 0.0
1420, 0.0
1421, 0.0
1422, 0.0
1423, 0.0
1424, 0.0
1425, 0.0
1426, 0.0
1427, 0.0
1428, 0.0
1429, 0.0
1430, 0.0
1431, 0.0
1432, 0.0
1433, 0.0
1434, 0.0
1435, 0.0
1436, 0.0
1437, 0.0
1438, 0.0
1439, 0.0
1440, 0.0
1441, 0.0
1442, 0.0
1443, 0.0
1444, 0.0
1445, 0.0
1446, 0.0
1447, 0.0
1448, 0.0
1449, 0.0
1450, 0.0
1451, 0.0
1452, 0.0
1453, 0.0
1454, 0.0
1455, 0.0
1456, 0.0
1457, 0.0
1458, 0.0
1459, 0.0
1460, 0.0
1461, 0.0
1462, 0.0
1463, 0.0
1464, 0.0
1465, 0.0
1466, 0.0
1467, 0.0
1468, 0.0
1469, 0.0
1470, 0.0
1471, 0.0
1472, 0.0
1473, 0.0
1474, 0.0
1475, 0.0
1476, 0.0
1477, 0.0
1478, 0.0
1479, 0.0
1480, 0.0
1481, 0.0
1482, 0.0
1483, 0.0
1484, 0.0
1485, 0.0
1486, 0.0
1487, 0.0
1488, 0.0
1489, 0.0
1490, 0.0
1491, 0.0
1492, 0.0
1493, 0.0
1494, 0.0
1495, 0.0
1496, 0.0
1497, 0.0
1498, 0.0
1499, 0.0
1500, 0.0
1501, 0.0
1502, 0.0
1503, 0.0
1504, 0.0
1505, 0.0
1506, 0.0
1507, 0.0
1508, 0.0
1509, 0.0
1510, 0.0
1511, 0.0
1512, 0.0
1513, 0.0
1514, 0.0
1515, 0.0
1516, 0.0
1517, 0.0
1518, 0.0
1519, 0.0
1520, 0.0
1521, 0.0
1522, 0.0
1523, 0.0
1524, 0.0
1525, 0.0
1526, 0.0
1527, 0.0
1528, 0.0
1529, 0.0
1530, 0.0
1531, 0.0
1532, 0.0
1533, 0.0
1534, 0.0
1535, 0.0
1536, 0.0
1537, 0.0
1538, 0.0
1539, 0.0
1540, 0.0
1541, 0.0
1542, 0.0
1543, 0.0
1544, 0.0
1545, 0.0
1546, 0.0
1547, 0.0
1548, 0.0
1549, 0.0
1550, 0.0
1551, 0.0
1552, 0.0
1553, 0.0
1554, 0.0
1555, 0.0
1556, 0.0
1557, 0.0
1558, 0.0
1559, 0.0
1560, 0.0
1561, 0.0
1562, 0.0
1563, 0.0
1564, 0.0
1565, 0.0
1566, 0.0
1567, 0.0
1568, 0.0
1569, 0.0
1570, 0.0
1571, 0.0
1572, 0.0
1573, 0.0
1574, 0.0
1575, 0.0
1576, 0.0
1577, 0.0
1578, 0.0
1579, 0.0
1580, 0.0
1581, 0.0
1582, 0.0
1583, 0.0
1584, 0.0
1585, 0.0
1586, 0.0
1587, 0.0
1588, 0.0
1589, 0.0
1590, 0.0
1591, 0.0
1592, 0.0
1593, 0.0
1594, 0.0
1595, 0.0
1596, 0.0
1597, 0.0
1598, 0.0
1599, 0.0
