30, 0.0
31, 0.0
32, 0.0
33, 0.0
34, 0.0
35, 0.0
36, 0.0
37, 0.0
38, 0.0
39, 0.0
40, 0.0
41, 0.0
42, 0.0
43, 0.0
44, 0.0
45, 0.0
46, 0.0
47, 0.0
48, 0.0
49, 0.0
50, 0.0
51, 0.0
52, 0.0
53, 0.0
54, 0.0
55, 0.0
56, 0.0
57, 0.0
58, 0.0
59, 0.0
60, 0.0
61, 0.0
62, 0.0
63, 0.0
64, 0.0
65, 0.0
66, 0.0
67, 0.0
68, 0.0
69, 0.0
70, 0.0
71, 0.0
72, 0.0
73, 0.0
74, 0.0
75, 0.0
76, 0.0
77, 0.0
78, 0.0
79, 0.0
80, 0.0
81, 0.0
82, 0.0
83, 0.0
84, 0.0
85, 0.0
86, 0.0
87, 0.0
88, 0.0
89.0, 0.0009995707275202467
90.0, 0.00241224683165232
91.0, 0.0032086475886747953
92.0, 0.0031758616878049444
93.0, 0.0028171255114835545
94.0, 0.002218071117849879
95.0, 0.0008467789679801502
96.0, 0.0008304919791514575
97.0, 0.0012725607940924216
98.0, 0.0008807630369867847
99.0, 0.001237944212786396
100.0, 0.0015389650006812435
101.0, 0.001659249270680731
102.0, 0.0021934045023416044
103.0, 0.002365802658802529
104.0, 0.0024332779642517676
105.0, 0.002680886056644511
106.0, 0.003897061984754139
107.0, 0.004323819430215828
108.0, 0.003974187481041427
109.0, 0.005147863439941832
110.0, 0.0066234646563278704
111.0, 0.009456562602747902
112.0, 0.014993248776675227
113.0, 0.02427866628038238
114.0, 0.03381966435784066
115.0, 0.04320823400782591
116.0, 0.05200309844141625
117.0, 0.056642869469859095
118.0, 0.05831825616086593
119.0, 0.057180797011070726
120.0, 0.049435961456338426
121.0, 0.04158312146046075
122.0, 0.03395059759821571
123.0, 0.026774476721124544
124.0, 0.0228125929073555
125.0, 0.020044340474413124
126.0, 0.017747660173307783
127.0, 0.011270892431202606
128.0, 0.008785164637506199
129.0, 0.00831782048679891
130.0, 0.006331634554381968
131.0, 0.0032831603242350687
132.0, 0.0021738573269561162
133.0, 0.003570427103879922
134.0, 0.0029956071041933982
135.0, 0.0019771320184670893
136.0, 0.0020114835780532967
137.0, 0.005280288886462764
138.0, 0.004269135641301368
139.0, 0.00417089184970072
140.0, 0.005259848682696809
141.0, 0.004857693844860474
142.0, 0.0057038352410163804
143.0, 0.006598692337061975
144.0, 0.006702500540884195
145.0, 0.008017656976649945
146.0, 0.008133406502219378
147.0, 0.007395257654937052
148.0, 0.0071174636299547985
149.0, 0.007733652672275629
150.0, 0.008579046319001991
151.0, 0.00944103509482434
152.0, 0.011125853180641411
153.0, 0.01576708199160414
154.0, 0.023370894972599452
155.0, 0.03476611121546902
156.0, 0.05189522740223044
157.0, 0.06822666623345103
158.0, 0.08279116499983738
159.0, 0.09799078671968142
160.0, 0.10969164183692211
161.0, 0.11449297586206933
162.0, 0.1079842437709733
163.0, 0.09695654904469034
164.0, 0.08045133127053393
165.0, 0.060209816104635966
166.0, 0.04184249879225807
167.0, 0.029372128232511077
168.0, 0.022259989293052933
169.0, 0.0207746937608334
170.0, 0.023698662670280094
171.0, 0.031413501818814554
172.0, 0.04597196662370532
173.0, 0.07246213984323503
174.0, 0.10947260512564087
175.0, 0.14805517287121625
176.0, 0.18463948240389608
177.0, 0.20464973226068184
178.0, 0.2087348080415653
179.0, 0.1980319209819547
180.0, 0.1707144533129037
181.0, 0.11893381722480599
182.0, 0.07707440360833948
183.0, 0.045661792177776064
184.0, 0.02516631754084566
185.0, 0.015908983735485455
186.0, 0.010550615015394548
187.0, 0.007272598004513267
188.0, 0.006911561778858306
189.0, 0.0075174304226214555
190.0, 0.007850464187438393
191.0, 0.0065235721688483225
192.0, 0.006142465200716622
193.0, 0.0054378379268513275
194.0, 0.00453275937678349
195.0, 0.004315633438364414
196.0, 0.0026504901048131626
197.0, 0.0010551199070745667
198.0, 0.0001570632454773467
199.0, 0.0001459239540021863
200.0, 0.00046808840609752173
201.0, 0.0009885331367531932
202.0, 0.0015609019830951777
203.0, 0.0026386762176630082
204.0, 0.003886162924427275
205.0, 0.005250438034579748
206.0, 0.006696694470992805
207.0, 0.009253208086240595
208.0, 0.011614879932642335
209.0, 0.01316016288001281
210.0, 0.017895100227802014
211.0, 0.02317182478359608
212.0, 0.029639686524994623
213.0, 0.038633714409114506
214.0, 0.0488855740794507
215.0, 0.0632573064872325
216.0, 0.0839278562134925
217.0, 0.12089277188864403
218.0, 0.17041331228888038
219.0, 0.2302056328535766
220.0, 0.29999710760106313
221.0, 0.35232925494218786
222.0, 0.3831139679735957
223.0, 0.39050780967517784
224.0, 0.3667138843395482
225.0, 0.32054505278183504
226.0, 0.27679022056007135
227.0, 0.24355459366959423
228.0, 0.24431608643485148
229.0, 0.2653453324353804
230.0, 0.28819827646710316
231.0, 0.30364972855497263
232.0, 0.29587401291062576
233.0, 0.27272097868959805
234.0, 0.2359719731885211
235.0, 0.1855159761769461
236.0, 0.13991935258803523
237.0, 0.10086621015328212
238.0, 0.06893546693088576
239.0, 0.0464872784273365
240.0, 0.03208210829812198
241.0, 0.023936256570946626
242.0, 0.0216953071160778
243.0, 0.022594412316893863
244.0, 0.02788099500571479
245.0, 0.03805655049468406
246.0, 0.054627796532974005
247.0, 0.07371357354716424
248.0, 0.0878151448837122
249.0, 0.0967020962930485
250.0, 0.10073623447006554
251.0, 0.09345173233041804
252.0, 0.08046160369352645
253.0, 0.06366681644278206
254.0, 0.04833754200106345
255.0, 0.03483538659663008
256.0, 0.024124448176233656
257.0, 0.01735486885392659
258.0, 0.014190475613856047
259.0, 0.013198742111522986
260.0, 0.014268931014937378
261.0, 0.01762079620039917
262.0, 0.018747765348778648
263.0, 0.018967806039030317
264.0, 0.018333779361509456
265.0, 0.01584307503237219
266.0, 0.010071475044306484
267.0, 0.004494115554488676
268.0, 0.0008984867368186597
269.0, 0.0027323140524626657
270.0, 0.003101885410934039
271.0, 0.0034208625549632696
272.0, 0.005342837608726395
273.0, 0.0035333341534487953
274.0, 0.002995583640200145
275.0, 0.0032890787798463272
276.0, 0.0022127998786101158
277.0, 0.0011591951390849942
278.0, 0.0009068825859453889
279.0, 0.001748448878578004
280.0, 0.004254799695005711
281.0, 0.005919247384366472
282.0, 0.006913673193564574
283.0, 0.007287154476445396
284.0, 0.007669468670274567
285.0, 0.007241559763248284
286.0, 0.007049455063440623
287.0, 0.008574750121002454
288.0, 0.009446072340103875
289.0, 0.009572044918346151
290.0, 0.008723355113446572
291.0, 0.006098148657452538
292.0, 0.004349545580396261
293.0, 0.0029531741210435804
294.0, 0.0019470512486408887
295.0, 0.0026050492627962777
296.0, 0.0029378659624575347
297.0, 0.0038644549969945314
298.0, 0.005985458621875845
299.0, 0.010351318079883577
300.0, 0.014060211253777426
301.0, 0.01725451209105794
302.0, 0.020042337108714458
303.0, 0.0200214702287426
304.0, 0.018157793333920848
305.0, 0.014974653484067464
306.0, 0.01144937737434232
307.0, 0.010854875337453666
308.0, 0.01197462362301323
309.0, 0.013877530444058423
310.0, 0.012655311682739444
311.0, 0.01143376068559273
312.0, 0.010156741412176129
313.0, 0.008704577001145995
314.0, 0.005477815020136541
315.0, 0.0028531850047356336
316.0, 0.0014553936154886825
317.0, 0.0019781570056829575
318.0, 0.001990545800016919
319.0, 0.0013802582095572011
320.0, 0.0008066430998667443
321.0, 0.0014413402699473441
322.0, 0.0016545567655384325
323.0, 0.0010784551417573726
324.0, 0.00020773526665717563
325.0, 0.0008321124660878585
326.0, 0.0020546771975348877
327.0, 0.0037394923955182354
328.0, 0.0060149001879735795
329.0, 0.009959153482237037
330.0, 0.01368862231745297
331.0, 0.016373915231056115
332.0, 0.017513016315883596
333.0, 0.016991496158843405
334.0, 0.014601592911833756
335.0, 0.012492946340947065
336.0, 0.012710243036056192
337.0, 0.013192949483758586
338.0, 0.015191580704041826
339.0, 0.018731970332949287
340.0, 0.023979256976468754
341.0, 0.032085961216803634
342.0, 0.03992707777301235
343.0, 0.04768965082014137
344.0, 0.05695221670270474
345.0, 0.06377790065685028
346.0, 0.07325957025311047
347.0, 0.0868957529182109
348.0, 0.10638500491291134
349.0, 0.12317765618995391
350.0, 0.13630671301164926
351.0, 0.1444677832294606
352.0, 0.13915717068051947
353.0, 0.12519197110709976
354.0, 0.10667126124721578
355.0, 0.08618316929299683
356.0, 0.07235939056787577
357.0, 0.06428005331233018
358.0, 0.059242516998436086
359.0, 0.05450261816782917
360.0, 0.0564077710580573
361.0, 0.05989201249179943
362.0, 0.06610316317490691
363.0, 0.07778083515922458
364.0, 0.09113063953751274
365.0, 0.11479647311014467
366.0, 0.14691969663504048
367.0, 0.18031137904707362
368.0, 0.20250226888269893
369.0, 0.20807174659349553
370.0, 0.1971784994467892
371.0, 0.17550775535563534
372.0, 0.14919254776547003
373.0, 0.12599492562033757
374.0, 0.10851745745109592
375.0, 0.09608921808602572
376.0, 0.08355152329125226
377.0, 0.07179831600144929
378.0, 0.061217655349685346
379.0, 0.05009021241430757
380.0, 0.04284670087643945
381.0, 0.036900728200141654
382.0, 0.03048200637941557
383.0, 0.03165634712237439
384.0, 0.03225651251976631
385.0, 0.034071857940298406
386.0, 0.03916439740931917
387.0, 0.048461441814431155
388.0, 0.0626628182385185
389.0, 0.081802816499966
390.0, 0.10631656842647395
391.0, 0.1411626069993891
392.0, 0.17139028026933942
393.0, 0.19195605229665533
394.0, 0.19374697166221896
395.0, 0.1763437232551796
396.0, 0.1475549585774455
397.0, 0.11219871806501117
398.0, 0.08104375125520112
399.0, 0.05829023665356288
400.0, 0.042636332923293996
401.0, 0.033098419156447074
402.0, 0.02673199716819964
403.0, 0.025364899373351964
404.0, 0.024311600200249712
405.0, 0.02300373526127816
406.0, 0.026480502425443635
407.0, 0.027482610514978845
408.0, 0.03450930520990686
409.0, 0.05080617131765249
410.0, 0.07275239086317055
411.0, 0.07371373176342821
412.0, 0.07654493479632171
413.0, 0.09231839534062435
414.0, 0.10687061471418714
415.0, 0.11137579368698546
416.0, 0.11006471526371263
417.0, 0.1051921728997812
418.0, 0.08876514842816216
419.0, 0.07354818227939457
420.0, 0.05790205244233869
421.0, 0.04054589743276379
422.0, 0.03400436834767206
423.0, 0.02765366934802527
424.0, 0.022202515863335562
425.0, 0.01842088440907047
426.0, 0.016497817666435665
427.0, 0.014419532326423607
428.0, 0.013648656079350613
429.0, 0.016137501684569268
430.0, 0.017470368163456325
431.0, 0.022620663361070745
432.0, 0.030259460888552824
433.0, 0.03823302793065557
434.0, 0.04663092603331968
435.0, 0.049740580406403785
436.0, 0.04723609411872282
437.0, 0.03885677033011086
438.0, 0.03018888743959697
439.0, 0.020507677655725236
440.0, 0.011589576265594505
441.0, 0.0071946418272301835
442.0, 0.005646015265740978
443.0, 0.0041086605862751015
444.0, 0.0024551427917881567
445.0, 0.00113596442941591
446.0, 0.0005802598659320423
447.0, 0.0007082074297266314
448.0, 0.0010841114273206635
449.0, 0.000637315066790542
450.0, 0.0007214565989884271
451.0, 0.0007757669592230213
452.0, 0.0007629373266428534
453.0, 0.000827000764611758
454.0, 0.0011225858609515422
455.0, 0.001570100106246382
456.0, 0.0023791258681577056
457.0, 0.004248784798746587
458.0, 0.004986687200337662
459.0, 0.007000111444006539
460.0, 0.01006354429969375
461.0, 0.011942513480130274
462.0, 0.013942952153242955
463.0, 0.014752220199469382
464.0, 0.014352995458899478
465.0, 0.013595515676234139
466.0, 0.011596236193477208
467.0, 0.009224488285205758
468.0, 0.006577668835219815
469.0, 0.003330774573179006
470.0, 0.0033018468829783005
471.0, 0.0032587904666111114
472.0, 0.0025129457315296896
473.0, 0.001166240333969819
474.0, 0.0010552721390767975
475.0, 0.0007908352732009089
476.0, 0.00023996941505479824
477.0, 3.719927212650782e-05
478.0, 7.415564242036396e-05
479.0, 0.0005378238859165563
480.0, 0.0016249894073657246
481.0, 0.003886530530875467
482.0, 0.0039204894023922455
483.0, 0.00486326724448059
484.0, 0.006597219617719933
485.0, 0.00649194273916396
486.0, 0.005031168905470746
487.0, 0.004348728745030774
488.0, 0.004165194820930218
489.0, 0.002211507393703207
490.0, 0.0017818147917061848
491.0, 0.001673605344776681
492.0, 0.0019287075247490365
493.0, 0.0033559082931833547
494.0, 0.0018425992118405218
495.0, 0.0005963418038919927
496.0, 0.0003266058923840111
497.0, 0.001479505277139092
498.0, 0.0031312526512813823
499.0, 0.0024992565796252237
500.0, 0.0014982431250245836
501.0, 0.005860069097740022
502.0, 0.005231207231407611
503.0, 0.006338332602486792
504.0, 0.008638538134304421
505.0, 0.00903355319952995
506.0, 0.012100220514564584
507.0, 0.015946460731343322
508.0, 0.02057202572561122
509.0, 0.026408154385221202
510.0, 0.035097890480546894
511.0, 0.04428323713068404
512.0, 0.05185468459766939
513.0, 0.05460082553980039
514.0, 0.05762414031292093
515.0, 0.05848537769845719
516.0, 0.057523151656595196
517.0, 0.05541298662042833
518.0, 0.052307969701622624
519.0, 0.050953763300460427
520.0, 0.04945707288302354
521.0, 0.04543191338872712
522.0, 0.045474543550259434
523.0, 0.04820374482578833
524.0, 0.05232685794359616
525.0, 0.056625275712904856
526.0, 0.06732717511418117
527.0, 0.07620708906881225
528.0, 0.08137713970757257
529.0, 0.08133174282105847
530.0, 0.07774034808190348
531.0, 0.06709627349948931
532.0, 0.054489398549080734
533.0, 0.04328895924514204
534.0, 0.032906916045083244
535.0, 0.027349833225900556
536.0, 0.021791248410647866
537.0, 0.014567839404055443
538.0, 0.013478962148095215
539.0, 0.01022099014167399
540.0, 0.00825670994144265
541.0, 0.008245765258809712
542.0, 0.0055312131786154906
543.0, 0.004363293571501105
544.0, 0.003638821318900776
545.0, 0.002942231174035997
546.0, 0.0019973186088876682
547.0, 0.0019217096017320088
548.0, 0.0017030716880855393
549.0, 0.001259011484179686
550.0, 0.001051148746044134
551.0, 0.001620669855347362
552.0, 0.0013228810930180975
553.0, 0.00093600311119687
554.0, 0.0027745155364721085
555.0, 0.0015168367627576196
556.0, 0.0010323894558557445
557.0, 0.001165116759658891
558.0, 0.0010370338012985411
559.0, 0.0013128641702870561
560.0, 0.0016604396570117368
561.0, 0.0016732381005350187
562.0, 0.0009030922594745265
563.0, 0.0005264746062309477
564.0, 0.0014589654858601193
565.0, 0.002204459199862181
566.0, 0.0015166166433389855
567.0, 0.000557202415413849
568.0, 0.000993072436817429
569.0, 0.0011704322078384013
570.0, 0.00041265856338097956
571.0, 0.0018313459317096654
572.0, 0.0011833582875500613
573.0, 0.0006643617131687874
574.0, 0.0009315628720184572
575.0, 0.000550040083583999
576.0, 0.002251557512127378
577.0, 0.0028355646412619073
578.0, 0.002091428087003581
579.0, 0.002310818734909795
580.0, 0.0035631532502225323
581.0, 0.004062675661966343
582.0, 0.003906687765823327
583.0, 0.003976004521805399
584.0, 0.004592904414164446
585.0, 0.004352334986404472
586.0, 0.0029643416080952353
587.0, 0.0002117094031968943
588.0, 0.0019585357079347126
589.0, 0.003413228967144966
590.0, 0.003683512079847083
591.0, 0.0022335544126466343
592.0, 0.004082942537333156
593.0, 0.0026117314234012797
594.0, 0.0011823517252517897
595.0, 0.0016216780637755266
596.0, 0.0012632144710225171
597.0, 0.002147370805387476
598.0, 0.0027695140270704507
599.0, 0.0025385359822381924
600.0, 0.0014832272010131642
601.0, 0.002178385362717305
602.0, 0.0030045937051474407
603.0, 0.0031671944391430135
604.0, 0.0015700371821850963
605.0, 0.00208780034227571
606.0, 0.0028556954551256226
607.0, 0.00326391540423637
608.0, 0.0027016121493206825
609.0, 0.003671191687640931
610.0, 0.003950915355903712
611.0, 0.003819903663871815
612.0, 0.0036297896700900854
613.0, 0.002923876953511992
614.0, 0.002973871069563321
615.0, 0.0033803372920757427
616.0, 0.0038519033030274753
617.0, 0.004056460475148452
618.0, 0.00438034446223
619.0, 0.004774570220945002
620.0, 0.005262912657606316
621.0, 0.006002544157333507
622.0, 0.006139415677927609
623.0, 0.006938701530524155
624.0, 0.008090154102590976
625.0, 0.008446095145067998
626.0, 0.008610494189494248
627.0, 0.008267656609824266
628.0, 0.008087400140923727
629.0, 0.008889187302736582
630.0, 0.010425286643707166
631.0, 0.011008469513315591
632.0, 0.011604958589711313
633.0, 0.012879109160311566
634.0, 0.014548981359232329
635.0, 0.014932882316553845
636.0, 0.015735990444023733
637.0, 0.01778459239951312
638.0, 0.021713760555776396
639.0, 0.023343440906018805
640.0, 0.026324748523693382
641.0, 0.03001388761239173
642.0, 0.03157136466171142
643.0, 0.03636197707013164
644.0, 0.03917258064676009
645.0, 0.042930465227080716
646.0, 0.05129477347885225
647.0, 0.06304658733764107
648.0, 0.07155363861965605
649.0, 0.0787912870007721
650.0, 0.0865105562135325
651.0, 0.09807439518843905
652.0, 0.10614595301307322
653.0, 0.10978300968312552
654.0, 0.10938063441317114
655.0, 0.10717948610168487
656.0, 0.10628130622720763
657.0, 0.10424037647795277
658.0, 0.1036992452899772
659.0, 0.10929164834318304
660.0, 0.11561781319096459
661.0, 0.12398814052446325
662.0, 0.13764001493556144
663.0, 0.15912457652757944
664.0, 0.1884321587068114
665.0, 0.22520100741673266
666.0, 0.27761691589940407
667.0, 0.3487228231497637
668.0, 0.4369923660782712
669.0, 0.5672679686980057
670.0, 0.7069939732620857
671.0, 0.8416222237886118
672.0, 0.9554306302416872
673.0, 0.9895092934292029
674.0, 0.956627778277525
675.0, 0.8669277637082369
676.0, 0.7342010322176324
677.0, 0.5983693913322589
678.0, 0.4841764079257198
679.0, 0.38435258788101606
680.0, 0.299067754779059
681.0, 0.2453621447072219
682.0, 0.21193136433317591
683.0, 0.1862732810190907
684.0, 0.1669570878261066
685.0, 0.15604016391535155
686.0, 0.1509987573250334
687.0, 0.14879646801134747
688.0, 0.15003658910011605
689.0, 0.15442023891826748
690.0, 0.14891196846025462
691.0, 0.1425990674180829
692.0, 0.13006942149204587
693.0, 0.11147468975825857
694.0, 0.09736608844761428
695.0, 0.08402379814422578
696.0, 0.07149445650535662
697.0, 0.06135261410016091
698.0, 0.05619103897308911
699.0, 0.05141165983472592
700.0, 0.04510364060979726
701.0, 0.04049169102869369
702.0, 0.03939956909982801
703.0, 0.0336970408583748
704.0, 0.03242160987885729
705.0, 0.03105411264498783
706.0, 0.028539383942528702
707.0, 0.026753212557890434
708.0, 0.026312614547426443
709.0, 0.025739747883580452
710.0, 0.025179100196188187
711.0, 0.025042922654375764
712.0, 0.02410505352993984
713.0, 0.024429510879601102
714.0, 0.023985673315389023
715.0, 0.021785717729905885
716.0, 0.019237532217286194
717.0, 0.019096245311353018
718.0, 0.017838419171281178
719.0, 0.015508550459734071
720.0, 0.013994356013901421
721.0, 0.014255873381984923
722.0, 0.014291035660545215
723.0, 0.014162165826198307
724.0, 0.014021957963860784
725.0, 0.013863498320702227
726.0, 0.014549376080669255
727.0, 0.014209667468451436
728.0, 0.013183763638413079
729.0, 0.014688622660976113
730.0, 0.014700148968021317
731.0, 0.015284576320145748
732.0, 0.016922077122436603
733.0, 0.019792700832145745
734.0, 0.02206967113454752
735.0, 0.02736521956380698
736.0, 0.03393205223170963
737.0, 0.041153118153977424
738.0, 0.05052957191445794
739.0, 0.05572603830806251
740.0, 0.05827182923909894
741.0, 0.056322230166369995
742.0, 0.046795371951960076
743.0, 0.04268453134633755
744.0, 0.038920290572429114
745.0, 0.034723232845167845
746.0, 0.030702609835881293
747.0, 0.033421893853032264
748.0, 0.035260145384709785
749.0, 0.037807341929332314
750.0, 0.03874018760137805
751.0, 0.03297651263567338
752.0, 0.030384473986109398
753.0, 0.02659187083252822
754.0, 0.02266538572108127
755.0, 0.01950926176357228
756.0, 0.01671014989946384
757.0, 0.013962164546213844
758.0, 0.011949611667375171
759.0, 0.010467048991591059
760.0, 0.008633368805285603
761.0, 0.008830325785114258
762.0, 0.007605308155923952
763.0, 0.007070054071619355
764.0, 0.008348111361621975
765.0, 0.004550597125256535
766.0, 0.007249698643242047
767.0, 0.007689291692773912
768.0, 0.005397604778990731
769.0, 0.005538408356639358
770.0, 0.004237321985368284
771.0, 0.003972367683430541
772.0, 0.0045556767706128026
773.0, 0.0054397553473533285
774.0, 0.004673337870635086
775.0, 0.004768359710829842
776.0, 0.005146648365187837
777.0, 0.004758053531865994
778.0, 0.0017121139917659258
779.0, 0.0037502721926383543
780.0, 0.00296345012884638
781.0, 0.0013882706596786945
782.0, 0.0011578912365191665
783.0, 0.002803953915423988
784.0, 0.003466418597489935
785.0, 0.004647947498746327
786.0, 0.0051106094955345625
787.0, 0.0016007883815991031
788.0, 0.002817509115999749
789.0, 0.002814078216410844
790.0, 0.0018845147357589563
791.0, 0.0006715189092879461
792.0, 0.0006588516575057559
793.0, 0.0004653111839857517
794.0, 0.0010733526747643753
795.0, 0.0018151002519099233
796.0, 0.001191679628441961
797.0, 0.0005671217165002673
798.0, 0.0010315325257709762
799.0, 0.0011362180956899681
800.0, 0.00040738248010154063
801.0, 0.0007951475578611327
802.0, 0.0007418095320574997
803.0, 0.0005145324739144481
804.0, 0.0007678421424313398
805.0, 0.0022248405394671503
806.0, 0.0028148490977569197
807.0, 0.0014564828870809103
808.0, 0.0005322522527164739
809.0, 0.0009766985014981818
810.0, 0.002096122047738033
811.0, 0.0021061096443314685
812.0, 0.0019593898173334134
813.0, 0.0016745326233281552
814.0, 0.0012391643852268687
815.0, 0.0013670649310946067
816.0, 0.0006486268612439531
817.0, 0.00021449993693778305
818.0, 0.0009151971040275036
819.0, 0.00372898102756226
820.0, 0.0014481566384671979
821.0, 0.0008626819513543028
822.0, 0.0011934721814635325
823.0, 0.0015462634476827112
824.0, 0.0015384682635068406
825.0, 0.0009423599831523948
826.0, 0.0016386706178384593
827.0, 0.0027771584769567138
828.0, 0.002543763668435238
829.0, 0.0008172150980137899
830.0, 0.0011677067523073554
831.0, 0.001184722091837912
832.0, 0.0004048647256015917
833.0, 0.0010524026590218742
834.0, 0.0015902930649725536
835.0, 0.0009855038416663481
836.0, 0.0004164613590018098
837.0, 0.0009784814879816662
838.0, 0.0017059332660693584
839.0, 0.0016838055298350053
840.0, 0.0015445375109322192
841.0, 0.0013105279268832127
842.0, 0.0007199315337505546
843.0, 0.0002442549737083453
844.0, 0.0001769004801372958
845.0, 0.000360492629293615
846.0, 0.0008641191530497013
847.0, 0.002320327203495126
848.0, 0.0024687790079923125
849.0, 0.0024125832748063143
850.0, 0.002088715023899346
851.0, 0.0013261988437237456
852.0, 0.0002974403589204332
853.0, 0.00018299264117767024
854.0, 0.000638756147817782
855.0, 0.001378655260806843
856.0, 0.002056770723426713
857.0, 0.0011749360535185606
858.0, 0.0013913578025284783
859.0, 0.0013038612980973252
860.0, 0.0010802459056246752
861.0, 0.004255654243311723
862.0, 0.0013000987398946089
863.0, 6.586755926340157e-05
864.0, 0.0003303886629595571
865.0, 0.000999025854922144
866.0, 0.002638674570757081
867.0, 0.001482955529314451
868.0, 0.0011947468504521633
869.0, 0.0014512064552264017
870.0, 0.0002211257159935048
871.0, 0.0013888102339525608
872.0, 0.0008407806044954727
873.0, 0.000520217253757303
874.0, 0.000851093078973218
875.0, 0.0003056355360882509
876.0, 0.0002522762746192907
877.0, 0.00020899725916426702
878.0, 0.0008989299500426497
879.0, 0.0023988145347907212
880.0, 0.00201344671674873
881.0, 0.004333792790350157
882.0, 0.003837052887842846
883.0, 0.0016726600366682967
884.0, 0.0005872613387015518
885.0, 0.00022334166292044147
886.0, 0.0010845050536278315
887.0, 0.0013652209934315064
888.0, 0.0010473800805805272
889.0, 0.0012986387535486301
890.0, 0.004461614416405668
891.0, 0.003712506787789649
892.0, 0.0025645139126705256
893.0, 0.002781276158955068
894.0, 0.003493517486506544
895.0, 0.0016245715442083377
896.0, 0.001813979685475705
897.0, 0.0033887543679987316
898.0, 0.005271893331738385
899.0, 0.006754838705697137
900.0, 0.008002027951483408
901.0, 0.007772496336464778
902.0, 0.0081202302351022
903.0, 0.011319415539673916
904.0, 0.012802499524295671
905.0, 0.013720972671159718
906.0, 0.01156131400747313
907.0, 0.009359701689049192
908.0, 0.013221035142383257
909.0, 0.012078274637214234
910.0, 0.010118919753497858
911.0, 0.010321124273239042
912.0, 0.012194597327265987
913.0, 0.011204483972914124
914.0, 0.01453890256942103
915.0, 0.014123195760925229
916.0, 0.014837493112797506
917.0, 0.018196956986924053
918.0, 0.017353731753867615
919.0, 0.022883671348168773
920.0, 0.02900823756528444
921.0, 0.03361666301567626
922.0, 0.0369171751988701
923.0, 0.04721638051754636
924.0, 0.06054703174546446
925.0, 0.07310784988476705
926.0, 0.08855729587569114
927.0, 0.11023905172204405
928.0, 0.12456492509268698
929.0, 0.1414575055670086
930.0, 0.14243255534918048
931.0, 0.13106690468664894
932.0, 0.11991319195220215
933.0, 0.09712620689510106
934.0, 0.079458702500673
935.0, 0.06559696804809381
936.0, 0.054105366529579264
937.0, 0.043230267037034115
938.0, 0.03990413282443366
939.0, 0.040278686310626165
940.0, 0.04159976724327623
941.0, 0.042928977942753445
942.0, 0.04532967952922537
943.0, 0.056320676856337036
944.0, 0.06478653500021456
945.0, 0.07158110031722545
946.0, 0.07689966518656566
947.0, 0.07898704627179227
948.0, 0.06792261870802947
949.0, 0.05719977508431979
950.0, 0.04794545318882624
951.0, 0.040122832813540524
952.0, 0.03319878576746664
953.0, 0.024813974840139218
954.0, 0.021821722271981155
955.0, 0.019794564443000193
956.0, 0.015673417712004752
957.0, 0.016364693795301914
958.0, 0.015953868650547855
959.0, 0.014807520455965385
960.0, 0.012320093765266816
961.0, 0.008816995427019267
962.0, 0.009865086042562428
963.0, 0.00831175061598268
964.0, 0.00769000915662212
965.0, 0.008195522720290584
966.0, 0.00882169864617315
967.0, 0.006084765296526766
968.0, 0.007434959330312929
969.0, 0.007479104968156229
970.0, 0.006341985867797492
971.0, 0.005742110621268503
972.0, 0.006269033038391981
973.0, 0.0060216305886817405
974.0, 0.005930748535049938
975.0, 0.00574490931050832
976.0, 0.004974868448010907
977.0, 0.005331965636272558
978.0, 0.005726030278331604
979.0, 0.005243596653170273
980.0, 0.004807412889373204
981.0, 0.005834403313724877
982.0, 0.00513901671527801
983.0, 0.0054331447457287765
984.0, 0.006549550373794714
985.0, 0.006452762107812021
986.0, 0.002950297470426701
987.0, 0.0061171516246560685
988.0, 0.008216437124054557
989.0, 0.006235906775357518
990.0, 0.003803729021441549
991.0, 0.007329145585922595
992.0, 0.008354368074227922
993.0, 0.007488060271346152
994.0, 0.0064897002923894965
995.0, 0.0062922465197339525
996.0, 0.007281058908347773
997.0, 0.007632454903852032
998.0, 0.008460504360369705
999.0, 0.010325154986667428
1000.0, 0.01178849237060684
1001.0, 0.010668813509382846
1002.0, 0.010519750122024975
1003.0, 0.012673035512648232
1004.0, 0.01409122719597035
1005.0, 0.01513225147019861
1006.0, 0.017609915343041415
1007.0, 0.019411328628034435
1008.0, 0.022063312662464595
1009.0, 0.02626286618539433
1010.0, 0.030072613239907335
1011.0, 0.031230364698982115
1012.0, 0.03867689512089194
1013.0, 0.0395450945400463
1014.0, 0.04378402678612478
1015.0, 0.052284327961320654
1016.0, 0.06298097371365344
1017.0, 0.0824790920710021
1018.0, 0.09259981644603328
1019.0, 0.10001096422550962
1020.0, 0.10580469859517619
1021.0, 0.10987300794903601
1022.0, 0.11636058502620682
1023.0, 0.13522575925582397
1024.0, 0.16169925041546887
1025.0, 0.19350029750771136
1026.0, 0.22935790887369972
1027.0, 0.27207307469655234
1028.0, 0.2810362515898366
1029.0, 0.2690245949445274
1030.0, 0.23794629318962146
1031.0, 0.1923693392510295
1032.0, 0.1538494422609929
1033.0, 0.11783875766603473
1034.0, 0.09106459594880408
1035.0, 0.0732706376108713
1036.0, 0.06203771193164161
1037.0, 0.05331757713253554
1038.0, 0.048632005979573234
1039.0, 0.04293692837898298
1040.0, 0.03921215693341755
1041.0, 0.04186169726293751
1042.0, 0.0570062705621835
1043.0, 0.047445180116345076
1044.0, 0.04935804909090336
1045.0, 0.04861918441781295
1046.0, 0.04061243277467771
1047.0, 0.04083158406124211
1048.0, 0.05319465842108072
1049.0, 0.05949593991622883
1050.0, 0.06566746408978369
1051.0, 0.07364010719188427
1052.0, 0.08048121429750396
1053.0, 0.10339126178604267
1054.0, 0.13596677852188563
1055.0, 0.17618547473361953
1056.0, 0.2255385921786752
1057.0, 0.2867296263037632
1058.0, 0.34362499156508275
1059.0, 0.3760910320605656
1060.0, 0.3718121519799704
1061.0, 0.3327150697985459
1062.0, 0.27146493755142737
1063.0, 0.219076715239638
1064.0, 0.17780633098918228
1065.0, 0.14715134828981444
1066.0, 0.1281061786711785
1067.0, 0.12038524435633381
1068.0, 0.11934950098316432
1069.0, 0.11521012686643094
1070.0, 0.10584146670651065
1071.0, 0.09306283288790153
1072.0, 0.07883345322025742
1073.0, 0.06344192578407076
1074.0, 0.054264625380946035
1075.0, 0.04748334486373748
1076.0, 0.04066124307890247
1077.0, 0.035013926837628044
1078.0, 0.03666115189731514
1079.0, 0.034372728358768846
1080.0, 0.039107218799977396
1081.0, 0.0464304150049205
1082.0, 0.05947479306925123
1083.0, 0.08707046446273309
1084.0, 0.13260638908513556
1085.0, 0.17240907615684267
1086.0, 0.1933834061582848
1087.0, 0.18751273357373463
1088.0, 0.15331920626300705
1089.0, 0.10883725066584976
1090.0, 0.06898998822846933
1091.0, 0.04898466049008906
1092.0, 0.039517880528427626
1093.0, 0.02962227476663669
1094.0, 0.021463987644522356
1095.0, 0.017550557826470612
1096.0, 0.015611084467142251
1097.0, 0.014173409668539368
1098.0, 0.012694641060376937
1099.0, 0.01194747553926659
1100.0, 0.010672533929888348
1101.0, 0.009482466133402801
1102.0, 0.008709099368482144
1103.0, 0.007956362280668766
1104.0, 0.006530186303546344
1105.0, 0.006749433373767751
1106.0, 0.006807370512266647
1107.0, 0.007217569740256383
1108.0, 0.0071960582925292196
1109.0, 0.00588073505188232
1110.0, 0.004020391024294
1111.0, 0.007002375604569763
1112.0, 0.006606099508400629
1113.0, 0.004822670628318928
1114.0, 0.0045997677124629535
1115.0, 0.007634431347654036
1116.0, 0.002180762427485651
1117.0, 0.004628737951564223
1118.0, 0.006888293075769811
1119.0, 0.006689912661981746
1120.0, 0.007438782581843251
1121.0, 0.006797686156240693
1122.0, 0.006730769526934534
1123.0, 0.00489789136547788
1124.0, 0.0022125259459046505
1125.0, 0.0006885486057286965
1126.0, 0.0014906808364553827
1127.0, 0.0007505166608475357
1128.0, 0.0017391326722149703
1129.0, 0.0020375736290462643
1130.0, 0.0008287646362667351
1131.0, 0.0014851685050423233
1132.0, 0.0010344150037594464
1133.0, 0.0018196767694858484
1134.0, 0.0038693111002976663
1135.0, 0.004787473674441064
1136.0, 0.0015425747181229792
1137.0, 0.0014129761344276986
1138.0, 0.003147516692591343
1139.0, 0.0021106389389614387
1140.0, 0.00136065605516521
1141.0, 0.0036157568666725986
1142.0, 0.0036449630775065908
1143.0, 0.0012038313812817473
1144.0, 0.002018032932363963
1145.0, 0.0028211177399686247
1146.0, 0.0022366917717476947
1147.0, 0.002037613307265195
1148.0, 0.003017185590634843
1149.0, 0.002318092510674058
1150.0, 0.0032470851509764915
1151.0, 0.00384772748364773
1152.0, 0.0015265257957090643
1153.0, 0.0018734457541615653
1154.0, 0.0011976705950802265
1155.0, 0.0006178116264722069
1156.0, 0.0003679150929040414
1157.0, 0.0006115184086734977
1158.0, 0.0015695135013182654
1159.0, 0.0007666247534919889
1160.0, 0.00282427447499752
1161.0, 0.0030438081820128578
1162.0, 0.001969266635582414
1163.0, 0.0026234511445268685
1164.0, 0.003693398264419561
1165.0, 0.0019459409231941944
1166.0, 0.0006402387545785301
1167.0, 0.001460650344519609
1168.0, 0.004109524784820712
1169.0, 0.005423602222104807
1170.0, 0.005767074977662453
1171.0, 0.0034364409160382078
1172.0, 0.0032329196725538333
1173.0, 0.004067813603467389
1174.0, 0.002415789919776973
1175.0, 0.0041830793866726775
1176.0, 0.0032671447436896832
1177.0, 0.0023898333132625006
1178.0, 0.0031248205133012096
1179.0, 0.00500693714229724
1180.0, 0.004524393047111018
1181.0, 0.0049614095721001415
1182.0, 0.005533107069845867
1183.0, 0.004702375527018033
1184.0, 0.0026944472901732322
1185.0, 0.001095850352343498
1186.0, 0.0029850200528272037
1187.0, 0.0024315686689106264
1188.0, 0.003953941561764449
1189.0, 0.005628610431448411
1190.0, 0.005497927544419364
1191.0, 0.0034199846228625446
1192.0, 0.00341260312800372
1193.0, 0.006444051832831149
1194.0, 0.005246602871811824
1195.0, 0.0042838491002453885
1196.0, 0.009235093366993009
1197.0, 0.007432497848200686
1198.0, 0.005911623750251709
1199.0, 0.004267920858393528
1200.0, 0.004670096639189176
1201.0, 0.007231585432270226
1202.0, 0.009409399193623208
1203.0, 0.008353089079417278
1204.0, 0.00743835678944027
1205.0, 0.00883201550147113
1206.0, 0.009159309105420087
1207.0, 0.006872927531197756
1208.0, 0.009826287981539604
1209.0, 0.007460015974289601
1210.0, 0.00590018890590436
1211.0, 0.0072303035807699135
1212.0, 0.00844437041943564
1213.0, 0.0050929356921056304
1214.0, 0.007053905879038037
1215.0, 0.007746524528758315
1216.0, 0.008320857500008346
1217.0, 0.009111056142915096
1218.0, 0.009747176322188496
1219.0, 0.009248193477796717
1220.0, 0.013503313295050813
1221.0, 0.011131923814820656
1222.0, 0.009445533749896656
1223.0, 0.008162365865915346
1224.0, 0.00613725756162006
1225.0, 0.010015062076753692
1226.0, 0.009463780978627925
1227.0, 0.011164359024367212
1228.0, 0.012239167532049726
1229.0, 0.011140111475023265
1230.0, 0.008395431070422578
1231.0, 0.006794139253884304
1232.0, 0.010192463457258856
1233.0, 0.011337979259336703
1234.0, 0.010446496884459545
1235.0, 0.009439986464563425
1236.0, 0.010186968382714039
1237.0, 0.008119034906480221
1238.0, 0.009976877176567027
1239.0, 0.008300289449599686
1240.0, 0.007043611905444684
1241.0, 0.009822678842599008
1242.0, 0.008514083813641844
1243.0, 0.009116340205948328
1244.0, 0.00924622307918688
1245.0, 0.008428705318771402
1246.0, 0.008017913279867228
1247.0, 0.009173230909948421
1248.0, 0.00720602120343977
1249.0, 0.007193764953999619
1250.0, 0.005170937648524759
1251.0, 0.007785615105738834
1252.0, 0.01260830061319193
1253.0, 0.0095002544076628
1254.0, 0.009948938627573322
1255.0, 0.008569220859929833
1256.0, 0.00893978426479293
1257.0, 0.009474869809292605
1258.0, 0.008389669646087738
1259.0, 0.005858344415213998
1260.0, 0.01144402089915594
1261.0, 0.011028922881410752
1262.0, 0.010329764763246443
1263.0, 0.009398176747013359
1264.0, 0.007816529525139658
1265.0, 0.00856127130912333
1266.0, 0.006909213123853881
1267.0, 0.010415625185024107
1268.0, 0.01004955863561289
1269.0, 0.007658793338090528
1270.0, 0.009026848378341001
1271.0, 0.013455968557679067
1272.0, 0.005827358736389607
1273.0, 0.010355273890914774
1274.0, 0.011167995975830708
1275.0, 0.007630405846341888
1276.0, 0.008961995878205864
1277.0, 0.01128848810056426
1278.0, 0.009844443564479114
1279.0, 0.008406206033774247
1280.0, 0.007283454979480511
1281.0, 0.007075093588716199
1282.0, 0.008343254486614863
1283.0, 0.008064066619851545
1284.0, 0.004123371217655319
1285.0, 0.005463683551469985
1286.0, 0.005877824035005206
1287.0, 0.00489102789956929
1288.0, 0.008650035503651423
1289.0, 0.0011895638337630471
1290.0, 0.005771622839005774
1291.0, 0.0068096863410995545
1292.0, 0.004836300548644749
1293.0, 0.0034984936699808673
1294.0, 0.005056083328614329
1295.0, 0.0034045465991345203
1296.0, 0.006638307827404453
1297.0, 0.004732885742468827
1298.0, 0.002668510261799454
1299.0, 0.0044214789299634625
1300.0, 0.006353242799106026
1301.0, 0.0021125255540002967
1302.0, 0.002903114266052708
1303.0, 0.004631553784898365
1304.0, 0.005152187734654338
1305.0, 0.004747866587565059
1306.0, 0.0062581806685516545
1307.0, 0.005960884693999436
1308.0, 0.0024980095257255827
1309.0, 0.0010339746295666833
1310.0, 0.0015723585109965127
1311.0, 0.0029454799633482757
1312.0, 0.004851983343849684
1313.0, 0.0030981133187415687
1314.0, 0.001560670802682122
1315.0, 0.0006153649014192521
1316.0, 0.0013620386137547778
1317.0, 0.0032335947684250443
1318.0, 0.0027863510341012312
1319.0, 0.001208589643619618
1320.0, 0.0012620483574048169
1321.0, 0.0029767293201994277
1322.0, 0.003772442265979742
1323.0, 0.0023890221394201223
1324.0, 0.0011946246914061273
1325.0, 0.0016266228695075513
1326.0, 0.0026885914047040053
1327.0, 0.002059409373391241
1328.0, 0.0007621292144024802
1329.0, 0.001022387487893498
1330.0, 0.004477431423005627
1331.0, 0.0023693813279647455
1332.0, 0.003572862316019962
1333.0, 0.003339760452057239
1334.0, 0.0021904942858980325
1335.0, 0.0012918623158292006
1336.0, 0.0005669801561689943
1337.0, 0.001374072178270494
1338.0, 0.0038785059365745193
1339.0, 0.003167969600043621
1340.0, 0.0020071541102870483
1341.0, 0.00228323939437757
1342.0, 0.002346046889147512
1343.0, 0.0012400512672188118
1344.0, 0.004765196057903724
1345.0, 0.003818717542459757
1346.0, 0.004369747413042548
1347.0, 0.006852923893398405
1348.0, 0.004406056369769383
1349.0, 0.0022452374224072565
1350.0, 0.0026064283539750715
1351.0, 0.004031042722868395
1352.0, 0.0029623798386573543
1353.0, 0.001495684879773685
1354.0, 0.0046455277405091575
1355.0, 0.0067086559558600855
1356.0, 0.003139007379417836
1357.0, 0.001606085348647597
1358.0, 0.0038229904617990487
1359.0, 0.004833096771099543
1360.0, 0.00047587330704664346
1361.0, 0.0028595389907049695
1362.0, 0.005560102910256011
1363.0, 0.0028289609805303593
1364.0, 0.0013548859501565542
1365.0, 0.0028310616163863328
1366.0, 0.0050561212206482855
1367.0, 0.004653368934141126
1368.0, 0.006843144931401575
1369.0, 0.006679124830723679
1370.0, 0.0063084407681780015
1371.0, 0.006416670879198914
1372.0, 0.0060163235286683475
1373.0, 0.003095990240074602
1374.0, 0.00610226992484766
1375.0, 0.003074949969660746
1376.0, 0.0018610186905816584
1377.0, 0.0031665011094306906
1378.0, 0.004098603480472599
1379.0, 0.001345072232810495
1380.0, 0.0017154162598302376
1381.0, 0.0072582708681318735
1382.0, 0.006116115087801608
1383.0, 0.003946935794480069
1384.0, 0.004759521226258558
1385.0, 0.006932167551519673
1386.0, 0.0022117038719095174
1387.0, 0.008772775909325917
1388.0, 0.005784549048008723
1389.0, 0.0025821141854797673
1390.0, 0.003829343119575403
1391.0, 0.006842632806957837
1392.0, 0.0021660968396520182
1393.0, 0.003001220466920158
1394.0, 0.009797239344479514
1395.0, 0.00813455331865155
1396.0, 0.004731964780208412
1397.0, 0.005658912593926864
1398.0, 0.005369092551193424
1399.0, 0.0037048542348887326
1400.0, 0.007008110000053429
1401.0, 0.008759077661986943
1402.0, 0.00897702889945203
1403.0, 0.009848564801670212
1404.0, 0.012189816630098368
1405.0, 0.007999981533166896
1406.0, 0.007730097571003125
1407.0, 0.006721654873106761
1408.0, 0.005471555134036705
1409.0, 0.006381903230913167
1410.0, 0.008423674508742079
1411.0, 0.002506681320605793
1412.0, 0.0010482600690095017
1413.0, 0.005534136402751069
1414.0, 0.006863169139188881
1415.0, 0.006539360822664148
1416.0, 0.00663520684365271
1417.0, 0.0061112437641389706
1418.0, 0.006402966655315463
1419.0, 0.004368369353321527
1420.0, 0.008119733911543027
1421.0, 0.006662967253774584
1422.0, 0.0048206609631513565
1423.0, 0.010629863149510312
1424.0, 0.00582330979216082
1425.0, 0.0030490775780234354
1426.0, 0.01228484405333506
1427.0, 0.014425821290443152
1428.0, 0.011331172814852854
1429.0, 0.008936668006144658
1430.0, 0.006693198938053051
1431.0, 0.00420590744099206
1432.0, 0.007299852430400126
1433.0, 0.008534285317277887
1434.0, 0.007359833698099566
1435.0, 0.006883069049698981
1436.0, 0.009468644488484732
1437.0, 0.00984696049311655
1438.0, 0.0038420908678872775
1439.0, 0.008785925312823411
1440.0, 0.007533043115711311
1441.0, 0.006604858886632363
1442.0, 0.008452545667340274
1443.0, 0.001196648243790988
1444.0, 0.010451607260331543
1445.0, 0.008600873366275363
1446.0, 0.004942452206910487
1447.0, 0.004021692096063917
1448.0, 0.006591638884745788
1449.0, 0.009691105493940545
1450.0, 0.00755857777828613
1451.0, 0.008695834270128124
1452.0, 0.008667006941258841
1453.0, 0.009241284982073675
1454.0, 0.009483378230510023
1455.0, 0.008341369955118805
1456.0, 0.0062971544393757555
1457.0, 0.006690142970398329
1458.0, 0.009758723760851785
1459.0, 0.009394483969626971
1460.0, 0.00698566366833572
1461.0, 0.00658974792119767
1462.0, 0.00918001398363166
1463.0, 0.008491579882835998
1464.0, 0.007982157863634496
1465.0, 0.007707451554718981
1466.0, 0.012723347551595522
1467.0, 0.00951667693183552
1468.0, 0.004293536474617044
1469.0, 0.011384857150338209
1470.0, 0.003766389914109533
1471.0, 0.011870061672860126
1472.0, 0.012103583873217612
1473.0, 0.00811827008438258
1474.0, 0.004680230549511828
1475.0, 0.006766738991167464
1476.0, 0.014985331893245201
1477.0, 0.0052600916465692866
1478.0, 0.009284519531885384
1479.0, 0.013445523590782963
1480.0, 0.011249370489518736
1481.0, 0.008081377953418427
1482.0, 0.009388102061778713
1483.0, 0.009231134178217974
1484.0, 0.005880480940480493
1485.0, 0.009209682682203953
1486.0, 0.00547962061461498
1487.0, 0.0047371780467830105
1488.0, 0.0075492227489027675
1489.0, 0.007547233391387683
1490.0, 0.00857487576471886
1491.0, 0.007812305276067589
1492.0, 0.007593109108162812
1493.0, 0.008156289212219375
1494.0, 0.007803629001516763
1495.0, 0.00531993134249621
1496.0, 0.0021830912663021833
1497.0, 0.005373371644727192
1498.0, 0.008756975766248431
1499.0, 0.008227193738359609
1500.0, 0.004977877308549431
1501.0, 0.004597853225350248
1502.0, 0.006151383291114638
1503.0, 0.0030359549108586407
1504.0, 0.009268849865925063
1505.0, 0.006590153573515585
1506.0, 0.0020534158901961684
1507.0, 0.003536913129349796
1508.0, 0.007052233825676244
1509.0, 0.006112415281717206
1510.0, 0.000877065136085947
1511.0, 0.0018159064189554948
1512.0, 0.0035435320290988777
1513.0, 0.006353230731632233
1514.0, 0.006344545510183439
1515.0, 0.005758240031078315
1516.0, 0.006530328236383488
1517.0, 0.004696887315302461
1518.0, 0.002071252684421611
1519.0, 0.0038126194298228125
1520.0, 0.003865653256659033
1521.0, 0.004724856121035908
1522.0, 0.0038399672053919466
1523, 0.0
1524, 0.0
1525, 0.0
1526, 0.0
1527, 0.0
1528, 0.0
1529, 0.0
1530, 0.0
1531, 0.0
1532, 0.0
1533, 0.0
1534, 0.0
1535, 0.0
1536, 0.0
1537, 0.0
1538, 0.0
1539, 0.0
1540, 0.0
1541, 0.0
1542, 0.0
1543, 0.0
1544, 0.0
1545, 0.0
1546, 0.0
1547, 0.0
1548, 0.0
1549, 0.0
1550, 0.0
1551, 0.0
1552, 0.0
1553, 0.0
1554, 0.0
1555, 0.0
1556, 0.0
1557, 0.0
1558, 0.0
1559, 0.0
1560, 0.0
1561, 0.0
1562, 0.0
1563, 0.0
1564, 0.0
1565, 0.0
1566, 0.0
1567, 0.0
1568, 0.0
1569, 0.0
1570, 0.0
1571, 0.0
1572, 0.0
1573, 0.0
1574, 0.0
1575, 0.0
1576, 0.0
1577, 0.0
1578, 0.0
1579, 0.0
1580, 0.0
1581, 0.0
1582, 0.0
1583, 0.0
1584, 0.0
1585, 0.0
1586, 0.0
1587, 0.0
1588, 0.0
1589, 0.0
1590, 0.0
1591, 0.0
1592, 0.0
1593, 0.0
1594, 0.0
1595, 0.0
1596, 0.0
1597, 0.0
1598, 0.0
1599, 0.0
