30, 0.0
31, 0.0
32, 0.0
33, 0.0
34, 0.0
35, 0.0
36, 0.0
37, 0.0
38, 0.0
39, 0.0
40, 0.0
41, 0.0
42, 0.0
43, 0.0
44, 0.0
45, 0.0
46, 0.0
47, 0.0
48, 0.0
49, 0.0
50, 0.0
51, 0.0
52, 0.0
53, 0.0
54, 0.0
55, 0.0
56, 0.0
57, 0.0
58, 0.0
59, 0.0
60, 0.0
61, 0.0
62, 0.0
63, 0.0
64, 0.0
65, 0.0
66, 0.0
67, 0.0
68, 0.0
69, 0.0
70, 0.0
71, 0.0
72, 0.0
73, 0.0
74, 0.0
75, 0.0
76, 0.0
77, 0.0
78, 0.0
79, 0.0
80, 0.0
81, 0.0
82, 0.0
83, 0.0
84, 0.0
85, 0.0
86, 0.0
87, 0.0
88, 0.0
89, 0.0
90, 0.0
91, 0.0
92, 0.0
93, 0.0
94, 0.0
95, 0.0
96, 0.0
97, 0.0
98, 0.0
99, 0.0
100, 0.0
101, 0.0
102, 0.0
103, 0.0
104, 0.0
105, 0.0
106, 0.0
107, 0.0
108, 0.0
109, 0.0
110, 0.0
111, 0.0
112, 0.0
113, 0.0
114, 0.0
115, 0.0
116, 0.0
117, 0.0
118, 0.0
119, 0.0
120, 0.0
121, 0.0
122, 0.0
123, 0.0
124, 0.0
125, 0.0
126, 0.0
127, 0.0
128, 0.0
129, 0.0
130, 0.0
131, 0.0
132, 0.0
133, 0.0
134, 0.0
135, 0.0
136, 0.0
137.0, 6.728890435753814e-05
138.0, 8.229693435881524e-05
139.0, 0.00039503572517777917
140.0, 0.0003954920102752028
141.0, 0.0008300564533911663
142.0, 0.0006328850926672085
143.0, 5.1214925092285166e-05
144.0, 0.0001053052976056833
145.0, 0.0006883926172330681
146.0, 0.0004866236598729177
147.0, 0.00027613532082719836
148.0, 0.0011899262463320802
149.0, 0.0027539231923539827
150.0, 0.0027343411312695668
151.0, 0.002887668964834863
152.0, 0.003912861309230152
153.0, 0.004381137872330131
154.0, 0.003943583583948597
155.0, 0.004221545798999193
156.0, 0.005214539653625085
157.0, 0.006241974933041205
158.0, 0.008070137345473898
159.0, 0.011899706199284345
160.0, 0.015936091086941682
161.0, 0.018615353008460442
162.0, 0.020606022541109756
163.0, 0.02066331157159273
164.0, 0.018698363722920504
165.0, 0.01620427814811741
166.0, 0.01569221472614003
167.0, 0.01792999834543234
168.0, 0.021555654454186664
169.0, 0.025672366125747904
170.0, 0.02902272452343267
171.0, 0.027583204322951544
172.0, 0.01950716862244159
173.0, 0.011530990017157272
174.0, 0.00805855347258068
175.0, 0.005790166780480512
176.0, 0.004347630418169657
177.0, 0.0035300700852493013
178.0, 0.003122742369014314
179.0, 0.002915143383924946
180.0, 0.0024496282118885984
181.0, 0.001736396860966022
182.0, 0.001427241059575579
183.0, 0.001805060743164252
184.0, 0.0013994570483416631
185.0, 0.0012010938753185332
186.0, 0.0018058975322574515
187.0, 0.0027731837645219234
188.0, 0.0024541481767740682
189.0, 0.003483675154139155
190.0, 0.005007006462630307
191.0, 0.005908637236361256
192.0, 0.005763186605241337
193.0, 0.005882756258628363
194.0, 0.006373725819367794
195.0, 0.006429555062605875
196.0, 0.005272143117361668
197.0, 0.003035698022848685
198.0, 0.0013744409029359393
199.0, 0.0007728042350300468
200.0, 0.0008128484306408086
201.0, 0.0003761699133111078
202.0, 0.0005820857403389024
203.0, 0.0006679898624281429
204.0, 0.0003093906462786824
205.0, 0.0003241862045790772
206.0, 0.00015441996894096212
207.0, 0.0006628957110301278
208.0, 0.001071852233430435
209.0, 0.0014784538441949288
210.0, 0.002044499429089186
211.0, 0.002648418932017736
212.0, 0.003980911155374353
213.0, 0.005097578081865032
214.0, 0.004731284489096533
215.0, 0.0049067893780644824
216.0, 0.0046459610137704
217.0, 0.004539430916999259
218.0, 0.005383456597767525
219.0, 0.007432581781391242
220.0, 0.008439534508280156
221.0, 0.009541176626041259
222.0, 0.01098032868248913
223.0, 0.012469795840314197
224.0, 0.015547685771971423
225.0, 0.0171187704378721
226.0, 0.017491683756017003
227.0, 0.018559426572626304
228.0, 0.02324616201915979
229.0, 0.02655908467966612
230.0, 0.029685224056669145
231.0, 0.03182307691513106
232.0, 0.031236038181474853
233.0, 0.02956711046571893
234.0, 0.027834932561731085
235.0, 0.02494049616884188
236.0, 0.0208018134527995
237.0, 0.01723714653821109
238.0, 0.014357807346713004
239.0, 0.012962306832790168
240.0, 0.012055958424896592
241.0, 0.0100568958501835
242.0, 0.006915294373452139
243.0, 0.005239701399168255
244.0, 0.004075887026194473
245.0, 0.002564304957386961
246.0, 0.0012942603939428425
247.0, 0.0009222036344345827
248.0, 0.0012120092155587351
249.0, 0.001357721494349073
250.0, 0.0007950570534919028
251.0, 0.00031821336612462137
252.0, 0.0002926253495459827
253.0, 0.0005959473969899835
254.0, 0.000588970684779548
255.0, 0.0007810460619642752
256.0, 0.0002195786047085346
257.0, 0.00047369828482959767
258.0, 0.0004768930537229424
259.0, 0.00114419601423523
260.0, 0.001709831414285967
261.0, 0.0021891722244617748
262.0, 0.003039716929987369
263.0, 0.004143155271790759
264.0, 0.005098867651889706
265.0, 0.004921469003038768
266.0, 0.005210010666128502
267.0, 0.0061655641799085725
268.0, 0.007370822553780041
269.0, 0.00823417137463452
270.0, 0.008974101506878293
271.0, 0.00970570891212214
272.0, 0.010513536333618113
273.0, 0.011660057580430856
274.0, 0.01375732125739357
275.0, 0.015591898525847166
276.0, 0.017283253051878177
277.0, 0.019238164550603027
278.0, 0.02148803279737753
279.0, 0.023000717976623734
280.0, 0.02371111054290397
281.0, 0.023997626274071638
282.0, 0.023793794908213813
283.0, 0.021790817800436423
284.0, 0.020872704484354285
285.0, 0.019785425546159342
286.0, 0.017978101484530783
287.0, 0.01617933281187458
288.0, 0.014848571626978474
289.0, 0.014599406045419016
290.0, 0.014445325116736726
291.0, 0.014195670320910863
292.0, 0.01475490512503774
293.0, 0.014614546858132637
294.0, 0.015455516585840878
295.0, 0.016118136296140357
296.0, 0.015541718059741323
297.0, 0.015425272140721836
298.0, 0.015187883627946376
299.0, 0.015427805706727821
300.0, 0.015932543521620133
301.0, 0.016327649966900126
302.0, 0.017741514148381002
303.0, 0.018213562704709044
304.0, 0.019009092973534154
305.0, 0.020022325164286512
306.0, 0.019174217582366312
307.0, 0.016852720173183035
308.0, 0.011881957741104104
309.0, 0.006923188396437031
310.0, 0.003978400616345323
311.0, 0.0020348149892210642
312.0, 0.00042719665312710754
313.0, 0.0004018055028606372
314.0, 0.0006952086423906573
315.0, 0.00107493551150387
316.0, 0.001083859854816943
317.0, 0.0003779573680224619
318.0, 0.0004817285719911987
319.0, 0.0009760887819706093
320.0, 0.00038479921943310457
321.0, 0.00030942599327550666
322.0, 0.0006276354806904558
323.0, 0.0011069495721623655
324.0, 0.0015697611864337766
325.0, 0.0010917760794414565
326.0, 0.001758701055140022
327.0, 0.002342317428895504
328.0, 0.0029645619638565815
329.0, 0.003998767981782893
330.0, 0.005183388820647106
331.0, 0.006826128240866871
332.0, 0.008289718538289902
333.0, 0.009854428896736779
334.0, 0.011833739408071574
335.0, 0.013239533346913097
336.0, 0.01582001914509484
337.0, 0.01820290387350116
338.0, 0.021043537161727834
339.0, 0.025924003386207786
340.0, 0.03129293940094332
341.0, 0.036310110393942566
342.0, 0.04115992193108781
343.0, 0.046550100314141314
344.0, 0.053165931088333444
345.0, 0.06074216944378031
346.0, 0.0693380281704012
347.0, 0.07898725080274213
348.0, 0.09042291885046114
349.0, 0.10457432008841376
350.0, 0.11851288258544673
351.0, 0.1336200523373152
352.0, 0.14850725157882308
353.0, 0.160966681938541
354.0, 0.1700054989775774
355.0, 0.17144907071910567
356.0, 0.16365847300725114
357.0, 0.14852214106797876
358.0, 0.12935755273517915
359.0, 0.10942831654909158
360.0, 0.08858723649566834
361.0, 0.07090746929195597
362.0, 0.0571210414441633
363.0, 0.04624520966081829
364.0, 0.037120710059040246
365.0, 0.029906929343884538
366.0, 0.024321780513629685
367.0, 0.020186935745148668
368.0, 0.01733359571788481
369.0, 0.015087123705110663
370.0, 0.01253865814876236
371.0, 0.01013730968195235
372.0, 0.008511814732425106
373.0, 0.007760565818334949
374.0, 0.006628276001022587
375.0, 0.005477982815742161
376.0, 0.004763529225985101
377.0, 0.004235825718046429
378.0, 0.003549924848920462
379.0, 0.003239846985281482
380.0, 0.0028380848550630727
381.0, 0.002068338776037521
382.0, 0.0019010002145866517
383.0, 0.003190285979385004
384.0, 0.00318126057207106
385.0, 0.0047533838593356225
386.0, 0.006337188938739477
387.0, 0.006784031841612898
388.0, 0.007176381624999264
389.0, 0.009522448327940776
390.0, 0.012083300328588087
391.0, 0.01452715195923184
392.0, 0.017368790009017525
393.0, 0.021192576022390976
394.0, 0.02552063222118188
395.0, 0.03145340423906165
396.0, 0.038554428599659026
397.0, 0.04639863333182974
398.0, 0.05444744893149598
399.0, 0.06008156974114102
400.0, 0.06082107441992727
401.0, 0.054439091927671504
402.0, 0.04284352605897447
403.0, 0.030979789418719313
404.0, 0.021148966637097356
405.0, 0.01407506564595791
406.0, 0.008934907488008834
407.0, 0.0055375549623362785
408.0, 0.004285175942482415
409.0, 0.0034157229001138
410.0, 0.0016161519830807994
411.0, 0.00019022730201567425
412.0, 0.0003677827658905317
413.0, 0.0009183305946317875
414.0, 0.0011216714771640332
415.0, 0.0014496932567270753
416.0, 0.0012754462302295392
417.0, 0.00081233246970273
418.0, 0.0008379400533000933
419.0, 0.00024506966619506027
420.0, 0.00041498017660430823
421.0, 0.00026986739765515324
422.0, 0.0008658277482819764
423.0, 0.0015141745970960775
424.0, 0.0018381004250426654
425.0, 0.003574979845909705
426.0, 0.004906744387804724
427.0, 0.006071954895438112
428.0, 0.008603380863337805
429.0, 0.011514185299594968
430.0, 0.014846969310633685
431.0, 0.018330346785438878
432.0, 0.02131045532955633
433.0, 0.022303327290156622
434.0, 0.01884851211406036
435.0, 0.013634814248272028
436.0, 0.00918381915924556
437.0, 0.006652402987541038
438.0, 0.005740593296376315
439.0, 0.005304190800381623
440.0, 0.005800768861878753
441.0, 0.00652671910699079
442.0, 0.00741387882017213
443.0, 0.008806344193928464
444.0, 0.010973948013816875
445.0, 0.013590972855949849
446.0, 0.016684479755064915
447.0, 0.020542708949689677
448.0, 0.025305001660434402
449.0, 0.030853126956403715
450.0, 0.03852342018331207
451.0, 0.04811334487800005
452.0, 0.05800088648580218
453.0, 0.06793228407709202
454.0, 0.07942522177508984
455.0, 0.09111466512663605
456.0, 0.1022840772740047
457.0, 0.11376962759449753
458.0, 0.12726000578401292
459.0, 0.14498493043774485
460.0, 0.16794028892323112
461.0, 0.194780210724937
462.0, 0.22740105194600424
463.0, 0.2637420774753097
464.0, 0.2990235176478703
465.0, 0.32803777440291887
466.0, 0.3378754088566854
467.0, 0.3263658714096472
468.0, 0.30113749724309624
469.0, 0.26956436937334904
470.0, 0.23183474499553544
471.0, 0.19027126027342903
472.0, 0.15108181164284748
473.0, 0.11842522985962121
474.0, 0.09346147062169813
475.0, 0.07458056137225731
476.0, 0.060659883749691515
477.0, 0.05032936639233359
478.0, 0.0413520091267138
479.0, 0.03357596694892694
480.0, 0.027997342333937306
481.0, 0.02271876336279538
482.0, 0.01954595397925794
483.0, 0.017044384710301924
484.0, 0.014708725658406517
485.0, 0.012998312648789631
486.0, 0.011942733117463399
487.0, 0.009702012988587385
488.0, 0.008320099582764718
489.0, 0.00798006034371868
490.0, 0.007835983311904831
491.0, 0.0074001781091162485
492.0, 0.006112736840087963
493.0, 0.00488823188298099
494.0, 0.003585375277314476
495.0, 0.002133428248059313
496.0, 0.0011214105881439433
497.0, 0.0012280569780567302
498.0, 0.00036591369584847464
499.0, 4.703857031167127e-05
500.0, 0.00015983565071802085
501.0, 0.0009479038950280115
502.0, 0.0014517907017241234
503.0, 0.0016290735346129637
504.0, 0.0014674486446877642
505.0, 0.0012038215462334741
506.0, 0.0011245398731266913
507.0, 0.0012478146104457036
508.0, 0.0003238809651127094
509.0, 0.0013063763091293052
510.0, 0.002338837336683974
511.0, 0.003683615260459949
512.0, 0.0050841356259584344
513.0, 0.006201684833532633
514.0, 0.008976712117563977
515.0, 0.01195427690563119
516.0, 0.014915455280605013
517.0, 0.018861520259089902
518.0, 0.02423293034239526
519.0, 0.02990129815407328
520.0, 0.036358530838912696
521.0, 0.04393081634831275
522.0, 0.0517475602467846
523.0, 0.05819256937705413
524.0, 0.06074051929542441
525.0, 0.05653682116695895
526.0, 0.05298129539533501
527.0, 0.05335588579961983
528.0, 0.05641717791590033
529.0, 0.06142252485004629
530.0, 0.06355493168325965
531.0, 0.05988027299142148
532.0, 0.05162749406124932
533.0, 0.04166024923174174
534.0, 0.03285996966275551
535.0, 0.02743820601880893
536.0, 0.025992627767068455
537.0, 0.025548082526771508
538.0, 0.02620562451760686
539.0, 0.029553483457684028
540.0, 0.03447084056785377
541.0, 0.04117166704073716
542.0, 0.049056493016115386
543.0, 0.058590944223710244
544.0, 0.07057026871767055
545.0, 0.08506120780503715
546.0, 0.10102470602846014
547.0, 0.10736361285660258
548.0, 0.09874852399883562
549.0, 0.07789382134729284
550.0, 0.05327366747470239
551.0, 0.038089982226835926
552.0, 0.02773948970479105
553.0, 0.023701353807985538
554.0, 0.022284244091188617
555.0, 0.02137018868364304
556.0, 0.022743331010908193
557.0, 0.025613534234936088
558.0, 0.02865108428107592
559.0, 0.032554119017243935
560.0, 0.03883256450093869
561.0, 0.04736377969928533
562.0, 0.056320160869557774
563.0, 0.06893481646405926
564.0, 0.08440741935919498
565.0, 0.10296936727594788
566.0, 0.12341491235530364
567.0, 0.14123979555192878
568.0, 0.1473124107845474
569.0, 0.14062671338697133
570.0, 0.12244815110807752
571.0, 0.09601081123349794
572.0, 0.06776974349581605
573.0, 0.04538235966225483
574.0, 0.03187633246763771
575.0, 0.021684541089253412
576.0, 0.01622569777472175
577.0, 0.013646335468840488
578.0, 0.011284636957586908
579.0, 0.010038744698146274
580.0, 0.009395360153142943
581.0, 0.00937658238105594
582.0, 0.009915948800625718
583.0, 0.011047171341083305
584.0, 0.012703524744923528
585.0, 0.01432491149573422
586.0, 0.016429122298132287
587.0, 0.018701424204665425
588.0, 0.02226187219133071
589.0, 0.026994315291634614
590.0, 0.031265480033454224
591.0, 0.03525322845874575
592.0, 0.03565142478838865
593.0, 0.034118254590268654
594.0, 0.030661340574402306
595.0, 0.026088284880175717
596.0, 0.024010076360201506
597.0, 0.023797005080809043
598.0, 0.02514721887152665
599.0, 0.0268296975940678
600.0, 0.02763271920725585
601.0, 0.02631753804842223
602.0, 0.021373554131281048
603.0, 0.016568725156666544
604.0, 0.012005373772491772
605.0, 0.008596034775511859
606.0, 0.006209850262663683
607.0, 0.0041303334745275725
608.0, 0.0030278518744724487
609.0, 0.002413295462886349
610.0, 0.0014646706732291516
611.0, 0.0012312434850524853
612.0, 0.0014643932425579492
613.0, 0.000876499070566577
614.0, 0.0009986556716731064
615.0, 0.000997579912209852
616.0, 0.00046033022886085714
617.0, 7.637387350656257e-05
618.0, 2.2098319534895577e-05
619.0, 0.0005037613162277983
620.0, 0.0005785091774770459
621.0, 0.0003713774520808574
622.0, 0.0005482311219203697
623.0, 0.0004271900205791286
624.0, 0.0006543510043233226
625.0, 0.000542827187810076
626.0, 0.0003329501384853741
627.0, 0.00043331605392786087
628.0, 0.0009185684604997593
629.0, 0.0004361338417798013
630.0, 8.220735453307032e-05
631.0, 0.0003315007876145323
632.0, 0.0003934310212498394
633.0, 0.0003910720441734377
634.0, 0.00016687136657781083
635.0, 0.00040127136653156164
636.0, 0.0001683832549028007
637.0, 8.715786073757748e-05
638.0, 0.0004044896465115931
639.0, 0.0001976768766318558
640.0, 0.00017755188051689312
641.0, 0.0005000546325618263
642.0, 0.0006254947404863819
643.0, 0.00044640377389129046
644.0, 0.0004527004977388098
645.0, 0.0006654105030237291
646.0, 0.00043788713209121365
647.0, 0.00019622536025920274
648.0, 0.00031294040655965394
649.0, 9.400195019785587e-05
650.0, 0.0005722324569538465
651.0, 0.00024042383961819704
652.0, 0.00018033473858014703
653.0, 0.0006257821238898375
654.0, 0.0008598529561508404
655.0, 0.00044606548422947346
656.0, 0.0005951725979241577
657.0, 0.0009008849518736245
658.0, 0.000674411926089771
659.0, 0.0004717183869342422
660.0, 0.0006115853490542869
661.0, 0.00037939816585895475
662.0, 0.0005014086171086283
663.0, 0.0008123846848554797
664.0, 0.00043747935391256435
665.0, 0.00016193107908248232
666.0, 0.0004942767385160865
667.0, 0.0006373407353980918
668.0, 0.0009099354603065989
669.0, 0.001218656660640182
670.0, 0.0014614976428283808
671.0, 0.001254451031435509
672.0, 0.0009296120795468728
673.0, 0.0013004679315409245
674.0, 0.0014509812475163469
675.0, 0.0014140438775501376
676.0, 0.0012324352783619301
677.0, 0.0009189391244652905
678.0, 0.0006717767952836784
679.0, 0.0007076766960199347
680.0, 0.00086672648634625
681.0, 0.0008039829350881893
682.0, 0.00030688706642041067
683.0, 0.000946439830326468
684.0, 0.0016978617426613375
685.0, 0.0007352081194359559
686.0, 0.0004885854456286108
687.0, 0.0007538708109235329
688.0, 0.0007920680840838467
689.0, 0.0009595922694285654
690.0, 0.0009713615775138321
691.0, 0.0005290897711935692
692.0, 0.000531486012761687
693.0, 0.000686184199795987
694.0, 0.0009837589351270794
695.0, 0.0011500050848696388
696.0, 0.0012814752544007308
697.0, 0.0014614391126975606
698.0, 0.0015726581378981235
699.0, 0.0015122019834957789
700.0, 0.0012134112462691576
701.0, 0.0008826104781219028
702.0, 0.0006514854147229836
703.0, 0.0006866933092612988
704.0, 0.0006600466536459212
705.0, 0.0006640652605050426
706.0, 0.0002987075944240425
707.0, 0.0001330635934418756
708.0, 0.00025169726248752027
709.0, 0.0006382988399122067
710.0, 0.0005299257568878895
711.0, 0.0005501911673297716
712.0, 0.00012480502064018658
713.0, 0.0003517052813735256
714.0, 0.0007436486710879004
715.0, 0.0011188958864301398
716.0, 0.0014237307202583534
717.0, 0.0007858014019074719
718.0, 0.0013661797733650948
719.0, 0.001881676929024239
720.0, 0.0020411128055380034
721.0, 0.002062880685515462
722.0, 0.0021959520551003476
723.0, 0.002418754402771298
724.0, 0.002402254652616684
725.0, 0.0024435607818961477
726.0, 0.0021802861722094217
727.0, 0.0017736161434105955
728.0, 0.0016028985030405094
729.0, 0.0014687283680269794
730.0, 0.0008253889131664826
731.0, 0.001125798629869199
732.0, 0.0017944295924941399
733.0, 0.0015543815700406398
734.0, 0.0014413185523141398
735.0, 0.0019313548832922609
736.0, 0.0024824153106462253
737.0, 0.0034978859815194504
738.0, 0.0037783839982660603
739.0, 0.004651872799527047
740.0, 0.005406218841541794
741.0, 0.006115714867268063
742.0, 0.0068609655045207395
743.0, 0.006975597664784378
744.0, 0.008138642804721293
745.0, 0.008292605780581311
746.0, 0.007301163944977468
747.0, 0.005688408117070264
748.0, 0.004555235506482196
749.0, 0.003713281776543578
750.0, 0.0009292918440613183
751.0, 0.002753458038375197
752.0, 0.0020426934573361385
753.0, 0.0015003731175344055
754.0, 0.001725199330581166
755.0, 0.0013200343436000608
756.0, 0.00044402374883357554
757.0, 0.0006227065816675954
758.0, 0.0005448268052959589
759.0, 0.0005102194473851892
760.0, 0.0004251282549623703
761.0, 0.0004385141600825588
762.0, 0.000719757570511406
763.0, 0.0008433371584166514
764.0, 0.0007420843967024587
765.0, 0.0011253134513060405
766.0, 0.0014230860209347273
767.0, 0.0017902983455196817
768.0, 0.00213802168858001
769.0, 0.0022284896805593183
770.0, 0.002522821438429559
771.0, 0.0022706072502853966
772.0, 0.002905186689775609
773.0, 0.002782607625043745
774.0, 0.0025300184752338546
775.0, 0.002962827608131608
776.0, 0.0030445312211413974
777.0, 0.002415682554151103
778.0, 0.0015184354151194747
779.0, 0.0016478970407101284
780.0, 0.0019740228536409368
781.0, 0.0012541137136364967
782.0, 0.00023170444182825983
783.0, 0.0009862910754436809
784.0, 0.0005979379300642073
785.0, 0.0007804618643673995
786.0, 0.0007407624224579534
787.0, 0.0001694765702652697
788.0, 9.176667180152942e-05
789.0, 0.00048536327721884775
790.0, 0.001056251692973415
791.0, 9.896432303953414e-05
792.0, 7.088069082067715e-05
793.0, 0.0001995367536248031
794.0, 0.0003800758710421844
795.0, 0.0004697641724669864
796.0, 0.00031472979120747804
797.0, 0.00038495251365925205
798.0, 0.001099211748666688
799.0, 0.0015593893208549485
800.0, 0.0017354421959376806
801.0, 0.0017185745360368276
802.0, 0.0017338787632136421
803.0, 0.0022479289072120435
804.0, 0.0032277969141677053
805.0, 0.002157208412095125
806.0, 0.001927213357476084
807.0, 0.0018461348262658267
808.0, 0.0018414741565707608
809.0, 0.0019285227879096542
810.0, 0.0016753912322839252
811.0, 0.0009263364602418728
812.0, 0.0013752629596235192
813.0, 0.0013087081693758007
814.0, 0.0012266071840302095
815.0, 0.0011804717016720841
816.0, 0.0014256924582377287
817.0, 0.001768540651833473
818.0, 0.001092112767131615
819.0, 0.0006430559833574882
820.0, 0.0012270910875293777
821.0, 0.0008937386237401211
822.0, 0.0002357513380377184
823.0, 0.00038199675013119176
824.0, 0.001099255414475666
825.0, 0.0007197285581416657
826.0, 0.00025910968825974427
827.0, 0.0002007272412719045
828.0, 0.0008747169438257321
829.0, 0.00089993950278246
830.0, 0.00043487209199837435
831.0, 0.0002663447129913325
832.0, 0.0006367064597663253
833.0, 0.0006679808857815887
834.0, 0.0002040149481192861
835.0, 0.0005046284189365294
836.0, 0.0006285901908717149
837.0, 0.00040678675291691557
838.0, 0.00034440557576239137
839.0, 0.0005683101621840073
840.0, 0.00044358446076479596
841.0, 0.0010098136476962688
842.0, 0.0007484985250667945
843.0, 0.000485353846428884
844.0, 0.0005746727811698821
845.0, 0.0008705397918629083
846.0, 0.001238531116407386
847.0, 0.0011043557306470728
848.0, 0.0012631438490612141
849.0, 0.0006408416847231073
850.0, 0.0008809018665693101
851.0, 0.0010453154026169495
852.0, 0.0005780266123186643
853.0, 0.000726294477335715
854.0, 0.0015335892265476896
855.0, 0.0009612608187122862
856.0, 0.0015771153896045698
857.0, 0.0014441052866337287
858.0, 0.0013851493031462189
859.0, 0.0013555221559615827
860.0, 0.0010015099547261998
861.0, 0.0010674393945217988
862.0, 0.0008868278045990975
863.0, 0.0007998205597631048
864.0, 0.0014262146205014804
865.0, 0.0011950728290841003
866.0, 0.0011693676110939167
867.0, 0.0017358251753960415
868.0, 0.0013552895060937836
869.0, 0.0008498909307147783
870.0, 0.0016232294813776126
871.0, 0.0013116467331398675
872.0, 0.0014996343128906887
873.0, 0.0019346917510973977
874.0, 0.0019185821611638599
875.0, 0.0015745876454527218
876.0, 0.0014165721631994852
877.0, 0.001146900483172371
878.0, 0.0016159568692326169
879.0, 0.0015625560023736712
880.0, 0.0015070531457955453
881.0, 0.001704565539036232
882.0, 0.00203563411605284
883.0, 0.002468268894263002
884.0, 0.0024709675106684295
885.0, 0.001356892453126264
886.0, 0.0018228306531793653
887.0, 0.002066617942956158
888.0, 0.0019409369954825582
889.0, 0.0019377858480947362
890.0, 0.0018789926310870482
891.0, 0.0014154902059650316
892.0, 0.0011142653374921943
893.0, 0.0019060728396672344
894.0, 0.0011657407209148393
895.0, 0.001317581649184337
896.0, 0.0014555073095858298
897.0, 0.0011964650141155686
898.0, 0.0015257449983160697
899.0, 0.0015442901533207745
900.0, 0.001324500168591408
901.0, 0.001409551416054323
902.0, 0.0014649782895001797
903.0, 0.0011666638221640546
904.0, 0.0010736905095560987
905.0, 0.0010460480048613521
906.0, 0.0007542526528025622
907.0, 0.0012551254122406485
908.0, 0.0014179661308512067
909.0, 0.0011538951669946382
910.0, 0.0006117188388348146
911.0, 0.0005200596251628755
912.0, 0.00047631346466178514
913.0, 0.00024353471558052515
914.0, 0.00022039065978743226
915.0, 7.843416245878793e-05
916.0, 0.0003377087540587437
917.0, 9.898801512845309e-05
918.0, 2.7122596439756988e-05
919.0, 0.0003061863129961427
920.0, 0.0003233150636979257
921.0, 0.00010254109753972587
922.0, 0.00012172253447921985
923.0, 0.0003303795151683776
924.0, 0.0002391613319245383
925.0, 5.662781578575778e-05
926.0, 0.000375237267439405
927.0, 0.00015050424692998848
928.0, 0.00014670765621281644
929.0, 0.00043487674505184216
930.0, 0.00018331132994387639
931.0, 0.00014454975317211333
932.0, 0.0003163231346612666
933.0, 0.0002008013330793748
934.0, 3.768804400505569e-05
935.0, 0.0004947847881121024
936.0, 0.00115935599531716
937.0, 0.0011847800443143882
938.0, 0.0009964898737302547
939.0, 0.0006889493018447547
940.0, 0.0006425185725845492
941.0, 0.0008356210285226209
942.0, 0.0006527990299423792
943.0, 0.0010296136044837224
944.0, 0.0009807800516585005
945.0, 0.00044001140718467305
946.0, 0.0005516513144403783
947.0, 4.1455583232327073e-05
948.0, 0.0003761116437845423
949.0, 0.0001288155209588274
950.0, 9.90417798081513e-05
951.0, 0.00025766594768604674
952.0, 0.00021032678255786014
953.0, 0.0003571900301974636
954.0, 0.0004855296642157964
955.0, 0.0002270818424094433
956.0, 0.0002445328283313323
957.0, 0.0006463829092467894
958.0, 0.0008927715511013608
959.0, 0.0011001634279371878
960.0, 0.0016758599348621528
961.0, 0.0021100490487089042
962.0, 0.002167960715318455
963.0, 0.0026132617514358896
964.0, 0.0028792578246727546
965.0, 0.0030821712912825526
966.0, 0.004221384474078838
967.0, 0.004410147268791067
968.0, 0.005000879953195936
969.0, 0.005648665871158513
970.0, 0.005673762518114855
971.0, 0.006053879910542771
972.0, 0.007159159814151476
973.0, 0.008285353164569575
974.0, 0.00928963262892756
975.0, 0.010250964338417594
976.0, 0.011245305771032246
977.0, 0.01241896871308294
978.0, 0.014192700810775664
979.0, 0.016017043323896012
980.0, 0.01715967329014485
981.0, 0.019823967671947947
982.0, 0.021845950440817743
983.0, 0.024793097497320043
984.0, 0.026809374975445447
985.0, 0.029399470176562283
986.0, 0.03310761609029912
987.0, 0.03730000959736282
988.0, 0.04209559331717728
989.0, 0.04779466471914179
990.0, 0.054737112721368865
991.0, 0.06087161623401924
992.0, 0.06931708518288777
993.0, 0.07870420299268295
994.0, 0.09099845610415949
995.0, 0.10550393834935666
996.0, 0.1214342900955343
997.0, 0.14164765853355246
998.0, 0.16556060185332738
999.0, 0.19453145185672094
1000.0, 0.22923741997225092
1001.0, 0.27042862403062445
1002.0, 0.31745399121067985
1003.0, 0.37111538127003685
1004.0, 0.43224492809650594
1005.0, 0.5026260304674076
1006.0, 0.5844860461271686
1007.0, 0.6757916180114042
1008.0, 0.7726738938255077
1009.0, 0.8658279323507331
1010.0, 0.9505039119592302
1011.0, 0.9960237890962195
1012.0, 0.9837351005726027
1013.0, 0.9159496401174787
1014.0, 0.8065056800997382
1015.0, 0.6775482236810387
1016.0, 0.5544442668150937
1017.0, 0.448255044371382
1018.0, 0.3628616070307155
1019.0, 0.2977053070293264
1020.0, 0.2478360214263908
1021.0, 0.20905706008901606
1022.0, 0.1797479095746355
1023.0, 0.15732605616002396
1024.0, 0.13855497788596965
1025.0, 0.12504310794374024
1026.0, 0.11362888766685235
1027.0, 0.10322232387862511
1028.0, 0.09510611242218815
1029.0, 0.08779585128872859
1030.0, 0.08117750917991629
1031.0, 0.07551260818040478
1032.0, 0.07065794262656995
1033.0, 0.06744904526886399
1034.0, 0.06663278466429093
1035.0, 0.06675882997093543
1036.0, 0.06800176804214933
1037.0, 0.07019116654053546
1038.0, 0.07284495736074881
1039.0, 0.07687345595277939
1040.0, 0.08145831965239961
1041.0, 0.08600262438748006
1042.0, 0.09175966938437081
1043.0, 0.09804669949060703
1044.0, 0.10431222044401636
1045.0, 0.11151937010362135
1046.0, 0.1189491815092824
1047.0, 0.123765440993001
1048.0, 0.1241229764535424
1049.0, 0.1209867141638872
1050.0, 0.11504600105090432
1051.0, 0.10643347188717794
1052.0, 0.09693872463940174
1053.0, 0.08822396267781597
1054.0, 0.07726129066507831
1055.0, 0.06849827235301367
1056.0, 0.060046468456601026
1057.0, 0.05337716434804445
1058.0, 0.04891634953769837
1059.0, 0.04616843653480456
1060.0, 0.04629420760755644
1061.0, 0.04875478053904511
1062.0, 0.0548483727383633
1063.0, 0.06408433975656712
1064.0, 0.07549432967935647
1065.0, 0.08703626884307962
1066.0, 0.09504091858276009
1067.0, 0.0953472659179924
1068.0, 0.08903107094434609
1069.0, 0.07747243217148148
1070.0, 0.06392696428200248
1071.0, 0.0533238065266492
1072.0, 0.043740104493280016
1073.0, 0.03589156570132213
1074.0, 0.030050490849002374
1075.0, 0.026868787466400357
1076.0, 0.024714176472878546
1077.0, 0.020934758150176536
1078.0, 0.016701995258419776
1079.0, 0.012916920646223146
1080.0, 0.009022089898455142
1081.0, 0.0061075548387716045
1082.0, 0.004762073224981056
1083.0, 0.003294608335355659
1084.0, 0.002186772773893365
1085.0, 0.0012892432901913389
1086.0, 0.001542797172846417
1087.0, 0.000952114425327925
1088.0, 0.0002710820574762364
1089.0, 0.00010939005949953255
1090.0, 0.00042358281300193204
1091.0, 0.0006391246780594519
1092.0, 0.0009624926546458899
1093.0, 0.00020743857903771532
1094.0, 0.0006666967670691654
1095.0, 0.0010506539362881886
1096.0, 0.0006681621910675849
1097.0, 0.0004375439530955548
1098.0, 0.0005837370036994336
1099.0, 0.0007727381501957632
1100.0, 0.001075823435049122
1101.0, 0.0013382451961396623
1102.0, 0.0007961608938275951
1103.0, 0.0008056888262623215
1104.0, 0.0007757341859564032
1105.0, 0.0006873099475564442
1106.0, 0.0013474582186677234
1107.0, 0.00135062345766757
1108.0, 0.0004659578381402922
1109.0, 5.8065128283039926e-05
1110.0, 5.6024919159995394e-05
1111.0, 0.00040931025569179496
1112.0, 0.001435332155406357
1113.0, 0.0008307680978972412
1114.0, 0.00015821532620283445
1115.0, 0.0006823001023987044
1116.0, 0.00017017268904213757
1117.0, 0.0005434575490001292
1118.0, 0.0007013614284555879
1119.0, 0.000755000011396232
1120.0, 0.0007979845988796437
1121.0, 0.00030560315065452845
1122.0, 0.0004013348602519039
1123.0, 0.0009098905738041602
1124.0, 0.001027333612907829
1125.0, 0.00121876906055899
1126.0, 0.0011252788799625396
1127.0, 0.0011518584275193387
1128.0, 0.0013390181833608204
1129.0, 0.001451549620961111
1130.0, 0.0016132250412908445
1131.0, 0.0019180249363093497
1132.0, 0.002037361387955405
1133.0, 0.0017875510870383592
1134.0, 0.0018056702231907568
1135.0, 0.002819627920930953
1136.0, 0.0037449312804630716
1137.0, 0.003885449096228308
1138.0, 0.004852819663086132
1139.0, 0.005994197178614677
1140.0, 0.00664585898996322
1141.0, 0.007633160011696432
1142.0, 0.009332051890121183
1143.0, 0.010882497700603046
1144.0, 0.01189880669490751
1145.0, 0.014036226888278297
1146.0, 0.0160145299774304
1147.0, 0.01694722703103962
1148.0, 0.016404165492291005
1149.0, 0.015747647606768552
1150.0, 0.013816867931301177
1151.0, 0.011875299950870687
1152.0, 0.010562843675102334
1153.0, 0.008597842898481967
1154.0, 0.00690529696690216
1155.0, 0.006595530761792936
1156.0, 0.004659520259389104
1157.0, 0.004464973299538548
1158.0, 0.004069104957031715
1159.0, 0.00364679986322721
1160.0, 0.003517065137551004
1161.0, 0.0032718235566731434
1162.0, 0.003211178312538896
1163.0, 0.0031244007744471594
1164.0, 0.002492574093843368
1165.0, 0.0023256960424661386
1166.0, 0.0018434399109150724
1167.0, 0.0017177484109595614
1168.0, 0.0017860339106759017
1169.0, 0.0016757251756896268
1170.0, 0.0022323824395477647
1171.0, 0.0021027135581942968
1172.0, 0.001451904246459078
1173.0, 0.0010545480354167086
1174.0, 0.0009264801894200573
1175.0, 0.001151430209215251
1176.0, 0.001984149712553369
1177.0, 0.002207636100596332
1178.0, 0.0017420195715696
1179.0, 0.0013008334608281534
1180.0, 0.0015138032817761944
1181.0, 0.0012008443203829389
1182.0, 0.0013742992803895807
1183.0, 0.0017177136744650112
1184.0, 0.0015509697629924506
1185.0, 0.0016114413800248288
1186.0, 0.0015874563132858288
1187.0, 0.0013317536355944184
1188.0, 0.0014892074882384095
1189.0, 0.0017689070409682216
1190.0, 0.001505733057518021
1191.0, 0.0016278612262997118
1192.0, 0.001608474339107802
1193.0, 0.0012173232652026307
1194.0, 0.0012143199101073505
1195.0, 0.0015794477703808042
1196.0, 0.0012588530264485986
1197.0, 0.001492757133892743
1198.0, 0.0014574443711045906
1199.0, 0.0010084354815209284
1200.0, 0.001337440246508674
1201.0, 0.001613667319618914
1202.0, 0.0007155180531527506
1203.0, 0.000952382650905869
1204.0, 0.0016621747105821103
1205.0, 0.0012098931113066614
1206.0, 0.0016624917910037103
1207.0, 0.0013180700596641236
1208.0, 0.0014280493616227953
1209.0, 0.0014993499401682953
1210.0, 0.0009555396153730978
1211.0, 0.0009642139271614773
1212.0, 0.0011086844233439467
1213.0, 0.0008537112118340154
1214.0, 0.0014774748992026324
1215.0, 0.0006987159686082134
1216.0, 0.000702578700757991
1217.0, 0.0007464557953985489
1218.0, 0.0010424193354562033
1219.0, 0.0009329994760079138
1220.0, 0.0006859456453498154
1221.0, 0.0006885665763822886
1222.0, 0.0006016533012387598
1223.0, 0.0006913732119490307
1224.0, 0.0009399721756435088
1225.0, 0.0008888441581298586
1226.0, 0.0005714059270457493
1227.0, 0.0005212791225286319
1228.0, 0.0010860972581681492
1229.0, 0.00020526371433164298
1230.0, 0.00017095179384014368
1231.0, 0.0005535823388175779
1232.0, 0.00044038585018205156
1233.0, 0.000445268472846687
1234.0, 0.0009603602062583583
1235.0, 0.0007879856626869354
1236.0, 0.00020210091833565327
1237.0, 0.00021399759132169718
1238.0, 0.0004385283856549149
1239.0, 7.225963071113973e-05
1240.0, 0.0003446212631211572
1241.0, 0.0004292857336514124
1242.0, 0.00041169195423072655
1243.0, 0.0002786212088207707
1244.0, 0.000898280321613761
1245.0, 0.00047031079043839805
1246.0, 0.0005860813934086297
1247.0, 0.00012199601838164182
1248.0, 0.000289770179675502
1249.0, 0.0007150816366915715
1250.0, 0.0009364343575297415
1251.0, 0.0011115278623608181
1252.0, 0.0010221064867198919
1253.0, 0.0011092134410601838
1254.0, 0.0016107313008238108
1255.0, 0.000518650543686074
1256.0, 0.0007832369563101659
1257.0, 0.0011577041471125904
1258.0, 0.0006704926077777656
1259.0, 0.001064958851318525
1260.0, 0.0011372595298633512
1261.0, 0.001130970257994132
1262.0, 0.0011547092398440254
1263.0, 0.000991328769950679
1264.0, 0.0007648163760056458
1265.0, 0.000897392921202011
1266.0, 0.0011651735293414013
1267.0, 0.0009552992513124882
1268.0, 0.0008635338745610601
1269.0, 0.0008663271736087858
1270.0, 0.0010278208203584858
1271.0, 0.0008099866149967344
1272.0, 0.0008400813363497338
1273.0, 0.000997304617101226
1274.0, 0.0004053508263451674
1275.0, 0.0002507809457759676
1276.0, 0.0003852735422407541
1277.0, 0.0005407232619182903
1278.0, 0.0006083397705365957
1279.0, 0.0007661166983578446
1280.0, 0.000527476634674916
1281.0, 0.0001347382601832383
1282.0, 0.00026113175841609593
1283.0, 0.0006718408143475786
1284.0, 0.0004995617962532985
1285.0, 0.00011459302446115897
1286.0, 0.00042218956656902055
1287.0, 0.000729065412155389
1288.0, 0.000624531208033114
1289.0, 0.0006640669230995615
1290.0, 0.0006905762761910174
1291.0, 0.0007743638712634448
1292.0, 0.0002939927299320011
1293.0, 0.0002214657574178789
1294.0, 0.0005129892675270627
1295.0, 0.00027889240707992623
1296.0, 9.482999822189754e-05
1297.0, 0.0005903859634922186
1298.0, 0.001108522520647024
1299.0, 0.0008889044352227345
1300.0, 0.0007660572957798377
1301.0, 0.00015080290958851146
1302.0, 6.200274669964272e-05
1303, 0.0
1304, 0.0
1305, 0.0
1306, 0.0
1307, 0.0
1308, 0.0
1309, 0.0
1310, 0.0
1311, 0.0
1312, 0.0
1313, 0.0
1314, 0.0
1315, 0.0
1316, 0.0
1317, 0.0
1318, 0.0
1319, 0.0
1320, 0.0
1321, 0.0
1322, 0.0
1323, 0.0
1324, 0.0
1325, 0.0
1326, 0.0
1327, 0.0
1328, 0.0
1329, 0.0
1330, 0.0
1331, 0.0
1332, 0.0
1333, 0.0
1334, 0.0
1335, 0.0
1336, 0.0
1337, 0.0
1338, 0.0
1339, 0.0
1340, 0.0
1341, 0.0
1342, 0.0
1343, 0.0
1344, 0.0
1345, 0.0
1346, 0.0
1347, 0.0
1348, 0.0
1349, 0.0
1350, 0.0
1351, 0.0
1352, 0.0
1353, 0.0
1354, 0.0
1355, 0.0
1356, 0.0
1357, 0.0
1358, 0.0
1359, 0.0
1360, 0.0
1361, 0.0
1362, 0.0
1363, 0.0
1364, 0.0
1365, 0.0
1366, 0.0
1367, 0.0
1368, 0.0
1369, 0.0
1370, 0.0
1371, 0.0
1372, 0.0
1373, 0.0
1374, 0.0
1375, 0.0
1376, 0.0
1377, 0.0
1378, 0.0
1379, 0.0
1380, 0.0
1381, 0.0
1382, 0.0
1383, 0.0
1384, 0.0
1385, 0.0
1386, 0.0
1387, 0.0
1388, 0.0
1389, 0.0
1390, 0.0
1391, 0.0
1392, 0.0
1393, 0.0
1394, 0.0
1395, 0.0
1396, 0.0
1397, 0.0
1398, 0.0
1399, 0.0
1400, 0.0
1401, 0.0
1402, 0.0
1403, 0.0
1404, 0.0
1405, 0.0
1406, 0.0
1407, 0.0
1408, 0.0
1409, 0.0
1410, 0.0
1411, 0.0
1412, 0.0
1413, 0.0
1414, 0.0
1415, 0.0
1416, 0.0
1417, 0.0
1418, 0.0
1419, 0.0
1420, 0.0
1421, 0.0
1422, 0.0
1423, 0.0
1424, 0.0
1425, 0.0
1426, 0.0
1427, 0.0
1428, 0.0
1429, 0.0
1430, 0.0
1431, 0.0
1432, 0.0
1433, 0.0
1434, 0.0
1435, 0.0
1436, 0.0
1437, 0.0
1438, 0.0
1439, 0.0
1440, 0.0
1441, 0.0
1442, 0.0
1443, 0.0
1444, 0.0
1445, 0.0
1446, 0.0
1447, 0.0
1448, 0.0
1449, 0.0
1450, 0.0
1451, 0.0
1452, 0.0
1453, 0.0
1454, 0.0
1455, 0.0
1456, 0.0
1457, 0.0
1458, 0.0
1459, 0.0
1460, 0.0
1461, 0.0
1462, 0.0
1463, 0.0
1464, 0.0
1465, 0.0
1466, 0.0
1467, 0.0
1468, 0.0
1469, 0.0
1470, 0.0
1471, 0.0
1472, 0.0
1473, 0.0
1474, 0.0
1475, 0.0
1476, 0.0
1477, 0.0
1478, 0.0
1479, 0.0
1480, 0.0
1481, 0.0
1482, 0.0
1483, 0.0
1484, 0.0
1485, 0.0
1486, 0.0
1487, 0.0
1488, 0.0
1489, 0.0
1490, 0.0
1491, 0.0
1492, 0.0
1493, 0.0
1494, 0.0
1495, 0.0
1496, 0.0
1497, 0.0
1498, 0.0
1499, 0.0
1500, 0.0
1501, 0.0
1502, 0.0
1503, 0.0
1504, 0.0
1505, 0.0
1506, 0.0
1507, 0.0
1508, 0.0
1509, 0.0
1510, 0.0
1511, 0.0
1512, 0.0
1513, 0.0
1514, 0.0
1515, 0.0
1516, 0.0
1517, 0.0
1518, 0.0
1519, 0.0
1520, 0.0
1521, 0.0
1522, 0.0
1523, 0.0
1524, 0.0
1525, 0.0
1526, 0.0
1527, 0.0
1528, 0.0
1529, 0.0
1530, 0.0
1531, 0.0
1532, 0.0
1533, 0.0
1534, 0.0
1535, 0.0
1536, 0.0
1537, 0.0
1538, 0.0
1539, 0.0
1540, 0.0
1541, 0.0
1542, 0.0
1543, 0.0
1544, 0.0
1545, 0.0
1546, 0.0
1547, 0.0
1548, 0.0
1549, 0.0
1550, 0.0
1551, 0.0
1552, 0.0
1553, 0.0
1554, 0.0
1555, 0.0
1556, 0.0
1557, 0.0
1558, 0.0
1559, 0.0
1560, 0.0
1561, 0.0
1562, 0.0
1563, 0.0
1564, 0.0
1565, 0.0
1566, 0.0
1567, 0.0
1568, 0.0
1569, 0.0
1570, 0.0
1571, 0.0
1572, 0.0
1573, 0.0
1574, 0.0
1575, 0.0
1576, 0.0
1577, 0.0
1578, 0.0
1579, 0.0
1580, 0.0
1581, 0.0
1582, 0.0
1583, 0.0
1584, 0.0
1585, 0.0
1586, 0.0
1587, 0.0
1588, 0.0
1589, 0.0
1590, 0.0
1591, 0.0
1592, 0.0
1593, 0.0
1594, 0.0
1595, 0.0
1596, 0.0
1597, 0.0
1598, 0.0
1599, 0.0
