30, 0.0
31, 0.0
32, 0.0
33, 0.0
34, 0.0
35, 0.0
36, 0.0
37, 0.0
38, 0.0
39, 0.0
40, 0.0
41, 0.0
42, 0.0
43, 0.0
44, 0.0
45, 0.0
46, 0.0
47, 0.0
48, 0.0
49, 0.0
50, 0.0
51, 0.0
52, 0.0
53, 0.0
54, 0.0
55, 0.0
56, 0.0
57, 0.0
58, 0.0
59, 0.0
60, 0.0
61, 0.0
62, 0.0
63, 0.0
64, 0.0
65, 0.0
66, 0.0
67, 0.0
68, 0.0
69, 0.0
70, 0.0
71, 0.0
72, 0.0
73, 0.0
74, 0.0
75, 0.0
76, 0.0
77, 0.0
78, 0.0
79, 0.0
80, 0.0
81, 0.0
82, 0.0
83, 0.0
84, 0.0
85, 0.0
86, 0.0
87, 0.0
88, 0.0
89, 0.0
90, 0.0
91, 0.0
92, 0.0
93, 0.0
94, 0.0
95, 0.0
96, 0.0
97, 0.0
98, 0.0
99, 0.0
100, 0.0
101, 0.0
102, 0.0
103, 0.0
104, 0.0
105, 0.0
106, 0.0
107, 0.0
108, 0.0
109, 0.0
110, 0.0
111, 0.0
112, 0.0
113, 0.0
114, 0.0
115, 0.0
116, 0.0
117, 0.0
118, 0.0
119, 0.0
120, 0.0
121, 0.0
122, 0.0
123, 0.0
124, 0.0
125.0, 1.9396135682622525e-05
126.0, 2.939095187715346e-05
127.0, 0.00023273701094143754
128.0, 0.0010490272771972783
129.0, 0.0009534425657495306
130.0, 0.0015349279655857335
131.0, 0.0019989734684672986
132.0, 0.001595782565168495
133.0, 0.00010296609443677574
134.0, 0.0002715905153571936
135.0, 0.0020597863321805076
136.0, 0.002793257012705763
137.0, 0.0035376905981614327
138.0, 0.004767153677980571
139.0, 0.003651313077523132
140.0, 0.006588069297843767
141.0, 0.006708764483930567
142.0, 0.007058746064654786
143.0, 0.008404760849524632
144.0, 0.00875603723931707
145.0, 0.007719348615109457
146.0, 0.006635109873593939
147.0, 0.007088933912911052
148.0, 0.007677833540407375
149.0, 0.006700868056338016
150.0, 0.006479687774601802
151.0, 0.006351181984370967
152.0, 0.005726479148200364
153.0, 0.005386029686783529
154.0, 0.005568922891782243
155.0, 0.005359966033853673
156.0, 0.0024458373858117295
157.0, 0.005522435893285433
158.0, 0.005721044056464004
159.0, 0.0034085696361275783
160.0, 0.0036967391190151667
161.0, 0.00060786659147216
162.0, 0.004236477896334023
163.0, 0.0037040744488525215
164.0, 0.0031608138990665887
165.0, 0.006472874133737116
166.0, 0.008776344707002316
167.0, 0.0050290596940917665
168.0, 0.004413380532832533
169.0, 0.005729829127371279
170.0, 0.007093764065434344
171.0, 0.007008370594317531
172.0, 0.009407540728669195
173.0, 0.009195612846030059
174.0, 0.010522652256510516
175.0, 0.012152395407149491
176.0, 0.012955777297492296
177.0, 0.01726435167166903
178.0, 0.016325454008179082
179.0, 0.019706032766974857
180.0, 0.02202874079105213
181.0, 0.023011114576847944
182.0, 0.028170254200898328
183.0, 0.030850164870228392
184.0, 0.03250146640984671
185.0, 0.03129088756904246
186.0, 0.02957199960680337
187.0, 0.029076259180353777
188.0, 0.024072880342276587
189.0, 0.021093432429835544
190.0, 0.01845149625600943
191.0, 0.016142468927869993
192.0, 0.014001491635416754
193.0, 0.011724235608804723
194.0, 0.012414221719105176
195.0, 0.013449690439769516
196.0, 0.014147997399796192
197.0, 0.014190792912013542
198.0, 0.014271532228746386
199.0, 0.017921077659535954
200.0, 0.017354705932613703
201.0, 0.01825726431880057
202.0, 0.02021675382224585
203.0, 0.021631724395638333
204.0, 0.0209472022084767
205.0, 0.02605064265865822
206.0, 0.025937626053009175
207.0, 0.026961983614938654
208.0, 0.03103343801023034
209.0, 0.03698452224761777
210.0, 0.03960738615010884
211.0, 0.037733248229719005
212.0, 0.0325504650515106
213.0, 0.028817226898185916
214.0, 0.02580136794930622
215.0, 0.018859006120369858
216.0, 0.016100719179725033
217.0, 0.013725340173240405
218.0, 0.012012847263976048
219.0, 0.010378966767167905
220.0, 0.00843399672446099
221.0, 0.006749211279331762
222.0, 0.006177238663248684
223.0, 0.007781874889854181
224.0, 0.0072923390887386
225.0, 0.004864245280957602
226.0, 0.0035100599517816906
227.0, 0.003901499421985028
228.0, 0.008062232674556396
229.0, 0.007672594724950423
230.0, 0.006347311933854789
231.0, 0.007405462193281896
232.0, 0.010027747384521108
233.0, 0.006223738929208294
234.0, 0.005407356481141407
235.0, 0.007222997133185735
236.0, 0.00819070436415769
237.0, 0.005952549426665102
238.0, 0.006966867546560353
239.0, 0.005789350497483176
240.0, 0.006214366927850938
241.0, 0.007652510907861168
242.0, 0.008598187591878642
243.0, 0.007587461676712437
244.0, 0.007542782450343157
245.0, 0.010477361554967103
246.0, 0.009876506381027968
247.0, 0.008862908363851984
248.0, 0.010321096312517347
249.0, 0.011466306799348847
250.0, 0.011973915836060974
251.0, 0.013747752317549938
252.0, 0.015230379916697656
253.0, 0.01639541559482376
254.0, 0.017958045192550606
255.0, 0.019801051825566643
256.0, 0.02025525515105541
257.0, 0.019994875508475025
258.0, 0.020742202086361166
259.0, 0.021807285479266955
260.0, 0.020543558514454885
261.0, 0.022370011043807238
262.0, 0.019663146530203648
263.0, 0.018718189214598117
264.0, 0.018883139799591796
265.0, 0.017741078127347022
266.0, 0.013471543704443619
267.0, 0.012293787644970106
268.0, 0.009038968770073603
269.0, 0.008367767778213993
270.0, 0.009556786110650705
271.0, 0.010307922358682052
272.0, 0.013555986999397005
273.0, 0.013374518847337025
274.0, 0.011220826577501435
275.0, 0.009308127403804187
276.0, 0.009217367755039601
277.0, 0.01137995172282303
278.0, 0.01366033858775962
279.0, 0.01570392783884614
280.0, 0.017863298812599217
281.0, 0.019794755790463057
282.0, 0.020262118344441506
283.0, 0.01749249646012551
284.0, 0.01988505498184163
285.0, 0.021239613755057226
286.0, 0.0210632211698148
287.0, 0.021536462781715136
288.0, 0.023454319904900402
289.0, 0.02218020448875664
290.0, 0.020176639231495815
291.0, 0.01852306040384365
292.0, 0.01766322191650508
293.0, 0.01689514349918677
294.0, 0.015498295734104089
295.0, 0.015215837658843918
296.0, 0.01388198564062526
297.0, 0.013469819369974701
298.0, 0.013380257962452033
299.0, 0.012616804351692391
300.0, 0.010958302489760582
301.0, 0.013937100044336792
302.0, 0.0139268635659963
303.0, 0.013421980152253711
304.0, 0.015013378875134417
305.0, 0.01702667108832729
306.0, 0.013759322988584408
307.0, 0.013850149034633682
308.0, 0.00942116083044565
309.0, 0.00998384342880299
310.0, 0.01076725260600663
311.0, 0.008760165376838358
312.0, 0.010566627866434157
313.0, 0.00962369376760208
314.0, 0.010695364836489255
315.0, 0.012389886713620547
316.0, 0.01409189404617196
317.0, 0.014923882725934812
318.0, 0.012723874253022089
319.0, 0.01352843191627425
320.0, 0.013137486776887235
321.0, 0.011322665359337325
322.0, 0.010387208324950298
323.0, 0.011927514094695873
324.0, 0.011450118357073378
325.0, 0.012285734983470653
326.0, 0.011718308270763658
327.0, 0.008816365785297228
328.0, 0.005803282654431228
329.0, 0.0059153067971202365
330.0, 0.008335405768354832
331.0, 0.005105057128233327
332.0, 0.008553002587135894
333.0, 0.011213217764145356
334.0, 0.01120622069035305
335.0, 0.012400226047455052
336.0, 0.014722614275384223
337.0, 0.013206176691186101
338.0, 0.01451794525989383
339.0, 0.017104170989943632
340.0, 0.01854665064122938
341.0, 0.017837269730042432
342.0, 0.02081296524699218
343.0, 0.021516885293971846
344.0, 0.022150821806406734
345.0, 0.022234531864106698
346.0, 0.021433471730239354
347.0, 0.019915064904166602
348.0, 0.016118432130679393
349.0, 0.0164056689583304
350.0, 0.019084222384814747
351.0, 0.019019303881603444
352.0, 0.0160352089015635
353.0, 0.015908037739136637
354.0, 0.013987208875283307
355.0, 0.012892818227452484
356.0, 0.01220707757429045
357.0, 0.012454296557362663
358.0, 0.012328743650687696
359.0, 0.008721421929027862
360.0, 0.006828061757054126
361.0, 0.009610805809895366
362.0, 0.007001612225017801
363.0, 0.004209808790127999
364.0, 0.004648885729293868
365.0, 0.00449892833423359
366.0, 0.007366613972797119
367.0, 0.006211534439568984
368.0, 0.0057332381898155494
369.0, 0.0053837828242130625
370.0, 0.004493915664570268
371.0, 0.004186537650593819
372.0, 0.007481978386045777
373.0, 0.00779672800325459
374.0, 0.007848096226987391
375.0, 0.008360782602452013
376.0, 0.008816740886789113
377.0, 0.008051363451308751
378.0, 0.008335360033863067
379.0, 0.008265105830590808
380.0, 0.008051039821275427
381.0, 0.008957517421965499
382.0, 0.010587602393161607
383.0, 0.010565350645546454
384.0, 0.009984411714972911
385.0, 0.013551603588098152
386.0, 0.014352080679596823
387.0, 0.01436479451859181
388.0, 0.015570892103919667
389.0, 0.017138172827360177
390.0, 0.014199963122636574
391.0, 0.014514191491279547
392.0, 0.01855567844253874
393.0, 0.01876232880515602
394.0, 0.015477800847353984
395.0, 0.01642641873227668
396.0, 0.013690062935989811
397.0, 0.01447525028334412
398.0, 0.011506510103033359
399.0, 0.010721186486619528
400.0, 0.012035470615053525
401.0, 0.009838086590992003
402.0, 0.0073513990618589015
403.0, 0.007726568647542676
404.0, 0.008334312480549088
405.0, 0.008996266999536918
406.0, 0.010404509852128437
407.0, 0.012730545241702276
408.0, 0.012408607298325729
409.0, 0.016553616948465324
410.0, 0.014764236639298364
411.0, 0.015127936194923721
412.0, 0.01685044800816053
413.0, 0.016053001649004143
414.0, 0.01902836573166758
415.0, 0.021856182881568813
416.0, 0.020753485730099545
417.0, 0.02155556376044461
418.0, 0.023263014174903406
419.0, 0.022062932723418447
420.0, 0.01649799296206562
421.0, 0.018091460572434347
422.0, 0.014498720227051953
423.0, 0.015516931860994298
424.0, 0.015513488343245662
425.0, 0.010811044838871256
426.0, 0.010199611512624744
427.0, 0.01242491688665507
428.0, 0.011660635163515719
429.0, 0.010449138199547427
430.0, 0.009615525577083223
431.0, 0.009289430410964656
432.0, 0.009139212720949207
433.0, 0.007596350594333018
434.0, 0.00669006226769195
435.0, 0.004967063840422849
436.0, 0.003764384865953708
437.0, 0.0028258607511924103
438.0, 0.0008277964218822984
439.0, 0.00010109543170610272
440.0, 0.0006266872159628209
441.0, 0.0012483858198654534
442.0, 0.0021295317735759976
443.0, 0.0023196685877847115
444.0, 0.0010501219530137192
445.0, 0.00011892536229593173
446.0, 0.0055679111453458855
447.0, 0.003216830692498195
448.0, 0.0009008027179043282
449.0, 0.0017033882877976166
450.0, 0.003808346456759301
451.0, 0.0019636825717388945
452.0, 0.002994136365429994
453.0, 0.002864667924659359
454.0, 0.001938289810311543
455.0, 0.000950232161142216
456.0, 0.0007560260430281861
457.0, 0.001663328664431681
458.0, 0.0005087443886621137
459.0, 0.0012200147251511056
460.0, 0.0022465175758897525
461.0, 0.0017299259011298663
462.0, 0.001432180204262752
463.0, 0.004001418106792071
464.0, 0.005504992422505638
465.0, 0.001336910333748142
466.0, 0.004575598872660202
467.0, 0.007817798227316057
468.0, 0.007701902450249763
469.0, 0.005698685479822122
470.0, 0.0067564624596958885
471.0, 0.004636321845083965
472.0, 0.0068983860150357915
473.0, 0.007798352063984392
474.0, 0.008095073378929627
475.0, 0.010562787089794272
476.0, 0.016078780253364046
477.0, 0.013307907847747876
478.0, 0.01437790036575478
479.0, 0.01256742541545033
480.0, 0.012540976642068427
481.0, 0.01392614389467566
482.0, 0.013857761005582345
483.0, 0.01571178908555741
484.0, 0.011733828415166835
485.0, 0.013326467684424406
486.0, 0.013620358389839243
487.0, 0.012170162100656214
488.0, 0.011293528561564093
489.0, 0.012423469402261106
490.0, 0.010950591821786553
491.0, 0.010418033457527712
492.0, 0.01054263827645847
493.0, 0.00999227292229219
494.0, 0.008437434490540833
495.0, 0.006845954749017202
496.0, 0.006864894847134109
497.0, 0.004100222045440387
498.0, 0.006721728191623779
499.0, 0.008623882106748165
500.0, 0.010283704985994922
501.0, 0.01146871647461472
502.0, 0.005934544249334487
503.0, 0.009412575154864617
504.0, 0.012321855080443759
505.0, 0.009289232625754503
506.0, 0.008603582994142421
507.0, 0.010113747175093632
508.0, 0.006831154009763859
509.0, 0.008483237726380405
510.0, 0.008864080445713896
511.0, 0.009880842980298676
512.0, 0.007361419160491296
513.0, 0.005139683833484669
514.0, 0.005361940386732466
515.0, 0.0013384431131858998
516.0, 0.006630226493121557
517.0, 0.009828330297491882
518.0, 0.008638110761798665
519.0, 0.009607779768705362
520.0, 0.012897415787343469
521.0, 0.01320333145487658
522.0, 0.012750488565424097
523.0, 0.015483023361139266
524.0, 0.015062453075106856
525.0, 0.015887116823567193
526.0, 0.017105628749237458
527.0, 0.018422019589044374
528.0, 0.02287113249776306
529.0, 0.02021315041503971
530.0, 0.02356464748548177
531.0, 0.027750824404938167
532.0, 0.027823099481557197
533.0, 0.028329784362854785
534.0, 0.034547402956003344
535.0, 0.035016988759711036
536.0, 0.0347108115629682
537.0, 0.035382651899300226
538.0, 0.035582505494141076
539.0, 0.03562334687691662
540.0, 0.03579360835789718
541.0, 0.03573508781663824
542.0, 0.03572530735851283
543.0, 0.03627251349515082
544.0, 0.03744124473732221
545.0, 0.037866121525824005
546.0, 0.038677403064430994
547.0, 0.04009748544720367
548.0, 0.0385803519623461
549.0, 0.03633550219562685
550.0, 0.03735783110564641
551.0, 0.033843750902266816
552.0, 0.027741983671718498
553.0, 0.024504815046599494
554.0, 0.02606976897282988
555.0, 0.021754898779559138
556.0, 0.014782848611189659
557.0, 0.011790672049029357
558.0, 0.012450342609327255
559.0, 0.013242146509282605
560.0, 0.012563891105476947
561.0, 0.01231256281629696
562.0, 0.014440529967399923
563.0, 0.010361395320934235
564.0, 0.008498613944232791
565.0, 0.009838308126908177
566.0, 0.010724607026501212
567.0, 0.00984225791855811
568.0, 0.011448069869544003
569.0, 0.008754266764461019
570.0, 0.010995186257745202
571.0, 0.009864832424259912
572.0, 0.009448638439383112
573.0, 0.010419966645821652
574.0, 0.011320001919089294
575.0, 0.013232195883983526
576.0, 0.011758111800632302
577.0, 0.011690224611405127
578.0, 0.010236775969235796
579.0, 0.010777571946297424
580.0, 0.013180463768674329
581.0, 0.01423473333664418
582.0, 0.01379242658495015
583.0, 0.01346429640918191
584.0, 0.010172032021085044
585.0, 0.010932649630758389
586.0, 0.012223589783627075
587.0, 0.013171570888483574
588.0, 0.016956194461896047
589.0, 0.019524304210315955
590.0, 0.010738678433627018
591.0, 0.01735900743408558
592.0, 0.014390147554369235
593.0, 0.010659354851179283
594.0, 0.013252384217738512
595.0, 0.01377496730448674
596.0, 0.018029044100574262
597.0, 0.01724282204832659
598.0, 0.019609833967370427
599.0, 0.024706786042651842
600.0, 0.027598706508625177
601.0, 0.0268426480684408
602.0, 0.02755082998843238
603.0, 0.03167573207429444
604.0, 0.038133232172232884
605.0, 0.03851142080948932
606.0, 0.03969130886446621
607.0, 0.039575923805836945
608.0, 0.03620766108804958
609.0, 0.03483079504986164
610.0, 0.037129980587027475
611.0, 0.0328737483770937
612.0, 0.02887191614232481
613.0, 0.026079092061736905
614.0, 0.024922628198754616
615.0, 0.023661967567898165
616.0, 0.018798943449882883
617.0, 0.016844613301150314
618.0, 0.012881671783080325
619.0, 0.01509292525668749
620.0, 0.015802623840470324
621.0, 0.013355817100602772
622.0, 0.011505195892019553
623.0, 0.013504778111224861
624.0, 0.008295035661518173
625.0, 0.008161200701356234
626.0, 0.010046985388530123
627.0, 0.008791813627078258
628.0, 0.0069516339138026035
629.0, 0.0075690262235945695
630.0, 0.007793175812171182
631.0, 0.004998266487754461
632.0, 0.00420462849207919
633.0, 0.0029532960762948964
634.0, 0.002272177860710602
635.0, 0.002419980394781749
636.0, 0.0031427719024054203
637.0, 0.00432105237149245
638.0, 0.0061649786251676015
639.0, 0.005556767789692449
640.0, 0.003402155664931782
641.0, 0.0024701659370383886
642.0, 0.002434859225332672
643.0, 0.002403242050482008
644.0, 0.002710515451233179
645.0, 0.0033616098425458697
646.0, 0.0028313484306855896
647.0, 0.0016430767621945798
648.0, 0.0009485024283306951
649.0, 0.0023388323842205524
650.0, 0.003547310287138645
651.0, 0.0007392694432770496
652.0, 0.0009617182943917555
653.0, 0.0040697052088817885
654.0, 0.002597062185851609
655.0, 0.0015834453327635877
656.0, 0.0013274939372876163
657.0, 0.0013154571441776107
658.0, 0.0015094635088774141
659.0, 0.000856686254683449
660.0, 0.005122552314675475
661.0, 0.0019766176553551664
662.0, 0.0032208743860421118
663.0, 0.0058401705321244925
664.0, 0.005777438560557319
665.0, 0.0032879376380103723
666.0, 0.002584976060237
667.0, 0.0028041540279958427
668.0, 0.002348560553131363
669.0, 0.0009889612932814955
670.0, 0.0022295789078358697
671.0, 0.0034967870594907473
672.0, 0.0021155845892249945
673.0, 0.0020584342519109644
674.0, 0.002990561823563336
675.0, 0.0012085772125265395
676.0, 0.0019546834403562337
677.0, 0.0013074611117170195
678.0, 0.00220564835538635
679.0, 0.003946197249432692
680.0, 0.00014783224615079254
681.0, 0.0006834609045286539
682.0, 0.0003792997267093474
683.0, 0.0020073524202165014
684.0, 0.0014124497836742272
685.0, 0.0011477147551224496
686.0, 0.0015743508016866743
687.0, 0.0005305501201541806
688.0, 0.000682295909117643
689.0, 0.00032058442086347987
690.0, 0.0006225038906879673
691.0, 0.0017462236955268688
692.0, 0.0015188851476424631
693.0, 0.000796142792609413
694.0, 0.0014939660471794958
695.0, 0.0027793836947050485
696.0, 0.0016122060788951052
697.0, 0.0009782944518211363
698.0, 0.004188663562799413
699.0, 0.0037757914701305175
700.0, 0.002528086850396355
701.0, 0.002388382987497726
702.0, 0.00015296589442716614
703.0, 0.0007511114358194531
704.0, 0.0050314681015575175
705.0, 0.005515314696653633
706.0, 0.0040445257306413835
707.0, 0.004112010373729683
708.0, 0.0051427464806762455
709.0, 0.005245242924624155
710.0, 0.006808161361134147
711.0, 0.006094303752529463
712.0, 0.006625194292258558
713.0, 0.008599829668900043
714.0, 0.006371898640212188
715.0, 0.006005483928176315
716.0, 0.00842810975765882
717.0, 0.005419322085825071
718.0, 0.010933619994039594
719.0, 0.013259358238980855
720.0, 0.013637241123603476
721.0, 0.014873814304127405
722.0, 0.017947047609175794
723.0, 0.020085461354608827
724.0, 0.020851883665363054
725.0, 0.02739869202522195
726.0, 0.026031175633382527
727.0, 0.029134236411528985
728.0, 0.03483586639549268
729.0, 0.037783668705926254
730.0, 0.04185201596448727
731.0, 0.047511723929901314
732.0, 0.050241470791019836
733.0, 0.05958842443148189
734.0, 0.05976304399022948
735.0, 0.0682049824264246
736.0, 0.07096443684565976
737.0, 0.0751060107389661
738.0, 0.08420305572388953
739.0, 0.09237834409572251
740.0, 0.09145292225791082
741.0, 0.09361241285903979
742.0, 0.09916413490109771
743.0, 0.10038105884494053
744.0, 0.10071113931940064
745.0, 0.10378381114746442
746.0, 0.10917877343808473
747.0, 0.1142596983179067
748.0, 0.11914885178433668
749.0, 0.11762275076307926
750.0, 0.1234685149929578
751.0, 0.1179764391928579
752.0, 0.11505817352904132
753.0, 0.11550166004673
754.0, 0.11467410427620875
755.0, 0.11206669401323828
756.0, 0.10791249014253666
757.0, 0.10345136712417699
758.0, 0.09917365545307172
759.0, 0.09442307797412354
760.0, 0.08909312555342708
761.0, 0.08344353818829656
762.0, 0.07850662220191587
763.0, 0.07532411918012714
764.0, 0.07125481873810727
765.0, 0.06958607868375863
766.0, 0.0665061037372286
767.0, 0.06380427459917387
768.0, 0.06233588663053649
769.0, 0.06228731432136903
770.0, 0.062932340526446
771.0, 0.06314182169113867
772.0, 0.06559348981887382
773.0, 0.06997300133804375
774.0, 0.07892960803192758
775.0, 0.09118283273333687
776.0, 0.10142984486158159
777.0, 0.1076956163854606
778.0, 0.11504725801737939
779.0, 0.13105495621347
780.0, 0.1384751057142142
781.0, 0.15088640661888794
782.0, 0.16143960526772783
783.0, 0.1758624394538891
784.0, 0.18758297448747857
785.0, 0.19059488761070079
786.0, 0.18560840271034093
787.0, 0.177332724513382
788.0, 0.17369025203037405
789.0, 0.15521486863439699
790.0, 0.14602458907459273
791.0, 0.1357545657931105
792.0, 0.12784893687101231
793.0, 0.12213016627230762
794.0, 0.11385506468306185
795.0, 0.1085392929051992
796.0, 0.10997771359872348
797.0, 0.10892313438598013
798.0, 0.10455212066238752
799.0, 0.10753393460801997
800.0, 0.1150213657619593
801.0, 0.12124491646022202
802.0, 0.1273671545749511
803.0, 0.1418406644302647
804.0, 0.15923094705748728
805.0, 0.1697320446244613
806.0, 0.18497890683437518
807.0, 0.19452984238182372
808.0, 0.19514460497569014
809.0, 0.1943003998402203
810.0, 0.19582326706979788
811.0, 0.1878510910020473
812.0, 0.18419623339271485
813.0, 0.1792356320268985
814.0, 0.17148395885199408
815.0, 0.17047156118498824
816.0, 0.17318334300217295
817.0, 0.17680877356499788
818.0, 0.17944468795035415
819.0, 0.1776109147130953
820.0, 0.18228467091240513
821.0, 0.19151039363815023
822.0, 0.20515478673759327
823.0, 0.2232819630077702
824.0, 0.24871284992030543
825.0, 0.2838160595734575
826.0, 0.326114009049684
827.0, 0.36853854405474384
828.0, 0.4088424559154987
829.0, 0.44286534402707295
830.0, 0.4642361650499925
831.0, 0.46484253580740487
832.0, 0.44775476236616896
833.0, 0.4233524443707928
834.0, 0.3995747577379973
835.0, 0.3776466504418864
836.0, 0.3583214657958246
837.0, 0.3486751341938657
838.0, 0.36292007252574693
839.0, 0.380230507751694
840.0, 0.40925629498063837
841.0, 0.44521173246376367
842.0, 0.48637952638775667
843.0, 0.5353639622932946
844.0, 0.5830207061700009
845.0, 0.6168830978092373
846.0, 0.6421376066680442
847.0, 0.6423571023423926
848.0, 0.6286888097829593
849.0, 0.6049425304981683
850.0, 0.5789792413961348
851.0, 0.5625237964389059
852.0, 0.5614170471580053
853.0, 0.5661096735911404
854.0, 0.6060637399349211
855.0, 0.6574461476883868
856.0, 0.7197868487627473
857.0, 0.8022294087539348
858.0, 0.8855274532557841
859.0, 0.9536929627379364
860.0, 0.9969528956811298
861.0, 0.979715002807872
862.0, 0.9271677764965669
863.0, 0.8290575625581128
864.0, 0.7346402001117964
865.0, 0.6386438145978104
866.0, 0.5518056489674009
867.0, 0.4807620224222467
868.0, 0.42237207165184315
869.0, 0.37196023336749273
870.0, 0.330478990273619
871.0, 0.30853383932187173
872.0, 0.2868234530518575
873.0, 0.27060607874208126
874.0, 0.25827160396812276
875.0, 0.24664480548407333
876.0, 0.2321730683971991
877.0, 0.21396364104069343
878.0, 0.19619704456777334
879.0, 0.17604472348390357
880.0, 0.1601113697152089
881.0, 0.1474011626476292
882.0, 0.1323260747414704
883.0, 0.11920615464956141
884.0, 0.1078005255065383
885.0, 0.09701261193190902
886.0, 0.08900036731840276
887.0, 0.08091618017678458
888.0, 0.07359205705654866
889.0, 0.06446704140359047
890.0, 0.06347629641198176
891.0, 0.05758082758704946
892.0, 0.050399704993050666
893.0, 0.04860066170879816
894.0, 0.04941470030972008
895.0, 0.04408866523811803
896.0, 0.0393511359092028
897.0, 0.040444959730022906
898.0, 0.03806485726189316
899.0, 0.035667900809949235
900.0, 0.03610848177292202
901.0, 0.035451040537360146
902.0, 0.03185535993767188
903.0, 0.028920684129632383
904.0, 0.029825513013794484
905.0, 0.02910972114742878
906.0, 0.026968929757651416
907.0, 0.028100919761076322
908.0, 0.0267219660717906
909.0, 0.025319793476147937
910.0, 0.023049719052867738
911.0, 0.02202768756972537
912.0, 0.023333383528758203
913.0, 0.01890004079485595
914.0, 0.02011572053140641
915.0, 0.026283381420559273
916.0, 0.02197945534157783
917.0, 0.020757458913492722
918.0, 0.019434025889443016
919.0, 0.019158088761944043
920.0, 0.01983764848652192
921.0, 0.0185793289949933
922.0, 0.01845709036605598
923.0, 0.025487350638422668
924.0, 0.02266644246199149
925.0, 0.02352913667287592
926.0, 0.02494574951230106
927.0, 0.02944932500605356
928.0, 0.031000744367475155
929.0, 0.02956917842686431
930.0, 0.03229370599015771
931.0, 0.03706851478875931
932.0, 0.03433211757482362
933.0, 0.03383122226855801
934.0, 0.0321562499900219
935.0, 0.02394047022467454
936.0, 0.022592236578197523
937.0, 0.019740176833953935
938.0, 0.015614788618794452
939.0, 0.01624200327716594
940.0, 0.010397598905200296
941.0, 0.013859689344207424
942.0, 0.014845675714069596
943.0, 0.017451210308935757
944.0, 0.01792584644750764
945.0, 0.01473449446220038
946.0, 0.015404217716931517
947.0, 0.017818219240014255
948.0, 0.017099659883096502
949.0, 0.018680479405631962
950.0, 0.021245501926335595
951.0, 0.025517626642511972
952.0, 0.023764452601023767
953.0, 0.02879909846809829
954.0, 0.035336194569728044
955.0, 0.042381741236080905
956.0, 0.045329326348002665
957.0, 0.04720516869194564
958.0, 0.05894452503860381
959.0, 0.07518034938821665
960.0, 0.09269903739689686
961.0, 0.11110119759527767
962.0, 0.1369306313887152
963.0, 0.16378768716987688
964.0, 0.19523789505014977
965.0, 0.22892866511553708
966.0, 0.2567431975836301
967.0, 0.27297856640149154
968.0, 0.27748212635052244
969.0, 0.2632464632477576
970.0, 0.22851764324436108
971.0, 0.19011976788327029
972.0, 0.154153249694056
973.0, 0.12182651439603381
974.0, 0.09606898159812267
975.0, 0.07727434174535738
976.0, 0.061837844898068525
977.0, 0.04851939342848976
978.0, 0.04407180818100167
979.0, 0.025609543778388824
980.0, 0.029021231754883765
981.0, 0.020930912781769024
982.0, 0.018722829208960887
983.0, 0.012785947342056476
984.0, 0.008470051801743974
985.0, 0.010111978360603322
986.0, 0.010356419944290002
987.0, 0.00456109002720914
988.0, 0.001063764760474659
989.0, 0.006820167921249837
990.0, 0.002506199659371745
991.0, 0.0007388824354007753
992.0, 0.002709864875519863
993.0, 0.002091627855276585
994.0, 0.0012413715939522173
995.0, 0.0023742182403882132
996.0, 0.0020807132057999262
997.0, 0.0012358214184959152
998.0, 0.00028033060235224997
999.0, 0.0019690425347052725
1000.0, 0.0009221425208636541
1001.0, 0.0034311551648453843
1002.0, 0.004013525321496045
1003.0, 0.003715080643547335
1004.0, 0.005559620416056086
1005.0, 0.0070918128455310465
1006.0, 0.003778892288478727
1007.0, 0.0010671789064151385
1008.0, 0.006605894059887776
1009.0, 0.0013821980549008
1010.0, 0.0031933426292068048
1011.0, 0.005182376343813026
1012.0, 0.0057367164990088145
1013.0, 0.0040077117815868505
1014.0, 0.0028128409967485275
1015.0, 0.002573462027053536
1016.0, 0.0014959109720320215
1017.0, 0.005901398739369311
1018.0, 0.001543424845769879
1019.0, 0.002053900382793178
1020.0, 0.0008210713437298435
1021.0, 0.0025378533530040644
1022.0, 0.0019543725730426387
1023.0, 0.001673622506557657
1024.0, 0.002173864543664918
1025.0, 0.001680495987570106
1026.0, 0.0010602631040946466
1027.0, 0.0008467202135804156
1028.0, 0.000541422444783441
1029.0, 0.001218872986172077
1030.0, 0.0007212810545209157
1031.0, 0.0008104255676783733
1032.0, 0.002097131365073553
1033.0, 0.002033575807945385
1034.0, 0.0015746443135113961
1035.0, 0.002294299413664918
1036.0, 0.002322578520684828
1037.0, 0.000338677408472149
1038.0, 0.0017703982887697749
1039.0, 0.0002770813918264429
1040.0, 0.002512485644694078
1041.0, 0.0010289906170460267
1042.0, 0.00333718978869521
1043.0, 0.004546031675872963
1044.0, 0.002486451016660162
1045.0, 0.0015494755127312331
1046.0, 0.0029312630225760655
1047.0, 0.0019675188022732016
1048.0, 0.006986594760215141
1049.0, 0.0019993613333774275
1050.0, 0.0031677083712168394
1051.0, 0.0015514629763479044
1052.0, 0.0016659558273078672
1053.0, 0.002702967107020082
1054.0, 0.0020154397107964898
1055.0, 0.0017836267264215418
1056.0, 0.003998590877329953
1057.0, 0.004975226594582706
1058.0, 0.003168619043259154
1059.0, 0.004585692856974554
1060.0, 0.0007802007098852018
1061.0, 0.0021494600317671876
1062.0, 0.006449731216006727
1063.0, 0.002976056029145075
1064.0, 0.00041350049598057955
1065.0, 0.0009852654383245352
1066.0, 0.0011060322217844175
1067.0, 0.001169323485895769
1068.0, 0.0032045473040739733
1069.0, 0.004273279271213028
1070.0, 0.0035833637491740483
1071.0, 0.004396653703356326
1072.0, 0.007647049280050911
1073.0, 0.005270176081427275
1074.0, 0.0017092748685555745
1075.0, 0.0025921666984834784
1076.0, 0.0040069121389377195
1077.0, 0.002696398583697024
1078.0, 0.003719790292616743
1079.0, 0.007794500348954226
1080.0, 0.0026661437711163957
1081.0, 0.003827211110102291
1082.0, 0.0035817491764516232
1083.0, 0.0021746924626611487
1084.0, 0.0015161897966702417
1085.0, 0.0016494971692498446
1086.0, 0.002101889999660921
1087.0, 0.002781550020122941
1088.0, 0.002577899209377498
1089.0, 0.0011565214834392385
1090.0, 0.0019330086377434335
1091.0, 0.0008320586130302525
1092.0, 0.004848684826976802
1093.0, 0.0016535238101829254
1094.0, 0.007732258023001492
1095.0, 0.007806444691683806
1096.0, 0.006124547989392569
1097.0, 0.00929563046332194
1098.0, 0.012670404453488396
1099.0, 0.008798597604499109
1100.0, 0.001517081056563497
1101.0, 0.0011311373983234046
1102.0, 0.0013626073221405808
1103.0, 0.004257809809146299
1104.0, 0.008493803883242293
1105.0, 0.005166204258887208
1106.0, 0.005648743978764509
1107.0, 0.004179534751025928
1108.0, 0.0026003461392972134
1109.0, 0.0020825327068927178
1110.0, 0.0030712275773024785
1111.0, 0.005742784259031472
1112.0, 0.00472836871972397
1113.0, 0.0034686270171416967
1114.0, 0.008988882576019755
1115.0, 0.006075856078577925
1116.0, 0.006226794492208534
1117.0, 0.002930264367075908
1118.0, 0.007210589472091838
1119.0, 0.00898590220816731
1120.0, 0.010847753148821809
1121.0, 0.013715451778449421
1122.0, 0.012571839709971057
1123.0, 0.012179224602409425
1124.0, 0.009270836739467766
1125.0, 0.01297096627882335
1126.0, 0.011078448223909292
1127.0, 0.013329351860155525
1128.0, 0.012394710751948278
1129.0, 0.010711031024330048
1130.0, 0.008911770427247454
1131.0, 0.0062756592864292695
1132.0, 0.0036618006442269368
1133.0, 0.002193235373106434
1134.0, 0.0013836071359025828
1135.0, 0.0008302814516032282
1136.0, 0.0012088585120587272
1137.0, 0.0008478803853778855
1138.0, 0.006191619108583495
1139.0, 0.006243260352913417
1140.0, 0.002588255538743793
1141.0, 0.007350296019761905
1142.0, 0.007529466012834795
1143.0, 0.004988531242158674
1144.0, 0.0038615685531091714
1145.0, 0.004309526412484896
1146.0, 0.007169694241811379
1147.0, 0.004138705615583266
1148.0, 0.00678607777266994
1149.0, 0.003786479846861612
1150.0, 0.0028689807382199805
1151.0, 0.0022213978654601952
1152.0, 0.0024616108687773985
1153.0, 0.0022649754575940514
1154.0, 0.00418472722348782
1155.0, 0.005478404178383757
1156.0, 0.005667821188859937
1157.0, 0.006259602885561518
1158.0, 0.006423588419171319
1159.0, 0.00869938306712766
1160.0, 0.006536747440506871
1161.0, 0.008433581699985872
1162.0, 0.00717728984811551
1163.0, 0.007850884329864393
1164.0, 0.0031471965189886607
1165.0, 0.007561532686700197
1166.0, 0.005222391831644444
1167.0, 0.005190924294673114
1168.0, 0.00845150819292175
1169.0, 0.00538391836661971
1170.0, 0.002252832540615068
1171.0, 0.004279074977829618
1172.0, 0.011085855318274366
1173.0, 0.0021155073031920418
1174.0, 0.011928014650431813
1175.0, 0.00593217673070039
1176.0, 0.007605474611995861
1177.0, 0.007112171181323037
1178.0, 0.00431846684200369
1179.0, 0.006161890814981584
1180.0, 0.00644127109734647
1181.0, 0.00561892758664836
1182.0, 0.0082981369636583
1183.0, 0.0033310952040972452
1184.0, 0.0016696625142948282
1185.0, 0.00394381966729474
1186.0, 0.004901353857757066
1187.0, 0.0027115959841197495
1188.0, 0.004074368721072636
1189.0, 0.006827261997215425
1190.0, 0.004672447078198359
1191.0, 0.005719991293396733
1192.0, 0.0049801993202425515
1193.0, 0.0030485496564509763
1194.0, 0.004463529776218611
1195.0, 0.00456919033880694
1196.0, 0.0037148129283823554
1197.0, 0.004342149054344483
1198.0, 0.004982777569317103
1199.0, 0.006491153861214762
1200.0, 0.008621718653701713
1201.0, 0.003482506359708497
1202.0, 0.002831790823254469
1203.0, 0.006853536964536907
1204.0, 0.005782170804531898
1205.0, 0.004060162048811128
1206.0, 0.005470411601431769
1207.0, 0.00755020823667572
1208.0, 0.008305566157604298
1209.0, 0.006296231558275443
1210.0, 0.015116995758513246
1211.0, 0.007990229114948198
1212.0, 0.01457667691575472
1213.0, 0.0075432340780496295
1214.0, 0.007527028014419448
1215.0, 0.004820651049543604
1216.0, 0.0012888340611732535
1217.0, 0.006135330707255425
1218.0, 0.00928231249181724
1219.0, 0.007241942797326153
1220.0, 0.004847100167606026
1221.0, 0.003797502294666228
1222.0, 0.006415882996381746
1223.0, 0.0021658742548647364
1224.0, 0.007396359960472056
1225.0, 0.001380025122526326
1226.0, 0.0016797121789614107
1227.0, 0.007905665147987417
1228.0, 0.003585670862573153
1229.0, 0.005064966369800935
1230.0, 0.0091348253144043
1231.0, 0.008092430762965725
1232.0, 0.00826840519047667
1233.0, 0.00788375010460338
1234.0, 0.004487362225138746
1235.0, 0.00741486160501499
1236.0, 0.007142662361805147
1237.0, 0.009251583122035608
1238.0, 0.013253264365234082
1239.0, 0.007907182491407056
1240.0, 0.013087050126400357
1241.0, 0.009211962025518758
1242.0, 0.007138286231576967
1243.0, 0.006037242120287275
1244.0, 0.006893326564231276
1245.0, 0.00871410933906312
1246.0, 0.012099996317798416
1247.0, 0.013730255651169136
1248.0, 0.012321312939077497
1249.0, 0.0126994187074251
1250.0, 0.010394922284503411
1251.0, 0.015696729153953044
1252.0, 0.008326874167531686
1253.0, 0.004005809304458556
1254.0, 0.01350150127148729
1255.0, 0.007364635710220837
1256.0, 0.009161699496765707
1257.0, 0.007019923625023481
1258.0, 0.004521679489551773
1259.0, 0.0062210539551643095
1260.0, 0.004320266301274994
1261.0, 0.005586263550244557
1262.0, 0.0112576056454726
1263.0, 0.006568330555269056
1264.0, 0.007226258097341697
1265.0, 0.00464464617419743
1266.0, 0.00971343823095608
1267.0, 0.009884790494100263
1268.0, 0.007094046800234831
1269.0, 0.007138119893685529
1270.0, 0.006942843681457853
1271.0, 0.0053973578799247955
1272.0, 0.006607979714500479
1273.0, 0.005304536808284797
1274.0, 0.00391621233995974
1275.0, 0.0027512287171957655
1276.0, 0.0006944881193643401
1277.0, 0.00044220902537642123
1278.0, 0.0028122429547393574
1279.0, 0.007778366066907942
1280.0, 0.004855111567402531
1281.0, 0.004890445732235883
1282.0, 0.000345274838910125
1283.0, 0.00139507615214055
1284.0, 0.004930578603738099
1285.0, 0.008279415667617068
1286.0, 0.009437017904732026
1287.0, 0.005528167450166205
1288.0, 0.008654527455284907
1289.0, 0.00787696996809724
1290.0, 0.005334194702791965
1291.0, 0.008537921626647132
1292.0, 0.008480703610539993
1293.0, 0.005323019846872052
1294.0, 0.006193514064270574
1295.0, 0.006611020097982617
1296.0, 0.005450846005147444
1297.0, 0.009125193879104801
1298.0, 0.006818413942934374
1299.0, 0.010990753281843249
1300.0, 0.0033667611904106866
1301.0, 0.0076609455017079605
1302.0, 0.004224968555691753
1303.0, 0.0041280191686585066
1304.0, 0.005253342441929342
1305.0, 0.008102278169698886
1306.0, 0.009848032334979833
1307.0, 0.007342885191191823
1308.0, 0.009357041483853386
1309.0, 0.012700845694245073
1310.0, 0.006802742766758992
1311.0, 0.0033311625921432007
1312.0, 0.0060928906291487705
1313.0, 0.002735313884826573
1314.0, 0.005637466396757043
1315.0, 0.005300285858814674
1316.0, 0.005916998762714673
1317.0, 0.010489352635764839
1318.0, 0.0088948535149638
1319.0, 0.005029053404452012
1320.0, 0.002253795140192877
1321.0, 0.00428617725918029
1322.0, 0.009106223723064459
1323.0, 0.012585640877414633
1324.0, 0.015746298961022132
1325.0, 0.016127188432377277
1326.0, 0.01315237000310433
1327.0, 0.015677062338230994
1328.0, 0.008901955558763214
1329.0, 0.0012022557925435494
1330.0, 0.009252304648082785
1331.0, 0.004191227443661249
1332.0, 0.004843964574569437
1333.0, 0.008744480987721974
1334.0, 0.010348704684759926
1335.0, 0.009786418647713275
1336.0, 0.0071549610820766515
1337.0, 0.005892791612918362
1338.0, 0.007877164120779882
1339.0, 0.011127553057717525
1340.0, 0.01220097957368037
1341.0, 0.011216456267403009
1342.0, 0.010070890227153066
1343.0, 0.003462383368218817
1344.0, 0.012251705463085518
1345.0, 0.005779713142435695
1346.0, 0.010658437714820253
1347.0, 0.0062816689759900585
1348.0, 0.004048720946875129
1349.0, 0.00852593008763792
1350.0, 0.009543222220236371
1351.0, 0.007135795337655427
1352.0, 0.007983149024023322
1353.0, 0.008332213195770207
1354.0, 0.007129431738822542
1355.0, 0.007367709579710815
1356.0, 0.008569877400343052
1357.0, 0.008656095394051969
1358.0, 0.007645186291934655
1359.0, 0.005685224044365169
1360.0, 0.005275450880895586
1361.0, 0.009625814635547415
1362.0, 0.0060727592132962666
1363.0, 0.013210851516920415
1364.0, 0.012112011881314387
1365.0, 0.00921006014746915
1366.0, 0.011329659884319472
1367.0, 0.00973686892231938
1368.0, 0.005031904846049708
1369.0, 0.01153816025992447
1370.0, 0.01111781323198471
1371.0, 0.005696741142615536
1372.0, 0.005541371087425374
1373.0, 0.003994482224860385
1374.0, 0.0032657635711105743
1375.0, 0.007453189729255226
1376.0, 0.00999521497071351
1377.0, 0.011309422823686209
1378.0, 0.006478504174200305
1379.0, 0.012003630098654216
1380.0, 0.00885990801586452
1381.0, 0.011156550979785781
1382.0, 0.0046679717164678095
1383.0, 0.002762429871030561
1384.0, 0.0068038606200450675
1385.0, 0.004004227473240445
1386.0, 0.005493836371439834
1387.0, 0.0018501825963730375
1388.0, 0.002421833850645429
1389.0, 0.004626898576813772
1390.0, 0.006738539095858113
1391.0, 0.005980810852274098
1392.0, 0.006549203690238626
1393.0, 0.007045384921762992
1394.0, 0.006826073178562294
1395.0, 0.008724425528508049
1396.0, 0.007559119321693614
1397.0, 0.009943052973656207
1398.0, 0.004025406994483427
1399.0, 0.003918732608591791
1400.0, 0.0022455686990110733
1401.0, 0.006951992955942201
1402.0, 0.008374946112912727
1403.0, 0.003460289444218039
1404.0, 0.009086621652160863
1405.0, 0.0073975161991883115
1406.0, 0.007334172755679903
1407.0, 0.006474129191872731
1408.0, 0.007489356667748359
1409.0, 0.003287613673013255
1410.0, 0.004953951785749007
1411.0, 0.004515644041640471
1412.0, 0.003834762953932417
1413.0, 0.007484104108649459
1414.0, 0.007530451275357012
1415.0, 0.0070996856215780795
1416.0, 0.00864390544550138
1417.0, 0.0051542182883457036
1418.0, 0.004718784169021622
1419.0, 0.010008451772346215
1420.0, 0.0072819605125094816
1421.0, 0.0019540445466405374
1422.0, 0.009960614335185676
1423.0, 0.005423347964105754
1424.0, 0.006919425490975178
1425.0, 0.0060875135211622385
1426.0, 0.005111247090876607
1427.0, 0.007889429383444573
1428.0, 0.005194074586856534
1429.0, 0.005329824413478331
1430.0, 0.007880553599512684
1431.0, 0.006549369151950459
1432.0, 0.003912837832242948
1433.0, 0.0031788012148721368
1434.0, 0.003148891686272479
1435.0, 0.004649043599359313
1436.0, 0.0066713731233455555
1437.0, 0.005609930155503821
1438.0, 0.0042866418599327724
1439.0, 0.00375325568296863
1440.0, 0.006183763294209339
1441.0, 0.006098529949947664
1442.0, 0.005722855751266398
1443.0, 0.01432422254449638
1444.0, 0.003140560528556885
1445.0, 0.009959301951827095
1446.0, 0.0014576780999268867
1447.0, 0.001996023482880094
1448.0, 0.01319704959020689
1449.0, 0.004951328650484036
1450.0, 0.0006216187399498987
1451.0, 0.0020374045338397385
1452.0, 0.001460409921681667
1453.0, 0.004475731254207303
1454.0, 0.006313181714717365
1455.0, 0.0066808354527093765
1456.0, 0.009816347925106316
1457.0, 0.009735261771662479
1458.0, 0.006740241715530802
1459.0, 0.00610061254483515
1460.0, 0.005239374354304091
1461.0, 0.005972817182799571
1462.0, 0.0014203100120474895
1463.0, 0.004186383831446049
1464.0, 0.004980950419784613
1465.0, 0.004957015020026763
1466.0, 0.003144415268093195
1467.0, 0.00452906817083926
1468.0, 0.013620169950983392
1469.0, 0.002639644184633778
1470.0, 0.005242035142918738
1471.0, 0.01127641663246666
1472.0, 0.005576695797126567
1473.0, 0.0070530467468849795
1474.0, 0.009092112565388676
1475.0, 0.011966832867549617
1476.0, 0.014206072152892244
1477.0, 0.012323856931606855
1478.0, 0.013967625057200644
1479.0, 0.012657375315725639
1480.0, 0.010174081321090416
1481.0, 0.010668295349487314
1482.0, 0.007143903916919201
1483.0, 0.0042066150888144405
1484.0, 0.009145145914202365
1485.0, 0.013622320537888656
1486.0, 0.013721719348552631
1487.0, 0.009560286578797428
1488.0, 0.007988876316891365
1489.0, 0.008541372373326417
1490.0, 0.0145796831774649
1491.0, 0.01595537133175722
1492.0, 0.01534574204238386
1493.0, 0.010958493418310854
1494.0, 0.00496515273746891
1495.0, 0.0075397522765025884
1496.0, 0.008803819638579688
1497.0, 0.012860854879814098
1498.0, 0.011039191778639162
1499.0, 0.016913883357494705
1500.0, 0.014687347165532643
1501.0, 0.010210429692298037
1502.0, 0.005772618011777218
1503.0, 0.010799172591680062
1504.0, 0.016867670354286962
1505.0, 0.015633446162447728
1506.0, 0.011990149282962546
1507.0, 0.012132045344130942
1508.0, 0.010290781369145033
1509.0, 0.010180289233209893
1510.0, 0.012239239761626332
1511.0, 0.008968685138127598
1512.0, 0.008728852888704022
1513.0, 0.008746028860908113
1514.0, 0.006639122838355517
1515.0, 0.0072965945046166965
1516.0, 0.009292600105578114
1517.0, 0.009291457542444549
1518.0, 0.007609299374838806
1519.0, 0.009240443759519603
1520.0, 0.009773972684444921
1521.0, 0.009769842924170304
1522.0, 0.00981458275505997
1523.0, 0.009235614539611013
1524.0, 0.0096100221084666
1525.0, 0.008816383143874866
1526.0, 0.010720136604702658
1527.0, 0.013472015542762814
1528.0, 0.009365999029011819
1529.0, 0.012864932193203978
1530.0, 0.0060902377636486045
1531.0, 0.00601559880058786
1532.0, 0.006462949199024011
1533.0, 0.009168794851640476
1534.0, 0.008559764264739306
1535.0, 0.00306767347128681
1536.0, 0.0035759101988313414
1537.0, 0.0033145566142032054
1538.0, 0.004275596398613206
1539.0, 0.006111909693714123
1540.0, 0.009098269630880366
1541.0, 0.012212248800717987
1542.0, 0.008931656462165604
1543.0, 0.008500150711538548
1544.0, 0.007443456131496599
1545.0, 0.003984753031141159
1546.0, 0.0025630150478168235
1547.0, 0.004391547377820523
1548.0, 0.0034795842389505486
1549.0, 0.010242604719623667
1550.0, 0.010407569471871563
1551.0, 0.004811144300780599
1552.0, 0.0027901413640307694
1553.0, 0.009611038100409383
1554.0, 0.0018369663396317615
1555.0, 0.0019238071554006236
1556.0, 0.00237141726864678
1557.0, 0.006952324350068602
1558.0, 0.006310048865698309
1559.0, 0.009696886938876005
1560.0, 0.006084264160681087
1561.0, 0.003299853614850688
1562.0, 0.010632144346132948
1563.0, 0.0033644406790145466
1564.0, 0.012815628714691427
1565.0, 0.013225062289637173
1566.0, 0.0035293332021616203
1567.0, 0.00910141210218762
1568.0, 0.019693754126016653
1569.0, 0.011213171900167332
1570.0, 0.00184539727627785
1571.0, 3.982125681929873e-06
1572, 0.0
1573, 0.0
1574, 0.0
1575, 0.0
1576, 0.0
1577, 0.0
1578, 0.0
1579, 0.0
1580, 0.0
1581, 0.0
1582, 0.0
1583, 0.0
1584, 0.0
1585, 0.0
1586, 0.0
1587, 0.0
1588, 0.0
1589, 0.0
1590, 0.0
1591, 0.0
1592, 0.0
1593, 0.0
1594, 0.0
1595, 0.0
1596, 0.0
1597, 0.0
1598, 0.0
1599, 0.0
