30, 0.0
31, 0.0
32, 0.0
33, 0.0
34, 0.0
35, 0.0
36, 0.0
37, 0.0
38, 0.0
39, 0.0
40, 0.0
41, 0.0
42, 0.0
43, 0.0
44, 0.0
45, 0.0
46, 0.0
47, 0.0
48, 0.0
49, 0.0
50, 0.0
51, 0.0
52, 0.0
53, 0.0
54, 0.0
55, 0.0
56, 0.0
57, 0.0
58, 0.0
59, 0.0
60, 0.0
61, 0.0
62, 0.0
63, 0.0
64, 0.0
65, 0.0
66, 0.0
67, 0.0
68, 0.0
69, 0.0
70, 0.0
71, 0.0
72, 0.0
73, 0.0
74, 0.0
75, 0.0
76, 0.0
77, 0.0
78, 0.0
79, 0.0
80, 0.0
81, 0.0
82, 0.0
83, 0.0
84, 0.0
85, 0.0
86, 0.0
87, 0.0
88, 0.0
89, 0.0
90, 0.0
91, 0.0
92, 0.0
93, 0.0
94, 0.0
95, 0.0
96, 0.0
97, 0.0
98, 0.0
99, 0.0
100, 0.0
101, 0.0
102, 0.0
103, 0.0
104, 0.0
105, 0.0
106, 0.0
107, 0.0
108, 0.0
109, 0.0
110, 0.0
111, 0.0
112, 0.0
113, 0.0
114, 0.0
115, 0.0
116, 0.0
117, 0.0
118, 0.0
119, 0.0
120, 0.0
121, 0.0
122, 0.0
123, 0.0
124, 0.0
125, 0.0
126, 0.0
127, 0.0
128, 0.0
129, 0.0
130, 0.0
131, 0.0
132, 0.0
133, 0.0
134, 0.0
135, 0.0
136, 0.0
137, 0.0
138, 0.0
139, 0.0
140, 0.0
141, 0.0
142, 0.0
143, 0.0
144, 0.0
145, 0.0
146, 0.0
147, 0.0
148, 0.0
149.0, 0.0017312637984438334
150.0, 0.0018640117472828246
151.0, 0.0038790827056260574
152.0, 0.004773050356302096
153.0, 0.0035220131007968687
154.0, 0.0016130938696588683
155.0, 0.00044137100640936466
156.0, 0.0009304738317130332
157.0, 0.0007407116166365208
158.0, 0.002791124850231064
159.0, 0.003468446368123051
160.0, 0.005121600823340964
161.0, 0.006413368592388782
162.0, 0.007096605677581266
163.0, 0.008957766765267852
164.0, 0.010075297759124123
165.0, 0.010722243691699064
166.0, 0.010920938603228299
167.0, 0.010625954102180315
168.0, 0.010816861692277661
169.0, 0.00938929464952445
170.0, 0.007482862663665368
171.0, 0.006872892950062325
172.0, 0.007458287043008874
173.0, 0.007065016310890635
174.0, 0.007368617457917697
175.0, 0.009306223499639882
176.0, 0.011652401768824984
177.0, 0.01348240983290832
178.0, 0.014247238805921715
179.0, 0.014362502674263353
180.0, 0.014501075274064988
181.0, 0.013244345813447094
182.0, 0.012125670477395507
183.0, 0.012898887323270134
184.0, 0.01471294960487882
185.0, 0.012391591831216147
186.0, 0.010668496642464501
187.0, 0.011512745620245832
188.0, 0.013803635443629291
189.0, 0.014775619207448219
190.0, 0.01765391990060119
191.0, 0.01682252755086494
192.0, 0.014558124441032591
193.0, 0.017423462261568858
194.0, 0.019666146209017518
195.0, 0.021028002286131886
196.0, 0.022743648302219727
197.0, 0.025634367066372135
198.0, 0.029035207981033106
199.0, 0.03407741615295478
200.0, 0.03788951976201893
201.0, 0.04128689940741374
202.0, 0.0490376448170098
203.0, 0.056581475414692134
204.0, 0.06330381486999304
205.0, 0.07072828620285634
206.0, 0.08019317493838378
207.0, 0.08747944118188981
208.0, 0.09185865563637913
209.0, 0.09398595594716858
210.0, 0.0941275106073351
211.0, 0.09145267366728689
212.0, 0.08519685907511207
213.0, 0.07820765999426575
214.0, 0.07235673480460077
215.0, 0.06823697765062202
216.0, 0.0654471995610098
217.0, 0.06330914443127593
218.0, 0.06271723538260617
219.0, 0.06389177148437476
220.0, 0.0631179529050447
221.0, 0.06429809400139745
222.0, 0.0647462037922232
223.0, 0.06268844108508236
224.0, 0.05921891976451634
225.0, 0.056025925299545885
226.0, 0.05313639132135972
227.0, 0.050206281130353955
228.0, 0.047605426382764826
229.0, 0.04819986190103801
230.0, 0.04652331468732197
231.0, 0.04514141275136656
232.0, 0.045172001498942405
233.0, 0.04414870383870036
234.0, 0.043159498946531434
235.0, 0.04483638655013275
236.0, 0.046412995494530575
237.0, 0.04476332876586344
238.0, 0.04645088556741311
239.0, 0.04899937203419956
240.0, 0.051427199354507916
241.0, 0.054688391792359826
242.0, 0.06116433784695677
243.0, 0.06692047988274291
244.0, 0.07207467838150079
245.0, 0.0781402408287006
246.0, 0.08604461654079401
247.0, 0.09006840437203198
248.0, 0.09216985101410906
249.0, 0.09200478112225495
250.0, 0.08868159355164895
251.0, 0.08172935492515694
252.0, 0.07196117908466479
253.0, 0.06501179387931867
254.0, 0.05831233980526979
255.0, 0.04772785757000493
256.0, 0.042975525938011856
257.0, 0.03762937330534147
258.0, 0.033614296294261506
259.0, 0.03138145840576186
260.0, 0.026695754962536445
261.0, 0.023727937395482807
262.0, 0.02089306438275185
263.0, 0.017838841046081865
264.0, 0.01541340094345439
265.0, 0.014392648795742778
266.0, 0.012116876442479654
267.0, 0.008604359829497425
268.0, 0.005570681991676999
269.0, 0.0050477818670086215
270.0, 0.003568807380222324
271.0, 0.0030526106590843187
272.0, 0.002303091062412308
273.0, 0.0003186834429001447
274.0, 0.001255038735958024
275.0, 0.0004188094474142489
276.0, 0.0007582969483347636
277.0, 0.0007532842855428078
278.0, 0.0014673679908402538
279.0, 0.0038516171574563846
280.0, 0.0037484302573729564
281.0, 0.0018984214439810045
282.0, 0.0013482620250358547
283.0, 0.00451492689420158
284.0, 0.00540673711703939
285.0, 0.0056685212777626386
286.0, 0.006115172975029105
287.0, 0.005916681055761703
288.0, 0.0057649515156707855
289.0, 0.0073074631178136245
290.0, 0.009228095379852023
291.0, 0.010153316163922649
292.0, 0.010218929504843065
293.0, 0.01184227094258236
294.0, 0.01354708877494802
295.0, 0.014286548071316773
296.0, 0.014362233910470264
297.0, 0.015432597123364962
298.0, 0.015996303579997418
299.0, 0.015583684620567955
300.0, 0.015490139470431008
301.0, 0.01732804949900952
302.0, 0.018204398418157526
303.0, 0.020127291134684193
304.0, 0.02212566123965258
305.0, 0.021819330493689653
306.0, 0.01871104478782235
307.0, 0.016596168605115206
308.0, 0.015255666143463778
309.0, 0.013335481955418935
310.0, 0.010641470495262562
311.0, 0.00899452632834726
312.0, 0.008894961627071853
313.0, 0.006636710581389854
314.0, 0.0036736699949131185
315.0, 0.004451345192931549
316.0, 0.002348222469479067
317.0, 0.0011164991766942666
318.0, 0.0003776423614138378
319.0, 0.001434768668592168
320.0, 0.0027564746356226783
321.0, 0.002543418557261894
322.0, 0.0019101181696656389
323.0, 0.0014722109099602448
324.0, 0.0011963961160249034
325.0, 0.0002757721661770896
326.0, 0.00023338630694571538
327.0, 0.0004517707083411333
328.0, 0.0006321107567538915
329.0, 0.0008055848760602374
330.0, 0.0009823655431070468
331.0, 0.002167290924371342
332.0, 0.001923403199676316
333.0, 0.00039129866721717495
334.0, 0.001436901633006469
335.0, 0.0034338982065831316
336.0, 0.002163164990243443
337.0, 0.0006101329399393993
338.0, 0.0013774860154204195
339.0, 0.0013532257961965254
340.0, 0.0025875671609394395
341.0, 0.0035631065667744853
342.0, 0.00274349262135956
343.0, 0.000555015272303237
344.0, 0.0007811502605777545
345.0, 0.00048019132691566694
346.0, 0.00030748008009548206
347.0, 0.0007673284201110907
348.0, 0.0002042225459697709
349.0, 0.0015411466418638292
350.0, 0.0023111776347836946
351.0, 0.00238260399335346
352.0, 0.0025720381120919243
353.0, 0.00374596961978671
354.0, 0.006659544740923184
355.0, 0.0063797209945065
356.0, 0.004970320036838065
357.0, 0.00522766298078301
358.0, 0.005599960120924632
359.0, 0.004388493368178525
360.0, 0.0010020984548461472
361.0, 0.0012730344601142416
362.0, 0.0019216303768481897
363.0, 0.004419831205906938
364.0, 0.005440714457622971
365.0, 0.004423728336222555
366.0, 0.0019333992158778938
367.0, 0.0007591337416506395
368.0, 0.0008087071573022189
369.0, 0.0005699018006750596
370.0, 0.0007858816625978097
371.0, 0.0019285469894751348
372.0, 0.0009275852780103154
373.0, 0.00307602050622145
374.0, 0.004231357413366997
375.0, 0.004620816813966572
376.0, 0.004515342193568388
377.0, 0.0033150052141408567
378.0, 0.0061015034229820846
379.0, 0.004354941451303912
380.0, 0.003485165661124984
381.0, 0.005499158368129853
382.0, 0.0031669062413521142
383.0, 0.0008087011997877725
384.0, 0.0009358772871498442
385.0, 0.0008372445586481903
386.0, 0.0006667418520424787
387.0, 0.004157158831066422
388.0, 0.0040015136259070674
389.0, 0.007940104705777924
390.0, 0.009034312710196812
391.0, 0.00466289917399353
392.0, 0.007796548074999229
393.0, 0.0068045570669249406
394.0, 0.0038943165576180256
395.0, 0.0029488671711616486
396.0, 0.004794661166836427
397.0, 0.00506674814662482
398.0, 0.0053692259738835945
399.0, 0.004367708976081809
400.0, 0.003593215164368367
401.0, 0.004099924597101295
402.0, 0.0030792959064106125
403.0, 0.002528191050785379
404.0, 0.003672290322703206
405.0, 0.004590958834055359
406.0, 0.0036432396165711105
407.0, 0.006190798626612987
408.0, 0.00448803317733231
409.0, 0.0019436548920976212
410.0, 0.0023358589161771325
411.0, 0.00501809658821833
412.0, 0.0037944274685355224
413.0, 0.003823952195276502
414.0, 0.005084743209009243
415.0, 0.005800152859594996
416.0, 0.005606247534998387
417.0, 0.00662535559859485
418.0, 0.007828842299649126
419.0, 0.0068318733492898215
420.0, 0.006391221238099768
421.0, 0.008339351210509485
422.0, 0.00783472470309966
423.0, 0.005132098803003982
424.0, 0.0038192865468464634
425.0, 0.004334617282926861
426.0, 0.004999256744955374
427.0, 0.0036778049312279413
428.0, 0.0009038339884068311
429.0, 0.001136730923389551
430.0, 0.00263046934101626
431.0, 0.0025311542128935165
432.0, 0.0042581334616213825
433.0, 0.003486440183488152
434.0, 0.0023781277972176047
435.0, 0.0024681678719055064
436.0, 0.0037250816448550017
437.0, 0.004876451858082844
438.0, 0.004558655419534236
439.0, 0.002888351602409486
440.0, 0.003154943885832451
441.0, 0.006058183877097183
442.0, 0.005904353295750178
443.0, 0.00531469643487938
444.0, 0.00622077238793033
445.0, 0.007274061430819669
446.0, 0.007010040270442745
447.0, 0.006446197088893441
448.0, 0.003810379181656967
449.0, 0.004512370386386872
450.0, 0.006992893647200987
451.0, 0.008522771234620637
452.0, 0.009525263699352656
453.0, 0.009083674909479643
454.0, 0.011326420660510225
455.0, 0.013916183018143574
456.0, 0.014696845804845482
457.0, 0.01604333659185167
458.0, 0.018723544678830396
459.0, 0.021471395845886056
460.0, 0.025159786914398727
461.0, 0.027839444984268106
462.0, 0.026350768306798895
463.0, 0.03077550458989624
464.0, 0.03062761231654401
465.0, 0.02707676294259186
466.0, 0.023522547719173063
467.0, 0.020724138763921453
468.0, 0.017418625532684875
469.0, 0.013843893400796198
470.0, 0.011433816067643853
471.0, 0.010632853781263565
472.0, 0.010375321647500591
473.0, 0.006845962649676553
474.0, 0.007849933828917495
475.0, 0.008397330216753299
476.0, 0.006723695278536796
477.0, 0.0049337143742394715
478.0, 0.004483435515545238
479.0, 0.0026797806376977016
480.0, 0.0005826381585410859
481.0, 0.0008683570185637402
482.0, 0.0027040020946238314
483.0, 0.001665254563343447
484.0, 0.004580435269391368
485.0, 0.007635638573329157
486.0, 0.008602994093611607
487.0, 0.008609220166385654
488.0, 0.01064899192668207
489.0, 0.007410199719416907
490.0, 0.004188498039837065
491.0, 0.003387981252417706
492.0, 0.004087081542514423
493.0, 0.0036158808872121676
494.0, 0.0019716288100669445
495.0, 0.0008737418994259987
496.0, 0.00033523240281214565
497.0, 0.00041516516518521463
498.0, 0.00134191106216584
499.0, 0.0010281288090230735
500.0, 0.0007022220621680946
501.0, 0.0007142903854249613
502.0, 6.151015354303191e-05
503.0, 0.00025595700901116564
504.0, 0.0005486019729476618
505.0, 0.0009927258246897066
506.0, 0.0012805408733876057
507.0, 0.0017620341696856184
508.0, 0.0026579797661252253
509.0, 0.0016337358780296888
510.0, 0.001112208280672601
511.0, 0.0021405891145247612
512.0, 0.001989728303156309
513.0, 0.0005074795100263533
514.0, 0.00018227993352973304
515.0, 0.0006790525603185861
516.0, 0.003205150267835157
517.0, 0.002808168167797716
518.0, 0.0013760750664330841
519.0, 0.002090393708762365
520.0, 0.003386485462178359
521.0, 0.0022069381140464774
522.0, 0.0035543659590442744
523.0, 0.006327244581833412
524.0, 0.0072022269718427555
525.0, 0.005159420357673786
526.0, 0.0067329375415402515
527.0, 0.006353762403959507
528.0, 0.0057587974050067455
529.0, 0.0048892878085371365
530.0, 0.0031401840351519042
531.0, 0.0041980960073073
532.0, 0.0038487799382191804
533.0, 0.00489342859321214
534.0, 0.004313448165310604
535.0, 0.0006774743708068841
536.0, 0.0011038983485281441
537.0, 0.000516551407003317
538.0, 0.0015759018766916197
539.0, 0.0010234211623843775
540.0, 0.00026845191021561665
541.0, 0.0014994787052379488
542.0, 0.0025978558650288316
543.0, 0.0025868510106494924
544.0, 0.0007311878221570864
545.0, 0.0008377125823266468
546.0, 0.0035955362322238806
547.0, 0.0026731841703421964
548.0, 0.006237811479799802
549.0, 0.004432006132242916
550.0, 0.004055714616563775
551.0, 0.005995678985301419
552.0, 0.004093578386255877
553.0, 0.002717494442422892
554.0, 0.0026359775566120107
555.0, 0.0035642445318452786
556.0, 0.002391307177161805
557.0, 0.00043062185839595177
558.0, 0.0015752956721370615
559.0, 0.004080391899413275
560.0, 0.002173303714163595
561.0, 0.00011198270223725053
562.0, 0.0004559268070443567
563.0, 0.002191330939497297
564.0, 0.0038364938541422438
565.0, 0.0058115929112340075
566.0, 0.006586120686864449
567.0, 0.00689373270539836
568.0, 0.0077787854600303704
569.0, 0.007926735435691263
570.0, 0.0047992547273501
571.0, 0.004638448903342166
572.0, 0.0056214707979608345
573.0, 0.0057358918483749535
574.0, 0.005603715731532549
575.0, 0.005893407585841993
576.0, 0.007090184395257898
577.0, 0.006348617621241549
578.0, 0.006072310219331542
579.0, 0.005530516107702263
580.0, 0.0005894316306325701
581.0, 0.003103189545760319
582.0, 0.0015058841727471084
583.0, 0.0012342193332898006
584.0, 0.0041827787983170816
585.0, 0.006595820316920266
586.0, 0.00533134131456512
587.0, 0.00236934032512933
588.0, 0.00394609832248632
589.0, 0.0058172723609195955
590.0, 0.00539511106261493
591.0, 0.005566167939760636
592.0, 0.008219468405842199
593.0, 0.00730711586086375
594.0, 0.006841162854315447
595.0, 0.007883149101578443
596.0, 0.008240301242748844
597.0, 0.0064027671523759246
598.0, 0.004186604535657159
599.0, 0.0067431158668505254
600.0, 0.007502565156839227
601.0, 0.006241137027736262
602.0, 0.006965637715760009
603.0, 0.008376202832686093
604.0, 0.00796513931305744
605.0, 0.01077246730063029
606.0, 0.01153651699844182
607.0, 0.011130208124672436
608.0, 0.014916344714994912
609.0, 0.014578733351574174
610.0, 0.014551644614809888
611.0, 0.014359013383563927
612.0, 0.014806313425787646
613.0, 0.0160994089089934
614.0, 0.01680298802167242
615.0, 0.017465722489633802
616.0, 0.018748237331577097
617.0, 0.022151168710317973
618.0, 0.02400571221561997
619.0, 0.02410681908673059
620.0, 0.029268611330030784
621.0, 0.03220419869655145
622.0, 0.03894594642127798
623.0, 0.045399317180891935
624.0, 0.050078984282335114
625.0, 0.05527865144163799
626.0, 0.06083140678716667
627.0, 0.06818273745552403
628.0, 0.0746755232529818
629.0, 0.08203180182845579
630.0, 0.08829945756337143
631.0, 0.08852765976282438
632.0, 0.08077747118603719
633.0, 0.06341212989482857
634.0, 0.044903057727198104
635.0, 0.03259650548718687
636.0, 0.0250450569527557
637.0, 0.016364899838519777
638.0, 0.011285374278975845
639.0, 0.010194390258685833
640.0, 0.00807295454079632
641.0, 0.006532155728836369
642.0, 0.0053388233726754716
643.0, 0.0014030599311397852
644.0, 0.0003620885778975213
645.0, 0.000374889256254807
646.0, 0.0015786564396596844
647.0, 0.0023133374372513284
648.0, 0.0027773744718478186
649.0, 0.003847796848969386
650.0, 0.004164436212718975
651.0, 0.008831749245863994
652.0, 0.009995894099855478
653.0, 0.008159430026963652
654.0, 0.008039666329122676
655.0, 0.009624204023244194
656.0, 0.009955897725494392
657.0, 0.007653868646537464
658.0, 0.007307889642341843
659.0, 0.008367514393972056
660.0, 0.007655090628445498
661.0, 0.004321917132824752
662.0, 0.002799556852907989
663.0, 0.0036965906519064572
664.0, 0.0026775518506568104
665.0, 0.002008711291923045
666.0, 0.0027596795555474814
667.0, 0.001206069279433621
668.0, 0.003092574162208259
669.0, 0.006134693005392964
670.0, 0.005945672119580182
671.0, 0.004991350600164145
672.0, 0.006015089597010691
673.0, 0.006665885891589452
674.0, 0.004867988165327676
675.0, 0.0038637669387982894
676.0, 0.000990749692494988
677.0, 0.0014655779670652933
678.0, 0.0009398441544092827
679.0, 0.00037273959535109706
680.0, 0.0033566085707253963
681.0, 0.0013928831941839531
682.0, 0.003085317049854595
683.0, 0.0034186026603811375
684.0, 0.005165026903555149
685.0, 0.0070342925247698345
686.0, 0.008014416570938536
687.0, 0.007358862156434293
688.0, 0.004960465332815768
689.0, 0.006330145873828689
690.0, 0.009872868957217978
691.0, 0.007895127332740259
692.0, 0.004182670742802435
693.0, 0.0074042781088991564
694.0, 0.007901834281792435
695.0, 0.0070643372893731595
696.0, 0.008371357492579246
697.0, 0.010056976339731799
698.0, 0.008190861194343611
699.0, 0.006272736003576017
700.0, 0.008180262089448713
701.0, 0.009176242198301354
702.0, 0.006440246682537195
703.0, 0.0032280247368009956
704.0, 0.005294994012433218
705.0, 0.0025129235351622997
706.0, 0.007103454296991491
707.0, 0.010709912830050152
708.0, 0.010740937896294923
709.0, 0.010921406425986071
710.0, 0.012746851617985553
711.0, 0.015711105723736112
712.0, 0.016553578153423613
713.0, 0.019255337570619552
714.0, 0.02287368867408689
715.0, 0.02707730756640807
716.0, 0.034657392985327856
717.0, 0.03929595529401496
718.0, 0.04361928950371455
719.0, 0.04811173889112066
720.0, 0.046016142174202
721.0, 0.03884533945921226
722.0, 0.033748472780125535
723.0, 0.027058381493674892
724.0, 0.021442603326371122
725.0, 0.015711938708952107
726.0, 0.01211231841448181
727.0, 0.011263991555346955
728.0, 0.01137532445754452
729.0, 0.010415689738476725
730.0, 0.009023939001487685
731.0, 0.0068810842360822145
732.0, 0.003357258207685882
733.0, 0.0038801076841715907
734.0, 0.006722937799422603
735.0, 0.0022916592737723084
736.0, 0.002086902477283995
737.0, 0.0037611847078603796
738.0, 0.005743504202913023
739.0, 0.0035099406119098804
740.0, 0.0001073222710774409
741.0, 0.0006824157502792685
742.0, 0.00016361816198542573
743.0, 0.004747186912493078
744.0, 0.005905670199615196
745.0, 0.004721587613605682
746.0, 0.00564882258518346
747.0, 0.008039981668841036
748.0, 0.00754710997197244
749.0, 0.01022866775324752
750.0, 0.010170972604115015
751.0, 0.008700990679835343
752.0, 0.0063665528215869635
753.0, 0.0036594609587832566
754.0, 0.001907256121331041
755.0, 0.0019616032631165877
756.0, 0.0030857497934621276
757.0, 0.0032969713619712673
758.0, 0.005223963442548177
759.0, 0.006041011442478389
760.0, 0.00401386684700301
761.0, 0.0035107237282894443
762.0, 0.001655593171537593
763.0, 0.0009892930565076467
764.0, 0.000807781412977531
765.0, 0.0014083779669750414
766.0, 0.0017842509157024672
767.0, 0.0006027962276382895
768.0, 0.00012601577129067932
769.0, 0.005229509592947191
770.0, 0.00810805474649004
771.0, 0.006669263213600903
772.0, 0.005218318683787665
773.0, 0.005762460849493326
774.0, 0.005491941980077443
775.0, 0.004041857464844695
776.0, 0.002856421525791995
777.0, 0.003502199037982825
778.0, 0.0035968479364012888
779.0, 0.002434845195666546
780.0, 0.0017978908224181133
781.0, 0.0023051478502175227
782.0, 0.00339357816009308
783.0, 0.003935958943468797
784.0, 0.0029092021285270797
785.0, 0.0027533838559533103
786.0, 0.0036453026202947084
787.0, 0.0033585958431323255
788.0, 0.003158153875818417
789.0, 0.002955485606990428
790.0, 0.004845493597551188
791.0, 0.0045833355334545176
792.0, 0.004556560714001694
793.0, 0.005613348731794685
794.0, 0.005248113119099963
795.0, 0.008857076537080212
796.0, 0.0108213076227545
797.0, 0.007136571077247656
798.0, 0.007751479008077888
799.0, 0.01019526620849429
800.0, 0.01011198160617601
801.0, 0.010745563954856461
802.0, 0.004555254774523346
803.0, 0.0026965283931542584
804.0, 0.0037668629603535087
805.0, 0.006036816456196465
806.0, 0.008229991174897311
807.0, 0.007839317094078781
808.0, 0.004168827688716623
809.0, 0.0055350946973828285
810.0, 0.007140682595899703
811.0, 0.005666973216963715
812.0, 0.006031118104302864
813.0, 0.007021962462721813
814.0, 0.005869457958974398
815.0, 0.008400697852130889
816.0, 0.006586202838767943
817.0, 0.0036244606577655754
818.0, 0.004572131822632401
819.0, 0.0048837059912841
820.0, 0.0028194438445092273
821.0, 0.0009863214204101124
822.0, 0.0005436768463711691
823.0, 0.0009469505441763164
824.0, 0.0009641718163474591
825.0, 0.0016451841394762767
826.0, 0.0023582154591148294
827.0, 0.00284748187275506
828.0, 0.002377058903833264
829.0, 0.00721955697359127
830.0, 0.00733504998149156
831.0, 0.006696955758483117
832.0, 0.006613750949758901
833.0, 0.00566235356905827
834.0, 0.0023239637203918643
835.0, 0.0005265593911789947
836.0, 0.004015719350302581
837.0, 0.0020647178388571346
838.0, 0.0022077162062079706
839.0, 0.002021637058683892
840.0, 0.0030695737944228304
841.0, 0.004853214114284319
842.0, 0.003737562388685032
843.0, 0.0003753360635950015
844.0, 0.002900651427928992
845.0, 0.006140562634838975
846.0, 0.0018048976227575675
847.0, 0.0010396636897675759
848.0, 0.0038002055147295754
849.0, 0.004513516814779119
850.0, 0.0051649134982100125
851.0, 0.0048629636708240895
852.0, 0.004166103297370474
853.0, 0.0016436495092111093
854.0, 0.00031111091196584965
855.0, 0.0003111478541654995
856.0, 0.0016221791455584972
857.0, 0.0014722374524689845
858.0, 0.0028840784469632485
859.0, 0.0033337277285861045
860.0, 0.0022640941907008457
861.0, 0.0037896156120174086
862.0, 0.005329110097133152
863.0, 0.005467218737679029
864.0, 0.006507688685636353
865.0, 0.006735752492795411
866.0, 0.007900845974988996
867.0, 0.004721659239697824
868.0, 0.00381309471061739
869.0, 0.004147332875468953
870.0, 0.00345382964150547
871.0, 0.0025236125993944153
872.0, 0.0008700096339780716
873.0, 0.0029019628041625253
874.0, 0.001719618614386706
875.0, 0.0005927232589046465
876.0, 0.001623615443497136
877.0, 0.0026697514084819923
878.0, 0.0031213945767040773
879.0, 0.005107275735295597
880.0, 0.0032650706699105655
881.0, 0.008114554616797413
882.0, 0.008255543577817912
883.0, 0.010024419714645611
884.0, 0.00903059658116562
885.0, 0.004854941655182302
886.0, 0.006208940443421172
887.0, 0.006259284368224791
888.0, 0.002521733236310129
889.0, 0.007155196737633006
890.0, 0.005611256730724758
891.0, 0.007132225434363104
892.0, 0.011760090792362026
893.0, 0.01178429393165937
894.0, 0.01292175961516316
895.0, 0.013751198868739864
896.0, 0.016496977589901058
897.0, 0.015292703305063866
898.0, 0.013915731676565136
899.0, 0.012350701015625298
900.0, 0.010358124952941031
901.0, 0.009707434522218445
902.0, 0.007684438554411746
903.0, 0.008350635781215449
904.0, 0.005822190909812295
905.0, 0.0051468811316654536
906.0, 0.004257086601715749
907.0, 0.0019574930965414327
908.0, 0.0007981476008521874
909.0, 0.002205620045388169
910.0, 0.003710276842163706
911.0, 0.0015705193714465285
912.0, 0.0005537577011205894
913.0, 0.0015274363856663104
914.0, 0.000581084110594195
915.0, 0.0013412967566085567
916.0, 0.0004882056631403789
917.0, 0.001452973729959587
918.0, 0.0004471561941925953
919.0, 0.00014580828481939312
920.0, 0.00032458968552143375
921.0, 0.0006401380566375019
922.0, 0.0016464732572629144
923.0, 0.004465996940683933
924.0, 0.0024645023807694406
925.0, 0.006675604568826076
926.0, 0.005237351235534309
927.0, 0.007747057772166078
928.0, 0.010359580958601927
929.0, 0.010978544007398967
930.0, 0.011429675733397768
931.0, 0.011458172542410305
932.0, 0.008982107713727929
933.0, 0.007881268861343282
934.0, 0.005890248013040925
935.0, 0.003976585572712468
936.0, 0.00406955618502472
937.0, 0.0025606864195825297
938.0, 0.0040402578575987
939.0, 0.007882865576362167
940.0, 0.00567450025474279
941.0, 0.007781479448172264
942.0, 0.008065704993712203
943.0, 0.007165649970744149
944.0, 0.004911747977772421
945.0, 0.005020293155954531
946.0, 0.0051195491475083
947.0, 0.0036076630179868916
948.0, 0.005097565982443678
949.0, 0.006984305653649932
950.0, 0.007428291155361258
951.0, 0.011050590887049207
952.0, 0.01136203669137599
953.0, 0.013684309424357865
954.0, 0.018176351537143084
955.0, 0.022207780111791385
956.0, 0.029834824952760856
957.0, 0.04254441656902384
958.0, 0.05080028949363582
959.0, 0.06733800444716248
960.0, 0.08492513912526818
961.0, 0.10814234716051943
962.0, 0.1397088626464547
963.0, 0.17883578707988396
964.0, 0.23086768576635416
965.0, 0.31025069630309027
966.0, 0.4347740970502608
967.0, 0.6647772087077071
968.0, 0.7926522363081265
969.0, 0.5949281868376064
970.0, 0.29790578692944275
971.0, 0.13346373325429814
972.0, 0.07137325948615791
973.0, 0.04576352416190687
974.0, 0.0325960975329712
975.0, 0.023539600047329606
976.0, 0.01998275720365079
977.0, 0.01822730924239879
978.0, 0.016235599361772338
979.0, 0.014928427738037405
980.0, 0.013384687350140183
981.0, 0.009817155782026441
982.0, 0.010924851878877168
983.0, 0.010277413979200935
984.0, 0.007074611832611137
985.0, 0.005662549811881413
986.0, 0.004929974210481808
987.0, 0.002743075979398737
988.0, 0.0016687879174280638
989.0, 0.004269217307000019
990.0, 0.00309162587510405
991.0, 0.004030211654138262
992.0, 0.0009435805669637548
993.0, 0.0007697024299532381
994.0, 0.0003160187571307878
995.0, 0.0011319279412684527
996.0, 0.001554110674927558
997.0, 0.0017639544400081747
998.0, 0.0024519615676958316
999.0, 0.0011664255570987556
1000.0, 0.0021038257559895745
1001.0, 0.005501128223953881
1002.0, 0.0020378423178195122
1003.0, 0.003757280631457538
1004.0, 0.007271544758301929
1005.0, 0.005277653164831671
1006.0, 0.005399937672024022
1007.0, 0.004664064137138567
1008.0, 0.002501804670914795
1009.0, 0.002729920463096739
1010.0, 0.0024743756786036798
1011.0, 0.003091477005901105
1012.0, 0.0029678652018818464
1013.0, 0.002050933810399354
1014.0, 0.0015836926626987843
1015.0, 0.0003879738812562599
1016.0, 0.00016925901860963028
1017.0, 0.0009487948030471946
1018.0, 0.0004988699616870358
1019.0, 0.00028734864362372066
1020.0, 0.001219887390823412
1021.0, 0.0005039345965147151
1022.0, 0.0011639968580800675
1023.0, 0.0008012049562209977
1024.0, 0.0014272665355782358
1025.0, 0.003091954336526572
1026.0, 0.005554374151317866
1027.0, 0.003012216498549789
1028.0, 0.005120309985083136
1029.0, 0.004709919558034946
1030.0, 0.004609744723201322
1031.0, 0.006786203133680512
1032.0, 0.00572724654981247
1033.0, 0.005764397081197512
1034.0, 0.004141778534376819
1035.0, 0.0005115586590424952
1036.0, 0.001291927021729962
1037.0, 0.0017906244091034566
1038.0, 0.0035266135746106135
1039.0, 0.0060078623834990364
1040.0, 0.00683537203576099
1041.0, 0.006177135222524969
1042.0, 0.004613839307307963
1043.0, 0.003417884289555846
1044.0, 0.00279094269320428
1045.0, 0.0006865070320313672
1046.0, 0.0010980696709685185
1047.0, 0.0002494039639955749
1048.0, 0.0005680038245211303
1049.0, 0.0020247695532028516
1050.0, 0.001590950713445834
1051.0, 0.001662941231367056
1052.0, 0.005918324699427953
1053.0, 0.003884797067500027
1054.0, 0.0020325256597434065
1055.0, 0.006093577739850534
1056.0, 0.006714668391652239
1057.0, 0.006749076277468949
1058.0, 0.009064230732917485
1059.0, 0.009171242204757624
1060.0, 0.007840182510173615
1061.0, 0.009866181171148314
1062.0, 0.010170090806633588
1063.0, 0.006317141533460022
1064.0, 0.006947863761046976
1065.0, 0.0026957448128732157
1066.0, 0.0015999630084106216
1067.0, 0.00494197163228397
1068.0, 0.00561805606332525
1069.0, 0.006273137217162482
1070.0, 0.01610842906710292
1071.0, 0.02658054126399674
1072.0, 0.02710692065668784
1073.0, 0.018736815352408828
1074.0, 0.012945247900141175
1075.0, 0.009709607659750864
1076.0, 0.007678169619775043
1077.0, 0.004823679058830276
1078.0, 0.001396649285259255
1079.0, 0.002321894665116751
1080.0, 0.003592717201291639
1081.0, 0.002704899020983715
1082.0, 0.003767318509885862
1083.0, 0.004605051791757224
1084.0, 0.0065145401788927115
1085.0, 0.009880112066765766
1086.0, 0.012492242986675102
1087.0, 0.015170465681984968
1088.0, 0.01848071270781234
1089.0, 0.017648204831515784
1090.0, 0.01766505758408279
1091.0, 0.02590951782226701
1092.0, 0.033759507686116484
1093.0, 0.04341304788466402
1094.0, 0.05304618152191375
1095.0, 0.06451647590327274
1096.0, 0.08337948701452592
1097.0, 0.10860920788396462
1098.0, 0.140419968962861
1099.0, 0.18917829153901577
1100.0, 0.24047676776644472
1101.0, 0.2909183329048542
1102.0, 0.29695176594485756
1103.0, 0.2784253018494152
1104.0, 0.2793235447259275
1105.0, 0.31542362699842147
1106.0, 0.3900202509183613
1107.0, 0.5221054011862594
1108.0, 0.7449512985008465
1109.0, 0.984399331833684
1110.0, 0.9132075522153495
1111.0, 0.5684567569092828
1112.0, 0.29186352469340204
1113.0, 0.1505262312253016
1114.0, 0.08634307884760477
1115.0, 0.05292057654793802
1116.0, 0.04077314178229877
1117.0, 0.038818494254322565
1118.0, 0.032234117292815834
1119.0, 0.024592006470901748
1120.0, 0.020018058080501805
1121.0, 0.015714981474485006
1122.0, 0.015989039086932225
1123.0, 0.015976121367833846
1124.0, 0.014972326701393096
1125.0, 0.016191563877600623
1126.0, 0.019575252206993382
1127.0, 0.02593196312734843
1128.0, 0.03619913861342575
1129.0, 0.046235613284198285
1130.0, 0.055911136545083145
1131.0, 0.07317047888508152
1132.0, 0.08689360438848719
1133.0, 0.10994187042408016
1134.0, 0.1396773407189301
1135.0, 0.1694909607911198
1136.0, 0.19202846257799966
1137.0, 0.1829004888665686
1138.0, 0.13503697861373629
1139.0, 0.08162516077129794
1140.0, 0.046560329430205695
1141.0, 0.026017628178547778
1142.0, 0.02058080757334729
1143.0, 0.01907323656817905
1144.0, 0.014052152348502435
1145.0, 0.009706222635448796
1146.0, 0.009748153991173493
1147.0, 0.007431467615293115
1148.0, 0.0031949249833401064
1149.0, 0.00348346645210616
1150.0, 0.004368505373830526
1151.0, 0.004908417759599537
1152.0, 0.00833291880180279
1153.0, 0.010962313316812397
1154.0, 0.011221843570994854
1155.0, 0.0116208489841538
1156.0, 0.012776743116767722
1157.0, 0.01634476739084441
1158.0, 0.018302739822722933
1159.0, 0.013671774036394361
1160.0, 0.008143395616682488
1161.0, 0.009489336520917362
1162.0, 0.006047868084057602
1163.0, 0.007764372707158294
1164.0, 0.005539521026301335
1165.0, 0.0018921391338991983
1166.0, 0.00104757802367166
1167.0, 0.0006330579299456101
1168.0, 0.0025525397892384987
1169.0, 0.0032734472481425335
1170.0, 0.0036543225808476822
1171.0, 0.003075930736538253
1172.0, 0.0005659564938312152
1173.0, 0.0018745208663677735
1174.0, 0.001265189864057389
1175.0, 0.007929112589393295
1176.0, 0.009004288678647273
1177.0, 0.0093342988178643
1178.0, 0.008527657621311534
1179.0, 0.0070488823834879534
1180.0, 0.00825422968076306
1181.0, 0.009585046151660769
1182.0, 0.010001286013927432
1183.0, 0.011935342443058597
1184.0, 0.009893255297810108
1185.0, 0.01141001566706995
1186.0, 0.013034211272035454
1187.0, 0.009252031185665472
1188.0, 0.010738509243109389
1189.0, 0.009768708877909066
1190.0, 0.008102297064422177
1191.0, 0.0075423082975175125
1192.0, 0.005133857004673727
1193.0, 0.0026115221376376324
1194.0, 0.003268000709692561
1195.0, 0.0024245416471800267
1196.0, 0.0014522383638736183
1197.0, 0.003309178517678013
1198.0, 0.0004818345103889398
1199.0, 0.0026970687722709208
1200.0, 0.0005744070036399041
1201.0, 0.0002375364152182077
1202.0, 0.003269874533292016
1203.0, 0.003970204512896848
1204.0, 0.0033978103289173337
1205.0, 0.0024246590332889875
1206.0, 0.0008062812544984235
1207.0, 0.0032379885868498567
1208.0, 0.007004707072442939
1209.0, 0.0071189041665598
1210.0, 0.0075530299269664265
1211.0, 0.009999254524420076
1212.0, 0.010521879371239275
1213.0, 0.00898855452375691
1214.0, 0.007867134901329545
1215.0, 0.007492688555652058
1216.0, 0.008136703836019997
1217.0, 0.008065571623305158
1218.0, 0.0050280196072854935
1219.0, 0.0022642048144501372
1220.0, 0.002301522071685339
1221.0, 0.002927271627795256
1222.0, 0.0029835566737985465
1223.0, 0.004752138315034996
1224.0, 0.007743124619394367
1225.0, 0.007032014595797834
1226.0, 0.004869267335897037
1227.0, 0.006889036692072709
1228.0, 0.006088666982587554
1229.0, 0.005073969328380367
1230.0, 0.01012544914929355
1231.0, 0.009603002103343382
1232.0, 0.004761716029010738
1233.0, 0.0037050573123123443
1234.0, 0.01040492683551917
1235.0, 0.008121830410095556
1236.0, 0.011714692509352602
1237.0, 0.014498447128672829
1238.0, 0.014268288206585199
1239.0, 0.015484555519567532
1240.0, 0.012081305964195805
1241.0, 0.010985014908017694
1242.0, 0.01345956274132502
1243.0, 0.01018914124514743
1244.0, 0.00838410813812813
1245.0, 0.007574409920364204
1246.0, 0.009417696828963755
1247.0, 0.013497566823560332
1248.0, 0.013201831689692852
1249.0, 0.014378179681091532
1250.0, 0.012200537563304116
1251.0, 0.012147694133644495
1252.0, 0.01145855462462378
1253.0, 0.009530361684881855
1254.0, 0.00732742254843387
1255.0, 0.0066546621473172595
1256.0, 0.008466735848694949
1257.0, 0.009362053173911646
1258.0, 0.008915259778923943
1259.0, 0.00922917422020731
1260.0, 0.009979668217794696
1261.0, 0.011548924650310377
1262.0, 0.008730767578157692
1263.0, 0.006365103918356979
1264.0, 0.003224541266132789
1265.0, 0.0013008624506134574
1266.0, 0.0012383841431691167
1267.0, 0.002658371070277026
1268.0, 0.0013050966527342039
1269.0, 0.003419221091313444
1270.0, 0.007500707055711981
1271.0, 0.005999547074809023
1272.0, 0.013750858460129559
1273.0, 0.014445097286210802
1274.0, 0.01515551195183822
1275.0, 0.015824149192775156
1276.0, 0.018811295539676146
1277.0, 0.016535194772403953
1278.0, 0.018772304694229268
1279.0, 0.012193075371478311
1280.0, 0.009351419117317296
1281.0, 0.012053951608738987
1282.0, 0.009284553110010604
1283.0, 0.0052409472106897574
1284.0, 0.005685981552232055
1285.0, 0.005355443573600916
1286.0, 0.008303508768017474
1287.0, 0.00807441414254215
1288.0, 0.0072051996482729395
1289.0, 0.0078070591329039325
1290.0, 0.0019689046281309223
1291.0, 0.0018943026322541271
1292.0, 0.0018895971520201844
1293.0, 0.0027466399085156663
1294.0, 0.0017680493836680867
1295.0, 0.00030926877414024867
1296.0, 0.00014244103831203664
1297, 0.0
1298, 0.0
1299, 0.0
1300, 0.0
1301, 0.0
1302, 0.0
1303, 0.0
1304, 0.0
1305, 0.0
1306, 0.0
1307, 0.0
1308, 0.0
1309, 0.0
1310, 0.0
1311, 0.0
1312, 0.0
1313, 0.0
1314, 0.0
1315, 0.0
1316, 0.0
1317, 0.0
1318, 0.0
1319, 0.0
1320, 0.0
1321, 0.0
1322, 0.0
1323, 0.0
1324, 0.0
1325, 0.0
1326, 0.0
1327, 0.0
1328, 0.0
1329, 0.0
1330, 0.0
1331, 0.0
1332, 0.0
1333, 0.0
1334, 0.0
1335, 0.0
1336, 0.0
1337, 0.0
1338, 0.0
1339, 0.0
1340, 0.0
1341, 0.0
1342, 0.0
1343, 0.0
1344, 0.0
1345, 0.0
1346, 0.0
1347, 0.0
1348, 0.0
1349, 0.0
1350, 0.0
1351, 0.0
1352, 0.0
1353, 0.0
1354, 0.0
1355, 0.0
1356, 0.0
1357, 0.0
1358, 0.0
1359, 0.0
1360, 0.0
1361, 0.0
1362, 0.0
1363, 0.0
1364, 0.0
1365, 0.0
1366, 0.0
1367, 0.0
1368, 0.0
1369, 0.0
1370, 0.0
1371, 0.0
1372, 0.0
1373, 0.0
1374, 0.0
1375, 0.0
1376, 0.0
1377, 0.0
1378, 0.0
1379, 0.0
1380, 0.0
1381, 0.0
1382, 0.0
1383, 0.0
1384, 0.0
1385, 0.0
1386, 0.0
1387, 0.0
1388, 0.0
1389, 0.0
1390, 0.0
1391, 0.0
1392, 0.0
1393, 0.0
1394, 0.0
1395, 0.0
1396, 0.0
1397, 0.0
1398, 0.0
1399, 0.0
1400, 0.0
1401, 0.0
1402, 0.0
1403, 0.0
1404, 0.0
1405, 0.0
1406, 0.0
1407, 0.0
1408, 0.0
1409, 0.0
1410, 0.0
1411, 0.0
1412, 0.0
1413, 0.0
1414, 0.0
1415, 0.0
1416, 0.0
1417, 0.0
1418, 0.0
1419, 0.0
1420, 0.0
1421, 0.0
1422, 0.0
1423, 0.0
1424, 0.0
1425, 0.0
1426, 0.0
1427, 0.0
1428, 0.0
1429, 0.0
1430, 0.0
1431, 0.0
1432, 0.0
1433, 0.0
1434, 0.0
1435, 0.0
1436, 0.0
1437, 0.0
1438, 0.0
1439, 0.0
1440, 0.0
1441, 0.0
1442, 0.0
1443, 0.0
1444, 0.0
1445, 0.0
1446, 0.0
1447, 0.0
1448, 0.0
1449, 0.0
1450, 0.0
1451, 0.0
1452, 0.0
1453, 0.0
1454, 0.0
1455, 0.0
1456, 0.0
1457, 0.0
1458, 0.0
1459, 0.0
1460, 0.0
1461, 0.0
1462, 0.0
1463, 0.0
1464, 0.0
1465, 0.0
1466, 0.0
1467, 0.0
1468, 0.0
1469, 0.0
1470, 0.0
1471, 0.0
1472, 0.0
1473, 0.0
1474, 0.0
1475, 0.0
1476, 0.0
1477, 0.0
1478, 0.0
1479, 0.0
1480, 0.0
1481, 0.0
1482, 0.0
1483, 0.0
1484, 0.0
1485, 0.0
1486, 0.0
1487, 0.0
1488, 0.0
1489, 0.0
1490, 0.0
1491, 0.0
1492, 0.0
1493, 0.0
1494, 0.0
1495, 0.0
1496, 0.0
1497, 0.0
1498, 0.0
1499, 0.0
1500, 0.0
1501, 0.0
1502, 0.0
1503, 0.0
1504, 0.0
1505, 0.0
1506, 0.0
1507, 0.0
1508, 0.0
1509, 0.0
1510, 0.0
1511, 0.0
1512, 0.0
1513, 0.0
1514, 0.0
1515, 0.0
1516, 0.0
1517, 0.0
1518, 0.0
1519, 0.0
1520, 0.0
1521, 0.0
1522, 0.0
1523, 0.0
1524, 0.0
1525, 0.0
1526, 0.0
1527, 0.0
1528, 0.0
1529, 0.0
1530, 0.0
1531, 0.0
1532, 0.0
1533, 0.0
1534, 0.0
1535, 0.0
1536, 0.0
1537, 0.0
1538, 0.0
1539, 0.0
1540, 0.0
1541, 0.0
1542, 0.0
1543, 0.0
1544, 0.0
1545, 0.0
1546, 0.0
1547, 0.0
1548, 0.0
1549, 0.0
1550, 0.0
1551, 0.0
1552, 0.0
1553, 0.0
1554, 0.0
1555, 0.0
1556, 0.0
1557, 0.0
1558, 0.0
1559, 0.0
1560, 0.0
1561, 0.0
1562, 0.0
1563, 0.0
1564, 0.0
1565, 0.0
1566, 0.0
1567, 0.0
1568, 0.0
1569, 0.0
1570, 0.0
1571, 0.0
1572, 0.0
1573, 0.0
1574, 0.0
1575, 0.0
1576, 0.0
1577, 0.0
1578, 0.0
1579, 0.0
1580, 0.0
1581, 0.0
1582, 0.0
1583, 0.0
1584, 0.0
1585, 0.0
1586, 0.0
1587, 0.0
1588, 0.0
1589, 0.0
1590, 0.0
1591, 0.0
1592, 0.0
1593, 0.0
1594, 0.0
1595, 0.0
1596, 0.0
1597, 0.0
1598, 0.0
1599, 0.0
