30, 0.0
31, 0.0
32, 0.0
33, 0.0
34, 0.0
35, 0.0
36, 0.0
37, 0.0
38, 0.0
39, 0.0
40, 0.0
41, 0.0
42, 0.0
43, 0.0
44, 0.0
45, 0.0
46, 0.0
47, 0.0
48, 0.0
49, 0.0
50, 0.0
51, 0.0
52, 0.0
53, 0.0
54, 0.0
55, 0.0
56, 0.0
57, 0.0
58, 0.0
59, 0.0
60, 0.0
61, 0.0
62, 0.0
63, 0.0
64, 0.0
65, 0.0
66, 0.0
67, 0.0
68, 0.0
69, 0.0
70, 0.0
71, 0.0
72, 0.0
73, 0.0
74, 0.0
75, 0.0
76, 0.0
77, 0.0
78, 0.0
79, 0.0
80, 0.0
81, 0.0
82, 0.0
83, 0.0
84, 0.0
85, 0.0
86, 0.0
87, 0.0
88, 0.0
89, 0.0
90, 0.0
91, 0.0
92, 0.0
93, 0.0
94, 0.0
95, 0.0
96, 0.0
97, 0.0
98, 0.0
99, 0.0
100, 0.0
101, 0.0
102, 0.0
103, 0.0
104, 0.0
105, 0.0
106, 0.0
107, 0.0
108, 0.0
109, 0.0
110, 0.0
111, 0.0
112, 0.0
113, 0.0
114, 0.0
115, 0.0
116, 0.0
117, 0.0
118, 0.0
119, 0.0
120, 0.0
121, 0.0
122, 0.0
123, 0.0
124, 0.0
125, 0.0
126, 0.0
127, 0.0
128, 0.0
129, 0.0
130, 0.0
131, 0.0
132, 0.0
133, 0.0
134, 0.0
135, 0.0
136, 0.0
137, 0.0
138, 0.0
139, 0.0
140, 0.0
141, 0.0
142, 0.0
143, 0.0
144, 0.0
145, 0.0
146, 0.0
147, 0.0
148, 0.0
149, 0.0
150, 0.0
151, 0.0
152, 0.0
153, 0.0
154, 0.0
155, 0.0
156, 0.0
157, 0.0
158, 0.0
159, 0.0
160, 0.0
161, 0.0
162, 0.0
163, 0.0
164, 0.0
165, 0.0
166, 0.0
167, 0.0
168, 0.0
169, 0.0
170, 0.0
171, 0.0
172, 0.0
173.0, 0.00017744052122421354
174.0, 0.0007948695817205472
175.0, 0.0007813005546789899
176.0, 0.0003847100611854777
177.0, 0.001557922344852403
178.0, 0.001521214842108219
179.0, 0.0017218964408606098
180.0, 0.0036134519466862543
181.0, 0.0022212802489836587
182.0, 0.0019948189053638652
183.0, 0.0019271020631162743
184.0, 0.0012509991600814052
185.0, 0.0017967842570762668
186.0, 0.0018079411053947556
187.0, 0.002210602345738004
188.0, 0.0028498422894754085
189.0, 0.0026883066400983256
190.0, 0.0038413010162592245
191.0, 0.004805563018500393
192.0, 0.005677059382877602
193.0, 0.006814127482527147
194.0, 0.005778283440295766
195.0, 0.004405038715723306
196.0, 0.004553395175523444
197.0, 0.006318327218990158
198.0, 0.007032685093604145
199.0, 0.005971366813499464
200.0, 0.005571364975980548
201.0, 0.006378901586176437
202.0, 0.006940369762921728
203.0, 0.006277306210675808
204.0, 0.006548849142261438
205.0, 0.0069568648890143536
206.0, 0.005969496417324031
207.0, 0.0033927392767236523
208.0, 0.005425130962949207
209.0, 0.0071924758457004995
210.0, 0.006764373591803053
211.0, 0.006819046268874885
212.0, 0.0061512494176982485
213.0, 0.005599900711581977
214.0, 0.005910593297248328
215.0, 0.006929991220684072
216.0, 0.006468587182583673
217.0, 0.006239398414482299
218.0, 0.005802641577241939
219.0, 0.004512108720043927
220.0, 0.002578513167231136
221.0, 0.003711152918434996
222.0, 0.004496601374369588
223.0, 0.0042518860006112
224.0, 0.0040912971252491425
225.0, 0.0036199874502034026
226.0, 0.004485232064746116
227.0, 0.00427706160908932
228.0, 0.0021371375185622096
229.0, 0.0021842093030347664
230.0, 0.0017348143135065752
231.0, 0.0018741752128544186
232.0, 0.0020702447006900973
233.0, 0.000771692399862087
234.0, 0.0024874187083472055
235.0, 0.0024281820199517665
236.0, 0.0018986467163005464
237.0, 0.0026147783196316336
238.0, 0.002236325713344617
239.0, 0.0022569091407763035
240.0, 0.0016796182086670152
241.0, 0.0007694984828871876
242.0, 0.0008037161746924006
243.0, 0.001775490587704536
244.0, 0.0027442595323233527
245.0, 0.002680273290261915
246.0, 0.0014820735962288124
247.0, 0.0008306096046862051
248.0, 0.00122468873644723
249.0, 0.0014834427057561885
250.0, 0.0012740768692088358
251.0, 0.0015362166158218715
252.0, 0.0029581527644215373
253.0, 0.0030790508954846346
254.0, 0.0019628341045679677
255.0, 0.0007127730688672659
256.0, 9.532735022185446e-05
257.0, 0.0002885103931021652
258.0, 0.0008680191588006517
259.0, 0.0025553004579988753
260.0, 0.002362937696628292
261.0, 0.0014236059535791515
262.0, 0.0009649702403287544
263.0, 0.0015307707509527606
264.0, 0.002706969661816562
265.0, 0.0016279685927653674
266.0, 0.0011298239533191177
267.0, 0.002195253491174225
268.0, 0.0030192081412744034
269.0, 0.001074207680612915
270.0, 0.00013920710287761596
271.0, 0.00048564072906170664
272.0, 0.0011558989677108945
273.0, 0.001161177835554496
274.0, 0.00027343497959051236
275.0, 0.000902328142141432
276.0, 0.0005878643329878173
277.0, 0.000776392521800914
278.0, 0.0011913932146381937
279.0, 0.0008847493306224378
280.0, 0.0015856540064467727
281.0, 0.0025483441854303145
282.0, 0.003733494109318667
283.0, 0.0017291327069701358
284.0, 0.00022459655188186955
285.0, 0.0002523545569438844
286.0, 0.0012413470329996766
287.0, 0.0018551242261839165
288.0, 6.849126068926602e-05
289.0, 0.00013666098612526858
290.0, 0.0007226314932332699
291.0, 0.0008574049231585031
292.0, 0.0009269912014488513
293.0, 7.32244207013709e-05
294.0, 0.0013024473221387638
295.0, 0.0011964062826635776
296.0, 0.0011914360888710697
297.0, 0.00046713408506283337
298.0, 0.0007333874365970027
299.0, 0.0007916826227587133
300.0, 0.001428948806236793
301.0, 0.0020642928338590622
302.0, 0.00091870822873869
303.0, 0.0006907956951946522
304.0, 0.0007778512053576481
305.0, 0.0003820311714306556
306.0, 0.0004257436008896782
307.0, 0.0014069077272506462
308.0, 0.001022375131265898
309.0, 0.00011293280642396937
310.0, 0.000821452964405271
311.0, 0.0016335188642179063
312.0, 0.00035067796797241043
313.0, 5.480858328262201e-05
314.0, 0.00013258252047894235
315.0, 0.00034133489449349956
316.0, 0.0003666617931577156
317.0, 7.331665637419972e-05
318.0, 0.000319710708882413
319.0, 0.0013534559063262213
320.0, 0.0013712784043076129
321.0, 0.0016466179666071764
322.0, 0.0019515137480517373
323.0, 0.0031085317315696507
324.0, 0.0005867461062694885
325.0, 0.001460410421149637
326.0, 0.0011904431591020976
327.0, 0.0014597693621493197
328.0, 0.0014353343801834966
329.0, 0.001398920231296427
330.0, 0.001411237293914826
331.0, 0.0012269097733463381
332.0, 0.0018754003981658117
333.0, 0.002302291829798882
334.0, 0.000923478114873668
335.0, 0.0011670756426711833
336.0, 0.000682286319189125
337.0, 0.000986625218519939
338.0, 0.0022286954233212202
339.0, 0.0015417049130493673
340.0, 0.003192460013035772
341.0, 0.002864844598708963
342.0, 0.0015434504052163854
343.0, 0.0018019135241387906
344.0, 0.0034837754815918946
345.0, 0.002192796426061297
346.0, 0.0009386763819832976
347.0, 0.0009296181636449022
348.0, 0.0017116121597383403
349.0, 0.003453380176638035
350.0, 0.0032532652547807776
351.0, 0.0033568689803334423
352.0, 0.003624245469893029
353.0, 0.002042838375987696
354.0, 0.000710643736673327
355.0, 0.002165009345733989
356.0, 0.00236603161593244
357.0, 0.0005355594379406412
358.0, 0.0007049245810074849
359.0, 0.0012571246360612873
360.0, 0.0010965158419625116
361.0, 0.0007196644618392227
362.0, 0.0020038177944776596
363.0, 0.004870549965859974
364.0, 0.002755399926068043
365.0, 0.0007281754103062314
366.0, 0.00106195482604747
367.0, 0.0027889306848299985
368.0, 0.002911883223589238
369.0, 0.0027085419907870536
370.0, 0.0025230628105452776
371.0, 0.00263160847054688
372.0, 0.0029554672479268984
373.0, 0.000245878312907373
374.0, 0.0011994316907750935
375.0, 0.001781125837645648
376.0, 0.0007581280807678773
377.0, 0.0007754542939023735
378.0, 0.0014792571703564196
379.0, 0.0010893598781655943
380.0, 0.0003772847513982913
381.0, 0.00014335544921233293
382.0, 0.000212071450309206
383.0, 0.00036741013741762045
384.0, 0.002053050500674798
385.0, 0.002050456056973438
386.0, 0.001209442687974548
387.0, 0.002821775329322272
388.0, 0.003421483968979754
389.0, 0.002318451168575289
390.0, 0.0012778854912122988
391.0, 0.0008318533890009734
392.0, 0.00010628898584525163
393.0, 0.0007502860693051887
394.0, 0.001525988759505704
395.0, 0.0013305200985819009
396.0, 0.0005027212195763229
397.0, 0.0008755120550017832
398.0, 0.00013443238001741888
399.0, 0.0006139613585665582
400.0, 0.000204454350365432
401.0, 0.0004716980312973556
402.0, 0.0005496080855985063
403.0, 0.00048574201075656664
404.0, 0.0010928771302985256
405.0, 0.001840080478537866
406.0, 0.0010259808589179688
407.0, 0.0010508219055603038
408.0, 0.0008224991100217214
409.0, 0.00041930834009305644
410.0, 0.0009700031104214544
411.0, 0.0022842737288908985
412.0, 0.0017579083030185652
413.0, 0.0022832486569178572
414.0, 0.00274552931441873
415.0, 0.0022402094626268088
416.0, 0.0010707615022997226
417.0, 0.0007589786688484159
418.0, 0.0033955835259371733
419.0, 0.0029703558590477865
420.0, 0.0007407611747652673
421.0, 3.50647392810914e-05
422.0, 0.0012091987696637408
423.0, 0.0008744701135129036
424.0, 9.139786066219549e-05
425.0, 0.00038775083702035013
426.0, 0.001971905840588997
427.0, 0.00031384814744163424
428.0, 0.00028693365611726757
429.0, 0.0009483314495942353
430.0, 0.002634809380956051
431.0, 0.003939739218469238
432.0, 0.00265443761770429
433.0, 0.0032607218839987824
434.0, 0.0059101914373470045
435.0, 0.008020875755940576
436.0, 0.008549290661751014
437.0, 0.009525760890487796
438.0, 0.00949628123823072
439.0, 0.014464911104767709
440.0, 0.01905516383008872
441.0, 0.02032119668535387
442.0, 0.023794815665893882
443.0, 0.029046220084236574
444.0, 0.03319109001707051
445.0, 0.036014819063811175
446.0, 0.03843419236220589
447.0, 0.04168330748823279
448.0, 0.04922990737709849
449.0, 0.056721482407708294
450.0, 0.0642207157996576
451.0, 0.07241828605946848
452.0, 0.07992298086301326
453.0, 0.08099527678463199
454.0, 0.07417412325329362
455.0, 0.06026101486273056
456.0, 0.04388194543806572
457.0, 0.03167552109790901
458.0, 0.02555520436864625
459.0, 0.022004829867887862
460.0, 0.02048779622244801
461.0, 0.021040301970310087
462.0, 0.02233231977755769
463.0, 0.021286689905997525
464.0, 0.022638446043347187
465.0, 0.023560943117135816
466.0, 0.024742773312402242
467.0, 0.02858785604658472
468.0, 0.033836445057207905
469.0, 0.037276582875021946
470.0, 0.03732873268033346
471.0, 0.03488680401106003
472.0, 0.03154554747503397
473.0, 0.027651054906276236
474.0, 0.023522401900803337
475.0, 0.02024857756903452
476.0, 0.016581334746400757
477.0, 0.01275526126121632
478.0, 0.012444024396142228
479.0, 0.01175057563819879
480.0, 0.013204194147321567
481.0, 0.015393973746639473
482.0, 0.016357989542263793
483.0, 0.01632114346721463
484.0, 0.019436573857595053
485.0, 0.01727045600955104
486.0, 0.014869071251691256
487.0, 0.014235886557003032
488.0, 0.01221312413767802
489.0, 0.010854546398216466
490.0, 0.009507505761108056
491.0, 0.0074130276722523215
492.0, 0.005903757460912327
493.0, 0.006178730456221316
494.0, 0.005476898715202961
495.0, 0.004741463632961877
496.0, 0.0026545398630570104
497.0, 0.0015214238302113346
498.0, 0.0021439151894385913
499.0, 0.0008945359594962996
500.0, 0.0002754937372522796
501.0, 0.0014435750835827337
502.0, 0.0015345299563206858
503.0, 0.0006428196936751698
504.0, 0.0023969586492042423
505.0, 0.000837827925179762
506.0, 0.0006968326323379849
507.0, 2.1951156548574038e-05
508.0, 0.0002415323350841653
509.0, 0.0006918829392053527
510.0, 0.003976124181030814
511.0, 0.004353055130209458
512.0, 0.0020604340192154776
513.0, 0.0008766813703524444
514.0, 0.0017798117627438627
515.0, 0.0005250256069000737
516.0, 0.0002139618923306593
517.0, 1.2587563670550197e-05
518.0, 6.174175923794273e-05
519.0, 0.0002717500474876096
520.0, 0.0009199407878121751
521.0, 0.0010062906997116365
522.0, 0.0012296202938304223
523.0, 0.0003783471456456145
524.0, 0.0006093762046391561
525.0, 0.0015554520909140947
526.0, 0.0020817007218948418
527.0, 0.000444678209258217
528.0, 0.00023942625565260807
529.0, 0.00030317364642003047
530.0, 0.0003189377667859075
531.0, 0.0001116770192133619
532.0, 0.00035507593795371594
533.0, 0.0002678739322398948
534.0, 0.0008346023602131228
535.0, 0.0020748925348630163
536.0, 0.00022616066259034039
537.0, 0.0006256401790608519
538.0, 0.0007268900194280047
539.0, 5.443638111060105e-05
540.0, 8.82261877443129e-05
541.0, 0.0008484222506811756
542.0, 0.00029438043280583366
543.0, 0.0003012529940874543
544.0, 0.0005687037040396364
545.0, 0.0005456059014776971
546.0, 0.0009676866328550319
547.0, 0.0012563256043585025
548.0, 0.000136599058142851
549.0, 0.0002456242289180377
550.0, 0.0003114231485776104
551.0, 0.0007491307561151465
552.0, 0.0026583842904888224
553.0, 0.0017388509438635074
554.0, 0.0007574648023528237
555.0, 0.0012987206993207232
556.0, 0.0011403441533677664
557.0, 3.412517502428959e-05
558.0, 0.00035527934348482393
559.0, 0.00020652969237215603
560.0, 0.002323165142488199
561.0, 0.00178192174737946
562.0, 0.0002524340969989912
563.0, 0.0007390633335112412
564.0, 0.00019698264713940349
565.0, 0.0007565823333316526
566.0, 0.0005286105892660936
567.0, 0.00021825166652960227
568.0, 0.0003283307093524786
569.0, 0.00016262458403627707
570.0, 0.0017857127093243862
571.0, 0.0012890909852667283
572.0, 0.0009352481787849966
573.0, 0.0009247784549638192
574.0, 0.00044549428235078685
575.0, 0.00048172218681601163
576.0, 0.00032514224276669905
577.0, 0.0006369795476347483
578.0, 0.0018810987244115398
579.0, 0.0030419803787756303
580.0, 0.002658986792226512
581.0, 0.0018682439749450796
582.0, 0.0025016205602651394
583.0, 0.002045517378046737
584.0, 0.0015818269005192006
585.0, 0.002330287180783142
586.0, 0.00263397570166444
587.0, 0.0008885414515012579
588.0, 0.004578748249039886
589.0, 0.005451949179091478
590.0, 0.0018543129213394254
591.0, 0.00040901735828942397
592.0, 0.00021910821398825038
593.0, 0.0009301245389621044
594.0, 0.0003656384650507974
595.0, 0.0008603087564592212
596.0, 0.00031146642619304775
597.0, 0.00011820716806715128
598.0, 0.0010201589899384756
599.0, 0.001827789669648457
600.0, 0.0015838361238028952
601.0, 0.0018873950210675672
602.0, 0.0029463155478955195
603.0, 0.002182837441266063
604.0, 0.0013034381245050374
605.0, 0.0036784841673223588
606.0, 0.006197973329197219
607.0, 0.007494823160931879
608.0, 0.008646692199276808
609.0, 0.00973927614712954
610.0, 0.009248001695607199
611.0, 0.01077920539562985
612.0, 0.01201275254670805
613.0, 0.013788239275557161
614.0, 0.018543523324044506
615.0, 0.020054948118073887
616.0, 0.022165619238656235
617.0, 0.02434880485367853
618.0, 0.02643345145323578
619.0, 0.02713225024944338
620.0, 0.025165808400354938
621.0, 0.02386324519671496
622.0, 0.025080610921157077
623.0, 0.02762269206556299
624.0, 0.02880225261439091
625.0, 0.02757867449992794
626.0, 0.02536848846302943
627.0, 0.02318368117063463
628.0, 0.025421783328428614
629.0, 0.02487044164431192
630.0, 0.024218760419068737
631.0, 0.027997073047927066
632.0, 0.0316130680056476
633.0, 0.038062375133437784
634.0, 0.04576225766303355
635.0, 0.05068557426215224
636.0, 0.050116610849188545
637.0, 0.045369691636637594
638.0, 0.042541652267033214
639.0, 0.04586990595690748
640.0, 0.05061235440034939
641.0, 0.055282705047482485
642.0, 0.06278843791018529
643.0, 0.07320670728023826
644.0, 0.07775105807291303
645.0, 0.08011894833503858
646.0, 0.07403141262252028
647.0, 0.06798899965527627
648.0, 0.06841360834600405
649.0, 0.07421409600489623
650.0, 0.08151249204290241
651.0, 0.07588314900585007
652.0, 0.05894873476440551
653.0, 0.03995897341006255
654.0, 0.025377545195983668
655.0, 0.01682848834097703
656.0, 0.013764178232666967
657.0, 0.013940679070621055
658.0, 0.01337919292790876
659.0, 0.0096610681707989
660.0, 0.006166744532339967
661.0, 0.007115242238493033
662.0, 0.008414480541442674
663.0, 0.009124583909328675
664.0, 0.006240102340704501
665.0, 0.003846558711153384
666.0, 0.003813633853136009
667.0, 0.004512725470833083
668.0, 0.0061213608835649315
669.0, 0.005237300457258344
670.0, 0.004711982179306225
671.0, 0.005531827968564257
672.0, 0.0060469612290249145
673.0, 0.00403042230323712
674.0, 0.000643030934527659
675.0, 0.001617583430783475
676.0, 0.00046034647669876676
677.0, 0.0005306147969106676
678.0, 0.0016088886863797806
679.0, 0.00048539512514628104
680.0, 0.00028616062090254464
681.0, 0.000728213834561712
682.0, 0.007441170566786671
683.0, 0.013291893705334725
684.0, 0.010037817192356607
685.0, 0.002190114034692418
686.0, 0.003157923335057484
687.0, 0.0016541267451032702
688.0, 0.0018562523447042266
689.0, 0.0011485143121431622
690.0, 0.0004039663963152692
691.0, 0.0025569058671222667
692.0, 0.011514609094474958
693.0, 0.00547775928810778
694.0, 0.003000510944445446
695.0, 0.0019082179693484618
696.0, 0.001314993558457525
697.0, 0.002017770136752162
698.0, 0.001997085264273677
699.0, 0.0037817368967193545
700.0, 0.006021623721746989
701.0, 0.004294776608844867
702.0, 0.0022175020075258164
703.0, 0.0026364491368260842
704.0, 0.002284480732308328
705.0, 0.00037339451872913314
706.0, 0.0005453305465494582
707.0, 0.00020925478974218693
708.0, 0.00038103708856014124
709.0, 0.00035293426429561546
710.0, 0.0013852961356317563
711.0, 0.001958366994511546
712.0, 0.0007049188809233932
713.0, 0.001182945872031075
714.0, 0.0006621631736892106
715.0, 0.0002812929616279214
716.0, 0.0005044847276100615
717.0, 0.002013910821603039
718.0, 0.0008195930572233435
719.0, 0.0011933947483778868
720.0, 0.000763260116948468
721.0, 4.581877929052267e-05
722.0, 0.00034412723402407373
723.0, 0.0030325926936959954
724.0, 0.0006595422564646494
725.0, 0.0008848750387231122
726.0, 0.0019797242324228665
727.0, 0.0008064933852775862
728.0, 0.0001737641568200063
729.0, 0.0018851083265285131
730.0, 0.00140161220188908
731.0, 0.0026978761130966415
732.0, 0.002152139686450156
733.0, 0.001120309626283224
734.0, 0.0005772638499000147
735.0, 0.0001948190969226532
736.0, 0.001044575008520922
737.0, 0.0030669387518119096
738.0, 0.0015434807242876024
739.0, 5.138745977787608e-05
740.0, 0.0021578262690553334
741.0, 0.00432733221070542
742.0, 0.000642306808321809
743.0, 0.00012619560251828554
744.0, 0.00023131589209710905
745.0, 0.00027624160112043797
746.0, 0.0003787493920328676
747.0, 0.0006065303773928949
748.0, 0.00012933507487602048
749.0, 0.0003536181718695664
750.0, 0.0022700665872085186
751.0, 0.0009428075737504318
752.0, 0.0003930086265854743
753.0, 0.002433595970458904
754.0, 0.0033779760309638287
755.0, 0.000991807218038642
756.0, 0.0021779592483296773
757.0, 0.0004353437501125911
758.0, 0.0002335402855083938
759.0, 0.0003795930147221084
760.0, 4.2336620204691365e-06
761.0, 0.0009645464168921241
762.0, 0.002318172912453892
763.0, 0.0013298514413086224
764.0, 0.00143591861604585
765.0, 0.002075665781519749
766.0, 0.0015385254259868428
767.0, 0.00024228270170363955
768.0, 0.00013164935643804985
769.0, 0.00019388227119204903
770.0, 0.0020386405362057404
771.0, 0.002102800979067441
772.0, 0.0017443422975172479
773.0, 0.0010161357993644688
774.0, 0.0002988316263054146
775.0, 7.772151378395955e-05
776.0, 0.00020212326118338646
777.0, 0.0015212733096744509
778.0, 0.0022705327905076914
779.0, 0.0014369154106827486
780.0, 0.0005977544079371077
781.0, 0.0015381380111573544
782.0, 0.001239830310341536
783.0, 0.002170335573183488
784.0, 0.0017766380072165957
785.0, 0.0010533036004867187
786.0, 0.001760641936945799
787.0, 0.0036206571259779262
788.0, 0.004711085076549016
789.0, 0.003525589950803384
790.0, 0.004285100985740219
791.0, 0.0023345821942234567
792.0, 0.0010516277100909247
793.0, 0.0010283306874184996
794.0, 0.00015471579171304046
795.0, 0.00010473913252150024
796.0, 0.0005548006105794319
797.0, 0.00043816053093305495
798.0, 0.0015452298219831176
799.0, 0.0020948828573565817
800.0, 0.0018021056889721775
801.0, 0.001671842255572618
802.0, 0.0006348594437104114
803.0, 0.0043576401320787345
804.0, 0.0046008644134421985
805.0, 0.0013101969386502806
806.0, 0.00031822398222583465
807.0, 0.0017998328360240034
808.0, 0.0036918545458724
809.0, 0.002260016896594555
810.0, 0.001846943275582521
811.0, 0.0003620490479028714
812.0, 0.0005822929055954642
813.0, 0.0033770883027107864
814.0, 0.004861388998375447
815.0, 0.0020843529069455333
816.0, 0.00227978370357262
817.0, 0.005485323542315419
818.0, 0.003054209526051859
819.0, 0.0014073724074120638
820.0, 0.0031493674697971557
821.0, 0.004182945821289081
822.0, 0.0012680697773920335
823.0, 9.1190703586984e-05
824.0, 0.0011490395201822759
825.0, 0.0020034445163360755
826.0, 0.001975171380544306
827.0, 0.0012341576469858452
828.0, 0.0011344495201146344
829.0, 0.00289015174912556
830.0, 0.002780998754901382
831.0, 0.004350048050273796
832.0, 0.0006766426224352855
833.0, 0.000515312313017182
834.0, 0.0014610719524391388
835.0, 0.003582904910763082
836.0, 0.0009746348410004402
837.0, 0.002166112584363744
838.0, 0.0029347284072390387
839.0, 0.001832123695606028
840.0, 0.00040575185382292874
841.0, 0.0008445274135548075
842.0, 0.0033303670720868316
843.0, 0.005630500726384626
844.0, 0.004696843535365674
845.0, 0.004344422848203048
846.0, 0.0008066011517544681
847.0, 0.0016321615180616542
848.0, 0.0028739086587527846
849.0, 0.0014600084776611858
850.0, 0.0021539503985457844
851.0, 0.0007357769851558649
852.0, 0.00011510268943205844
853.0, 0.001369633838825679
854.0, 0.0023224098082752576
855.0, 0.003599034618814887
856.0, 0.0036327100178097384
857.0, 0.0013704704633241492
858.0, 0.001210281892121233
859.0, 0.00036415114985439864
860.0, 0.00024427661765509854
861.0, 0.0015870329102859162
862.0, 0.001947722622356229
863.0, 0.0017933791995974023
864.0, 0.002978274556357858
865.0, 0.0026994533003534497
866.0, 0.0057854125184113436
867.0, 0.003784588726733423
868.0, 0.004221896390191675
869.0, 0.004432657487833396
870.0, 0.0012972716409174285
871.0, 0.0002523409144231079
872.0, 0.003628034296334195
873.0, 0.002574379785821701
874.0, 0.00030009347390030905
875.0, 0.0014467569217518229
876.0, 0.0035399960493613875
877.0, 0.0040134335782353965
878.0, 0.0020771933934100586
879.0, 0.0005109163629956387
880.0, 0.0042506639383920065
881.0, 0.004473113541475877
882.0, 0.0003770401302315344
883.0, 0.0021415359319822136
884.0, 0.0035431148898812923
885.0, 0.0035360653652989193
886.0, 0.00483875009246436
887.0, 0.0027507774673036223
888.0, 0.0036677705945054426
889.0, 0.002582399180753381
890.0, 0.003031848158009848
891.0, 0.0033628902423748397
892.0, 0.002048912580590265
893.0, 0.0006323143371820073
894.0, 0.0012662787671889764
895.0, 0.00304266211394944
896.0, 0.0005215802543543814
897.0, 0.0019380831087525924
898.0, 0.0034475871526871917
899.0, 0.003083427700054307
900.0, 0.0033211495755445745
901.0, 0.004999665477682745
902.0, 0.005301674389018209
903.0, 0.004095828664459769
904.0, 0.003285516667776365
905.0, 0.001970210508878915
906.0, 0.001446482516736684
907.0, 0.0006850936709161254
908.0, 0.000691079572868164
909.0, 0.0016324160084752728
910.0, 0.00022995827846902935
911.0, 8.234358345294677e-05
912.0, 0.001916725816065606
913.0, 0.0049940534529467505
914.0, 0.0032846808199332314
915.0, 0.0026762707378631748
916.0, 0.003932863676939262
917.0, 0.0016455573078477277
918.0, 0.0010344883431305876
919.0, 0.0029734437591779385
920.0, 0.0007846581776872227
921.0, 0.0025417415590716203
922.0, 0.0009446473997432132
923.0, 0.0006471850119047933
924.0, 0.002557783890877707
925.0, 0.0026241074980522918
926.0, 0.00015201223101139348
927.0, 0.0007558243140621164
928.0, 0.0009633174793823476
929.0, 0.0017628374363429613
930.0, 0.0011169194611424702
931.0, 0.003403779595317451
932.0, 0.0028349061801131578
933.0, 0.0013874913236206657
934.0, 0.00022712750700889245
935.0, 4.5750477499932946e-05
936.0, 0.00011073101331805709
937.0, 0.00027253628232959013
938.0, 0.0007166964887877209
939.0, 0.0007820456933715384
940.0, 0.002868360585582671
941.0, 0.00273899206797912
942.0, 0.0005838054903890695
943.0, 0.00485292378134984
944.0, 0.005834107242704028
945.0, 0.004328128583930546
946.0, 0.0006838555671447698
947.0, 0.0009400450349680101
948.0, 0.004730332239322932
949.0, 0.0042085080821171236
950.0, 0.002646940111123987
951.0, 0.003634531354546564
952.0, 0.0038399499062539773
953.0, 0.0067571946092987775
954.0, 0.0029815894372721237
955.0, 0.00021288744381431867
956.0, 0.0022542307197592286
957.0, 0.004350243056253883
958.0, 0.002297296904192978
959.0, 0.002546822751538398
960.0, 0.0008944158894898868
961.0, 0.002405223009271769
962.0, 0.003958618962873589
963.0, 0.003492881960662669
964.0, 0.003562533489184447
965.0, 0.004630186894340557
966.0, 0.0015883426272092723
967.0, 0.004669852221121722
968.0, 0.006024447637881397
969.0, 0.003902095298001581
970.0, 0.002970497553404009
971.0, 0.003766962032772227
972.0, 0.00463854049961626
973.0, 0.006283912519148956
974.0, 0.009271409048664244
975.0, 0.010568090541410507
976.0, 0.010238828988546445
977.0, 0.013897258978619592
978.0, 0.015171310733845752
979.0, 0.016702299573417807
980.0, 0.01746180065790116
981.0, 0.016839782138302076
982.0, 0.022337751123394183
983.0, 0.022571072326308863
984.0, 0.025716963966279045
985.0, 0.0311198555216974
986.0, 0.03440959831863023
987.0, 0.03837491910294415
988.0, 0.04661250269085427
989.0, 0.06119778611936767
990.0, 0.0836358775628801
991.0, 0.11212231580111752
992.0, 0.1556379172562871
993.0, 0.20829466701519317
994.0, 0.26769587031384284
995.0, 0.3402908872818334
996.0, 0.42402450272623027
997.0, 0.5174554195358957
998.0, 0.6263198599452796
999.0, 0.7562753617653769
1000.0, 0.8984799705785381
1001.0, 0.9957734276705742
1002.0, 0.9102586318748436
1003.0, 0.6885185619274696
1004.0, 0.46324002562313676
1005.0, 0.30140365907524214
1006.0, 0.20126064551965983
1007.0, 0.14705818246257402
1008.0, 0.10909811821579615
1009.0, 0.0814402876781404
1010.0, 0.05926572596510997
1011.0, 0.04625634940807708
1012.0, 0.03690315746812198
1013.0, 0.029326119700520053
1014.0, 0.02427792895729114
1015.0, 0.021129365043654667
1016.0, 0.018571952671581543
1017.0, 0.016531659155235617
1018.0, 0.013245817503229224
1019.0, 0.013475711129273524
1020.0, 0.012494662609542604
1021.0, 0.010543006051847702
1022.0, 0.010191440372211463
1023.0, 0.010279208872283037
1024.0, 0.010116773991411783
1025.0, 0.011226328743610231
1026.0, 0.00842210482411052
1027.0, 0.002453163931742485
1028.0, 0.0032565320792996987
1029.0, 0.0037746403589448583
1030.0, 0.0054763063946874305
1031.0, 0.005440957305369769
1032.0, 0.004048948392405041
1033.0, 0.0044443751342285835
1034.0, 0.003939130524999567
1035.0, 0.0035122583448085457
1036.0, 0.005232256077752767
1037.0, 0.004920342239448715
1038.0, 0.0038706495650797897
1039.0, 0.002128356557524374
1040.0, 0.0016657757648578261
1041.0, 0.0020407449598037184
1042.0, 0.0020454317835490615
1043.0, 0.003141167066251218
1044.0, 0.003937001938482448
1045.0, 0.0030187936815270675
1046.0, 0.00026185134190773185
1047.0, 0.00025404330921970726
1048.0, 0.00022217424736588613
1049.0, 0.0002045794204924934
1050.0, 0.00013064320403881696
1051.0, 0.00038074504102139476
1052.0, 0.00032970767417934044
1053.0, 4.5527314942090276e-05
1054.0, 0.0004145522718225106
1055.0, 0.00024543238491763663
1056.0, 0.0010061152138145107
1057.0, 0.00019710005359086424
1058.0, 0.0004852263936797733
1059.0, 0.0003079728987709401
1060.0, 0.0003701598144624197
1061.0, 0.0005033393427634488
1062.0, 0.00024848168195535264
1063.0, 9.049804923964403e-05
1064.0, 0.0003633233737221029
1065.0, 0.0006431289250349459
1066.0, 0.0015303936184390163
1067.0, 0.002586344033195146
1068.0, 0.002374042771321777
1069.0, 0.0003764984709651195
1070.0, 0.0006390285872238208
1071.0, 0.002158344898683285
1072.0, 0.0009134760242843741
1073.0, 0.006314815156693532
1074.0, 0.0024797864800128497
1075.0, 0.00044538375122361856
1076.0, 0.00252927979462614
1077.0, 0.002985542866195867
1078.0, 0.0002994627444497946
1079.0, 0.00025634613238447845
1080.0, 0.0002747904481805621
1081.0, 0.0009427746973650764
1082.0, 0.00027680719769914705
1083.0, 0.0021768005821021534
1084.0, 0.0010624520989716106
1085.0, 0.0037157702443564103
1086.0, 0.0028282350279747208
1087.0, 0.001612454503937782
1088.0, 0.0016776899848403332
1089.0, 0.001390886747894719
1090.0, 0.0027239765919239416
1091.0, 0.0008803280770925866
1092.0, 0.0059243296794410675
1093.0, 0.004653555485857329
1094.0, 0.008290327269167959
1095.0, 0.007155935227436296
1096.0, 0.006127970694367469
1097.0, 0.006239751901474283
1098.0, 0.006496781288293036
1099.0, 0.009275874055209674
1100.0, 0.01267830089370332
1101.0, 0.010996787334187269
1102.0, 0.018424298236250743
1103.0, 0.01622856162882916
1104.0, 0.019521089029680586
1105.0, 0.02002967448817398
1106.0, 0.018796852663335344
1107.0, 0.01813136836188437
1108.0, 0.015080942535854042
1109.0, 0.011250084708792487
1110.0, 0.01095728237352556
1111.0, 0.008330686723827996
1112.0, 0.004346843758313414
1113.0, 0.003667698020134186
1114.0, 0.00622429464431267
1115.0, 0.006496980453926209
1116.0, 0.004344544176034306
1117.0, 0.0038747985338049135
1118.0, 0.0046837200554414515
1119.0, 0.00477857956875503
1120.0, 0.0046797735917793425
1121.0, 0.0031853601728686134
1122.0, 0.004371006787164618
1123.0, 0.0070031222137097015
1124.0, 0.007044787741438746
1125.0, 0.0076502121758824475
1126.0, 0.00811532034334248
1127.0, 0.009425811297693815
1128.0, 0.01030825047353978
1129.0, 0.012269047183075062
1130.0, 0.017273606738943126
1131.0, 0.021171266989459113
1132.0, 0.028175789268475627
1133.0, 0.03505036778707683
1134.0, 0.04098677199606752
1135.0, 0.0498629048419939
1136.0, 0.06116390124453957
1137.0, 0.06971481525691013
1138.0, 0.07773094632114094
1139.0, 0.08238832972031976
1140.0, 0.07590848185039915
1141.0, 0.06066085189854688
1142.0, 0.04861176369357687
1143.0, 0.038355684370412285
1144.0, 0.031644185978341816
1145.0, 0.026545484171236783
1146.0, 0.029269404585520666
1147.0, 0.034307450819420736
1148.0, 0.03644135926898634
1149.0, 0.04141581085718129
1150.0, 0.048538885880874016
1151.0, 0.05341121762135482
1152.0, 0.06189451507441202
1153.0, 0.0737696133473074
1154.0, 0.07848466673438595
1155.0, 0.07825579980504407
1156.0, 0.07416177558451585
1157.0, 0.06535412287943836
1158.0, 0.05302691963664286
1159.0, 0.041393140535570874
1160.0, 0.03261522391111717
1161.0, 0.026989507754696437
1162.0, 0.022856779067060306
1163.0, 0.02031693804059701
1164.0, 0.02553885296731744
1165.0, 0.023825523370895694
1166.0, 0.02091144903726255
1167.0, 0.0234178409274687
1168.0, 0.022738917838642132
1169.0, 0.020269464761662005
1170.0, 0.016455540732683183
1171.0, 0.013063222873228253
1172.0, 0.012383422202637214
1173.0, 0.010494742641267922
1174.0, 0.0058095645195395
1175.0, 0.005818762505289418
1176.0, 0.0031893759983542365
1177.0, 0.004690042531948605
1178.0, 0.0027896705212894783
1179.0, 0.0019257045072125013
1180.0, 0.00034532944782174894
1181.0, 0.00167924031635474
1182.0, 0.0011968193468773274
1183.0, 0.0005418870001433571
1184.0, 0.0024517249624407336
1185.0, 0.0033610596422092823
1186.0, 0.0006624560158349403
1187.0, 0.004714656228851589
1188.0, 0.002087449934733213
1189.0, 0.0026689563551925105
1190.0, 0.0037586700185936297
1191.0, 0.0011511662686328613
1192.0, 0.00020461655969934088
1193.0, 0.0007960104523355589
1194.0, 0.00040742529987079643
1195.0, 0.0015854706963356886
1196.0, 0.0008416989736918901
1197.0, 0.0010529192084780363
1198.0, 0.00031772333227182866
1199.0, 0.0005477621377422761
1200.0, 0.002255587965214976
1201.0, 0.0005682897352476819
1202.0, 0.0004739427912995456
1203.0, 0.003237292422843174
1204.0, 0.0038352445939957695
1205.0, 0.00015869015606810295
1206.0, 0.00018398817233464455
1207.0, 0.00016647937704091523
1208.0, 0.0008228404231948201
1209.0, 0.0006516984477407735
1210.0, 0.0026861770018280374
1211.0, 0.002341471172298771
1212.0, 0.001054686755159892
1213.0, 0.0018828543344484273
1214.0, 0.0018390519445190359
1215.0, 0.0016803297095820695
1216.0, 0.0018131428478404701
1217.0, 0.00036158009184950035
1218.0, 0.0005703716898639688
1219.0, 0.0025088634724453798
1220.0, 0.0035370454515590483
1221.0, 0.0038406181527337493
1222.0, 0.0003914611027141069
1223.0, 0.002091784430656141
1224.0, 0.00022090816134311223
1225.0, 0.0002613798634057491
1226.0, 0.0010816891418580713
1227.0, 0.003158639556754853
1228.0, 0.0034216690064723713
1229.0, 0.0016148951695073284
1230.0, 0.003568339557609041
1231.0, 0.0026405349928607467
1232.0, 8.91342886556815e-05
1233.0, 0.002680396690070323
1234.0, 0.001326998139418229
1235.0, 0.0037721052366739005
1236.0, 0.0011093493843798389
1237.0, 0.00047736262591988656
1238.0, 0.004620327708623063
1239.0, 0.0024435154069866382
1240.0, 0.0002410822594456095
1241.0, 0.0010638328975487506
1242.0, 0.002185132235928126
1243.0, 0.003456633084950406
1244.0, 0.004644644769223159
1245.0, 0.0028155979499120895
1246.0, 0.00196233080633437
1247.0, 0.005144341731047342
1248.0, 0.0005719573372907843
1249.0, 0.0044950644253424705
1250.0, 0.0011363615659479374
1251.0, 0.003512943138337895
1252.0, 0.0035790189594812494
1253.0, 0.001647308224937233
1254.0, 0.0006360403399144218
1255.0, 0.0007926673304223897
1256.0, 0.002607648707662994
1257.0, 0.004150840168726475
1258.0, 0.0033980306705893772
1259.0, 0.0019078895284287338
1260.0, 0.0021723160464411787
1261.0, 0.004759507277744335
1262.0, 0.004272566972017247
1263.0, 0.003071755425866596
1264.0, 0.004687497293069995
1265.0, 0.0030146478183023227
1266.0, 0.0031176380174062455
1267.0, 0.0018550281941354687
1268.0, 0.0003337152548330246
1269.0, 0.00044171434429489555
1270.0, 0.000608683129357054
1271.0, 0.0032057859432909246
1272.0, 0.005182996916984785
1273.0, 0.00527133304894227
1274.0, 0.0048351935848490795
1275.0, 0.002809490895789566
1276.0, 0.0008271221370270993
1277.0, 0.00488668230835707
1278.0, 0.005436775766184953
1279.0, 0.0020254703532251576
1280.0, 0.00409538473477888
1281.0, 0.003747369740422867
1282.0, 0.005602116985100316
1283.0, 0.003199581245254857
1284.0, 0.0013566991702677743
1285.0, 0.003570650761782238
1286.0, 0.002949919391010396
1287.0, 0.0005616092475472295
1288.0, 0.0018481466733317915
1289.0, 0.0026780874549740576
1290.0, 0.003407307376294938
1291.0, 0.0036554864389099677
1292.0, 0.0013137564984263387
1293.0, 0.0020548683648844894
1294.0, 0.0011700366987343436
1295.0, 0.001264234661003902
1296.0, 0.0014266663951636727
1297.0, 0.0037559381683043716
1298.0, 0.004896738911639872
1299.0, 0.00226744287479548
1300.0, 0.0017360408387610442
1301.0, 0.003848176157955205
1302.0, 0.0028741007407735307
1303.0, 0.003147113877479248
1304.0, 0.004422535561068411
1305.0, 0.0014119390184190931
1306.0, 0.0030069895189833297
1307.0, 3.488404254835409e-05
1308.0, 0.0011434146388595442
1309, 0.0
1310, 0.0
1311, 0.0
1312, 0.0
1313, 0.0
1314, 0.0
1315, 0.0
1316, 0.0
1317, 0.0
1318, 0.0
1319, 0.0
1320, 0.0
1321, 0.0
1322, 0.0
1323, 0.0
1324, 0.0
1325, 0.0
1326, 0.0
1327, 0.0
1328, 0.0
1329, 0.0
1330, 0.0
1331, 0.0
1332, 0.0
1333, 0.0
1334, 0.0
1335, 0.0
1336, 0.0
1337, 0.0
1338, 0.0
1339, 0.0
1340, 0.0
1341, 0.0
1342, 0.0
1343, 0.0
1344, 0.0
1345, 0.0
1346, 0.0
1347, 0.0
1348, 0.0
1349, 0.0
1350, 0.0
1351, 0.0
1352, 0.0
1353, 0.0
1354, 0.0
1355, 0.0
1356, 0.0
1357, 0.0
1358, 0.0
1359, 0.0
1360, 0.0
1361, 0.0
1362, 0.0
1363, 0.0
1364, 0.0
1365, 0.0
1366, 0.0
1367, 0.0
1368, 0.0
1369, 0.0
1370, 0.0
1371, 0.0
1372, 0.0
1373, 0.0
1374, 0.0
1375, 0.0
1376, 0.0
1377, 0.0
1378, 0.0
1379, 0.0
1380, 0.0
1381, 0.0
1382, 0.0
1383, 0.0
1384, 0.0
1385, 0.0
1386, 0.0
1387, 0.0
1388, 0.0
1389, 0.0
1390, 0.0
1391, 0.0
1392, 0.0
1393, 0.0
1394, 0.0
1395, 0.0
1396, 0.0
1397, 0.0
1398, 0.0
1399, 0.0
1400, 0.0
1401, 0.0
1402, 0.0
1403, 0.0
1404, 0.0
1405, 0.0
1406, 0.0
1407, 0.0
1408, 0.0
1409, 0.0
1410, 0.0
1411, 0.0
1412, 0.0
1413, 0.0
1414, 0.0
1415, 0.0
1416, 0.0
1417, 0.0
1418, 0.0
1419, 0.0
1420, 0.0
1421, 0.0
1422, 0.0
1423, 0.0
1424, 0.0
1425, 0.0
1426, 0.0
1427, 0.0
1428, 0.0
1429, 0.0
1430, 0.0
1431, 0.0
1432, 0.0
1433, 0.0
1434, 0.0
1435, 0.0
1436, 0.0
1437, 0.0
1438, 0.0
1439, 0.0
1440, 0.0
1441, 0.0
1442, 0.0
1443, 0.0
1444, 0.0
1445, 0.0
1446, 0.0
1447, 0.0
1448, 0.0
1449, 0.0
1450, 0.0
1451, 0.0
1452, 0.0
1453, 0.0
1454, 0.0
1455, 0.0
1456, 0.0
1457, 0.0
1458, 0.0
1459, 0.0
1460, 0.0
1461, 0.0
1462, 0.0
1463, 0.0
1464, 0.0
1465, 0.0
1466, 0.0
1467, 0.0
1468, 0.0
1469, 0.0
1470, 0.0
1471, 0.0
1472, 0.0
1473, 0.0
1474, 0.0
1475, 0.0
1476, 0.0
1477, 0.0
1478, 0.0
1479, 0.0
1480, 0.0
1481, 0.0
1482, 0.0
1483, 0.0
1484, 0.0
1485, 0.0
1486, 0.0
1487, 0.0
1488, 0.0
1489, 0.0
1490, 0.0
1491, 0.0
1492, 0.0
1493, 0.0
1494, 0.0
1495, 0.0
1496, 0.0
1497, 0.0
1498, 0.0
1499, 0.0
1500, 0.0
1501, 0.0
1502, 0.0
1503, 0.0
1504, 0.0
1505, 0.0
1506, 0.0
1507, 0.0
1508, 0.0
1509, 0.0
1510, 0.0
1511, 0.0
1512, 0.0
1513, 0.0
1514, 0.0
1515, 0.0
1516, 0.0
1517, 0.0
1518, 0.0
1519, 0.0
1520, 0.0
1521, 0.0
1522, 0.0
1523, 0.0
1524, 0.0
1525, 0.0
1526, 0.0
1527, 0.0
1528, 0.0
1529, 0.0
1530, 0.0
1531, 0.0
1532, 0.0
1533, 0.0
1534, 0.0
1535, 0.0
1536, 0.0
1537, 0.0
1538, 0.0
1539, 0.0
1540, 0.0
1541, 0.0
1542, 0.0
1543, 0.0
1544, 0.0
1545, 0.0
1546, 0.0
1547, 0.0
1548, 0.0
1549, 0.0
1550, 0.0
1551, 0.0
1552, 0.0
1553, 0.0
1554, 0.0
1555, 0.0
1556, 0.0
1557, 0.0
1558, 0.0
1559, 0.0
1560, 0.0
1561, 0.0
1562, 0.0
1563, 0.0
1564, 0.0
1565, 0.0
1566, 0.0
1567, 0.0
1568, 0.0
1569, 0.0
1570, 0.0
1571, 0.0
1572, 0.0
1573, 0.0
1574, 0.0
1575, 0.0
1576, 0.0
1577, 0.0
1578, 0.0
1579, 0.0
1580, 0.0
1581, 0.0
1582, 0.0
1583, 0.0
1584, 0.0
1585, 0.0
1586, 0.0
1587, 0.0
1588, 0.0
1589, 0.0
1590, 0.0
1591, 0.0
1592, 0.0
1593, 0.0
1594, 0.0
1595, 0.0
1596, 0.0
1597, 0.0
1598, 0.0
1599, 0.0
