30, 0.0
31, 0.0
32, 0.0
33, 0.0
34, 0.0
35, 0.0
36, 0.0
37, 0.0
38, 0.0
39, 0.0
40, 0.0
41, 0.0
42, 0.0
43, 0.0
44, 0.0
45, 0.0
46, 0.0
47, 0.0
48, 0.0
49, 0.0
50, 0.0
51, 0.0
52, 0.0
53, 0.0
54, 0.0
55, 0.0
56, 0.0
57, 0.0
58, 0.0
59, 0.0
60, 0.0
61, 0.0
62, 0.0
63, 0.0
64, 0.0
65, 0.0
66, 0.0
67, 0.0
68, 0.0
69, 0.0
70, 0.0
71, 0.0
72, 0.0
73, 0.0
74, 0.0
75, 0.0
76, 0.0
77, 0.0
78, 0.0
79, 0.0
80, 0.0
81, 0.0
82, 0.0
83, 0.0
84, 0.0
85, 0.0
86, 0.0
87, 0.0
88, 0.0
89, 0.0
90, 0.0
91, 0.0
92, 0.0
93, 0.0
94, 0.0
95, 0.0
96, 0.0
97, 0.0
98, 0.0
99, 0.0
100, 0.0
101, 0.0
102, 0.0
103, 0.0
104, 0.0
105, 0.0
106, 0.0
107, 0.0
108, 0.0
109, 0.0
110, 0.0
111, 0.0
112, 0.0
113, 0.0
114, 0.0
115, 0.0
116, 0.0
117, 0.0
118, 0.0
119, 0.0
120, 0.0
121, 0.0
122, 0.0
123, 0.0
124, 0.0
125, 0.0
126, 0.0
127, 0.0
128, 0.0
129, 0.0
130, 0.0
131, 0.0
132, 0.0
133, 0.0
134, 0.0
135, 0.0
136, 0.0
137, 0.0
138, 0.0
139, 0.0
140, 0.0
141, 0.0
142, 0.0
143, 0.0
144, 0.0
145, 0.0
146, 0.0
147, 0.0
148, 0.0
149, 0.0
150, 0.0
151, 0.0
152, 0.0
153, 0.0
154, 0.0
155, 0.0
156, 0.0
157, 0.0
158, 0.0
159, 0.0
160, 0.0
161, 0.0
162, 0.0
163, 0.0
164, 0.0
165, 0.0
166, 0.0
167, 0.0
168, 0.0
169, 0.0
170, 0.0
171, 0.0
172, 0.0
173, 0.0
174, 0.0
175, 0.0
176, 0.0
177, 0.0
178, 0.0
179, 0.0
180, 0.0
181.0, 0.0023618433272788166
182.0, 0.002075832381715097
183.0, 0.0005191657352937637
184.0, 0.0036674786099065867
185.0, 0.002597973321337747
186.0, 0.0010158056068222496
187.0, 0.0017386812119597225
188.0, 0.003574287820608068
189.0, 0.00109654914773592
190.0, 0.0034485092656668078
191.0, 0.00624873956955936
192.0, 0.006694093059210525
193.0, 0.004671397314023107
194.0, 0.006124235216707844
195.0, 0.007511666071708816
196.0, 0.007698177713688241
197.0, 0.006544649835806392
198.0, 0.004577334367441859
199.0, 0.0031323152420145435
200.0, 0.005210369284276964
201.0, 0.007998251535179609
202.0, 0.009319977883463615
203.0, 0.011051568295149005
204.0, 0.0076982448042597715
205.0, 0.0052748510801217275
206.0, 0.004970786715924097
207.0, 0.004788849462599981
208.0, 0.004439613832199315
209.0, 0.003342302149324798
210.0, 0.003950192979273694
211.0, 0.005589330814957799
212.0, 0.004415048501556849
213.0, 0.002789065810974345
214.0, 0.0029282218900182227
215.0, 0.003545363760461878
216.0, 0.0028655586507376537
217.0, 0.0020715450154168793
218.0, 0.0029549239314218727
219.0, 0.00494257351110514
220.0, 0.005797168392721692
221.0, 0.0033495128891005096
222.0, 0.005025195205896004
223.0, 0.0077156661817452035
224.0, 0.008582566983750362
225.0, 0.007854551858470851
226.0, 0.007902212612900274
227.0, 0.005602783074192454
228.0, 0.004431794292612581
229.0, 0.005126564369662489
230.0, 0.006223884171891897
231.0, 0.006888949797136377
232.0, 0.006402705553030863
233.0, 0.0028182782805874283
234.0, 0.0009914308151519925
235.0, 0.0012214474084201912
236.0, 0.001602115773410036
237.0, 0.005068598210212434
238.0, 0.0054056062820962165
239.0, 0.00349798178295573
240.0, 0.004218350768853544
241.0, 0.007776249338603549
242.0, 0.008542087303881946
243.0, 0.007746615950854247
244.0, 0.008003849418842385
245.0, 0.009207246761843795
246.0, 0.006481501320762247
247.0, 0.0058282267726501675
248.0, 0.0066673788419222705
249.0, 0.005253793434635171
250.0, 0.006908212609267053
251.0, 0.009343167197425312
252.0, 0.008347461876871501
253.0, 0.005828762000558604
254.0, 0.0062187986379622666
255.0, 0.0060610426140215445
256.0, 0.004020461894265607
257.0, 0.003562447655497084
258.0, 0.005185589122651289
259.0, 0.006460362524185262
260.0, 0.009007031324946636
261.0, 0.008158843810595584
262.0, 0.007559663089459491
263.0, 0.008852751339713187
264.0, 0.007926542452593643
265.0, 0.008155581091384421
266.0, 0.008617213538107415
267.0, 0.008952593493422206
268.0, 0.009606799399103852
269.0, 0.012703288112320868
270.0, 0.009706184454529927
271.0, 0.0059017782129235025
272.0, 0.004631129876210143
273.0, 0.006291320713700595
274.0, 0.007666889506649763
275.0, 0.006834841542828035
276.0, 0.006745437639710521
277.0, 0.006960452215846369
278.0, 0.004953448434919643
279.0, 0.0023295578351602013
280.0, 0.001977485314121454
281.0, 0.0026742065845053575
282.0, 0.003493055488799874
283.0, 0.004297665975398699
284.0, 0.0049523498800889965
285.0, 0.005744188224146144
286.0, 0.004523840910809838
287.0, 0.002990919275406779
288.0, 0.006389143904981918
289.0, 0.007365725079148012
290.0, 0.0056754093627521245
291.0, 0.00451395019000433
292.0, 0.0045856176838426676
293.0, 0.003260786255070277
294.0, 0.0031424567927585607
295.0, 0.0033524726805552
296.0, 0.005799254326601059
297.0, 0.008145353285762977
298.0, 0.0050100353931335885
299.0, 0.0014102405399678485
300.0, 0.0014442112577736942
301.0, 0.0016663892483878727
302.0, 0.0011476229263816754
303.0, 0.002691421317781327
304.0, 0.0007272727878083376
305.0, 0.0016057562638434795
306.0, 0.0025276121445946824
307.0, 0.0018787977087535658
308.0, 0.003802666812721664
309.0, 0.0035145680688681976
310.0, 0.0061519977590837
311.0, 0.007629797483303129
312.0, 0.004872041189009179
313.0, 0.0035904390332725427
314.0, 0.003670429018190657
315.0, 0.002072566115024954
316.0, 0.0015755399979999279
317.0, 0.0028872542601716946
318.0, 0.0006952588745141486
319.0, 0.0007324665400348377
320.0, 0.0021014858280626455
321.0, 0.0006980352243677064
322.0, 0.0021700969770121225
323.0, 0.0009649373444243314
324.0, 0.0019135379416630384
325.0, 0.00023934784419152072
326.0, 0.0032657739715814403
327.0, 0.0028226113398653677
328.0, 0.003701232570466554
329.0, 0.0034489098618997534
330.0, 0.0022829937201613356
331.0, 0.0017234783245652714
332.0, 0.0026829650354358004
333.0, 0.004161132165603107
334.0, 0.004182480642797618
335.0, 0.0039456783444984265
336.0, 0.00266514532415149
337.0, 0.001026715121608538
338.0, 0.0006072463978628634
339.0, 0.0014770782700861819
340.0, 0.001232475216321261
341.0, 0.004476327990642473
342.0, 0.004013135553173865
343.0, 0.0007658383245538374
344.0, 0.0023457512543172813
345.0, 0.003972194487720128
346.0, 0.002684043537147474
347.0, 0.0012764887701788886
348.0, 0.002531577749063694
349.0, 0.0002752024714466194
350.0, 0.0032973847299758415
351.0, 0.005342910216124704
352.0, 0.0037656993722494166
353.0, 0.0024391375788772344
354.0, 0.003912185379931601
355.0, 0.0022792967603615356
356.0, 0.0008669549287351351
357.0, 0.0032842818590375824
358.0, 0.00732613816236588
359.0, 0.005694581258157897
360.0, 0.0032444452739251294
361.0, 0.00421057767723363
362.0, 0.006077896975624959
363.0, 0.005515552519853862
364.0, 0.001308347272516722
365.0, 0.00012610033676987113
366.0, 0.002993039252280331
367.0, 0.0037291665278129703
368.0, 0.0012055675937615268
369.0, 0.004818645940275676
370.0, 0.005078480998851321
371.0, 0.004546243851518269
372.0, 0.00243444643650406
373.0, 0.0009772687158819103
374.0, 0.0028310192501304916
375.0, 0.0015517256325439659
376.0, 0.006146184238301412
377.0, 0.00744037506342116
378.0, 0.005927856537075988
379.0, 0.006355273029210042
380.0, 0.0002817713196541627
381.0, 0.0033454613802056487
382.0, 0.004539219363240226
383.0, 0.004420789614008975
384.0, 0.0067060378946984115
385.0, 0.0022968424783789895
386.0, 0.00037759700120515536
387.0, 0.0006744123191466146
388.0, 0.002332192175777984
389.0, 0.0020558638529528106
390.0, 0.0016017491143619227
391.0, 0.000425599848394978
392.0, 0.0007113482235744694
393.0, 0.002190602593304701
394.0, 0.004270480604753751
395.0, 0.005248759118856468
396.0, 0.002841167314723441
397.0, 0.003687066733535921
398.0, 0.0041162556444507385
399.0, 0.004163404026307144
400.0, 0.004447434843513886
401.0, 0.0023908226204427266
402.0, 0.0012993935958620045
403.0, 0.003912670501057134
404.0, 0.0031622136230700713
405.0, 0.00015955165031107622
406.0, 0.000805040481146186
407.0, 0.001954573891188696
408.0, 0.0013257236805027477
409.0, 0.0009827906387161194
410.0, 0.0017954965511650894
411.0, 0.0003411271737381126
412.0, 0.0015015111343044641
413.0, 0.0011125388328029557
414.0, 0.0013270809269635172
415.0, 0.00035162413279124174
416.0, 0.0017998764975862337
417.0, 0.0016013387059922164
418.0, 0.0031187485414933135
419.0, 0.0023509200044740017
420.0, 0.004521950552628575
421.0, 0.00434015557924722
422.0, 0.003632100866783178
423.0, 0.0047659464803254115
424.0, 0.003684912683003416
425.0, 0.003464804493008854
426.0, 0.003083738289233641
427.0, 0.003202993838863336
428.0, 0.0042854657655063575
429.0, 0.0019894395180066467
430.0, 0.0030958266358470025
431.0, 0.007007295418800827
432.0, 0.007703503895508805
433.0, 0.003697026165919709
434.0, 0.0062647567040259216
435.0, 0.0067377596284141405
436.0, 0.009049382479893954
437.0, 0.012041319314843079
438.0, 0.014417067176550388
439.0, 0.017302023676135186
440.0, 0.021049200921076663
441.0, 0.021120620636937485
442.0, 0.023361019550066402
443.0, 0.028546866363923843
444.0, 0.033132378064659566
445.0, 0.03260979469938367
446.0, 0.036897433868365824
447.0, 0.03543344209167935
448.0, 0.03853184176305539
449.0, 0.04779592807033101
450.0, 0.05455032597504841
451.0, 0.06291035575064856
452.0, 0.06774439732845652
453.0, 0.06928488424059488
454.0, 0.06658595596743859
455.0, 0.05860214359598936
456.0, 0.04636948107840165
457.0, 0.04184472188034703
458.0, 0.038048712090060846
459.0, 0.03285761559047322
460.0, 0.03187358566637845
461.0, 0.038406432458312975
462.0, 0.04099237215267066
463.0, 0.04611113679740943
464.0, 0.05291622838788261
465.0, 0.06126915864437932
466.0, 0.07140875956045237
467.0, 0.08392821635440108
468.0, 0.09992810903469211
469.0, 0.11136438510067997
470.0, 0.11884013394813307
471.0, 0.11886392000182487
472.0, 0.10796734898021856
473.0, 0.08776324748426885
474.0, 0.07447211207938532
475.0, 0.05635209688156288
476.0, 0.04082264900952742
477.0, 0.03286959188830414
478.0, 0.029591294323030766
479.0, 0.025128303983654718
480.0, 0.020740373316858473
481.0, 0.017639410708436963
482.0, 0.016451896432735796
483.0, 0.017353352453516088
484.0, 0.01868167395247663
485.0, 0.01327870228508734
486.0, 0.012185931094412478
487.0, 0.012575181293021691
488.0, 0.011094919460105358
489.0, 0.008618233151497751
490.0, 0.007784812645205138
491.0, 0.005591154829635753
492.0, 0.0066733261923851315
493.0, 0.007146740899520812
494.0, 0.006448842618848154
495.0, 0.006570407233653113
496.0, 0.007411005928841906
497.0, 0.0009851971198600049
498.0, 0.0027268005616121168
499.0, 0.0037467266067604085
500.0, 0.0040486230966299205
501.0, 0.004538312331243277
502.0, 0.0025689904970379327
503.0, 0.0020702760347176257
504.0, 0.0027502572385357193
505.0, 0.0040704195274246895
506.0, 0.005214353340354867
507.0, 0.005122333791193345
508.0, 0.0034904812489308457
509.0, 0.002228584893216822
510.0, 0.0011866900051265635
511.0, 0.0015179241776777477
512.0, 0.0019396784980247577
513.0, 0.001240705651961402
514.0, 0.00035206946547227975
515.0, 0.0019424664099229614
516.0, 0.0023901601660002575
517.0, 0.004972894775593038
518.0, 0.004923403831631348
519.0, 0.0026646037901377007
520.0, 0.004205545423221801
521.0, 0.0007627003306301211
522.0, 0.00016556809026696697
523.0, 0.0002074024519987449
524.0, 0.0018206564302012738
525.0, 0.004178156731057954
526.0, 0.0036551031776814505
527.0, 0.0018909954496475463
528.0, 0.00033389279376733313
529.0, 0.00048514540775719994
530.0, 0.002587554783662245
531.0, 0.0015238300315480974
532.0, 0.0023729447177866254
533.0, 0.004638054207776528
534.0, 0.002346178472733949
535.0, 0.001688053781347391
536.0, 0.0017077086244138516
537.0, 0.005542812820725368
538.0, 0.002688862114338577
539.0, 0.0014809861781396863
540.0, 0.0012891840405083368
541.0, 0.004584324671436746
542.0, 0.003073501926024269
543.0, 0.0009634079461072607
544.0, 0.0026106012178701674
545.0, 0.0029049767772684784
546.0, 0.004300025129192808
547.0, 0.00434585098489767
548.0, 0.001147654520891079
549.0, 0.0008841187304275284
550.0, 0.003624441550424873
551.0, 0.0012242936935182875
552.0, 0.0005585520345599286
553.0, 0.0020943208348452244
554.0, 0.0030995669174806585
555.0, 0.002358093620146313
556.0, 0.0011104205311379923
557.0, 0.0015263155180896611
558.0, 0.0029898004045455116
559.0, 0.004056905116625948
560.0, 0.0029317042828179954
561.0, 0.0032294576916872164
562.0, 0.005498959149079753
563.0, 0.00526374235079469
564.0, 0.004031700099941064
565.0, 0.0055811907524215484
566.0, 0.0034209459348505
567.0, 0.002800314231468728
568.0, 0.004241824740759561
569.0, 0.003569967767461769
570.0, 0.002872865483474504
571.0, 0.0027648621518519896
572.0, 0.00453595448622504
573.0, 0.0038266047560313616
574.0, 0.0017137693070193073
575.0, 0.0025592438707724968
576.0, 0.0043055304312432175
577.0, 0.003930569353390288
578.0, 0.00209065678682271
579.0, 0.0025191927408679078
580.0, 0.0038775984733352697
581.0, 0.00389585998464404
582.0, 0.002916911680373773
583.0, 0.0032708685006572363
584.0, 0.0026369416184217342
585.0, 0.003659078585137376
586.0, 0.004153510100818954
587.0, 0.00213495628501743
588.0, 0.00016475947970294875
589.0, 0.00024789231538143645
590.0, 0.0001857341538910008
591.0, 0.0024214601438289213
592.0, 0.003032563546168582
593.0, 0.0007128170729019138
594.0, 0.0006044631144101976
595.0, 0.004735176817176421
596.0, 0.000713825175375404
597.0, 6.947687734090878e-05
598.0, 0.001186601718250197
599.0, 0.001197055567503859
600.0, 0.004919191785281044
601.0, 0.004929087771957443
602.0, 0.004443575202102083
603.0, 0.004128320385964703
604.0, 0.005981967342079778
605.0, 0.005436790778667247
606.0, 0.003465257827476146
607.0, 0.002727895292429886
608.0, 0.004177827658439659
609.0, 0.006778143661919961
610.0, 0.010170080649173041
611.0, 0.008203223573811442
612.0, 0.008993203703169672
613.0, 0.01403800021758788
614.0, 0.01735957407642759
615.0, 0.0162855063370334
616.0, 0.019721248895669643
617.0, 0.022571867216321446
618.0, 0.02540267944576523
619.0, 0.028387068585402655
620.0, 0.03175495857217201
621.0, 0.035367230917553866
622.0, 0.038190198486154285
623.0, 0.041620091184402616
624.0, 0.04413434779690614
625.0, 0.04227959501211781
626.0, 0.03442587089921668
627.0, 0.02772250376951623
628.0, 0.028689162818209542
629.0, 0.028358382926459185
630.0, 0.028926363438088045
631.0, 0.029469268547859296
632.0, 0.029039104599806548
633.0, 0.03439411726140584
634.0, 0.04456685422349533
635.0, 0.04834915670691647
636.0, 0.04527567215026454
637.0, 0.04214709735385898
638.0, 0.03959534172409279
639.0, 0.03990915387922278
640.0, 0.04559710524082095
641.0, 0.05327877512239723
642.0, 0.058934171128706886
643.0, 0.0716057147840353
644.0, 0.0765584695805144
645.0, 0.0720303879690574
646.0, 0.06238331449560441
647.0, 0.05480296246411908
648.0, 0.052886038737648765
649.0, 0.05350933886966567
650.0, 0.05643729936417375
651.0, 0.05238943773599432
652.0, 0.04245125250584274
653.0, 0.02886420247079497
654.0, 0.01827973720882798
655.0, 0.01369002385060365
656.0, 0.010529042617898034
657.0, 0.006481388763319686
658.0, 0.0038169395927631633
659.0, 0.0044571130709116415
660.0, 0.007295445404620807
661.0, 0.005741408436211556
662.0, 0.001657472562923128
663.0, 0.004277242182625361
664.0, 0.007009209964707041
665.0, 0.003851108576364987
666.0, 0.000861064025142848
667.0, 0.0031045126452554092
668.0, 0.005858622833767716
669.0, 0.0012458352362134328
670.0, 0.0010272287290784016
671.0, 0.0008004339591828771
672.0, 0.003067149067615781
673.0, 0.003737888598310786
674.0, 0.0038007486132489734
675.0, 0.0027906670496478437
676.0, 0.0010130756446679258
677.0, 0.0012198265983325023
678.0, 0.0027060679443766285
679.0, 0.004366323026419345
680.0, 0.0037147331933967864
681.0, 0.004596638402700172
682.0, 0.005255094169105362
683.0, 0.003949458502834247
684.0, 0.0018980181518497225
685.0, 0.0018548969426794369
686.0, 0.0007450830476177079
687.0, 0.0022075455015071713
688.0, 0.0002948282060371585
689.0, 0.0020264889549241236
690.0, 0.0009743511211139637
691.0, 0.004208211246179145
692.0, 0.0007872753965929367
693.0, 0.0011413924838274505
694.0, 0.003372025943189241
695.0, 0.0011478014803891164
696.0, 0.0032172215640533745
697.0, 0.005433631483087886
698.0, 0.003709156940416672
699.0, 0.0043524093406571915
700.0, 0.006047807142573538
701.0, 0.001091402457997807
702.0, 0.004648979767742537
703.0, 0.005240767906217857
704.0, 0.00434591766384384
705.0, 0.003867436378680222
706.0, 0.0014737626401106917
707.0, 0.0027386060420927965
708.0, 0.0038555426750248763
709.0, 0.00243869160726125
710.0, 0.0008760898670141413
711.0, 0.002354242672290841
712.0, 0.004206662012946982
713.0, 0.0044682282906167445
714.0, 0.005055656249315976
715.0, 0.0032623727532605134
716.0, 0.00010404247487846995
717.0, 0.0009297044150921782
718.0, 0.003741452256297497
719.0, 0.004907606158997501
720.0, 0.0032161544850391574
721.0, 0.0019489364089384797
722.0, 0.004066017519171322
723.0, 0.0021560922122727207
724.0, 0.0003092899902752618
725.0, 0.0027664728372617698
726.0, 0.0021362372309398675
727.0, 0.001421878122793622
728.0, 0.003297395278903434
729.0, 0.004028996007510552
730.0, 0.0052185332103210046
731.0, 0.007427533019788002
732.0, 0.00360802793736223
733.0, 0.0018240760814964964
734.0, 0.0036498529752977257
735.0, 0.0041045876871672795
736.0, 0.0030679687566280284
737.0, 0.004938281993472931
738.0, 0.004422013475758854
739.0, 0.0012454001214292413
740.0, 0.0023389558349610137
741.0, 0.004129867249268612
742.0, 0.001322820314942126
743.0, 0.0004884013653947889
744.0, 0.004863363043058697
745.0, 0.0017312217306670965
746.0, 0.00111514157204571
747.0, 0.0027445327024780888
748.0, 0.0007029161438651023
749.0, 0.0028799215019419764
750.0, 0.0036398957401438297
751.0, 0.0012770931248157905
752.0, 0.001631346767637149
753.0, 0.004642665141403302
754.0, 0.004763022016910115
755.0, 0.006051868273215801
756.0, 0.005015602375392454
757.0, 0.0037561545058033656
758.0, 0.003820464087081212
759.0, 0.0039496391086926525
760.0, 0.002767335449892576
761.0, 0.0018251188655613233
762.0, 0.004496378640729441
763.0, 0.004832940171221429
764.0, 0.0024997260149889813
765.0, 0.002664227244741374
766.0, 0.001468568984140406
767.0, 0.00022119351712006984
768.0, 0.001561663654532876
769.0, 0.001626574798122137
770.0, 0.0008397825028927744
771.0, 0.0011339606891810495
772.0, 0.00109637218691113
773.0, 0.002674445531638247
774.0, 0.0032084285160050895
775.0, 0.002520200514051908
776.0, 0.002080816176202184
777.0, 0.002024457947242214
778.0, 0.0021053028180095237
779.0, 0.0020690069512417134
780.0, 0.005895548914113102
781.0, 0.005490121112155975
782.0, 0.0020393628257883182
783.0, 0.0024580939551981755
784.0, 0.004499366203561192
785.0, 0.0026816657738261878
786.0, 0.0016918846443288358
787.0, 0.0027622907914138023
788.0, 0.003382557931549943
789.0, 0.0036764324934625784
790.0, 0.003159180089373082
791.0, 0.0023863149566615105
792.0, 0.0014119014726261302
793.0, 0.0012329306059844832
794.0, 0.00352013192333011
795.0, 0.005468766358429817
796.0, 0.005576067841659256
797.0, 0.002175958014806728
798.0, 0.001712633885411692
799.0, 0.00047973712271467663
800.0, 0.001504660594391303
801.0, 0.0026898459646230877
802.0, 7.187797794589077e-05
803.0, 0.0010025220104633082
804.0, 0.0009180840574636481
805.0, 0.0007220888251245038
806.0, 0.0008937854551643114
807.0, 0.0015926482681235601
808.0, 0.0024972676896520126
809.0, 0.002753149638534394
810.0, 0.001970082198539376
811.0, 0.002378519368659198
812.0, 0.0007501522830417667
813.0, 0.004418980572200689
814.0, 0.001479723217258974
815.0, 0.002391183995760371
816.0, 0.003076608100400104
817.0, 0.0013118610645355912
818.0, 0.0009731591132471249
819.0, 0.004082635292646435
820.0, 0.0034805647702736728
821.0, 0.0017817587506125379
822.0, 0.0026563664067121655
823.0, 0.0008130826714228145
824.0, 0.003911857150619438
825.0, 0.002637180439162216
826.0, 0.001569804374332126
827.0, 0.003614936356605973
828.0, 0.003578365865084708
829.0, 0.00313845366453676
830.0, 0.004660674615945447
831.0, 0.006630376245881611
832.0, 0.0028015993910650225
833.0, 0.0029565157483875874
834.0, 0.004874777076321389
835.0, 0.001696320683445766
836.0, 0.00027836538425868144
837.0, 0.0031591762914962252
838.0, 0.004279842174277673
839.0, 0.007388752003653047
840.0, 0.004303827931781001
841.0, 0.0008160253745250468
842.0, 0.0020070324258361022
843.0, 0.00445266080908143
844.0, 0.004607099109277376
845.0, 0.002740353502532343
846.0, 0.00372785591775237
847.0, 0.006735727601256528
848.0, 0.0027713652189999714
849.0, 0.0055874310288622185
850.0, 0.0038678287650810357
851.0, 0.0011962707301211512
852.0, 0.002019117553687104
853.0, 0.0023412152387986746
854.0, 0.0024485803117912674
855.0, 0.002566366727924648
856.0, 0.001637586429147053
857.0, 0.0027588621981122262
858.0, 0.0031804167485227886
859.0, 0.0013632037337001275
860.0, 0.003220675769800266
861.0, 0.001936185178411106
862.0, 0.002865983921115701
863.0, 0.004844972072236639
864.0, 0.0048319732310297394
865.0, 0.0042903704470818324
866.0, 0.004578682878364521
867.0, 0.003055424155391184
868.0, 0.0017538708606619283
869.0, 0.002311519268975669
870.0, 0.0038231621874649396
871.0, 0.005679596197149208
872.0, 0.004143219441209742
873.0, 0.0011734977796775906
874.0, 0.001432851026365809
875.0, 0.002434020783988403
876.0, 0.0003617674989739321
877.0, 0.0030225145372736
878.0, 0.00011165668238240247
879.0, 0.00011724568694502157
880.0, 0.00011890986112810918
881.0, 0.000832094284191949
882.0, 0.0008005656057022494
883.0, 0.000696473624021879
884.0, 0.0016756851202390775
885.0, 0.0029210380901913144
886.0, 0.0066940882979025975
887.0, 0.005592809907142309
888.0, 0.004651557673873624
889.0, 0.0039118476403434636
890.0, 0.00011535989403495256
891.0, 0.003638716545289551
892.0, 0.0032084410043782337
893.0, 0.0010056516618888883
894.0, 0.001485949901325277
895.0, 0.0011952155966171254
896.0, 0.0017790269529683897
897.0, 0.0021964407771118324
898.0, 0.002502453424407377
899.0, 0.0017927706874400586
900.0, 0.0021164290822282402
901.0, 0.0033940644970558184
902.0, 0.0028007086167912056
903.0, 0.0028494021051447345
904.0, 0.00435052654801645
905.0, 0.004326496779057303
906.0, 0.003972961536004217
907.0, 0.005116810566723038
908.0, 0.002902569332941441
909.0, 0.0013639755105896785
910.0, 0.0016565852020131264
911.0, 0.0037360044896234406
912.0, 0.004090179076646106
913.0, 0.0013686446522485278
914.0, 0.0022120542623229227
915.0, 0.003965452180352137
916.0, 0.0009978456035651343
917.0, 0.005227890855680238
918.0, 0.0025122070666108985
919.0, 0.003167011910431807
920.0, 0.005362153900269673
921.0, 0.0040159153973827345
922.0, 0.0016476996329131764
923.0, 0.0032064912015339867
924.0, 0.0023420308277453655
925.0, 0.00124495352700783
926.0, 0.0025119446025246564
927.0, 0.0006488182693762305
928.0, 0.0005172778324803262
929.0, 0.002047007140463187
930.0, 0.0023377645593017676
931.0, 0.0037668752760608337
932.0, 0.0020368492422317475
933.0, 0.0013367957935610047
934.0, 0.0013016928253124574
935.0, 0.0008845921937286451
936.0, 0.0007632379688530547
937.0, 0.0011598771177101085
938.0, 0.0010664180131085181
939.0, 0.00021538191153844472
940.0, 0.0021516113869698016
941.0, 0.001131120328555566
942.0, 0.0034834833791295367
943.0, 0.00042709215647417954
944.0, 0.002021943631548307
945.0, 0.0021946535440045445
946.0, 0.0013910167107656934
947.0, 0.0014159418861925746
948.0, 0.0028907837119009822
949.0, 0.002089817273663616
950.0, 0.0033603888766897414
951.0, 0.0003606814978863679
952.0, 0.00122312217422588
953.0, 0.0005550727499640647
954.0, 0.0029852931974889358
955.0, 0.0024671872946978
956.0, 0.0020479339308746916
957.0, 0.002361537276965707
958.0, 0.0023764961091000186
959.0, 0.001429162462002682
960.0, 0.00043002860804401417
961.0, 0.0010068712408407344
962.0, 0.0022576820043025683
963.0, 0.004522167967352727
964.0, 0.006198743165260382
965.0, 0.0021601851831193645
966.0, 0.0019588540693558183
967.0, 0.003101170917403243
968.0, 0.0011243941212443409
969.0, 0.004197004676165949
970.0, 0.008565769855058582
971.0, 0.007049289363243281
972.0, 0.006092059881102104
973.0, 0.008853132408552105
974.0, 0.0060479397534242835
975.0, 0.0061707135499386515
976.0, 0.004245516193416106
977.0, 0.008791388335677717
978.0, 0.010917747574615522
979.0, 0.012758446967496022
980.0, 0.014742155068600856
981.0, 0.014695276956295591
982.0, 0.01710974234849938
983.0, 0.021330336726610753
984.0, 0.02357486689522329
985.0, 0.027946341103901078
986.0, 0.03002752568466946
987.0, 0.03442445773689348
988.0, 0.04066411357924216
989.0, 0.054128538461660866
990.0, 0.0720341855838632
991.0, 0.0964991182234006
992.0, 0.126912105205252
993.0, 0.16498077929207172
994.0, 0.20748021145989196
995.0, 0.25611724711321565
996.0, 0.3231795079887085
997.0, 0.4176603777816652
998.0, 0.54818005980945
999.0, 0.7253768843722457
1000.0, 0.9075521379565276
1001.0, 0.9978410303519115
1002.0, 0.912650748921609
1003.0, 0.6958188242990482
1004.0, 0.4741174138967694
1005.0, 0.30591239070545645
1006.0, 0.19469840510150802
1007.0, 0.1281702106091715
1008.0, 0.09016286278573887
1009.0, 0.06794137087472814
1010.0, 0.05341526922420962
1011.0, 0.04188928925869648
1012.0, 0.0335715820702199
1013.0, 0.027506589720444407
1014.0, 0.023788984516509393
1015.0, 0.02233330964149149
1016.0, 0.01975026811226528
1017.0, 0.017114802248696465
1018.0, 0.017235122785039362
1019.0, 0.01691175624314129
1020.0, 0.01388858749236439
1021.0, 0.012422133438407947
1022.0, 0.011840975360055385
1023.0, 0.008229968139303458
1024.0, 0.008014227767818046
1025.0, 0.011305344549901937
1026.0, 0.005201707877015742
1027.0, 0.007481790199568321
1028.0, 0.009478150197698727
1029.0, 0.00729617394493244
1030.0, 0.005329359343286366
1031.0, 0.004358379308684947
1032.0, 0.006278531452777073
1033.0, 0.0077100951992088735
1034.0, 0.006011945902357129
1035.0, 0.005642007208196437
1036.0, 0.006209383842331464
1037.0, 0.0029688705611608957
1038.0, 0.0026645591577933343
1039.0, 0.0022800030916235356
1040.0, 0.004351815688812827
1041.0, 0.005880008199839874
1042.0, 0.002989696913641809
1043.0, 0.0039833067666423
1044.0, 0.005227271399784859
1045.0, 0.005277809563321231
1046.0, 0.003647531651949192
1047.0, 0.0026675565775770714
1048.0, 0.003529730860698589
1049.0, 0.005100352599049667
1050.0, 0.005362928593963712
1051.0, 0.0032320019718064287
1052.0, 0.0011210282379141953
1053.0, 0.00023214021249059715
1054.0, 0.0012227094400222493
1055.0, 0.0010440263695122003
1056.0, 0.004294204506087159
1057.0, 0.003599338131412148
1058.0, 0.004250257492055791
1059.0, 0.003514054406629823
1060.0, 0.0029480204117935567
1061.0, 0.0017015604283153946
1062.0, 0.0006688542179694672
1063.0, 0.0016629616301969106
1064.0, 0.0020651298508679973
1065.0, 0.002207016598946329
1066.0, 0.0030384776330197073
1067.0, 0.00041318420599627996
1068.0, 0.0018391044770438118
1069.0, 0.0037410169912097994
1070.0, 0.001965684237054856
1071.0, 0.0003318583544518118
1072.0, 0.00033115525600605617
1073.0, 0.0010052524334856205
1074.0, 0.0006757317814853297
1075.0, 0.0007382321083324121
1076.0, 0.004342443939350947
1077.0, 0.00105874375511633
1078.0, 0.0016516428847557945
1079.0, 0.0028940704351242044
1080.0, 0.0007718711711253919
1081.0, 0.0007246509457948757
1082.0, 0.0009671051429134513
1083.0, 0.00027880778719459765
1084.0, 0.0008181984818702156
1085.0, 0.0029283209896119556
1086.0, 0.0033503691427816504
1087.0, 0.0007000769570860732
1088.0, 0.0008155511317189993
1089.0, 0.0011766994190876947
1090.0, 0.0002700155114381097
1091.0, 0.0015483734712433588
1092.0, 0.000657758158877362
1093.0, 0.0008615941039521633
1094.0, 0.00014104178725901417
1095.0, 0.0009690923427196126
1096.0, 0.0010095762472647288
1097.0, 0.0031811011956579954
1098.0, 0.0031062858820096262
1099.0, 0.003728342701216675
1100.0, 0.005574049656217621
1101.0, 0.00791107173646971
1102.0, 0.010217277642621193
1103.0, 0.011402470762286456
1104.0, 0.010023256270607003
1105.0, 0.011248586767840789
1106.0, 0.008200604429128152
1107.0, 0.007285053892795035
1108.0, 0.004528459964374538
1109.0, 0.004773402095173967
1110.0, 0.004812172658832028
1111.0, 0.004335681202391366
1112.0, 0.0016671916475714237
1113.0, 0.0011776576141069245
1114.0, 0.00043165049915303163
1115.0, 0.00038746413134568906
1116.0, 0.00025828039614389454
1117.0, 0.0011905566585424117
1118.0, 0.005698983857935079
1119.0, 0.004205360520324047
1120.0, 0.003764399563443443
1121.0, 0.0014216670945870927
1122.0, 0.002042994811628186
1123.0, 0.002243923256578564
1124.0, 0.00026451897187714315
1125.0, 0.0026568236141313556
1126.0, 0.007551980136786873
1127.0, 0.009799905880203543
1128.0, 0.009505543597773985
1129.0, 0.010777530692658684
1130.0, 0.014113125256439978
1131.0, 0.014318485844319016
1132.0, 0.019447620111453293
1133.0, 0.02932413548577957
1134.0, 0.03494057805636094
1135.0, 0.042569800561225175
1136.0, 0.05332471940856707
1137.0, 0.06587415562508149
1138.0, 0.07459890375977506
1139.0, 0.08034266505866827
1140.0, 0.07561571772694675
1141.0, 0.05864005154944004
1142.0, 0.04413695909335959
1143.0, 0.03609302972013249
1144.0, 0.030309518427114886
1145.0, 0.026038553605773167
1146.0, 0.021626335505841
1147.0, 0.02110162329314852
1148.0, 0.022241617090352515
1149.0, 0.028088489528260593
1150.0, 0.030636311795860013
1151.0, 0.03110339280005874
1152.0, 0.03649082455341462
1153.0, 0.042565965708337254
1154.0, 0.0623390779050676
1155.0, 0.08707767377450132
1156.0, 0.0715782954785277
1157.0, 0.04457118222320159
1158.0, 0.03855677626437631
1159.0, 0.0334015277772077
1160.0, 0.02736495269267882
1161.0, 0.026255770698706077
1162.0, 0.02658205640113952
1163.0, 0.02586935583632287
1164.0, 0.029858269476640612
1165.0, 0.03247064310819478
1166.0, 0.035285005409228826
1167.0, 0.03882480652250149
1168.0, 0.04189320469845105
1169.0, 0.04208245336307335
1170.0, 0.039289770226455654
1171.0, 0.033456877705410525
1172.0, 0.028551795686013855
1173.0, 0.023528153906177712
1174.0, 0.020887786500715204
1175.0, 0.019640313477166348
1176.0, 0.016518114818480797
1177.0, 0.015102467564427048
1178.0, 0.014373885067571953
1179.0, 0.01433481736689382
1180.0, 0.014665457328911027
1181.0, 0.013075707393088925
1182.0, 0.015013994140057734
1183.0, 0.017651320040156144
1184.0, 0.01905411966581557
1185.0, 0.01913968052629754
1186.0, 0.01851069500276572
1187.0, 0.01895826447695172
1188.0, 0.02041037585518561
1189.0, 0.021235368268189943
1190.0, 0.018482421449865782
1191.0, 0.01755909233291169
1192.0, 0.02078568509927713
1193.0, 0.019426453706668213
1194.0, 0.01770884709707
1195.0, 0.01850550623324072
1196.0, 0.01579060821384534
1197.0, 0.017183479042766927
1198.0, 0.016862797076603715
1199.0, 0.015362988553827329
1200.0, 0.017967522646114148
1201.0, 0.015269286504655305
1202.0, 0.010279518761528944
1203.0, 0.010356852408347685
1204.0, 0.01026504874235139
1205.0, 0.009543371234190969
1206.0, 0.005906323309906879
1207.0, 0.007431134603678318
1208.0, 0.008403006365347087
1209.0, 0.005820828835809664
1210.0, 0.0030668175091456747
1211.0, 0.0045025872512576585
1212.0, 0.0005838815837657069
1213.0, 0.0051095771914651785
1214.0, 0.003163036463746781
1215.0, 0.0022567083644656717
1216.0, 0.0017308872272797698
1217.0, 0.0022098989545189436
1218.0, 0.003864366483057836
1219.0, 0.0003965054867454062
1220.0, 0.0017348194888248795
1221, 0.0
1222, 0.0
1223, 0.0
1224, 0.0
1225, 0.0
1226, 0.0
1227, 0.0
1228, 0.0
1229, 0.0
1230, 0.0
1231, 0.0
1232, 0.0
1233, 0.0
1234, 0.0
1235, 0.0
1236, 0.0
1237, 0.0
1238, 0.0
1239, 0.0
1240, 0.0
1241, 0.0
1242, 0.0
1243, 0.0
1244, 0.0
1245, 0.0
1246, 0.0
1247, 0.0
1248, 0.0
1249, 0.0
1250, 0.0
1251, 0.0
1252, 0.0
1253, 0.0
1254, 0.0
1255, 0.0
1256, 0.0
1257, 0.0
1258, 0.0
1259, 0.0
1260, 0.0
1261, 0.0
1262, 0.0
1263, 0.0
1264, 0.0
1265, 0.0
1266, 0.0
1267, 0.0
1268, 0.0
1269, 0.0
1270, 0.0
1271, 0.0
1272, 0.0
1273, 0.0
1274, 0.0
1275, 0.0
1276, 0.0
1277, 0.0
1278, 0.0
1279, 0.0
1280, 0.0
1281, 0.0
1282, 0.0
1283, 0.0
1284, 0.0
1285, 0.0
1286, 0.0
1287, 0.0
1288, 0.0
1289, 0.0
1290, 0.0
1291, 0.0
1292, 0.0
1293, 0.0
1294, 0.0
1295, 0.0
1296, 0.0
1297, 0.0
1298, 0.0
1299, 0.0
1300, 0.0
1301, 0.0
1302, 0.0
1303, 0.0
1304, 0.0
1305, 0.0
1306, 0.0
1307, 0.0
1308, 0.0
1309, 0.0
1310, 0.0
1311, 0.0
1312, 0.0
1313, 0.0
1314, 0.0
1315, 0.0
1316, 0.0
1317, 0.0
1318, 0.0
1319, 0.0
1320, 0.0
1321, 0.0
1322, 0.0
1323, 0.0
1324, 0.0
1325, 0.0
1326, 0.0
1327, 0.0
1328, 0.0
1329, 0.0
1330, 0.0
1331, 0.0
1332, 0.0
1333, 0.0
1334, 0.0
1335, 0.0
1336, 0.0
1337, 0.0
1338, 0.0
1339, 0.0
1340, 0.0
1341, 0.0
1342, 0.0
1343, 0.0
1344, 0.0
1345, 0.0
1346, 0.0
1347, 0.0
1348, 0.0
1349, 0.0
1350, 0.0
1351, 0.0
1352, 0.0
1353, 0.0
1354, 0.0
1355, 0.0
1356, 0.0
1357, 0.0
1358, 0.0
1359, 0.0
1360, 0.0
1361, 0.0
1362, 0.0
1363, 0.0
1364, 0.0
1365, 0.0
1366, 0.0
1367, 0.0
1368, 0.0
1369, 0.0
1370, 0.0
1371, 0.0
1372, 0.0
1373, 0.0
1374, 0.0
1375, 0.0
1376, 0.0
1377, 0.0
1378, 0.0
1379, 0.0
1380, 0.0
1381, 0.0
1382, 0.0
1383, 0.0
1384, 0.0
1385, 0.0
1386, 0.0
1387, 0.0
1388, 0.0
1389, 0.0
1390, 0.0
1391, 0.0
1392, 0.0
1393, 0.0
1394, 0.0
1395, 0.0
1396, 0.0
1397, 0.0
1398, 0.0
1399, 0.0
1400, 0.0
1401, 0.0
1402, 0.0
1403, 0.0
1404, 0.0
1405, 0.0
1406, 0.0
1407, 0.0
1408, 0.0
1409, 0.0
1410, 0.0
1411, 0.0
1412, 0.0
1413, 0.0
1414, 0.0
1415, 0.0
1416, 0.0
1417, 0.0
1418, 0.0
1419, 0.0
1420, 0.0
1421, 0.0
1422, 0.0
1423, 0.0
1424, 0.0
1425, 0.0
1426, 0.0
1427, 0.0
1428, 0.0
1429, 0.0
1430, 0.0
1431, 0.0
1432, 0.0
1433, 0.0
1434, 0.0
1435, 0.0
1436, 0.0
1437, 0.0
1438, 0.0
1439, 0.0
1440, 0.0
1441, 0.0
1442, 0.0
1443, 0.0
1444, 0.0
1445, 0.0
1446, 0.0
1447, 0.0
1448, 0.0
1449, 0.0
1450, 0.0
1451, 0.0
1452, 0.0
1453, 0.0
1454, 0.0
1455, 0.0
1456, 0.0
1457, 0.0
1458, 0.0
1459, 0.0
1460, 0.0
1461, 0.0
1462, 0.0
1463, 0.0
1464, 0.0
1465, 0.0
1466, 0.0
1467, 0.0
1468, 0.0
1469, 0.0
1470, 0.0
1471, 0.0
1472, 0.0
1473, 0.0
1474, 0.0
1475, 0.0
1476, 0.0
1477, 0.0
1478, 0.0
1479, 0.0
1480, 0.0
1481, 0.0
1482, 0.0
1483, 0.0
1484, 0.0
1485, 0.0
1486, 0.0
1487, 0.0
1488, 0.0
1489, 0.0
1490, 0.0
1491, 0.0
1492, 0.0
1493, 0.0
1494, 0.0
1495, 0.0
1496, 0.0
1497, 0.0
1498, 0.0
1499, 0.0
1500, 0.0
1501, 0.0
1502, 0.0
1503, 0.0
1504, 0.0
1505, 0.0
1506, 0.0
1507, 0.0
1508, 0.0
1509, 0.0
1510, 0.0
1511, 0.0
1512, 0.0
1513, 0.0
1514, 0.0
1515, 0.0
1516, 0.0
1517, 0.0
1518, 0.0
1519, 0.0
1520, 0.0
1521, 0.0
1522, 0.0
1523, 0.0
1524, 0.0
1525, 0.0
1526, 0.0
1527, 0.0
1528, 0.0
1529, 0.0
1530, 0.0
1531, 0.0
1532, 0.0
1533, 0.0
1534, 0.0
1535, 0.0
1536, 0.0
1537, 0.0
1538, 0.0
1539, 0.0
1540, 0.0
1541, 0.0
1542, 0.0
1543, 0.0
1544, 0.0
1545, 0.0
1546, 0.0
1547, 0.0
1548, 0.0
1549, 0.0
1550, 0.0
1551, 0.0
1552, 0.0
1553, 0.0
1554, 0.0
1555, 0.0
1556, 0.0
1557, 0.0
1558, 0.0
1559, 0.0
1560, 0.0
1561, 0.0
1562, 0.0
1563, 0.0
1564, 0.0
1565, 0.0
1566, 0.0
1567, 0.0
1568, 0.0
1569, 0.0
1570, 0.0
1571, 0.0
1572, 0.0
1573, 0.0
1574, 0.0
1575, 0.0
1576, 0.0
1577, 0.0
1578, 0.0
1579, 0.0
1580, 0.0
1581, 0.0
1582, 0.0
1583, 0.0
1584, 0.0
1585, 0.0
1586, 0.0
1587, 0.0
1588, 0.0
1589, 0.0
1590, 0.0
1591, 0.0
1592, 0.0
1593, 0.0
1594, 0.0
1595, 0.0
1596, 0.0
1597, 0.0
1598, 0.0
1599, 0.0
