30, 0.0
31, 0.0
32, 0.0
33, 0.0
34, 0.0
35, 0.0
36, 0.0
37, 0.0
38, 0.0
39, 0.0
40, 0.0
41, 0.0
42, 0.0
43, 0.0
44, 0.0
45, 0.0
46, 0.0
47, 0.0
48, 0.0
49, 0.0
50, 0.0
51, 0.0
52, 0.0
53, 0.0
54, 0.0
55, 0.0
56, 0.0
57, 0.0
58, 0.0
59, 0.0
60, 0.0
61, 0.0
62, 0.0
63, 0.0
64, 0.0
65, 0.0
66, 0.0
67, 0.0
68, 0.0
69, 0.0
70, 0.0
71, 0.0
72, 0.0
73, 0.0
74, 0.0
75, 0.0
76, 0.0
77, 0.0
78, 0.0
79, 0.0
80, 0.0
81, 0.0
82, 0.0
83, 0.0
84, 0.0
85, 0.0
86, 0.0
87, 0.0
88, 0.0
89, 0.0
90, 0.0
91, 0.0
92, 0.0
93, 0.0
94, 0.0
95, 0.0
96, 0.0
97, 0.0
98, 0.0
99, 0.0
100, 0.0
101, 0.0
102, 0.0
103, 0.0
104, 0.0
105, 0.0
106, 0.0
107, 0.0
108, 0.0
109, 0.0
110, 0.0
111, 0.0
112, 0.0
113, 0.0
114, 0.0
115, 0.0
116, 0.0
117, 0.0
118, 0.0
119, 0.0
120, 0.0
121, 0.0
122, 0.0
123, 0.0
124, 0.0
125.0, 0.0009512903571670423
126.0, 0.001493262294362286
127.0, 0.006330373503716641
128.0, 0.01641265925281621
129.0, 0.03202549992089593
130.0, 0.052917717422661416
131.0, 0.0774250609085537
132.0, 0.10515706794760163
133.0, 0.13663885166322173
134.0, 0.16876569863792876
135.0, 0.20178726744136755
136.0, 0.23568924955490383
137.0, 0.2704213837703783
138.0, 0.307060787430787
139.0, 0.34672479596387723
140.0, 0.38244939861859906
141.0, 0.3982367022584738
142.0, 0.37822317101647807
143.0, 0.30799539210626403
144.0, 0.21770202991709123
145.0, 0.13941765676499018
146.0, 0.08694824278316256
147.0, 0.05402313608362165
148.0, 0.03244411742760329
149.0, 0.01783687406870081
150.0, 0.00981195626725837
151.0, 0.007774000197372279
152.0, 0.004941299503963425
153.0, 0.003463502405079714
154.0, 0.0026522559111612745
155.0, 0.0023804369911864832
156.0, 0.0027900594227194247
157.0, 0.003720481742583265
158.0, 0.005332321950858626
159.0, 0.007132494600664329
160.0, 0.010226571450227899
161.0, 0.015202531799464153
162.0, 0.022021805289206643
163.0, 0.02940045045457334
164.0, 0.04001575343904244
165.0, 0.053115317778938465
166.0, 0.06836120166209843
167.0, 0.0860419476139448
168.0, 0.10527728146310163
169.0, 0.12773295192877562
170.0, 0.1522224685090145
171.0, 0.17657373201216822
172.0, 0.20082611545798734
173.0, 0.22416348851176465
174.0, 0.24807602551026833
175.0, 0.2725450456642457
176.0, 0.2924204191682608
177.0, 0.30777076976226125
178.0, 0.31443186335472045
179.0, 0.31030501172859315
180.0, 0.29684227757239495
181.0, 0.28169127089685353
182.0, 0.269875361339458
183.0, 0.2648116450000024
184.0, 0.2684146071995844
185.0, 0.2781351798195714
186.0, 0.29332132319515447
187.0, 0.312370323909462
188.0, 0.332777989854653
189.0, 0.350523580158551
190.0, 0.3591202186220937
191.0, 0.3533709835809454
192.0, 0.3329994953451198
193.0, 0.3042363078329977
194.0, 0.273268132649808
195.0, 0.2451912584012625
196.0, 0.22292384024425896
197.0, 0.20699836831146848
198.0, 0.19516199123959485
199.0, 0.18455254351225672
200.0, 0.17406565289246023
201.0, 0.1627214476725404
202.0, 0.14756300306390827
203.0, 0.13025391950795534
204.0, 0.11319474842493667
205.0, 0.09861030919172023
206.0, 0.0888713655754168
207.0, 0.08078841151671227
208.0, 0.07590425755025411
209.0, 0.07335768056613572
210.0, 0.06968255689307683
211.0, 0.06284897508585094
212.0, 0.05364964266581333
213.0, 0.04327755896007878
214.0, 0.03300645241970435
215.0, 0.02324512970512594
216.0, 0.01640743210340227
217.0, 0.012290839259784664
218.0, 0.010498375718365002
219.0, 0.011235567632234031
220.0, 0.013282296127712848
221.0, 0.017347272910746392
222.0, 0.02340677696969892
223.0, 0.030866293173391065
224.0, 0.038970133103246235
225.0, 0.049240191828832304
226.0, 0.05972895261031737
227.0, 0.06916858288159669
228.0, 0.07860426916903662
229.0, 0.08931737291314984
230.0, 0.09779584189486931
231.0, 0.10289544388064302
232.0, 0.10530797563692677
233.0, 0.10291761885029171
234.0, 0.09544844290125754
235.0, 0.08407545197367398
236.0, 0.07044681050014032
237.0, 0.056284022605211634
238.0, 0.042585162473025004
239.0, 0.031000936814775122
240.0, 0.02159831555787597
241.0, 0.013415344531266377
242.0, 0.007264819625315128
243.0, 0.0038542169837919083
244.0, 0.0028614901207967298
245.0, 0.0017320822495159672
246.0, 0.0012119777915153773
247.0, 0.0011050680337134052
248.0, 0.0018162233478965224
249.0, 0.002554456562575114
250.0, 0.0043806233151982565
251.0, 0.008295633266151526
252.0, 0.012220780134413375
253.0, 0.016418120670800795
254.0, 0.021348961809266008
255.0, 0.026167169582216977
256.0, 0.030999844155574132
257.0, 0.035496372151404
258.0, 0.03860729918038694
259.0, 0.03871835126006286
260.0, 0.03527356592332955
261.0, 0.028056369047818802
262.0, 0.018987259886601812
263.0, 0.01045542748136114
264.0, 0.004174829830381768
265.0, 0.0030182312061172085
266.0, 0.0016367939304966854
267.0, 0.0010973836352463624
268.0, 0.0011234175080913212
269.0, 0.002026147286981737
270.0, 0.003230630117012993
271.0, 0.005226857136245552
272.0, 0.00990873428665099
273.0, 0.01428131968065151
274.0, 0.020560869090572025
275.0, 0.02687469050638925
276.0, 0.03244531271481703
277.0, 0.038229348330048034
278.0, 0.04332728885890156
279.0, 0.04586371361994796
280.0, 0.04525698552706697
281.0, 0.04162709856016143
282.0, 0.03535174933469436
283.0, 0.02966595834944369
284.0, 0.023559528153546953
285.0, 0.01764442928307604
286.0, 0.014038884887119431
287.0, 0.013213035703897879
288.0, 0.014388722485645279
289.0, 0.016426353602327536
290.0, 0.018802786036597963
291.0, 0.02215540596999419
292.0, 0.028010208247748823
293.0, 0.035832223404540585
294.0, 0.0441810081896213
295.0, 0.052811513363220326
296.0, 0.06481728085986403
297.0, 0.08023962571728065
298.0, 0.09931998123769493
299.0, 0.12196307917438619
300.0, 0.1477718610557161
301.0, 0.17781704222663794
302.0, 0.21330005733302645
303.0, 0.25271101614558616
304.0, 0.29373369373955516
305.0, 0.3365683441448138
306.0, 0.38122460610586517
307.0, 0.4286465077252736
308.0, 0.47580541298500983
309.0, 0.5187402311257963
310.0, 0.5624491113328787
311.0, 0.5971998702752866
312.0, 0.6184077480792373
313.0, 0.62403550618908
314.0, 0.6121815953612809
315.0, 0.591403949861964
316.0, 0.5658577210950333
317.0, 0.5386129127106248
318.0, 0.5117996073895318
319.0, 0.48615911889615826
320.0, 0.4589209635382295
321.0, 0.4329249915496852
322.0, 0.40640768375484165
323.0, 0.37523109430478935
324.0, 0.34445808449552867
325.0, 0.3156286136019764
326.0, 0.28857391133173144
327.0, 0.26414793324268293
328.0, 0.24555033549296135
329.0, 0.2300248510885333
330.0, 0.22091046808520723
331.0, 0.219138529622264
332.0, 0.2239913281574468
333.0, 0.2343879380981708
334.0, 0.24992601901986833
335.0, 0.26907497179021284
336.0, 0.2906247817355968
337.0, 0.31419569434881867
338.0, 0.3402790001547343
339.0, 0.3663244813477041
340.0, 0.3906100269009909
341.0, 0.41281101126454967
342.0, 0.43180612531509815
343.0, 0.43895888747728773
344.0, 0.4309300563330195
345.0, 0.40532231915624056
346.0, 0.36338572023500254
347.0, 0.3110106026251318
348.0, 0.2561623360568906
349.0, 0.20501549650188694
350.0, 0.16044093809410423
351.0, 0.12304295097961995
352.0, 0.09325998153245402
353.0, 0.07094129739946976
354.0, 0.05255314295020875
355.0, 0.03699069237311258
356.0, 0.024962931311991003
357.0, 0.01640451768536296
358.0, 0.013362776638525684
359.0, 0.00992823515863255
360.0, 0.007266007168713488
361.0, 0.005053717904709767
362.0, 0.0035146878086847353
363.0, 0.0022221602217595187
364.0, 0.0014967278614935083
365.0, 0.0009512826110730318
366.0, 0.0006358068428531005
367.0, 0.0014305828895532409
368.0, 0.002313068068688523
369.0, 0.003214153976386811
370.0, 0.0051177940849396865
371.0, 0.007272312131403741
372.0, 0.009647737560493946
373.0, 0.012798578202289468
374.0, 0.016195714647278783
375.0, 0.023698505858865456
376.0, 0.03176966234678919
377.0, 0.039741774490950676
378.0, 0.050036999203518874
379.0, 0.06186550537782541
380.0, 0.07330654395853256
381.0, 0.08876902031013328
382.0, 0.10310982020780428
383.0, 0.12123114676592682
384.0, 0.14376583623202518
385.0, 0.16648109587349866
386.0, 0.1928460468362777
387.0, 0.22058576777096447
388.0, 0.2507698955276738
389.0, 0.2831664712105641
390.0, 0.31628615027231644
391.0, 0.3556711120004338
392.0, 0.39356285315053124
393.0, 0.43076415591695816
394.0, 0.4694383320838328
395.0, 0.5099537208314799
396.0, 0.5484952731914903
397.0, 0.588141258971705
398.0, 0.6262094651714692
399.0, 0.6601174512547846
400.0, 0.6907408348196192
401.0, 0.719214812316478
402.0, 0.7427503725706063
403.0, 0.761284493172878
404.0, 0.7762328198793876
405.0, 0.7888759152295979
406.0, 0.8033631223897922
407.0, 0.8147878316933135
408.0, 0.8214042213396727
409.0, 0.8230989107459977
410.0, 0.8186511358940253
411.0, 0.8040814942628962
412.0, 0.775968190302016
413.0, 0.7335924743434536
414.0, 0.6784803469354236
415.0, 0.6136243760564055
416.0, 0.5401316725026293
417.0, 0.4688804262198445
418.0, 0.40344191038913996
419.0, 0.344240467961782
420.0, 0.2942217352210559
421.0, 0.2516820557046064
422.0, 0.21570754295038286
423.0, 0.18548740721983353
424.0, 0.1608399502349972
425.0, 0.1416433761769034
426.0, 0.1258554914747229
427.0, 0.11448530854818197
428.0, 0.10662693521042954
429.0, 0.10095772893838349
430.0, 0.09897957782593816
431.0, 0.09822570356314805
432.0, 0.09968279985111637
433.0, 0.10370377736487028
434.0, 0.10960346025912283
435.0, 0.11630946229842096
436.0, 0.1251744374269443
437.0, 0.1347761118221177
438.0, 0.14491105399299042
439.0, 0.15666097762383321
440.0, 0.17038705125186185
441.0, 0.18200005476152498
442.0, 0.1931408305988354
443.0, 0.20388363846132265
444.0, 0.2129199693369615
445.0, 0.21954227429522977
446.0, 0.22158398289712675
447.0, 0.2212859459660481
448.0, 0.21830522709796177
449.0, 0.2121229878401147
450.0, 0.2044963853079711
451.0, 0.19412689801244992
452.0, 0.18327924282054098
453.0, 0.1714583669589504
454.0, 0.15943071488969493
455.0, 0.15104239490769658
456.0, 0.14154936615009675
457.0, 0.13341175489367088
458.0, 0.12883667491784134
459.0, 0.1275968644398821
460.0, 0.1272244374020661
461.0, 0.12678735012600306
462.0, 0.12945675696729692
463.0, 0.13366859378137005
464.0, 0.13802527046891785
465.0, 0.14347674008461941
466.0, 0.15019453815662462
467.0, 0.15659719982250325
468.0, 0.1623254581676563
469.0, 0.16732139977921157
470.0, 0.1710450155643209
471.0, 0.1726913518909755
472.0, 0.16961005985112493
473.0, 0.1638664636335641
474.0, 0.1554372271957035
475.0, 0.1433345452677184
476.0, 0.1323980163915986
477.0, 0.120577110869508
478.0, 0.10759003107579752
479.0, 0.09561875269925543
480.0, 0.08614521798004374
481.0, 0.07733689805351796
482.0, 0.06872661540215609
483.0, 0.06163626071869431
484.0, 0.05511930808024266
485.0, 0.04868331170308493
486.0, 0.04571898229584386
487.0, 0.0400745082821313
488.0, 0.03474179695784139
489.0, 0.03107207046046234
490.0, 0.028532534257150608
491.0, 0.025075678803034174
492.0, 0.02210337705927162
493.0, 0.01944262888309609
494.0, 0.017556715174471514
495.0, 0.01603853854289126
496.0, 0.01382355594848987
497.0, 0.011321576896805916
498.0, 0.009426905336748614
499.0, 0.008566262531903316
500.0, 0.007941606049466265
501.0, 0.006535585530948174
502.0, 0.005376668232255013
503.0, 0.004464849037345785
504.0, 0.0037939076289886567
505.0, 0.003447771356573225
506.0, 0.00322252754550566
507.0, 0.002402285311610164
508.0, 0.0019860608784501104
509.0, 0.0017192657377961941
510.0, 0.0011179309596525675
511.0, 0.0012838612317241252
512.0, 0.0010672895868497467
513.0, 0.001424247253802685
514.0, 0.0015086541914514535
515.0, 0.0011366140952663419
516.0, 0.0010207651591714578
517.0, 0.001568548875990787
518.0, 0.0016664764506288902
519.0, 0.001138468539953532
520.0, 0.0011688328397801422
521.0, 0.0014345051045626818
522.0, 0.0021092149645724214
523.0, 0.002631634144351461
524.0, 0.0028836816606099655
525.0, 0.0021120473046049104
526.0, 0.0018454549452520798
527.0, 0.002684362230794498
528.0, 0.0027559287025912685
529.0, 0.0035365564351366265
530.0, 0.003663362337246191
531.0, 0.0034480378126027435
532.0, 0.0036627452573813686
533.0, 0.004477204264381807
534.0, 0.004989053480080436
535.0, 0.004806458291140336
536.0, 0.005482265302170616
537.0, 0.00590081992323703
538.0, 0.005208745927340897
539.0, 0.005555953088728676
540.0, 0.004617969710638375
541.0, 0.00457514532348911
542.0, 0.004571975662881168
543.0, 0.004211975659469835
544.0, 0.004428007276231114
545.0, 0.004068846978134268
546.0, 0.0038810850152520104
547.0, 0.003760281756200491
548.0, 0.003693340230661759
549.0, 0.0037054519112353864
550.0, 0.0034263574772070643
551.0, 0.003283038241929659
552.0, 0.0027213997861593223
553.0, 0.0021393088096005996
554.0, 0.0018737202977797466
555.0, 0.0015865638380061504
556.0, 0.00103118207562443
557.0, 0.0010202488643430232
558.0, 0.0012882345611621025
559.0, 0.002633506852398873
560.0, 0.0038225730548492745
561.0, 0.004162465132678498
562.0, 0.0045176701926289645
563.0, 0.004866494780438945
564.0, 0.006319537585517109
565.0, 0.008247691171135057
566.0, 0.008284942635582689
567.0, 0.008345280316121808
568.0, 0.00882791985312138
569.0, 0.0100250751349902
570.0, 0.011808721170906913
571.0, 0.013043831295925332
572.0, 0.012760143566635077
573.0, 0.014707853562390965
574.0, 0.016154216584322156
575.0, 0.017674056255857083
576.0, 0.019433550559360926
577.0, 0.020079603381997557
578.0, 0.02231462365599785
579.0, 0.024196931535567116
580.0, 0.0265206527649836
581.0, 0.029647538699077245
582.0, 0.03307578877420376
583.0, 0.03616375793291676
584.0, 0.04025070390406261
585.0, 0.04405570002478857
586.0, 0.04901607656664221
587.0, 0.05480989918365227
588.0, 0.06023253350970578
589.0, 0.06754897023104442
590.0, 0.07583438109313831
591.0, 0.08566347456984275
592.0, 0.09651847496894807
593.0, 0.10889800494155422
594.0, 0.12451630067861645
595.0, 0.13992903780579719
596.0, 0.15888912309155875
597.0, 0.18196287626763832
598.0, 0.20677969500625445
599.0, 0.23174343646155854
600.0, 0.26066770026600133
601.0, 0.292779513846003
602.0, 0.3283406128206218
603.0, 0.36561533671107677
604.0, 0.4052283755625187
605.0, 0.4486817950951882
606.0, 0.4914128734958306
607.0, 0.5365809549661746
608.0, 0.5779057457914717
609.0, 0.6145289157066756
610.0, 0.6436920776824486
611.0, 0.6585447983216158
612.0, 0.6555465932332448
613.0, 0.6343439097749456
614.0, 0.5993789492902738
615.0, 0.5573670189364757
616.0, 0.5162876477086137
617.0, 0.4813889288687266
618.0, 0.45523642025226646
619.0, 0.4382788827232363
620.0, 0.42987095798919917
621.0, 0.42919305495997945
622.0, 0.4352657291962904
623.0, 0.4469565812813874
624.0, 0.4653306377757351
625.0, 0.4871980198624564
626.0, 0.5129099578734986
627.0, 0.5432745369444496
628.0, 0.5771868385986146
629.0, 0.6131010206531816
630.0, 0.6517767157241525
631.0, 0.6933973955981969
632.0, 0.7365341085058307
633.0, 0.7783485982363147
634.0, 0.8164386483298992
635.0, 0.8559601708777833
636.0, 0.8925353578765677
637.0, 0.9223960799228639
638.0, 0.9471743789837178
639.0, 0.9683138126669103
640.0, 0.9837353913305023
641.0, 0.9953565900876592
642.0, 0.9997989355274113
643.0, 0.9975573654018676
644.0, 0.9901635883913957
645.0, 0.9760384545748667
646.0, 0.9521985008718278
647.0, 0.9371747316885508
648.0, 0.9133247671110422
649.0, 0.8879467922111423
650.0, 0.8612281234897461
651.0, 0.8315345937449935
652.0, 0.8062587849407635
653.0, 0.7846437303832993
654.0, 0.7603214820777232
655.0, 0.7356994650595327
656.0, 0.7125521155647031
657.0, 0.6901733720897165
658.0, 0.6670201873290844
659.0, 0.6393896354802969
660.0, 0.6100712345583732
661.0, 0.5827309113261148
662.0, 0.5549630800608667
663.0, 0.5247935530300655
664.0, 0.49688186798910855
665.0, 0.4695068397587022
666.0, 0.4427509526931693
667.0, 0.41504184961608814
668.0, 0.38892554124313344
669.0, 0.3658959809335518
670.0, 0.34070651935638496
671.0, 0.31640092753903276
672.0, 0.29541903222459137
673.0, 0.2729370371179141
674.0, 0.2501992081477446
675.0, 0.23078432040951624
676.0, 0.2132323712858218
677.0, 0.1944429161743699
678.0, 0.1747314270156597
679.0, 0.1585285163191423
680.0, 0.1438815759244686
681.0, 0.1284464502153087
682.0, 0.11627380980545815
683.0, 0.10205506094299212
684.0, 0.09054339180505583
685.0, 0.08044738160906766
686.0, 0.06916274520256784
687.0, 0.058350750999278486
688.0, 0.05341314572342101
689.0, 0.043581198782628956
690.0, 0.035264672158748074
691.0, 0.029216076867211796
692.0, 0.023920385108246303
693.0, 0.01877324911878692
694.0, 0.014679703471976217
695.0, 0.012341825097016278
696.0, 0.010199348878292954
697.0, 0.008338388906292045
698.0, 0.006834395063545932
699.0, 0.005288683391928757
700.0, 0.004245136242144607
701.0, 0.0029763393655585107
702.0, 0.002404507146988864
703.0, 0.0016233508546674366
704.0, 0.0008047892944791548
705.0, 0.000589142387685286
706.0, 0.000405307224386894
707.0, 0.0005223891118354298
708.0, 0.000503085732709171
709.0, 0.000697775618387088
710.0, 0.001296170582976202
711.0, 0.0022107850981658594
712.0, 0.003012770236241293
713.0, 0.004053282540375177
714.0, 0.005354509793620795
715.0, 0.006733475535474679
716.0, 0.008062633516156706
717.0, 0.010018605769416131
718.0, 0.012239420765092102
719.0, 0.014371099707758078
720.0, 0.016938619434740437
721.0, 0.01975961891805062
722.0, 0.022083017751451703
723.0, 0.024246629981999748
724.0, 0.02591767236955351
725.0, 0.026744366050147846
726.0, 0.030078114860036406
727.0, 0.030763728040948225
728.0, 0.0321356182676166
729.0, 0.03386158598736227
730.0, 0.03493929877919312
731.0, 0.03598835900593989
732.0, 0.03774372283864305
733.0, 0.039399542461339934
734.0, 0.041027523777071494
735.0, 0.042797235441848734
736.0, 0.04462170351674691
737.0, 0.04696905363695814
738.0, 0.05023901033105899
739.0, 0.05192351756094971
740.0, 0.054274745186915704
741.0, 0.05699143499665701
742.0, 0.05980590387411495
743.0, 0.06276925467410037
744.0, 0.06607982381017992
745.0, 0.07015044199923084
746.0, 0.07255517293875582
747.0, 0.07416972905240216
748.0, 0.07625677239848784
749.0, 0.07835741896301263
750.0, 0.07981897116415883
751.0, 0.0814079065584386
752.0, 0.08282126428884454
753.0, 0.08487757894086521
754.0, 0.08748661758441299
755.0, 0.0895286788530667
756.0, 0.0907494013332899
757.0, 0.09166639647686688
758.0, 0.0920818694907038
759.0, 0.09097034577855138
760.0, 0.09074761604471479
761.0, 0.09091706892213253
762.0, 0.09000443474694567
763.0, 0.08807732214991316
764.0, 0.08723462243693828
765.0, 0.08849284999481598
766.0, 0.08832655727316606
767.0, 0.08666987580181418
768.0, 0.0860807931142638
769.0, 0.08673287610457758
770.0, 0.0866970491552934
771.0, 0.08641253866875327
772.0, 0.0854489014084179
773.0, 0.08617746798065327
774.0, 0.08538163507530114
775.0, 0.0848964913444217
776.0, 0.08575047777774926
777.0, 0.0838909215459819
778.0, 0.08423641085557185
779.0, 0.08256941461456922
780.0, 0.08162431686708288
781.0, 0.0786429143540132
782.0, 0.07477241623521899
783.0, 0.07296194560953195
784.0, 0.06999750918538766
785.0, 0.06495743421997137
786.0, 0.06208429083983852
787.0, 0.05820295270840359
788.0, 0.05359548834296574
789.0, 0.0497142551896738
790.0, 0.045804062248712696
791.0, 0.04110903320821585
792.0, 0.03699329207030746
793.0, 0.034555185343191915
794.0, 0.031063525249056236
795.0, 0.026735030285033674
796.0, 0.023264062698777798
797.0, 0.020817672428942974
798.0, 0.017920013387350213
799.0, 0.014537729216799475
800.0, 0.012508522712313145
801.0, 0.010494559026041565
802.0, 0.008368848235141009
803.0, 0.007084369372060334
804.0, 0.006273058797775718
805.0, 0.005766160564256812
806.0, 0.00404187267759353
807.0, 0.0021790954654560307
808.0, 0.0014774946570923944
809.0, 0.001173153394396272
810.0, 0.0016620060538276014
811.0, 0.002325156834757594
812.0, 0.0021429267264074154
813.0, 0.001856899840245096
814.0, 0.0013752517599217838
815.0, 0.0012630772482327764
816.0, 0.0016052191919862684
817.0, 0.0018550116026371621
818.0, 0.0018407890320721095
819.0, 0.0014929860525313503
820.0, 0.001203125158889611
821.0, 0.0011603971213129457
822.0, 0.0011546404068440174
823.0, 0.001365952807058095
824.0, 0.0011829850696744692
825.0, 0.001154987986579499
826.0, 0.0018884908784387996
827.0, 0.001640925971552925
828.0, 0.001145098300213751
829.0, 0.0012898628807823634
830.0, 0.001369384569745949
831.0, 0.001040136239495564
832.0, 0.0009878948459826793
833.0, 0.0018351470629254056
834.0, 0.0012573389609756471
835.0, 0.0010274056406331196
836.0, 0.0014096714755616434
837.0, 0.0010765785948082577
838.0, 0.001346290964466985
839.0, 0.0010370279918779364
840.0, 0.002045948242338408
841.0, 0.001442254908179672
842.0, 0.0010451997736474867
843.0, 0.001102344488372689
844.0, 0.0015161049050898695
845.0, 0.001767940295059182
846.0, 0.0020819762007450544
847.0, 0.0021819324369109585
848.0, 0.0025846593091399016
849.0, 0.002449660248533722
850.0, 0.002227875833305
851.0, 0.0016023407452183025
852.0, 0.0010756042765641535
853.0, 0.0023209757472730753
854.0, 0.002046459982825205
855.0, 0.0018257945779645232
856.0, 0.0019760381944686424
857.0, 0.0023939411128770637
858.0, 0.002794078951655588
859.0, 0.0032786161640500607
860.0, 0.003908473526214611
861.0, 0.0036676617866309566
862.0, 0.0038606810687049995
863.0, 0.003591527159293903
864.0, 0.004052061135066047
865.0, 0.004054979927332594
866.0, 0.0037466492997148037
867.0, 0.00451080262139069
868.0, 0.00428122392977496
869.0, 0.003753093585481939
870.0, 0.0035420281802092377
871.0, 0.003231021521331308
872.0, 0.003496929512574879
873.0, 0.003735138775037249
874.0, 0.0035083078553854135
875.0, 0.00409542386320271
876.0, 0.003744046059514593
877.0, 0.003996304224586637
878.0, 0.0043041739419670735
879.0, 0.004196189054319928
880.0, 0.004023210235799637
881.0, 0.0044224118909102755
882.0, 0.005180200639958287
883.0, 0.004790070056879994
884.0, 0.004254217824221279
885.0, 0.0043204011194925935
886.0, 0.004033498303788331
887.0, 0.004800097491744064
888.0, 0.005570708128022125
889.0, 0.0048270000491752426
890.0, 0.005240904322724328
891.0, 0.0056549200559429524
892.0, 0.005038431543738977
893.0, 0.005811853884556824
894.0, 0.0060166955405452326
895.0, 0.005684108207826159
896.0, 0.0057620050386134585
897.0, 0.005529407053169566
898.0, 0.005247505643787515
899.0, 0.005136405183628183
900.0, 0.005051934262928673
901.0, 0.004744842418912001
902.0, 0.004588347972617958
903.0, 0.004708882364632145
904.0, 0.004833428468258196
905.0, 0.004747180169483019
906.0, 0.004804954529309941
907.0, 0.0051219455811936584
908.0, 0.005132743696010082
909.0, 0.004309882338970374
910.0, 0.003991951744027977
911.0, 0.004353171570202124
912.0, 0.004177507630138902
913.0, 0.004266501998348219
914.0, 0.004058993198615048
915.0, 0.004723392770808012
916.0, 0.00518204962984577
917.0, 0.004801517309522664
918.0, 0.004469819367685632
919.0, 0.0043915374050281725
920.0, 0.0038193576258680286
921.0, 0.003998088440826717
922.0, 0.004180787118088914
923.0, 0.004326622651381997
924.0, 0.004417092250235553
925.0, 0.003756961313848688
926.0, 0.00334978840135089
927.0, 0.004137815304413299
928.0, 0.00460431187477269
929.0, 0.0033299989179754793
930.0, 0.003872842177699957
931.0, 0.003839293008779663
932.0, 0.0035993114614037143
933.0, 0.004030503293124974
934.0, 0.004264951312936887
935.0, 0.0036503879297284385
936.0, 0.003577894105881315
937.0, 0.0036154369651575508
938.0, 0.003743993209568593
939.0, 0.003702345318786268
940.0, 0.004009291556182521
941.0, 0.004481711858745391
942.0, 0.004522213159698965
943.0, 0.004136031311743424
944.0, 0.0038490570703486474
945.0, 0.00310195926707064
946.0, 0.0033409727171407827
947.0, 0.0026011063935787414
948.0, 0.0018695517821244515
949.0, 0.0017977894887672046
950.0, 0.0018100050786343763
951.0, 0.001688663728461571
952.0, 0.0018333154122988306
953.0, 0.0011428187764801173
954.0, 0.0013856110789610657
955.0, 0.0012775413987373484
956.0, 0.0011914521599873224
957.0, 0.001691783068989657
958.0, 0.0019278208574554127
959.0, 0.0015136247242875183
960.0, 0.001188238375012733
961.0, 0.0010863476406005477
962.0, 0.001505113725642694
963.0, 0.0017483662544271316
964.0, 0.0023717745610295636
965.0, 0.001674871162527655
966.0, 0.0010662686932686716
967.0, 0.0016921006065414702
968.0, 0.001960893042187324
969.0, 0.0014141790601072794
970.0, 0.001134853708876076
971.0, 0.0010533579916728966
972.0, 0.00119701471355987
973.0, 0.0013502272498077505
974.0, 0.0019765131991463882
975.0, 0.002720484468235968
976.0, 0.002751595491330361
977.0, 0.0019607206339641117
978.0, 0.001138072456683115
979.0, 0.0017132850719120789
980.0, 0.001436324052352329
981.0, 0.001451694387396693
982.0, 0.002342839681412378
983.0, 0.0024994813548502364
984.0, 0.0015844689607139642
985.0, 0.0016554253159746229
986.0, 0.0018939376931857515
987.0, 0.0015620789982623904
988.0, 0.0009989182199928231
989.0, 0.0013538930817335471
990.0, 0.001724660803389219
991.0, 0.0018444142170744784
992.0, 0.0018799016817012313
993.0, 0.0016316226299788914
994.0, 0.0013743026499682665
995.0, 0.001396152792905281
996.0, 0.0017044394607207422
997.0, 0.001811831017320373
998.0, 0.001810415558734521
999.0, 0.0013831838768461285
1000.0, 0.0010578587870727328
1001.0, 0.0012895668215193725
1002.0, 0.002193522053255278
1003.0, 0.0015905083130975514
1004.0, 0.0015508956013121264
1005.0, 0.0016742850424635903
1006.0, 0.0012758720832845736
1007.0, 0.0009806238675715336
1008.0, 0.001155886278631474
1009.0, 0.0010388643784802244
1010.0, 0.0014331093088915268
1011.0, 0.0009984430328707026
1012.0, 0.0014240466826581056
1013.0, 0.0010063655113610947
1014.0, 0.0012367299361005172
1015.0, 0.001010719638615533
1016.0, 0.001085814896914899
1017.0, 0.0011535704389458558
1018.0, 0.0015660168033113705
1019.0, 0.001465837357406199
1020.0, 0.000996453282671653
1021.0, 0.0012374986885327112
1022.0, 0.0018626545638500628
1023.0, 0.0013230549973494551
1024.0, 0.0018428308592211525
1025.0, 0.0018194127952202493
1026.0, 0.0016309464220449225
1027.0, 0.0016771953769736327
1028.0, 0.0011268405618303716
1029.0, 0.0018775875395996597
1030.0, 0.0024337929320947175
1031.0, 0.0014511610660445965
1032.0, 0.0014395794719224407
1033.0, 0.0019938407775046537
1034.0, 0.0022408109246880845
1035.0, 0.002056816320268858
1036.0, 0.0018956278621858422
1037.0, 0.002126360912163151
1038.0, 0.0023314192698538775
1039.0, 0.0019213050614197379
1040.0, 0.002610648339135575
1041.0, 0.002190181487346683
1042.0, 0.0024064710538682613
1043.0, 0.0023706900991586973
1044.0, 0.002097054462709164
1045.0, 0.0022554812899324623
1046.0, 0.0022598449769629615
1047.0, 0.0018905716827054162
1048.0, 0.002029264273422623
1049.0, 0.001918923579608929
1050.0, 0.0018648877234903774
1051.0, 0.002032793507096399
1052.0, 0.0022360455897871964
1053.0, 0.0021935217552847813
1054.0, 0.0023803478743573145
1055.0, 0.0029087433831327058
1056.0, 0.002740353501220289
1057.0, 0.001953257087216005
1058.0, 0.002408506763936773
1059.0, 0.0020628302173346957
1060.0, 0.0017365165908886323
1061.0, 0.0017780008856505152
1062.0, 0.0017419869437001656
1063.0, 0.0016210712453495325
1064.0, 0.0017363657761976417
1065.0, 0.0020578733342871062
1066.0, 0.0020872085215258014
1067.0, 0.0011117799270549996
1068.0, 0.0010966258539453987
1069.0, 0.0014428284019131902
1070.0, 0.001547555022918747
1071.0, 0.001346350201786042
1072.0, 0.0010662409850379344
1073.0, 0.0011292471510964243
1074.0, 0.0013317898217827177
1075.0, 0.001055734801227937
1076.0, 0.001894511178048251
1077.0, 0.0016158400796484546
1078.0, 0.0018333369688010596
1079.0, 0.0013215297027085859
1080.0, 0.001414877707122573
1081.0, 0.0010995476678940554
1082.0, 0.0013553048932163794
1083.0, 0.0010011985109723669
1084.0, 0.0010755023570052267
1085.0, 0.001147103264099999
1086.0, 0.001426644816769299
1087.0, 0.0015764159745636692
1088.0, 0.0015488353969029768
1089.0, 0.001341747659629418
1090.0, 0.001151911826919168
1091.0, 0.0014950633420618793
1092.0, 0.001358420368488586
1093.0, 0.0013371641626161342
1094.0, 0.0016065987979955868
1095.0, 0.0021067235242733856
1096.0, 0.002362683611355108
1097.0, 0.0022091077131407228
1098.0, 0.002458105557926955
1099.0, 0.0025919527486152976
1100.0, 0.0019428616531884351
1101.0, 0.001975661856185762
1102.0, 0.002131027232353308
1103.0, 0.0020971018611046846
1104.0, 0.0025655392809124785
1105.0, 0.001862880559495577
1106.0, 0.002698369324038509
1107.0, 0.0019377657338853064
1108.0, 0.0023491095234303544
1109.0, 0.0023710090820360723
1110.0, 0.002138343043008639
1111.0, 0.0020230801344883406
1112.0, 0.0016623220838282342
1113.0, 0.0017832363727840516
1114.0, 0.0022657292152435983
1115.0, 0.0012613685365771077
1116.0, 0.0014481650386577543
1117.0, 0.0018647206608062403
1118.0, 0.0023464783914216637
1119.0, 0.001838839639759774
1120.0, 0.0015574467625015659
1121.0, 0.0014900253339089045
1122.0, 0.0019341224607405357
1123.0, 0.0022871981293300448
1124.0, 0.0019155738373740627
1125.0, 0.0017139386860742956
1126.0, 0.0015047370030255949
1127.0, 0.00270693377315466
1128.0, 0.0024235611465752253
1129.0, 0.0027693903883562803
1130.0, 0.0029704521006925118
1131.0, 0.0028417431921677274
1132.0, 0.0028282864335969016
1133.0, 0.0027680590372785733
1134.0, 0.0027610846074057737
1135.0, 0.0027141827934718237
1136.0, 0.0018996863935725609
1137.0, 0.0020777552691219297
1138.0, 0.0025013493188823315
1139.0, 0.0027737406800311826
1140.0, 0.002632284365845391
1141.0, 0.002247513173014567
1142.0, 0.001615268142439635
1143.0, 0.0017732083444335018
1144.0, 0.0022761536792001527
1145.0, 0.0021700339775608617
1146.0, 0.002041120660992882
1147.0, 0.0021216664198882846
1148.0, 0.0021093676457205504
1149.0, 0.002478176884367739
1150.0, 0.0033711164409353216
1151.0, 0.0032680117438526773
1152.0, 0.003034692155366819
1153.0, 0.0032712840953238666
1154.0, 0.0035459650776686405
1155.0, 0.0031845507080440535
1156.0, 0.003215730832459546
1157.0, 0.004045140397508903
1158.0, 0.00319593193540106
1159.0, 0.00318189789643324
1160.0, 0.003705776558009886
1161.0, 0.0032213183537098543
1162.0, 0.003539757719507682
1163.0, 0.0028745351346681626
1164.0, 0.0028155591034905924
1165.0, 0.0028952290308030906
1166.0, 0.003140958463765363
1167.0, 0.003720010148434631
1168.0, 0.003239283824940149
1169.0, 0.002852826471405587
1170.0, 0.002683912327870098
1171.0, 0.0034060305937311827
1172.0, 0.003997492256047935
1173.0, 0.00457550109389243
1174.0, 0.0048327850905576
1175.0, 0.0044819119766528045
1176.0, 0.004667491216511061
1177.0, 0.005077691395261872
1178.0, 0.0048115174930008515
1179.0, 0.004705322417308814
1180.0, 0.005347560813366887
1181.0, 0.005412328376619208
1182.0, 0.0059717232079344465
1183.0, 0.005915986310343102
1184.0, 0.005482862341114048
1185.0, 0.0062540872459740495
1186.0, 0.0068351276673540365
1187.0, 0.006161801261394941
1188.0, 0.005935011937876539
1189.0, 0.006644510398257288
1190.0, 0.006961293677841771
1191.0, 0.007021814050745012
1192.0, 0.008202446076532635
1193.0, 0.008144218311991946
1194.0, 0.008570657286713692
1195.0, 0.009250710812380923
1196.0, 0.010422983428271314
1197.0, 0.01145750355605409
1198.0, 0.011758887947493612
1199.0, 0.011991844539100566
1200.0, 0.013526611518064323
1201.0, 0.015382116483312527
1202.0, 0.016056809569552303
1203.0, 0.01616892505004156
1204.0, 0.016737303619917453
1205.0, 0.017093095189217554
1206.0, 0.017426731097883064
1207.0, 0.0172684772985802
1208.0, 0.016388386013741037
1209.0, 0.01647344103393262
1210.0, 0.01576270066897547
1211.0, 0.014503673718899483
1212.0, 0.01294890528119667
1213.0, 0.011556989608848583
1214.0, 0.010254317660074884
1215.0, 0.008748432440474399
1216.0, 0.008150374210591414
1217.0, 0.008063348240501932
1218.0, 0.006475230297558737
1219.0, 0.004938138477259014
1220.0, 0.004971191143950453
1221.0, 0.00456576201397631
1222.0, 0.004453072948590013
1223.0, 0.004445740244061413
1224.0, 0.003605336166685647
1225.0, 0.0030158139261288928
1226.0, 0.0031164716583595635
1227.0, 0.003264233308623854
1228.0, 0.0032329609130409857
1229.0, 0.002435274011008783
1230.0, 0.0016710484960049345
1231.0, 0.0023995729756643835
1232.0, 0.002140307395245067
1233.0, 0.0023163076269394956
1234.0, 0.0022746640247723734
1235.0, 0.002326094747802135
1236.0, 0.0022000890620919806
1237.0, 0.0023430285008789607
1238.0, 0.0022166102620915958
1239.0, 0.0019184552343427357
1240.0, 0.0020967045784744762
1241.0, 0.0022209532203485718
1242.0, 0.0018537508779774945
1243.0, 0.0011972777766390249
1244.0, 0.0010510863556057583
1245.0, 0.001476902529248407
1246.0, 0.0016978217106275602
1247.0, 0.0018831662640615453
1248.0, 0.0019522865606624693
1249.0, 0.0019902531665816946
1250.0, 0.0024561005449240973
1251.0, 0.002061974895500001
1252.0, 0.001216971666145237
1253.0, 0.001440575092641821
1254.0, 0.001136416808967419
1255.0, 0.0015263717904110924
1256.0, 0.0017592428195381481
1257.0, 0.0010737473228332284
1258.0, 0.002169377479180597
1259.0, 0.001581935130449232
1260.0, 0.0017423038722306542
1261.0, 0.001153424168998562
1262.0, 0.0010361636371717159
1263.0, 0.001321186362727319
1264.0, 0.0011923643752285665
1265.0, 0.0013784522629445108
1266.0, 0.0010997218192797989
1267.0, 0.001648856570351587
1268.0, 0.002622805505179463
1269.0, 0.002294467353933952
1270.0, 0.002354240759451558
1271.0, 0.001805411636548605
1272.0, 0.0021228242278395234
1273.0, 0.0028978471927492556
1274.0, 0.003528566890674058
1275.0, 0.0032105086823136088
1276.0, 0.0014684793112151751
1277.0, 0.0015757673030418055
1278.0, 0.0019656230079547724
1279.0, 0.0012441469634143828
1280.0, 0.00110852486941456
1281.0, 0.0019320275743958618
1282.0, 0.002318024664489966
1283.0, 0.0019148319723865607
1284.0, 0.001150617774479634
1285.0, 0.0019685459448970906
1286.0, 0.0018410232178296328
1287.0, 0.001147526674359906
1288, 0.0
1289, 0.0
1290, 0.0
1291, 0.0
1292, 0.0
1293, 0.0
1294, 0.0
1295, 0.0
1296, 0.0
1297, 0.0
1298, 0.0
1299, 0.0
1300, 0.0
1301, 0.0
1302, 0.0
1303, 0.0
1304, 0.0
1305, 0.0
1306, 0.0
1307, 0.0
1308, 0.0
1309, 0.0
1310, 0.0
1311, 0.0
1312, 0.0
1313, 0.0
1314, 0.0
1315, 0.0
1316, 0.0
1317, 0.0
1318, 0.0
1319, 0.0
1320, 0.0
1321, 0.0
1322, 0.0
1323, 0.0
1324, 0.0
1325, 0.0
1326, 0.0
1327, 0.0
1328, 0.0
1329, 0.0
1330, 0.0
1331, 0.0
1332, 0.0
1333, 0.0
1334, 0.0
1335, 0.0
1336, 0.0
1337, 0.0
1338, 0.0
1339, 0.0
1340, 0.0
1341, 0.0
1342, 0.0
1343, 0.0
1344, 0.0
1345, 0.0
1346, 0.0
1347, 0.0
1348, 0.0
1349, 0.0
1350, 0.0
1351, 0.0
1352, 0.0
1353, 0.0
1354, 0.0
1355, 0.0
1356, 0.0
1357, 0.0
1358, 0.0
1359, 0.0
1360, 0.0
1361, 0.0
1362, 0.0
1363, 0.0
1364, 0.0
1365, 0.0
1366, 0.0
1367, 0.0
1368, 0.0
1369, 0.0
1370, 0.0
1371, 0.0
1372, 0.0
1373, 0.0
1374, 0.0
1375, 0.0
1376, 0.0
1377, 0.0
1378, 0.0
1379, 0.0
1380, 0.0
1381, 0.0
1382, 0.0
1383, 0.0
1384, 0.0
1385, 0.0
1386, 0.0
1387, 0.0
1388, 0.0
1389, 0.0
1390, 0.0
1391, 0.0
1392, 0.0
1393, 0.0
1394, 0.0
1395, 0.0
1396, 0.0
1397, 0.0
1398, 0.0
1399, 0.0
1400, 0.0
1401, 0.0
1402, 0.0
1403, 0.0
1404, 0.0
1405, 0.0
1406, 0.0
1407, 0.0
1408, 0.0
1409, 0.0
1410, 0.0
1411, 0.0
1412, 0.0
1413, 0.0
1414, 0.0
1415, 0.0
1416, 0.0
1417, 0.0
1418, 0.0
1419, 0.0
1420, 0.0
1421, 0.0
1422, 0.0
1423, 0.0
1424, 0.0
1425, 0.0
1426, 0.0
1427, 0.0
1428, 0.0
1429, 0.0
1430, 0.0
1431, 0.0
1432, 0.0
1433, 0.0
1434, 0.0
1435, 0.0
1436, 0.0
1437, 0.0
1438, 0.0
1439, 0.0
1440, 0.0
1441, 0.0
1442, 0.0
1443, 0.0
1444, 0.0
1445, 0.0
1446, 0.0
1447, 0.0
1448, 0.0
1449, 0.0
1450, 0.0
1451, 0.0
1452, 0.0
1453, 0.0
1454, 0.0
1455, 0.0
1456, 0.0
1457, 0.0
1458, 0.0
1459, 0.0
1460, 0.0
1461, 0.0
1462, 0.0
1463, 0.0
1464, 0.0
1465, 0.0
1466, 0.0
1467, 0.0
1468, 0.0
1469, 0.0
1470, 0.0
1471, 0.0
1472, 0.0
1473, 0.0
1474, 0.0
1475, 0.0
1476, 0.0
1477, 0.0
1478, 0.0
1479, 0.0
1480, 0.0
1481, 0.0
1482, 0.0
1483, 0.0
1484, 0.0
1485, 0.0
1486, 0.0
1487, 0.0
1488, 0.0
1489, 0.0
1490, 0.0
1491, 0.0
1492, 0.0
1493, 0.0
1494, 0.0
1495, 0.0
1496, 0.0
1497, 0.0
1498, 0.0
1499, 0.0
1500, 0.0
1501, 0.0
1502, 0.0
1503, 0.0
1504, 0.0
1505, 0.0
1506, 0.0
1507, 0.0
1508, 0.0
1509, 0.0
1510, 0.0
1511, 0.0
1512, 0.0
1513, 0.0
1514, 0.0
1515, 0.0
1516, 0.0
1517, 0.0
1518, 0.0
1519, 0.0
1520, 0.0
1521, 0.0
1522, 0.0
1523, 0.0
1524, 0.0
1525, 0.0
1526, 0.0
1527, 0.0
1528, 0.0
1529, 0.0
1530, 0.0
1531, 0.0
1532, 0.0
1533, 0.0
1534, 0.0
1535, 0.0
1536, 0.0
1537, 0.0
1538, 0.0
1539, 0.0
1540, 0.0
1541, 0.0
1542, 0.0
1543, 0.0
1544, 0.0
1545, 0.0
1546, 0.0
1547, 0.0
1548, 0.0
1549, 0.0
1550, 0.0
1551, 0.0
1552, 0.0
1553, 0.0
1554, 0.0
1555, 0.0
1556, 0.0
1557, 0.0
1558, 0.0
1559, 0.0
1560, 0.0
1561, 0.0
1562, 0.0
1563, 0.0
1564, 0.0
1565, 0.0
1566, 0.0
1567, 0.0
1568, 0.0
1569, 0.0
1570, 0.0
1571, 0.0
1572, 0.0
1573, 0.0
1574, 0.0
1575, 0.0
1576, 0.0
1577, 0.0
1578, 0.0
1579, 0.0
1580, 0.0
1581, 0.0
1582, 0.0
1583, 0.0
1584, 0.0
1585, 0.0
1586, 0.0
1587, 0.0
1588, 0.0
1589, 0.0
1590, 0.0
1591, 0.0
1592, 0.0
1593, 0.0
1594, 0.0
1595, 0.0
1596, 0.0
1597, 0.0
1598, 0.0
1599, 0.0
