30, 0.0
31, 0.0
32, 0.0
33, 0.0
34, 0.0
35, 0.0
36, 0.0
37, 0.0
38, 0.0
39, 0.0
40, 0.0
41, 0.0
42, 0.0
43, 0.0
44, 0.0
45, 0.0
46, 0.0
47, 0.0
48, 0.0
49, 0.0
50, 0.0
51, 0.0
52, 0.0
53, 0.0
54, 0.0
55, 0.0
56, 0.0
57, 0.0
58, 0.0
59, 0.0
60, 0.0
61, 0.0
62, 0.0
63, 0.0
64, 0.0
65, 0.0
66, 0.0
67, 0.0
68, 0.0
69, 0.0
70, 0.0
71, 0.0
72, 0.0
73, 0.0
74, 0.0
75, 0.0
76, 0.0
77, 0.0
78, 0.0
79, 0.0
80, 0.0
81, 0.0
82, 0.0
83, 0.0
84, 0.0
85, 0.0
86, 0.0
87, 0.0
88, 0.0
89, 0.0
90, 0.0
91, 0.0
92, 0.0
93, 0.0
94, 0.0
95, 0.0
96, 0.0
97, 0.0
98, 0.0
99, 0.0
100, 0.0
101, 0.0
102, 0.0
103, 0.0
104, 0.0
105, 0.0
106, 0.0
107, 0.0
108, 0.0
109, 0.0
110.0, 0.0012225587687001627
111.0, 0.0015562245946575597
112.0, 0.0023483130684662295
113.0, 0.0029404786536185563
114.0, 0.0007694541800164225
115.0, 0.0041171357319276305
116.0, 0.004953156420516224
117.0, 0.0036551496098008096
118.0, 0.0018451650401884868
119.0, 0.0015627917395977197
120.0, 0.00033387228411559534
121.0, 0.0009420592634492483
122.0, 0.002287648673226795
123.0, 0.004154727740284964
124.0, 0.005887090886519701
125.0, 0.002670990388271415
126.0, 0.007711653537931136
127.0, 0.007340215480875251
128.0, 0.006735323691677895
129.0, 0.010483487199537313
130.0, 0.010467671113002546
131.0, 0.010291708166877371
132.0, 0.012283131146789975
133.0, 0.013101209255768347
134.0, 0.011334669390219113
135.0, 0.009361838778810742
136.0, 0.011781407947261919
137.0, 0.010876772447220835
138.0, 0.010297605300597496
139.0, 0.011126927616127253
140.0, 0.011953842273058403
141.0, 0.0106078166866921
142.0, 0.01136931265922196
143.0, 0.012176641159417129
144.0, 0.012478748866738127
145.0, 0.012436783292784628
146.0, 0.012336745271608222
147.0, 0.01221922990571895
148.0, 0.01291026178167579
149.0, 0.013967753161686672
150.0, 0.014008159005439008
151.0, 0.009758148667114233
152.0, 0.01010299081018689
153.0, 0.010597680698937078
154.0, 0.00838994288394656
155.0, 0.004625728090382218
156.0, 0.005393305646304876
157.0, 0.006116291266746089
158.0, 0.005897310648664314
159.0, 0.0043623532672522536
160.0, 0.0028906523836224065
161.0, 0.0032940242872808844
162.0, 0.0005739049008970673
163.0, 0.002561584929151867
164.0, 0.002149767865022851
165.0, 0.00043853500239934796
166.0, 0.0002929399762196383
167.0, 0.001881345151360432
168.0, 0.0011432019365599315
169.0, 0.001457146757628308
170.0, 0.0013958554537407174
171.0, 0.0011296275749851504
172.0, 0.004058147256804706
173.0, 0.0019386495130806931
174.0, 0.001567701805862069
175.0, 0.001297444308852255
176.0, 0.0015348583560722388
177.0, 0.0035167675290340016
178.0, 0.0018953278393557295
179.0, 0.0010586883924736763
180.0, 0.0032990095200175003
181.0, 0.00544655803268041
182.0, 0.0041284480141627776
183.0, 0.0005581727634170451
184.0, 0.002042104367602457
185.0, 0.0033097801717817095
186.0, 0.004350637693967765
187.0, 0.005516764585513204
188.0, 0.006946347183801608
189.0, 0.0072377766800058845
190.0, 0.008707314746980001
191.0, 0.00865786615763494
192.0, 0.007517876373828463
193.0, 0.007186261505010344
194.0, 0.007691762098855745
195.0, 0.0036014184340259553
196.0, 0.0038527792554442246
197.0, 0.004733157279782508
198.0, 0.0033105934634738844
199.0, 0.0039319801882387595
200.0, 0.0036286171773191453
201.0, 0.004699547288485042
202.0, 0.00554919559804003
203.0, 0.006131872861449593
204.0, 0.007663489919226935
205.0, 0.009152046569020621
206.0, 0.0077967555661880685
207.0, 0.010186446147112664
208.0, 0.011387192545504968
209.0, 0.007796988712239614
210.0, 0.010881235510982142
211.0, 0.012043905194963058
212.0, 0.013602849260113486
213.0, 0.015258655382299003
214.0, 0.015990201883411426
215.0, 0.014601582342682598
216.0, 0.01602903790550807
217.0, 0.014481371761243172
218.0, 0.013050569040827843
219.0, 0.013376207900230173
220.0, 0.015307346837365851
221.0, 0.014437956497192794
222.0, 0.01447161889601207
223.0, 0.013594700557260026
224.0, 0.013561731910529852
225.0, 0.014386268352456136
226.0, 0.013639105302822732
227.0, 0.013547065948193476
228.0, 0.012893621758224814
229.0, 0.012032989106066972
230.0, 0.010871404722305267
231.0, 0.008954602436175645
232.0, 0.00510149770674756
233.0, 0.006681609204458399
234.0, 0.00699954620584663
235.0, 0.007481496406073065
236.0, 0.007254671820059655
237.0, 0.002345342609070485
238.0, 0.005473742439032846
239.0, 0.00518478263494221
240.0, 0.006415563910441537
241.0, 0.006371836080061836
242.0, 0.002934183913854722
243.0, 0.007437024333886308
244.0, 0.0057251783348698775
245.0, 0.005495127483213377
246.0, 0.0054075986690575685
247.0, 0.005889867439440434
248.0, 0.009390392615471867
249.0, 0.007956277487165672
250.0, 0.005761562656753561
251.0, 0.003048163213982536
252.0, 0.0019151773961153416
253.0, 0.002990788035524024
254.0, 0.001489889578284627
255.0, 0.002311360609129028
256.0, 0.0031426481520151835
257.0, 0.0024194808734437
258.0, 0.0016981312467088852
259.0, 0.003928094859903023
260.0, 0.0032299699267107577
261.0, 0.0016607946460716213
262.0, 0.0010625469825676192
263.0, 0.0014933372490350326
264.0, 0.002270847042762348
265.0, 0.002239770580534774
266.0, 0.001854083687269468
267.0, 0.0021103269402205412
268.0, 0.0024420693299264645
269.0, 0.0023981753744420123
270.0, 0.0017023565591274157
271.0, 0.00034926031251302696
272.0, 0.0008003480090917423
273.0, 0.0004661932579046822
274.0, 0.0011617211039365023
275.0, 0.002877541397986825
276.0, 0.0033710636616635517
277.0, 0.0068776272440061285
278.0, 0.006393320614034402
279.0, 0.004423544403649147
280.0, 0.002031296599713844
281.0, 0.0005518343521635293
282.0, 0.002830956125151425
283.0, 0.00544544911280503
284.0, 0.004685244609629707
285.0, 0.0035117388430952567
286.0, 0.0027239704399224553
287.0, 0.002019296528978174
288.0, 0.003773384060487244
289.0, 0.0028379823977156883
290.0, 0.003977059041450751
291.0, 0.00408798215011021
292.0, 0.0034517840304473545
293.0, 0.006736763696399443
294.0, 0.008656144181386875
295.0, 0.008541389587939468
296.0, 0.0072231544586982095
297.0, 0.007049750449479821
298.0, 0.008866617360251598
299.0, 0.009568902790482826
300.0, 0.008947517587599738
301.0, 0.009771269025216177
302.0, 0.012090224361044967
303.0, 0.013668336936258177
304.0, 0.013334298084272398
305.0, 0.01822620393958201
306.0, 0.01606276513787506
307.0, 0.018006516696851455
308.0, 0.021100260307277605
309.0, 0.0233449310923737
310.0, 0.025351662329336225
311.0, 0.03132663901691136
312.0, 0.0315449525785945
313.0, 0.03365879839903525
314.0, 0.03678621862394543
315.0, 0.038953775621340024
316.0, 0.03953339578625887
317.0, 0.04558367167323022
318.0, 0.05012354575233681
319.0, 0.049247459442063345
320.0, 0.04792297052173026
321.0, 0.05073296280325976
322.0, 0.055060793434196
323.0, 0.05147004146685218
324.0, 0.049914595597463876
325.0, 0.04766341557340266
326.0, 0.04543256589148005
327.0, 0.04476854687928139
328.0, 0.044026959255727055
329.0, 0.04176547076617585
330.0, 0.03674457841025218
331.0, 0.032279559479714476
332.0, 0.030079706252015108
333.0, 0.029388563349953656
334.0, 0.024976255040467257
335.0, 0.02310167330543969
336.0, 0.022360145879971573
337.0, 0.01826289650331343
338.0, 0.013464154368261394
339.0, 0.0157760717737693
340.0, 0.019075208871567544
341.0, 0.01278546731187327
342.0, 0.012638329047383113
343.0, 0.013159936551556286
344.0, 0.011537311342318265
345.0, 0.01247761518112928
346.0, 0.01055678530621847
347.0, 0.009723375089926585
348.0, 0.010864275848941587
349.0, 0.011924101343434973
350.0, 0.011601080478016097
351.0, 0.01098081360876045
352.0, 0.009938191091007511
353.0, 0.011051419631685941
354.0, 0.011294308480068505
355.0, 0.010526959696257433
356.0, 0.009392113839866026
357.0, 0.008098669277010018
358.0, 0.00703228340755601
359.0, 0.008186805210301365
360.0, 0.010163403819206877
361.0, 0.010327688594468984
362.0, 0.008526054513129409
363.0, 0.010563971342550361
364.0, 0.006765745088503101
365.0, 0.00756519580112274
366.0, 0.009479725256640974
367.0, 0.01018470701270482
368.0, 0.008795329131074666
369.0, 0.006223268288167839
370.0, 0.007246892228535557
371.0, 0.00882562410620456
372.0, 0.009173299121818936
373.0, 0.009081883551417194
374.0, 0.009929370173612862
375.0, 0.011137541070476197
376.0, 0.0074074283542614255
377.0, 0.010240768074292483
378.0, 0.01009001773641767
379.0, 0.009184862909198063
380.0, 0.012124517736553838
381.0, 0.01168652733895307
382.0, 0.010726625643071707
383.0, 0.011739027240123988
384.0, 0.011149777224085632
385.0, 0.010856490819284961
386.0, 0.013855418287057802
387.0, 0.017713295844461803
388.0, 0.020120063585248142
389.0, 0.019670402331861275
390.0, 0.018891466840973804
391.0, 0.01887036368953931
392.0, 0.019576322254643463
393.0, 0.020511182929764255
394.0, 0.014768683055919878
395.0, 0.014098766452115958
396.0, 0.014057541296907275
397.0, 0.011279097159426318
398.0, 0.00624747307883985
399.0, 0.006183074567723369
400.0, 0.006858622413559535
401.0, 0.0085398322904864
402.0, 0.007842687540962604
403.0, 0.0063311429916304675
404.0, 0.005526265375357565
405.0, 0.002015409491371493
406.0, 0.002397081523067017
407.0, 0.004306856610427788
408.0, 0.0042178983279955225
409.0, 0.0035304780499013735
410.0, 0.0037434074350754577
411.0, 0.002816502252644198
412.0, 0.002201940523344435
413.0, 0.0029696315039128823
414.0, 0.0018646920573822353
415.0, 0.0014294340315201574
416.0, 0.0023514569104771737
417.0, 5.941541585830791e-05
418.0, 0.0004523820893278216
419.0, 0.0019192322626170942
420.0, 0.0035173528015201975
421.0, 0.003454146154152817
422.0, 0.0018618415916341064
423.0, 0.0012838286558458855
424.0, 0.001244975325433021
425.0, 0.0028504936213142496
426.0, 0.004132072756041273
427.0, 0.0028714366678080057
428.0, 0.0015507171286269282
429.0, 0.005026696919265158
430.0, 0.003916705187030613
431.0, 0.0017160518552709716
432.0, 0.0013830093885524623
433.0, 0.002490679675825293
434.0, 0.0032493289712845724
435.0, 0.002320848917181218
436.0, 0.0026575110427866097
437.0, 0.005059411573566527
438.0, 0.006099529584607225
439.0, 0.006899788966365118
440.0, 0.008668209951276352
441.0, 0.011807713039614868
442.0, 0.015150660799476131
443.0, 0.01882735646153813
444.0, 0.02415742895701348
445.0, 0.030236992237524313
446.0, 0.03620714228806791
447.0, 0.04253790393703555
448.0, 0.05163957253924784
449.0, 0.06020378771464936
450.0, 0.07030804918551452
451.0, 0.08060392528164999
452.0, 0.08843263656574886
453.0, 0.09360664732944732
454.0, 0.09896507246952498
455.0, 0.10265358944655768
456.0, 0.10558966510810432
457.0, 0.10992597845200529
458.0, 0.11588773177855254
459.0, 0.12235870087760371
460.0, 0.12729680588618983
461.0, 0.12819988644669392
462.0, 0.12173458042362327
463.0, 0.1128603844394878
464.0, 0.09862128077924223
465.0, 0.07967221803535385
466.0, 0.06007927631266065
467.0, 0.04562592542066238
468.0, 0.03290465855426815
469.0, 0.02538222372592954
470.0, 0.02040141393900033
471.0, 0.01754565077982796
472.0, 0.014880806472538146
473.0, 0.008664185214973084
474.0, 0.009570484447255405
475.0, 0.0070077035667121135
476.0, 0.003519123002526745
477.0, 0.0030527093538465326
478.0, 0.004377103149254641
479.0, 0.0028948044724281387
480.0, 0.0007248757752842138
481.0, 0.0013087414289188934
482.0, 0.0017404393561538864
483.0, 0.0020029140348481107
484.0, 0.0017412631402620516
485.0, 0.0009119205574505074
486.0, 0.0006216627770884115
487.0, 0.0005486700109711002
488.0, 0.0008856456374617643
489.0, 0.0012393317946441731
490.0, 0.001593815892568542
491.0, 0.0017232582360295454
492.0, 0.0013204165808161617
493.0, 0.0019953488380586412
494.0, 0.0030807457831777685
495.0, 0.003529250711290859
496.0, 0.0020123301491254096
497.0, 0.001232534453473065
498.0, 0.003324745380080839
499.0, 0.0016467439417685008
500.0, 0.0032378601847327013
501.0, 0.005485688718312461
502.0, 0.003676775095820812
503.0, 0.001613930432636846
504.0, 0.0020050722956472043
505.0, 0.0021643233714091262
506.0, 0.006141353927050941
507.0, 0.0036690642232110517
508.0, 0.003036289120489889
509.0, 0.003688689331629114
510.0, 0.004139362229243449
511.0, 0.003913192981928655
512.0, 0.004426011392795138
513.0, 0.0012348846568739863
514.0, 0.003046204335580889
515.0, 0.004134670327215582
516.0, 0.0035015268113460516
517.0, 0.0032763027678916305
518.0, 0.0056507052100931
519.0, 0.002198266349636835
520.0, 0.006644178337980244
521.0, 0.006613923789679604
522.0, 0.00572792912447155
523.0, 0.006435814233188418
524.0, 0.007370430426629211
525.0, 0.00426009445071679
526.0, 0.004870731639187617
527.0, 0.005049856804400082
528.0, 0.0036792796320948185
529.0, 0.003321118818371505
530.0, 0.005158799705672328
531.0, 0.006814492666860009
532.0, 0.003549841240357232
533.0, 0.002184430923155984
534.0, 0.003798071674679616
535.0, 0.003504569863058382
536.0, 0.003047278776515806
537.0, 0.004184527657956254
538.0, 0.001421863801673394
539.0, 0.006465554080354417
540.0, 0.00515716385063373
541.0, 0.004335139851050789
542.0, 0.006084305154311711
543.0, 0.007276855449172881
544.0, 0.004669813028988109
545.0, 0.006822609394670534
546.0, 0.005273933333867929
547.0, 0.002650436677100076
548.0, 0.0012341358169148805
549.0, 0.0006323703097681826
550.0, 0.0008512051855425775
551.0, 0.003303541441685614
552.0, 0.005526603356729192
553.0, 0.006959829147049424
554.0, 0.007850864849689781
555.0, 0.008705134259162061
556.0, 0.008787048187103758
557.0, 0.007915800379628373
558.0, 0.00804558785434889
559.0, 0.004835493385218904
560.0, 0.002272016173440172
561.0, 0.0008986683409790589
562.0, 0.0027342533919479644
563.0, 0.004422141981821819
564.0, 0.0018504225704253652
565.0, 0.0017816443075486072
566.0, 0.002917109267554925
567.0, 0.001909205463905362
568.0, 0.000971757761943881
569.0, 0.0008082897248858049
570.0, 0.0010949771120634386
571.0, 0.00144349091080261
572.0, 0.0034674896881629223
573.0, 0.0037396439012910023
574.0, 0.003932556574451888
575.0, 0.002202993515003317
576.0, 0.0014271322917263054
577.0, 0.0023369016061836343
578.0, 0.0009539705841220434
579.0, 0.0010215281207254798
580.0, 0.0003090082963279496
581.0, 0.0005714328679422235
582.0, 0.0005292322518772369
583.0, 0.0002604486519923871
584.0, 0.0002952391140948509
585.0, 0.0003206081861759376
586.0, 3.0126190868812186e-05
587.0, 0.0001466778956643017
588.0, 0.000476897382001396
589.0, 0.0007495995130324014
590.0, 0.0006378173175099889
591.0, 0.00022346407561633962
592.0, 0.0003657763713944078
593.0, 0.00123715282208568
594.0, 0.0034784440742272843
595.0, 0.0019880194237044567
596.0, 0.000614136970030285
597.0, 0.0025359786987897127
598.0, 0.005669348672277439
599.0, 0.0017121608685335727
600.0, 0.006687631561327034
601.0, 0.004587654851330825
602.0, 0.0031935302959773173
603.0, 0.00431065572404779
604.0, 0.006936636935070297
605.0, 0.009353059714529984
606.0, 0.011273774462026544
607.0, 0.01744847525636259
608.0, 0.01869050323138309
609.0, 0.023971914259941995
610.0, 0.028162174572812827
611.0, 0.031122627815109202
612.0, 0.03739143316527624
613.0, 0.044498553446530906
614.0, 0.05274636236860267
615.0, 0.05845985672957852
616.0, 0.06592059020036477
617.0, 0.06911126247325787
618.0, 0.066408025405751
619.0, 0.061741759675113944
620.0, 0.057055107314447816
621.0, 0.047196144874595496
622.0, 0.041006292322148225
623.0, 0.03696046427582233
624.0, 0.032882280427694005
625.0, 0.028916687036612446
626.0, 0.02686017729557324
627.0, 0.027087993411700706
628.0, 0.024305535615825324
629.0, 0.023360835500582457
630.0, 0.024541956378038316
631.0, 0.02379383780092935
632.0, 0.020978472138760727
633.0, 0.019259105729645322
634.0, 0.019961324216814166
635.0, 0.018252551110901533
636.0, 0.018825500463924474
637.0, 0.01845870993942566
638.0, 0.019631137310992947
639.0, 0.021748335493835178
640.0, 0.023363358575046164
641.0, 0.026677750095196892
642.0, 0.028677653740125448
643.0, 0.030480377657105213
644.0, 0.03568924879479843
645.0, 0.039399532716485344
646.0, 0.04294000996329325
647.0, 0.04807979960666289
648.0, 0.05061592513782265
649.0, 0.05352867363676986
650.0, 0.05841934654386561
651.0, 0.06529292121597577
652.0, 0.07033348620609747
653.0, 0.07503934575074123
654.0, 0.08246489298503054
655.0, 0.09192607039313833
656.0, 0.09411159546297707
657.0, 0.1030075612572757
658.0, 0.11104958071187399
659.0, 0.11898261496950964
660.0, 0.12610426923101806
661.0, 0.1336275738535867
662.0, 0.14181111537224605
663.0, 0.13871087746294986
664.0, 0.14636362698323296
665.0, 0.14602405770340757
666.0, 0.14324207886534518
667.0, 0.14007471526442278
668.0, 0.13535386714646705
669.0, 0.12874749131003205
670.0, 0.12500454615989995
671.0, 0.11026550452217249
672.0, 0.09415885938715253
673.0, 0.08685795472907226
674.0, 0.07688003747998895
675.0, 0.0671439570881871
676.0, 0.061776250214204756
677.0, 0.050311769170329715
678.0, 0.04268184465517549
679.0, 0.03921261233370082
680.0, 0.032634166220835675
681.0, 0.030361886225349598
682.0, 0.02850633827063039
683.0, 0.024339119617236542
684.0, 0.022121652335422827
685.0, 0.02178393073544112
686.0, 0.015715934934888494
687.0, 0.017564037512204703
688.0, 0.014268634126834798
689.0, 0.014232917745844566
690.0, 0.016099448652156307
691.0, 0.012944157792614404
692.0, 0.013149048393121004
693.0, 0.007883137679296815
694.0, 0.009738361312686723
695.0, 0.009858126513321033
696.0, 0.007310482827982049
697.0, 0.006332507316589901
698.0, 0.008081610028725138
699.0, 0.008079832350368257
700.0, 0.00987777756337192
701.0, 0.006781100626147904
702.0, 0.007863479093868506
703.0, 0.007003064510949569
704.0, 0.006966113500131026
705.0, 0.00634020994687904
706.0, 0.0029466493327884617
707.0, 0.006778460201354954
708.0, 0.010681626048542349
709.0, 0.005770281410285601
710.0, 0.00783671198129526
711.0, 0.007209315867448039
712.0, 0.004072779730269966
713.0, 0.0033087735618431494
714.0, 0.004831865279386079
715.0, 0.0055420757189685935
716.0, 0.006178048078244097
717.0, 0.00415011415004298
718.0, 0.0019039622228942009
719.0, 0.002380791974672114
720.0, 0.00446809652853508
721.0, 0.005715571588462944
722.0, 0.007597458904626589
723.0, 0.006772238845351104
724.0, 0.004158052851542941
725.0, 0.0038240484916646574
726.0, 0.0030104902952666286
727.0, 0.0016999655488272075
728.0, 0.0021289528618722176
729.0, 0.004831382509880995
730.0, 0.0034590165283228938
731.0, 0.006918213682957898
732.0, 0.00440293704673686
733.0, 0.0049252433933141115
734.0, 0.005972876190799987
735.0, 0.004224000703477116
736.0, 0.0022395614798023074
737.0, 0.005934352992807999
738.0, 0.00151621861770846
739.0, 0.0019279698600816906
740.0, 0.003750175832058938
741.0, 0.005769391180221196
742.0, 0.006480878832312102
743.0, 0.004361371207916112
744.0, 0.0008794101615948434
745.0, 0.0018627682556637086
746.0, 0.001224548499825149
747.0, 0.001313658301806345
748.0, 0.0035033639720081938
749.0, 0.003790720385021392
750.0, 0.0022525413821597846
751.0, 0.002032551771000358
752.0, 0.00522464285781073
753.0, 0.008116085423979917
754.0, 0.001424734841903118
755.0, 0.001012097060210253
756.0, 0.002222428382640509
757.0, 0.006397896829797405
758.0, 0.007567520520017515
759.0, 0.003653593857696222
760.0, 0.0015714646026972572
761.0, 0.005537999727851954
762.0, 0.002167395700148709
763.0, 0.003949851275969285
764.0, 0.00666218552004965
765.0, 0.004769691289696405
766.0, 0.0027160001363820616
767.0, 0.0032535350139914097
768.0, 0.0014056149583490719
769.0, 0.0008088590269150024
770.0, 0.0012876275962976807
771.0, 0.0033048693495610266
772.0, 0.0030353952018831462
773.0, 0.002034390555545987
774.0, 0.0017179999577768177
775.0, 0.002205526697761861
776.0, 0.0025844849617657115
777.0, 0.000746547971658645
778.0, 0.0032831707618121314
779.0, 0.002593387255700023
780.0, 0.002649311836188462
781.0, 0.003609356004418419
782.0, 0.003022313060057162
783.0, 0.0008160431169358753
784.0, 0.0014685995085051825
785.0, 0.00756396950323769
786.0, 0.0027089534813198395
787.0, 0.003178408260182075
788.0, 0.0030334746478905077
789.0, 0.0016226808517448518
790.0, 0.002245229136128168
791.0, 0.0039512926493831665
792.0, 0.0015732877661081557
793.0, 0.0038585996903611267
794.0, 0.0006523119730812684
795.0, 7.670419684813803e-05
796.0, 0.0027521304582659315
797.0, 0.0024496818051776667
798.0, 0.0013635455756475618
799.0, 0.001857396866987801
800.0, 0.0009013628635586594
801.0, 0.0007995898112195489
802.0, 0.003963009135886909
803.0, 0.005026191494435045
804.0, 0.0023532286499685522
805.0, 0.0018161266589594278
806.0, 0.0019286191449074484
807.0, 0.001788406356950701
808.0, 0.003146337433133281
809.0, 0.0006293755983845295
810.0, 0.0007533553553795008
811.0, 0.0017658269853279632
812.0, 0.0007964917619626322
813.0, 0.0013736446352701117
814.0, 0.0022267140427400904
815.0, 0.003134678712509737
816.0, 0.004176992078806438
817.0, 0.0007962775640281935
818.0, 0.0019260367254787891
819.0, 0.001367558705642835
820.0, 0.0012176120018275573
821.0, 0.0008107622837948404
822.0, 0.0005605235954872073
823.0, 0.0007614021267981779
824.0, 0.0014129199941124823
825.0, 0.0023934652858031108
826.0, 0.0021043727277051494
827.0, 0.0024872963136171383
828.0, 0.0021803707870127944
829.0, 0.0022341043254851785
830.0, 0.0018577396288145538
831.0, 0.0020630233339391985
832.0, 0.003077928518593894
833.0, 0.003383307755498014
834.0, 0.00435839917746903
835.0, 0.0042055500328118944
836.0, 0.005262943615056217
837.0, 0.004854077249215341
838.0, 0.0038167260933544625
839.0, 0.004266323590142671
840.0, 0.004720146239155457
841.0, 0.003171423270429432
842.0, 0.0034517851096200827
843.0, 0.003873447902136837
844.0, 0.0031008221537252496
845.0, 0.0031082836544170794
846.0, 0.003793175628987088
847.0, 0.002594016988933133
848.0, 0.001958211323697911
849.0, 0.0026003987975460655
850.0, 0.0007907700072247088
851.0, 0.0036480801313512356
852.0, 0.006668007417541613
853.0, 0.005519027748806917
854.0, 0.006141259784378509
855.0, 0.007744917994897967
856.0, 0.00893310298842611
857.0, 0.009068423997693534
858.0, 0.008585667303950488
859.0, 0.00832354919187511
860.0, 0.005897138355956065
861.0, 0.0057696711154060715
862.0, 0.004868911580500836
863.0, 0.002650363915164564
864.0, 0.00510773506368007
865.0, 0.007478422045482062
866.0, 0.007114466217007315
867.0, 0.008306486229374827
868.0, 0.002355192741182879
869.0, 0.0013065259665968392
870.0, 0.0048295421790452665
871.0, 0.004570566300187698
872.0, 0.005112387694527197
873.0, 0.006319789380428919
874.0, 0.004764920957462037
875.0, 0.0008318453505769599
876.0, 0.0011895004598030919
877.0, 0.0073977338777259025
878.0, 0.0033618787485898485
879.0, 0.003634671135987102
880.0, 0.006594676576661206
881.0, 0.007474552267025807
882.0, 0.006831317050881555
883.0, 0.004783464817329892
884.0, 0.002569087489223993
885.0, 0.00580854752345934
886.0, 0.005864402591675053
887.0, 0.005674109770699938
888.0, 0.00656628427969057
889.0, 0.008260039140132864
890.0, 0.006956403600003161
891.0, 0.004804773909396759
892.0, 0.0047356381861138105
893.0, 0.0069944760505582
894.0, 0.010371679844034263
895.0, 0.004391998218837485
896.0, 0.0034681867831149312
897.0, 0.004418843138818461
898.0, 0.0018671853696905802
899.0, 0.0041734067084702045
900.0, 0.005973694988039369
901.0, 0.0037486063981407892
902.0, 0.0026601287768649204
903.0, 0.001329286964746352
904.0, 0.009919258244267313
905.0, 0.005155724756678873
906.0, 0.0051833277702768
907.0, 0.004559397240810611
908.0, 0.002503258960972791
909.0, 0.0012272555522059568
910.0, 0.0025480821889455737
911.0, 0.004697506249438159
912.0, 0.003076864828922053
913.0, 0.004029120874303869
914.0, 0.0016090761260828396
915.0, 0.0014109078863382412
916.0, 0.001817108268946318
917.0, 0.0023949115813212234
918.0, 0.003197497381160914
919.0, 0.0032098083156360544
920.0, 0.002275285928955515
921.0, 0.003467530531827653
922.0, 0.003908254751093312
923.0, 0.007633891682362871
924.0, 0.0061611119572100755
925.0, 0.005886676806802689
926.0, 0.005660532600825018
927.0, 0.00546911434738204
928.0, 0.006499207549639447
929.0, 0.007771931958886778
930.0, 0.0064076296527183375
931.0, 0.007611816788523643
932.0, 0.006451639415675561
933.0, 0.01030525047999228
934.0, 0.007670823584551292
935.0, 0.008371448561691598
936.0, 0.007833841856596056
937.0, 0.007170010216394733
938.0, 0.007698808501301189
939.0, 0.0016145270696600513
940.0, 0.001001642306037971
941.0, 0.0037424821887990308
942.0, 0.005448360804026256
943.0, 0.002512392596556351
944.0, 0.0026249492063310158
945.0, 0.004046773657689226
946.0, 0.005905597739683668
947.0, 0.007850257142228019
948.0, 0.007049542224413534
949.0, 0.002645044993994537
950.0, 0.0035950407214409962
951.0, 0.0034706847735555485
952.0, 0.0028867808671907227
953.0, 0.008176028432841239
954.0, 0.00857348896156523
955.0, 0.003889624848164665
956.0, 0.0022291603488308514
957.0, 0.004326673497598445
958.0, 0.0010984223111748413
959.0, 0.0031320484857826365
960.0, 0.01004695796650698
961.0, 0.007201169414063098
962.0, 0.008886064747953979
963.0, 0.005246334096077086
964.0, 0.005849611487585608
965.0, 0.008840687366142302
966.0, 0.00897712781160918
967.0, 0.010415406355790963
968.0, 0.012100000206116804
969.0, 0.01213428060601288
970.0, 0.015642834686996593
971.0, 0.016300941076193298
972.0, 0.018102549454482444
973.0, 0.022255561362149016
974.0, 0.028182713362151543
975.0, 0.03451941502154623
976.0, 0.04231243801282936
977.0, 0.0539971681648722
978.0, 0.06557776132776984
979.0, 0.0923121811188118
980.0, 0.13046290713383402
981.0, 0.1930642150826179
982.0, 0.27194602398909773
983.0, 0.36992696356031024
984.0, 0.48924620883714376
985.0, 0.6357389422922602
986.0, 0.798990915978671
987.0, 0.9317127702941108
988.0, 0.9981272479009451
989.0, 0.9591115791706353
990.0, 0.7735521392275131
991.0, 0.5589771008917852
992.0, 0.38493446295312517
993.0, 0.27884160283395326
994.0, 0.22594469698141678
995.0, 0.20296523966331956
996.0, 0.19945713906096219
997.0, 0.20766661769952863
998.0, 0.21120701404284342
999.0, 0.21269915830679964
1000.0, 0.21537219374912667
1001.0, 0.2176741502523178
1002.0, 0.21597812406065284
1003.0, 0.20792031521999468
1004.0, 0.19621534076206112
1005.0, 0.18534625083447712
1006.0, 0.17476233074753666
1007.0, 0.1584589683251258
1008.0, 0.1401600521213944
1009.0, 0.12849854220709303
1010.0, 0.11794847692457562
1011.0, 0.10457831366188079
1012.0, 0.09902077082111159
1013.0, 0.09121195856049616
1014.0, 0.08074026704689505
1015.0, 0.07091526628060561
1016.0, 0.06026511416438854
1017.0, 0.051381818708329155
1018.0, 0.04923382495802441
1019.0, 0.04384300982332413
1020.0, 0.04180093497426871
1021.0, 0.037499973772768216
1022.0, 0.03268005417421565
1023.0, 0.029647661768404106
1024.0, 0.028202500055577576
1025.0, 0.02591951743365966
1026.0, 0.021925425646236146
1027.0, 0.018270619323103508
1028.0, 0.014334985294667724
1029.0, 0.01591269854591256
1030.0, 0.014384013886171986
1031.0, 0.013941601589933942
1032.0, 0.015429766209336476
1033.0, 0.011387660221060482
1034.0, 0.009984708007387134
1035.0, 0.011323106902177835
1036.0, 0.00974602921161839
1037.0, 0.008844739609871324
1038.0, 0.010676804991307697
1039.0, 0.011098314860959625
1040.0, 0.003805642301666434
1041.0, 0.007155370631845964
1042.0, 0.006794206800777478
1043.0, 0.01008683589074634
1044.0, 0.00934701500995191
1045.0, 0.007661912625601084
1046.0, 0.007435121073931554
1047.0, 0.004726048244036317
1048.0, 0.003928066202157679
1049.0, 0.002749469377849084
1050.0, 0.003781430634820255
1051.0, 0.004378399371987122
1052.0, 0.0051073552839302275
1053.0, 0.005179280462810275
1054.0, 0.004293916933826877
1055.0, 0.0044756968504620015
1056.0, 0.005202567801592837
1057.0, 0.005734666709284474
1058.0, 0.006870040531617102
1059.0, 0.005716106623946104
1060.0, 0.0027198492692017805
1061.0, 0.003551799186515773
1062.0, 0.004092756666869711
1063.0, 0.001936348476609871
1064.0, 0.0036926534670531745
1065.0, 0.003909036536125806
1066.0, 0.0016763971203597337
1067.0, 0.0007343518085415655
1068.0, 0.0023850702915318
1069.0, 0.003310567825440835
1070.0, 0.0004984030907747402
1071.0, 0.0007270933540226073
1072.0, 0.0009556760033902948
1073.0, 0.007312676424624031
1074.0, 0.009115163337807607
1075.0, 0.009716896413312932
1076.0, 0.01052594430961052
1077.0, 0.01132321321656605
1078.0, 0.01207880971393255
1079.0, 0.012744230830896748
1080.0, 0.013340320066309053
1081.0, 0.015425503021806047
1082.0, 0.01565132001424165
1083.0, 0.01823998553243081
1084.0, 0.014915922207446596
1085.0, 0.013898702031933042
1086.0, 0.014993352079776067
1087.0, 0.015185987674990676
1088.0, 0.012198745527701655
1089.0, 0.006815933597994198
1090.0, 0.0022558893504469463
1091.0, 0.001688261640496689
1092.0, 0.0059926527550940994
1093.0, 0.008885088689987039
1094.0, 0.0036626530733874577
1095.0, 0.006970392487060733
1096.0, 0.003220360033233052
1097.0, 0.005337746521516607
1098.0, 0.005876119397069287
1099.0, 0.0037015201626632663
1100.0, 0.004638024803166623
1101.0, 0.007859440367359494
1102.0, 0.008649802000529404
1103.0, 0.01188480008254682
1104.0, 0.005674829236324512
1105.0, 0.0034441113136696915
1106.0, 0.0009511326905252138
1107.0, 0.0017180989121752636
1108.0, 0.001775546328244568
1109.0, 0.0038270450873366868
1110.0, 0.003109179571967248
1111.0, 0.0025452440960490796
1112.0, 0.003317143076910448
1113.0, 0.0011487342081399144
1114.0, 0.0011838270251055831
1115.0, 0.00038449837742115254
1116.0, 0.003638859513129161
1117.0, 0.0055627460636103136
1118.0, 0.004212210891696466
1119.0, 0.009121202398427961
1120.0, 0.007837042520720823
1121.0, 0.004707987739058929
1122.0, 0.0034157681441430183
1123.0, 0.003922604794846993
1124.0, 0.0054781050087487435
1125.0, 0.006599499147951668
1126.0, 0.0071088063890974015
1127.0, 0.007161145097398141
1128.0, 0.01017416695465236
1129.0, 0.010002991079160403
1130.0, 0.011142161794831022
1131.0, 0.011712656097653222
1132.0, 0.013075924648332323
1133.0, 0.015052153678114025
1134.0, 0.016950389761257102
1135.0, 0.01820350311168758
1136.0, 0.018566329478836997
1137.0, 0.018175718594987886
1138.0, 0.016636694106132714
1139.0, 0.01521210362032036
1140.0, 0.01904890748180729
1141.0, 0.014796712432897614
1142.0, 0.01825743540522071
1143.0, 0.01670787955618651
1144.0, 0.013869123838530933
1145.0, 0.013183135242220268
1146.0, 0.012511313575307558
1147.0, 0.01151183806351792
1148.0, 0.010793077797337267
1149.0, 0.007390415066660456
1150.0, 0.005270375641868631
1151.0, 0.009714963956163468
1152.0, 0.0041231987596798796
1153.0, 0.005161896686399657
1154.0, 0.0051178512727435175
1155.0, 0.007998678014396328
1156.0, 0.006164517185707459
1157.0, 0.005501945471261326
1158.0, 0.005169994248558493
1159.0, 0.0028891610577150614
1160.0, 0.0021035012093133733
1161.0, 0.004914376584287453
1162.0, 0.010342758888378874
1163.0, 0.00617833771520984
1164.0, 0.009103523710212065
1165.0, 0.01305375849362246
1166.0, 0.008430252373048185
1167.0, 0.007890454718290344
1168.0, 0.007536713255050862
1169.0, 0.0060192180376712045
1170.0, 0.00376105052868098
1171.0, 0.0031976362385243563
1172.0, 0.004399285168460767
1173.0, 0.004794481992868383
1174.0, 0.00599989268261075
1175.0, 0.006360309365689998
1176.0, 0.0024588061709472355
1177.0, 0.002823307173130706
1178.0, 0.004880276941710017
1179.0, 0.002059202759792194
1180.0, 0.0014583215797158414
1181.0, 0.0008140834243962371
1182.0, 0.0011349540168264505
1183.0, 0.0009990749282999865
1184.0, 0.0013155837619578347
1185.0, 0.002617522703173126
1186.0, 0.0008794384453341412
1187.0, 0.0008431953386733551
1188.0, 0.0018197427161689246
1189.0, 0.002969987566085872
1190.0, 0.0016040914241328115
1191.0, 0.0020372520912075756
1192.0, 0.002837892406089712
1193.0, 0.00210593183049172
1194.0, 0.004049439590104489
1195.0, 0.002693540652788511
1196.0, 0.00036118555716964373
1197.0, 0.0010285576838462722
1198.0, 0.0016345489924584633
1199.0, 0.0018266731203669304
1200.0, 0.0024966327098274507
1201.0, 0.0046851146120440975
1202.0, 0.0022600681903262925
1203.0, 0.0027356918844916108
1204.0, 0.002082035656949981
1205.0, 0.002708317341213024
1206.0, 0.0027668073478845146
1207.0, 0.0023410218201683755
1208.0, 0.0023272233167357147
1209.0, 0.00419578480780897
1210.0, 0.004228888112329339
1211.0, 0.0010862480273509938
1212.0, 0.0015166797118704208
1213.0, 0.00350033887969058
1214.0, 0.005030242874318893
1215.0, 0.004411946765485448
1216.0, 0.0015323540891559095
1217.0, 0.00411203822554604
1218.0, 0.004461852084173358
1219.0, 0.0046283423666185815
1220.0, 0.004950797442640908
1221.0, 0.00593226333187887
1222.0, 0.005714891921915905
1223.0, 0.003928728134303454
1224.0, 0.0031656089620512723
1225.0, 0.0036184120687324673
1226.0, 0.0028246507028842657
1227.0, 0.004623652803840233
1228.0, 0.004732605206239146
1229.0, 0.0015472959834315696
1230.0, 0.004756175284685135
1231.0, 0.00453791825545968
1232.0, 0.0045031308213579
1233.0, 0.007816589649655935
1234.0, 0.006889395477543372
1235.0, 0.0027213640243029533
1236.0, 0.0005343196006904412
1237.0, 0.002958588357248128
1238.0, 0.006290457419259024
1239.0, 0.004944457712435074
1240.0, 0.004065671664612693
1241.0, 0.010268642826008607
1242.0, 0.00414456704223385
1243.0, 0.0035908923406939505
1244.0, 0.004987573316016123
1245.0, 0.0012097529366129566
1246.0, 0.008026747700740413
1247.0, 0.0035257498389715957
1248.0, 0.003657158027856448
1249.0, 0.008685485107421436
1250.0, 0.007845893888241716
1251.0, 0.004081172623021942
1252.0, 0.0035563367261607537
1253.0, 0.0023867017394059334
1254.0, 0.001511524807212896
1255.0, 0.0022633302018919906
1256.0, 0.0004326897106077584
1257.0, 0.0023423661705834218
1258.0, 0.0023612459330475647
1259.0, 0.001122398825638771
1260.0, 0.006698938689069493
1261.0, 0.006199060578795463
1262.0, 0.005898312688489693
1263.0, 0.008405193792404422
1264.0, 0.0074660715058991155
1265.0, 0.005302164445989615
1266.0, 0.005521608066285096
1267.0, 0.005534380781873033
1268.0, 0.006043224179491918
1269.0, 0.00324607768108669
1270.0, 0.002838977743072791
1271.0, 0.00034729647336429224
1272.0, 0.0012856293123679854
1273.0, 0.005274111918313101
1274.0, 0.005894075699491952
1275.0, 0.003051605357314256
1276.0, 0.0035939200996927714
1277.0, 0.0034300608768577934
1278.0, 0.002658112838947049
1279.0, 0.004037825622712471
1280.0, 0.0051053637320793875
1281.0, 0.0050112148569661195
1282.0, 0.006059853818317233
1283.0, 0.005975296493005312
1284.0, 0.007713774728799369
1285.0, 0.0020877918113409383
1286.0, 0.00414923596816462
1287.0, 0.004937805861287448
1288.0, 0.0031984906301741217
1289.0, 0.004500945171058564
1290.0, 0.009208574036234601
1291.0, 0.009119169071467167
1292.0, 0.009028996966817098
1293.0, 0.007406781419268125
1294.0, 0.005115390928637907
1295.0, 0.004592863409755635
1296.0, 0.006646466304467501
1297.0, 0.008711681557047268
1298.0, 0.006924862033654695
1299.0, 0.007626076638264397
1300.0, 0.007705181952479049
1301.0, 0.008387468230622879
1302.0, 0.006541658047012642
1303.0, 0.008205434994280154
1304.0, 0.010289257634653022
1305.0, 0.006717094433469262
1306.0, 0.005453392082783464
1307.0, 0.011314053296179596
1308.0, 0.008767332620640764
1309.0, 0.007799684611504212
1310.0, 0.008495827253757745
1311.0, 0.005877318780918461
1312.0, 0.00620592542472571
1313.0, 0.007337915292153163
1314.0, 0.0032751702264515107
1315.0, 0.0035594323828666693
1316.0, 0.0031074082767565793
1317.0, 0.002125697309170675
1318.0, 0.005920062492612055
1319.0, 0.008694845229986299
1320.0, 0.0017738761533685563
1321.0, 0.003965895895103252
1322.0, 0.004598386802709374
1323.0, 0.0048733536356577595
1324.0, 0.006355591186813583
1325.0, 0.006626733922083034
1326.0, 0.006137556212947363
1327.0, 0.0068946481601391794
1328.0, 0.006278641686838429
1329.0, 0.004137810947729271
1330.0, 0.005290378107620587
1331.0, 0.0038773898855532845
1332.0, 0.006225786825522164
1333.0, 0.006794320378475693
1334.0, 0.005374774386588201
1335.0, 0.010170053786860221
1336.0, 0.003525116173526061
1337.0, 0.006281927863445165
1338.0, 0.007562268136013376
1339.0, 0.008362641873163695
1340.0, 0.008040427279227956
1341.0, 0.009971387890455439
1342.0, 0.009916908346809132
1343.0, 0.007074411999121214
1344.0, 0.006220005381940481
1345.0, 0.005208384372880443
1346.0, 0.002230127765384759
1347.0, 0.004881748875312898
1348.0, 0.007418749446445407
1349.0, 0.007006229209785947
1350.0, 0.012850680003747719
1351.0, 0.011278654248954743
1352.0, 0.010006024937849758
1353.0, 0.008672763269094046
1354.0, 0.0066417177980898304
1355.0, 0.004021663196546915
1356.0, 0.0061779610181119885
1357.0, 0.00861510626992413
1358.0, 0.006181241443758339
1359.0, 0.0019335400241109895
1360.0, 0.003556787626655146
1361.0, 0.007680340963515657
1362.0, 0.00922219486400002
1363.0, 0.007984434123302818
1364.0, 0.0035590980390386483
1365.0, 0.005991644452023241
1366.0, 0.002724499497145986
1367.0, 0.007923737353319945
1368.0, 0.003185670727101546
1369.0, 0.009160436135150989
1370.0, 0.007995179489159458
1371.0, 0.007170052667167825
1372.0, 0.007453509775128189
1373.0, 0.0038008251446626606
1374.0, 0.00726677189288265
1375.0, 0.0033039347771041923
1376.0, 0.003032890244537104
1377.0, 0.0022457570585190535
1378.0, 0.002780967209550395
1379.0, 0.004627958407597872
1380.0, 0.005304107087976492
1381.0, 0.006907229019996462
1382.0, 0.0026741943334147667
1383.0, 0.0005151465811965901
1384.0, 0.0017746879441038377
1385.0, 0.005581430581642574
1386.0, 0.003450554260140632
1387.0, 0.005638997738151805
1388.0, 0.004347459313489579
1389.0, 0.003015049543898614
1390.0, 0.004921168097268722
1391.0, 0.004270588810051698
1392.0, 0.00655313868933872
1393.0, 0.01176242317537055
1394.0, 0.0073611865555552715
1395.0, 0.00521304111092768
1396.0, 0.005378691627252552
1397.0, 0.0044113525312478585
1398.0, 0.0048638242625978255
1399.0, 0.006274795483296799
1400.0, 0.006613744670865987
1401.0, 0.005907542668406533
1402.0, 0.006410263706792195
1403.0, 0.0053750154591567035
1404.0, 0.005470834833903874
1405.0, 0.005228994114578201
1406.0, 0.003974276484620147
1407.0, 0.004013552776740427
1408.0, 0.003066838513198137
1409.0, 0.0033466929940843123
1410.0, 0.005410802390152398
1411.0, 0.005021721924813791
1412.0, 0.0026125345758573923
1413.0, 0.004075939059479722
1414.0, 0.004762095282992408
1415.0, 0.005237629481009009
1416.0, 0.003919309162492034
1417.0, 0.0035615032439588867
1418.0, 0.006066235361177904
1419.0, 0.006428127588815784
1420.0, 0.003460311313264066
1421.0, 0.0009269970428928101
1422.0, 0.002919810628143407
1423.0, 0.004720302397503445
1424.0, 0.001471660169181248
1425.0, 0.0066089748199818325
1426.0, 0.0064532381498686
1427.0, 0.007245992861439479
1428.0, 0.003531569001921797
1429.0, 0.004952540401018334
1430.0, 0.008111554422017333
1431.0, 0.009401362464591372
1432.0, 0.00914029857732493
1433.0, 0.008452090620002052
1434.0, 0.007240191342004206
1435.0, 0.007080951254415174
1436.0, 0.007770201119002863
1437.0, 0.005622987244124291
1438.0, 0.004334663739886161
1439.0, 0.005316859215429582
1440.0, 0.005457744640023623
1441.0, 0.007403497142665705
1442.0, 0.009391906251785627
1443.0, 0.008680979333423385
1444.0, 0.006118564425186695
1445.0, 0.005138958813177503
1446.0, 0.010329067552447634
1447.0, 0.009759473173246032
1448.0, 0.016596667858794517
1449.0, 0.00859943731791141
1450.0, 0.010949676195706368
1451.0, 0.011962570213906842
1452.0, 0.010775925670498657
1453.0, 0.007944608716908608
1454.0, 0.007920507241697052
1455.0, 0.00843097270228047
1456.0, 0.006970145697217807
1457.0, 0.00657917806791203
1458.0, 0.008437475017347693
1459.0, 0.009124914781629677
1460.0, 0.0068150761516024136
1461.0, 0.005852074991822595
1462.0, 0.009473309562389872
1463.0, 0.0110245041631846
1464.0, 0.006887894623944567
1465.0, 0.005616449647383108
1466.0, 0.005538950259289141
1467.0, 0.011847495092691417
1468.0, 0.012090631798817968
1469.0, 0.008646541135083691
1470.0, 0.012344455436906772
1471.0, 0.009765725248646225
1472.0, 0.004555610066314785
1473.0, 0.007922609216374039
1474.0, 0.0026433291058884983
1475.0, 0.004499009688826149
1476.0, 0.004127011658648383
1477.0, 0.0013545514974525148
1478.0, 0.0031179388496987807
1479.0, 0.003389605504617884
1480.0, 0.007616464588379512
1481.0, 0.011007166778872791
1482.0, 0.007145051080568784
1483.0, 0.002974767449090761
1484.0, 0.001943065265054092
1485.0, 0.003610223670917067
1486.0, 0.0064655613960908215
1487.0, 0.004545430713013926
1488.0, 0.004346726486586678
1489.0, 0.008181218161853434
1490.0, 0.0032855200872790244
1491.0, 0.008536929846916834
1492.0, 0.00540866512423854
1493.0, 0.0030208510322493063
1494.0, 0.002191201744813388
1495.0, 0.005803847347098979
1496.0, 0.010152063363135424
1497.0, 0.0095358030696841
1498.0, 0.00973147308328016
1499.0, 0.009518686750415289
1500.0, 0.006047217935565785
1501.0, 0.0028073161902926014
1502.0, 0.0015842397186291665
1503.0, 0.0008613667754851079
1504.0, 0.003701535584708665
1505.0, 0.003428826162832024
1506.0, 0.003324304278946956
1507.0, 0.004938551316745986
1508.0, 0.005308460552377856
1509.0, 0.005192590833854959
1510.0, 0.004042310780379255
1511.0, 0.002991884995203063
1512.0, 0.003806993163259218
1513.0, 0.004152033204273993
1514.0, 0.00516497762054941
1515.0, 0.0039308220392527335
1516.0, 0.0038205096528069597
1517.0, 0.004166289800681583
1518.0, 0.004238140409059003
1519.0, 0.004388115562632592
1520.0, 0.005013804221646206
1521.0, 0.004587959604961037
1522.0, 0.003179610803855548
1523.0, 0.005156951892568051
1524.0, 0.0038287592247328666
1525.0, 0.0056644847344051764
1526.0, 0.004270748575841721
1527.0, 0.005836620788470182
1528.0, 0.006748471890439895
1529.0, 0.0038046669369869637
1530.0, 0.0044798302755736505
1531.0, 0.0036665195047964148
1532.0, 0.006105939946463069
1533.0, 0.00452553323979117
1534.0, 0.002316548150586324
1535.0, 0.0016910751581336611
1536.0, 0.0036990555081865633
1537.0, 0.00350423610382423
1538.0, 0.0008675942970365753
1539.0, 0.0011669659960157968
1540.0, 0.005005727217491928
1541.0, 0.008122693835808499
1542.0, 0.006537428710441863
1543.0, 0.00871217768483988
1544.0, 0.005677360339121497
1545.0, 0.003460998916304096
1546.0, 0.005099387781691928
1547.0, 0.002930102973173288
1548.0, 0.0007345620776282371
1549.0, 0.0022978640864793377
1550.0, 0.005455191264818083
1551.0, 0.007079209342667096
1552.0, 0.003582412451691444
1553.0, 0.012565025245380109
1554.0, 0.00391764956223709
1555.0, 0.0021088238543456165
1556.0, 0.009925669113112085
1557.0, 0.011660120850076313
1558.0, 0.0073888662256843245
1559.0, 0.006524964102607307
1560.0, 0.0053420003754378175
1561.0, 0.006821424958380806
1562.0, 0.007785102904437622
1563.0, 0.00436158901050488
1564.0, 0.0019096938093928
1565.0, 0.002277259738132382
1566.0, 0.004856730077958927
1567.0, 0.0029778231964130994
1568.0, 0.003244081749808671
1569.0, 0.0034273294965451277
1570.0, 0.00020458376482705059
1571, 0.0
1572, 0.0
1573, 0.0
1574, 0.0
1575, 0.0
1576, 0.0
1577, 0.0
1578, 0.0
1579, 0.0
1580, 0.0
1581, 0.0
1582, 0.0
1583, 0.0
1584, 0.0
1585, 0.0
1586, 0.0
1587, 0.0
1588, 0.0
1589, 0.0
1590, 0.0
1591, 0.0
1592, 0.0
1593, 0.0
1594, 0.0
1595, 0.0
1596, 0.0
1597, 0.0
1598, 0.0
1599, 0.0
