30, 0.0
31, 0.0
32, 0.0
33, 0.0
34, 0.0
35, 0.0
36, 0.0
37, 0.0
38, 0.0
39, 0.0
40, 0.0
41, 0.0
42, 0.0
43, 0.0
44, 0.0
45, 0.0
46, 0.0
47, 0.0
48, 0.0
49, 0.0
50, 0.0
51, 0.0
52, 0.0
53, 0.0
54, 0.0
55, 0.0
56, 0.0
57, 0.0
58, 0.0
59, 0.0
60, 0.0
61, 0.0
62, 0.0
63, 0.0
64, 0.0
65, 0.0
66, 0.0
67, 0.0
68, 0.0
69, 0.0
70, 0.0
71, 0.0
72, 0.0
73, 0.0
74, 0.0
75, 0.0
76, 0.0
77, 0.0
78, 0.0
79, 0.0
80, 0.0
81, 0.0
82, 0.0
83, 0.0
84, 0.0
85, 0.0
86, 0.0
87, 0.0
88, 0.0
89, 0.0
90, 0.0
91, 0.0
92, 0.0
93, 0.0
94, 0.0
95, 0.0
96, 0.0
97, 0.0
98.0, 0.0002696700928635921
99.0, 0.0022238012005707077
100.0, 0.005295919460128239
101.0, 0.0068953941491747715
102.0, 0.009892896703526858
103.0, 0.015297334314259753
104.0, 0.017179006709843916
105.0, 0.02322846301952722
106.0, 0.02826231268937609
107.0, 0.03215653619215667
108.0, 0.03489059115153101
109.0, 0.035867406339456
110.0, 0.03672088341963997
111.0, 0.03739270382519106
112.0, 0.037471092863764884
113.0, 0.036768833420797835
114.0, 0.03537261586980043
115.0, 0.034504366891829355
116.0, 0.03136711826717812
117.0, 0.027980795685133977
118.0, 0.02458301179571868
119.0, 0.020423533764736965
120.0, 0.016616636878085858
121.0, 0.013863770509210437
122.0, 0.012069912302163952
123.0, 0.011019502196390111
124.0, 0.010427702434014072
125.0, 0.010103366783476779
126.0, 0.011084062442245678
127.0, 0.011988640877187293
128.0, 0.013615776480651284
129.0, 0.016423687044566978
130.0, 0.018731675571060112
131.0, 0.01953192069766606
132.0, 0.020535957104891603
133.0, 0.02107816927501607
134.0, 0.020318226588128794
135.0, 0.017490356110265615
136.0, 0.017579308450002024
137.0, 0.014961550233391787
138.0, 0.013062688142862822
139.0, 0.012521724582378333
140.0, 0.011530151601407536
141.0, 0.01089675549917375
142.0, 0.009059395315527947
143.0, 0.00748492371964508
144.0, 0.006700222696660705
145.0, 0.00674894290250702
146.0, 0.00749535429413424
147.0, 0.006187177213339175
148.0, 0.005386394711011344
149.0, 0.00469678174887257
150.0, 0.0037095678674398404
151.0, 0.003774794007341126
152.0, 0.005105067594845677
153.0, 0.004105438092976041
154.0, 0.002723841875356125
155.0, 0.0022462834461595667
156.0, 0.0023683128130721305
157.0, 0.0009041640746851623
158.0, 0.0006224525038819025
159.0, 0.00048675621176690834
160.0, 0.0006990537731455483
161.0, 0.001985755696953489
162.0, 0.0020840140407295386
163.0, 0.0016600476176646206
164.0, 0.0011693508744594703
165.0, 0.000728282197199581
166.0, 0.00042714902584912475
167.0, 0.0006388031094559437
168.0, 0.0021065293566367048
169.0, 0.0028580622908288707
170.0, 0.002333169706384137
171.0, 0.0011900092028624195
172.0, 0.0016114243510610296
173.0, 0.0007369713113662374
174.0, 0.0008266380030492392
175.0, 0.0010652609574718854
176.0, 0.0012631765146526321
177.0, 0.0015920945996714308
178.0, 0.0010359981428521286
179.0, 0.0007163512796324967
180.0, 0.000669674968811173
181.0, 0.0010966635940678588
182.0, 0.0020830411237451425
183.0, 0.0032603194706666712
184.0, 0.005973398390170246
185.0, 0.007181060802803595
186.0, 0.008723867890467403
187.0, 0.01044367349772501
188.0, 0.009177822010474932
189.0, 0.011491569861620018
190.0, 0.010997675242737507
191.0, 0.010201969516244433
192.0, 0.010514511799778267
193.0, 0.012356718960741793
194.0, 0.014405522093209404
195.0, 0.01252700549612219
196.0, 0.009417920162205263
197.0, 0.007581624524383597
198.0, 0.007510665645324968
199.0, 0.005523457118420989
200.0, 0.005962627525032878
201.0, 0.006063276558188161
202.0, 0.006418746018310983
203.0, 0.00667789348793748
204.0, 0.005838301283854899
205.0, 0.00556292540666874
206.0, 0.005781567414674699
207.0, 0.008133448795058888
208.0, 0.01014280314955757
209.0, 0.010014042018371359
210.0, 0.0119927043715987
211.0, 0.011541388683255382
212.0, 0.012533898825716889
213.0, 0.013437480007853466
214.0, 0.013368158988196644
215.0, 0.012764988727049257
216.0, 0.01346644038874684
217.0, 0.012160299272488944
218.0, 0.012610283486463586
219.0, 0.013909351617295342
220.0, 0.013669664438554153
221.0, 0.011079473298982113
222.0, 0.01054388140913957
223.0, 0.009884363981012646
224.0, 0.00938570613362644
225.0, 0.009076885101435124
226.0, 0.008432760937856288
227.0, 0.00915657260171469
228.0, 0.00753417494160862
229.0, 0.008355283234630553
230.0, 0.009110488737574855
231.0, 0.006453957844115788
232.0, 0.006262028970413262
233.0, 0.007036686845781708
234.0, 0.006520343494787434
235.0, 0.006239688769212972
236.0, 0.006495606561901773
237.0, 0.005707837056519543
238.0, 0.006124955915186529
239.0, 0.005833706520068626
240.0, 0.005224921094980314
241.0, 0.005359166095424916
242.0, 0.0065459011695355096
243.0, 0.00560010938489432
244.0, 0.004501358603771496
245.0, 0.005291520833209413
246.0, 0.006220613891585026
247.0, 0.006444269631253216
248.0, 0.0064443319805138006
249.0, 0.005094965196407644
250.0, 0.005024996351256032
251.0, 0.0034221107284997765
252.0, 0.002482137901992311
253.0, 0.0036822063423239113
254.0, 0.0021616398536113027
255.0, 0.0016655894209738615
256.0, 0.0015312635291514188
257.0, 0.0012507552732487876
258.0, 0.0008451207362717578
259.0, 0.000697914099764308
260.0, 0.0005688910913791849
261.0, 0.0005151322002873005
262.0, 0.000547304733242643
263.0, 0.0007829980386218412
264.0, 0.0011090893213162088
265.0, 0.000986607940735178
266.0, 0.0018084650328483057
267.0, 0.002181774904279312
268.0, 0.0013438241530188192
269.0, 0.0005287197270705812
270.0, 0.0011540906479560686
271.0, 0.0007160178909346609
272.0, 0.0007984684468104051
273.0, 0.001298122804004033
274.0, 0.001031959330968615
275.0, 0.00019249496037930704
276.0, 0.00047461319395951244
277.0, 0.0007939821240712756
278.0, 0.00042784074268440727
279.0, 0.0007711748787138908
280.0, 0.0015206670778102425
281.0, 0.0019861452344910433
282.0, 0.0018911815421181664
283.0, 0.002699563745071647
284.0, 0.0023774051835131213
285.0, 0.0029621717062374006
286.0, 0.003547273653223802
287.0, 0.002299920239544554
288.0, 0.0025466572735186226
289.0, 0.0027036305241198064
290.0, 0.0036444567209028287
291.0, 0.004558570277380048
292.0, 0.005052697597611653
293.0, 0.005613235875708355
294.0, 0.008126882254277316
295.0, 0.007573487674589771
296.0, 0.007011415973920232
297.0, 0.007607689879318067
298.0, 0.009164870914924518
299.0, 0.00995937263894025
300.0, 0.011641414027240681
301.0, 0.011701653067471519
302.0, 0.011465533612118717
303.0, 0.012067563080885703
304.0, 0.013976523920989374
305.0, 0.016010923725467762
306.0, 0.01651634219750833
307.0, 0.018578731095318254
308.0, 0.020333106622643152
309.0, 0.021799997302709904
310.0, 0.024428990784748767
311.0, 0.024684652450974804
312.0, 0.02751862567588523
313.0, 0.030458894888743447
314.0, 0.03283718739944259
315.0, 0.03533290733947579
316.0, 0.0396589863194866
317.0, 0.042460511777769355
318.0, 0.0456806913436542
319.0, 0.048578959375198814
320.0, 0.05138613125812882
321.0, 0.05394873720864175
322.0, 0.05471284401504327
323.0, 0.05451038842276193
324.0, 0.052659909055677696
325.0, 0.05300729895892132
326.0, 0.05277441298491956
327.0, 0.04849804316044635
328.0, 0.04524766852017939
329.0, 0.04261109543836231
330.0, 0.041345087114761876
331.0, 0.03910874865224046
332.0, 0.035384634266589055
333.0, 0.03169073435635512
334.0, 0.03203984104866408
335.0, 0.027143549368557097
336.0, 0.02418569763662414
337.0, 0.022401409161761296
338.0, 0.020673022385657568
339.0, 0.01872147646453099
340.0, 0.017702109696229082
341.0, 0.015780351679948682
342.0, 0.015058664451255173
343.0, 0.014354155876871177
344.0, 0.01295242108222599
345.0, 0.011685938393756756
346.0, 0.013399946847548905
347.0, 0.011525175863422908
348.0, 0.01128952621835115
349.0, 0.012664396284871478
350.0, 0.01390223593316151
351.0, 0.01320277267626064
352.0, 0.01486890031352777
353.0, 0.013310436814433783
354.0, 0.012740187903369215
355.0, 0.013162710347813548
356.0, 0.01351214316188614
357.0, 0.01350358345811669
358.0, 0.013843435101866542
359.0, 0.013473491718009524
360.0, 0.013663467437604666
361.0, 0.013838927068886005
362.0, 0.013289102816014697
363.0, 0.012642154063918314
364.0, 0.012778873575191694
365.0, 0.01363386868855352
366.0, 0.013481101262140048
367.0, 0.013832200944717857
368.0, 0.015331126260253559
369.0, 0.013032602210055677
370.0, 0.015168492118753409
371.0, 0.016047291763893596
372.0, 0.015778391398809922
373.0, 0.01582448017449196
374.0, 0.016652646108067434
375.0, 0.014653432915846924
376.0, 0.016815162800803994
377.0, 0.017533666175079662
378.0, 0.01866359516928718
379.0, 0.019698246496974832
380.0, 0.0201314320957912
381.0, 0.02315903831249232
382.0, 0.024833989710808833
383.0, 0.028178288333330304
384.0, 0.03161704901425259
385.0, 0.034488219499179025
386.0, 0.03668330400984718
387.0, 0.03787562977977337
388.0, 0.04165365535091065
389.0, 0.04300122361468676
390.0, 0.043419716313288
391.0, 0.042911962798479523
392.0, 0.04181656500479414
393.0, 0.04366405232228715
394.0, 0.04029256042193833
395.0, 0.036479053849130104
396.0, 0.03178155703353805
397.0, 0.026465749660422307
398.0, 0.021565097859709493
399.0, 0.018856499523717856
400.0, 0.017048560029811866
401.0, 0.013537712392410174
402.0, 0.011636273854110727
403.0, 0.010128695485513328
404.0, 0.007625952357120333
405.0, 0.006893068772327668
406.0, 0.005540278323084135
407.0, 0.003929601791749804
408.0, 0.004831897615966874
409.0, 0.0045739643839460865
410.0, 0.001880837972145135
411.0, 0.004077998448785972
412.0, 0.0014083029425541796
413.0, 0.0008795643090321
414.0, 0.0007428870308214173
415.0, 0.0007596113215864301
416.0, 0.0010500381543748578
417.0, 0.0014459631496481476
418.0, 0.0012704784588738818
419.0, 0.002106188123235288
420.0, 0.0027739356430507294
421.0, 0.0029299841587329834
422.0, 0.0028259179117586923
423.0, 0.0030504582431648826
424.0, 0.0030871918165435008
425.0, 0.0027420214837346984
426.0, 0.0027600482589596187
427.0, 0.0028996126689409766
428.0, 0.0028098849317608164
429.0, 0.0024534257177462556
430.0, 0.0030127819882447516
431.0, 0.003633686229086952
432.0, 0.003581705166682992
433.0, 0.003071874620175638
434.0, 0.003204121712088297
435.0, 0.004795143912141255
436.0, 0.005405903967703973
437.0, 0.006672055470247856
438.0, 0.008138553761778584
439.0, 0.010058008893724867
440.0, 0.012189828795479269
441.0, 0.014564257493068881
442.0, 0.01873890777686483
443.0, 0.022719585621377658
444.0, 0.028017864669406554
445.0, 0.03375316094049251
446.0, 0.04027988471446023
447.0, 0.04745850688102792
448.0, 0.05363396499427305
449.0, 0.06594656231327627
450.0, 0.07696877485254316
451.0, 0.08879739088909626
452.0, 0.10032954986723709
453.0, 0.10999191602089842
454.0, 0.11754006687594135
455.0, 0.12777395615528406
456.0, 0.13800010568737206
457.0, 0.15190844341053888
458.0, 0.1670721507949474
459.0, 0.1832042152294942
460.0, 0.20072073196633464
461.0, 0.21122326633895255
462.0, 0.21445125625307684
463.0, 0.20238355711738162
464.0, 0.1785615641187566
465.0, 0.14735651369739994
466.0, 0.11363427625421717
467.0, 0.08355000786422308
468.0, 0.06578726325892686
469.0, 0.04774752404181193
470.0, 0.03443970552815885
471.0, 0.027241019102034664
472.0, 0.02376383953982371
473.0, 0.019012280710638676
474.0, 0.01316324493603339
475.0, 0.01316066081277616
476.0, 0.011217228905588243
477.0, 0.00892493141934601
478.0, 0.007059719643068668
479.0, 0.004560761304004003
480.0, 0.0027315809840689808
481.0, 0.0032069872842704758
482.0, 0.004366779409475309
483.0, 0.00370474798937776
484.0, 0.0027630887820201152
485.0, 0.00326637717613275
486.0, 0.0025741161312271867
487.0, 0.0026739908164555024
488.0, 0.0016650385023182182
489.0, 0.0011986768818008772
490.0, 0.0015519452963870706
491.0, 0.0018493028909410218
492.0, 0.0010221152494850842
493.0, 0.0019553209726574762
494.0, 0.002019877132153027
495.0, 0.0013827221306448778
496.0, 0.0009488332841421173
497.0, 0.0011847126041676405
498.0, 0.0017687075624471396
499.0, 0.001444467060486098
500.0, 0.0006332868474014151
501.0, 0.0012744613821417568
502.0, 0.0007949697337868357
503.0, 0.00042203615789794394
504.0, 0.001265967922501249
505.0, 0.0021065450496974046
506.0, 0.0011363521769524791
507.0, 0.0013769428889922667
508.0, 0.0018007333958995437
509.0, 0.0015804830096867613
510.0, 0.0015268170158443356
511.0, 0.0024554388778310248
512.0, 0.0017738683369280584
513.0, 0.0034216615637912774
514.0, 0.004558912375965647
515.0, 0.003901274055797957
516.0, 0.0032720537555287615
517.0, 0.004024601370364584
518.0, 0.00484506809336354
519.0, 0.0019195499566651171
520.0, 0.003999585178499871
521.0, 0.004326062221187256
522.0, 0.0037117398289705406
523.0, 0.003013155391149552
524.0, 0.00257807612854398
525.0, 0.003259173602223541
526.0, 0.002390017528705127
527.0, 0.0024526719605088595
528.0, 0.0025289905595894755
529.0, 0.002165185503466548
530.0, 0.0015997001244763063
531.0, 0.0017448289362796202
532.0, 0.003954653664746106
533.0, 0.0022663532676790218
534.0, 0.003954517221005029
535.0, 0.003807354253015133
536.0, 0.003324586855251637
537.0, 0.0053209433020755
538.0, 0.006093064508952034
539.0, 0.0019355164097130159
540.0, 0.0009285536875970177
541.0, 0.0028458294648557956
542.0, 0.004253289842199781
543.0, 0.004385827181785902
544.0, 0.00512472625838731
545.0, 0.006437738716026727
546.0, 0.0035790890514268616
547.0, 0.0048524057461386255
548.0, 0.004152218755459891
549.0, 0.0030187671563083186
550.0, 0.0035786932819189474
551.0, 0.0043875569174659425
552.0, 0.0051043000768232144
553.0, 0.0038002301545466007
554.0, 0.00588007041425766
555.0, 0.007522410650890169
556.0, 0.006438577292277117
557.0, 0.004293581991910324
558.0, 0.00617041083928608
559.0, 0.0037828173572195542
560.0, 0.0034565470234191624
561.0, 0.0036882894579683065
562.0, 0.003663657786022095
563.0, 0.002989264108346827
564.0, 0.0018861448888654834
565.0, 0.0015275519746219348
566.0, 0.004041777168670289
567.0, 0.0028225647401984425
568.0, 0.0021796405712253687
569.0, 0.0033593573557167485
570.0, 0.0039576181510669675
571.0, 0.0011759175471410274
572.0, 0.0019314093774785279
573.0, 0.002835863896791883
574.0, 0.0025791091982931827
575.0, 0.002563802156199418
576.0, 0.002331261554976037
577.0, 0.0017611007100870868
578.0, 0.0020961089786850837
579.0, 0.002492398681600663
580.0, 0.0021236056055417116
581.0, 0.0016201995535450398
582.0, 0.0012410752930900797
583.0, 0.0008799595679047664
584.0, 0.0005839666251331717
585.0, 0.0008204073733090664
586.0, 0.0006125575271378454
587.0, 0.00018928665814966833
588.0, 9.550360805928055e-05
589.0, 0.0004189505080537612
590.0, 0.0006163178267373458
591.0, 0.0003834719082679
592.0, 0.0005298423934203976
593.0, 0.0004950250013386579
594.0, 0.00012805699389556192
595.0, 3.5699339857618486e-05
596.0, 0.00019242747544443987
597.0, 0.00048308934656532697
598.0, 0.0007689635616461113
599.0, 0.0008536577561174393
600.0, 0.001553315281262721
601.0, 0.0011532350684896075
602.0, 0.0017283983993944727
603.0, 0.0016586468451152074
604.0, 0.0018225758073077117
605.0, 0.004058027189258935
606.0, 0.005782159006510489
607.0, 0.0035127726466563937
608.0, 0.0057270487585699215
609.0, 0.007610226664172264
610.0, 0.008935112697200754
611.0, 0.011414293598760367
612.0, 0.015328886239858857
613.0, 0.016025427694978445
614.0, 0.02061352492677262
615.0, 0.022418304775249493
616.0, 0.025249559874232955
617.0, 0.028396355975065467
618.0, 0.029556839103112527
619.0, 0.027433942311843075
620.0, 0.02408186292845115
621.0, 0.021644703770507503
622.0, 0.021374212970130497
623.0, 0.021210257491217046
624.0, 0.020485644483807963
625.0, 0.020502081202492865
626.0, 0.021773883083953033
627.0, 0.020115455138724283
628.0, 0.021781571533036205
629.0, 0.022701806663398102
630.0, 0.025006936434276202
631.0, 0.024630885857216567
632.0, 0.023173183590335104
633.0, 0.024183412837557386
634.0, 0.02351174053108656
635.0, 0.02313056115834443
636.0, 0.022334922976057214
637.0, 0.02298447772325747
638.0, 0.023051135937137347
639.0, 0.024067164861691862
640.0, 0.027290452265645113
641.0, 0.028448941769936127
642.0, 0.03354076172825417
643.0, 0.038526563538871676
644.0, 0.043935812497557035
645.0, 0.04997657196870387
646.0, 0.05554698427828935
647.0, 0.060806212002814386
648.0, 0.06812576546646533
649.0, 0.07177822759180905
650.0, 0.07836237970458822
651.0, 0.0849078924528687
652.0, 0.09147090479683906
653.0, 0.098141022806105
654.0, 0.10452743470431858
655.0, 0.11064134500247289
656.0, 0.12080575199288549
657.0, 0.12757300688561724
658.0, 0.1341938656675883
659.0, 0.14346902182771196
660.0, 0.1518873673436901
661.0, 0.15733949745475656
662.0, 0.1625863406068632
663.0, 0.17181725053122301
664.0, 0.17855074206387442
665.0, 0.1798630250300632
666.0, 0.180364893333865
667.0, 0.177052453433333
668.0, 0.1708366195527276
669.0, 0.16383806334889808
670.0, 0.1496939726593104
671.0, 0.1363403709753734
672.0, 0.1241185419611112
673.0, 0.11077379042590062
674.0, 0.09697148512168069
675.0, 0.08437980458687375
676.0, 0.07405721773990316
677.0, 0.06515793768094988
678.0, 0.05419863783472271
679.0, 0.048759602938603236
680.0, 0.042810332663908754
681.0, 0.035842952850744916
682.0, 0.03161379737154003
683.0, 0.030437606936130297
684.0, 0.027746178482917064
685.0, 0.02350135181891652
686.0, 0.022304761294730663
687.0, 0.01819972382753233
688.0, 0.016055675630481183
689.0, 0.014831244158769779
690.0, 0.013584194686545113
691.0, 0.012827194896051356
692.0, 0.012644006363357262
693.0, 0.010248016471947332
694.0, 0.012092736231535709
695.0, 0.011359746585863275
696.0, 0.00986854171955532
697.0, 0.00863219147633727
698.0, 0.007647953648971619
699.0, 0.007055083795856952
700.0, 0.007005153555706636
701.0, 0.00877943254146351
702.0, 0.005229870506551916
703.0, 0.0043271791402314545
704.0, 0.005453500685428733
705.0, 0.0056621675632714825
706.0, 0.004545976850834354
707.0, 0.005423776999926635
708.0, 0.003561931543611884
709.0, 0.005679807914857476
710.0, 0.003955765056260352
711.0, 0.004332783732354889
712.0, 0.006114339514988463
713.0, 0.006207389256961602
714.0, 0.0056033527821182484
715.0, 0.0076512279810473285
716.0, 0.0037264064259916615
717.0, 0.005059460581637173
718.0, 0.003916060479436538
719.0, 0.002796354273521236
720.0, 0.003504987581666845
721.0, 0.004463266664604072
722.0, 0.004241320953889084
723.0, 0.0030489792702065627
724.0, 0.0024040365401338895
725.0, 0.002986507770383035
726.0, 0.005159957575863947
727.0, 0.005988484534399606
728.0, 0.0049460842667346915
729.0, 0.00450710597739158
730.0, 0.0022876282761735743
731.0, 0.0023547787818876268
732.0, 0.0042240821722966575
733.0, 0.0035812372146721595
734.0, 0.00266545662249136
735.0, 0.0024046519932518265
736.0, 0.0021611468858543136
737.0, 0.0016686956652989533
738.0, 0.0006056969401275217
739.0, 0.0016957399806107386
740.0, 0.0014938864180297346
741.0, 0.0009150544020370334
742.0, 0.0020670898643751555
743.0, 0.003230916924907959
744.0, 0.0023230660359500306
745.0, 0.0029484547242617826
746.0, 0.003493655778216379
747.0, 0.003056061688365111
748.0, 0.0035737920421925386
749.0, 0.0025335989278009157
750.0, 0.0009404720551035812
751.0, 0.0005539867112171325
752.0, 0.001535113848982966
753.0, 0.0024385732889918724
754.0, 0.0019854772548798245
755.0, 0.001611089330633953
756.0, 0.0019633316797935015
757.0, 0.00293893738219091
758.0, 0.0021742865200094622
759.0, 0.0004205180280616868
760.0, 0.0011226388426719375
761.0, 0.00076811104968214
762.0, 0.00034406470135871345
763.0, 0.0005499589223471661
764.0, 0.0007610767201259962
765.0, 0.0012708958098380534
766.0, 0.0014996833985877317
767.0, 0.0009067127434601833
768.0, 0.0003854242783730931
769.0, 0.002620968045664431
770.0, 0.001108693835898906
771.0, 0.0030165582466750414
772.0, 0.0018494014686598194
773.0, 0.00047804574119052684
774.0, 0.0012289308400651362
775.0, 0.0025503724233275297
776.0, 0.0015577954038309893
777.0, 0.0022973950276525663
778.0, 0.00206266943922786
779.0, 0.002875014540247362
780.0, 0.0024826882237353252
781.0, 0.002630137432882131
782.0, 0.002325243924721036
783.0, 0.0010889980920567354
784.0, 0.0012037262278456681
785.0, 6.470950549122205e-05
786.0, 0.0011790185276497468
787.0, 0.00034065643262216715
788.0, 0.0012836193811358175
789.0, 0.002184214572252018
790.0, 0.002497495368375816
791.0, 0.0027626832062689994
792.0, 0.0028039831402060624
793.0, 0.0023755940289114327
794.0, 0.0021328516386849663
795.0, 0.0009981849655157017
796.0, 0.0004883745559938099
797.0, 0.0008174990549843954
798.0, 0.0011339753468094526
799.0, 0.0008057218073566311
800.0, 0.0003701189638775841
801.0, 0.0011070504617321027
802.0, 0.0009694242743114054
803.0, 0.0017447809025400488
804.0, 0.0018965164789689
805.0, 0.0011153319544221873
806.0, 0.0011784320714873337
807.0, 0.002310049490330418
808.0, 0.0023404212127912456
809.0, 0.0007058321681805198
810.0, 0.0013266131197008895
811.0, 0.0015865106834162903
812.0, 0.001567998708495085
813.0, 0.0010389627841783256
814.0, 0.0015337760135135227
815.0, 0.0025565371458400547
816.0, 0.0022136000492735354
817.0, 0.0014355953609289914
818.0, 0.0011855366307121436
819.0, 0.0003960586080592574
820.0, 0.000446628227493254
821.0, 0.0015064263782634088
822.0, 0.0014901732398856944
823.0, 0.0008613971524752614
824.0, 0.0009929406766047992
825.0, 0.0007813244006378249
826.0, 0.000599975532627935
827.0, 0.0003795230365074291
828.0, 0.0010313496395201692
829.0, 0.0011556521853877586
830.0, 0.0024092785999420127
831.0, 0.0030438054497105398
832.0, 0.002018530379460347
833.0, 0.0013812349032907988
834.0, 0.00012274781929455178
835.0, 0.00034589351905424143
836.0, 0.00010156049560846381
837.0, 0.0002738833849855037
838.0, 0.0003814895094568954
839.0, 0.00046503739241548396
840.0, 0.00039457713207105474
841.0, 4.9249104468646355e-05
842.0, 0.00020195575029231078
843.0, 0.0012367542155070623
844.0, 0.00021070912254485057
845.0, 0.00016933091110711817
846.0, 0.0004763297245367782
847.0, 0.0008005094541129315
848.0, 0.0005959377838759601
849.0, 0.00027853060760164795
850.0, 0.0009225722812270576
851.0, 0.00044134698881329303
852.0, 0.0012640117383782249
853.0, 0.0015566641407490866
854.0, 0.0008631835976004685
855.0, 0.00104278817787678
856.0, 0.002036064172685929
857.0, 0.0019925473441047828
858.0, 0.0007305606583197228
859.0, 0.0019024572950728197
860.0, 0.003594298750634646
861.0, 0.0034047185672724145
862.0, 0.0012070787517832666
863.0, 0.0011982514579179165
864.0, 0.0026813758244025234
865.0, 0.0023864758857525003
866.0, 0.000634405333405708
867.0, 0.0014576770736281627
868.0, 0.003619518150203793
869.0, 0.003306975350138873
870.0, 0.004116539902381594
871.0, 0.004071578250219226
872.0, 0.004636592933922088
873.0, 0.004301446983510623
874.0, 0.003501645335412917
875.0, 0.0035675789400266638
876.0, 0.00342741133112806
877.0, 0.00225045955672808
878.0, 0.004979856316580751
879.0, 0.002860739387379917
880.0, 0.003600131930405817
881.0, 0.004628278960740528
882.0, 0.004790707330765434
883.0, 0.005754834150190929
884.0, 0.006983825140831332
885.0, 0.0040012965091262565
886.0, 0.005767513005230247
887.0, 0.008916162113652764
888.0, 0.006978576915900876
889.0, 0.007226307829039047
890.0, 0.007146600551665731
891.0, 0.0063860594650571225
892.0, 0.006024424320265763
893.0, 0.005967607962532905
894.0, 0.005556685489587902
895.0, 0.0064965119601079115
896.0, 0.006862764527807203
897.0, 0.008045066790178244
898.0, 0.010165738539492854
899.0, 0.00869581973499709
900.0, 0.006880443790135876
901.0, 0.006636841266251093
902.0, 0.005654782729780268
903.0, 0.0066001747042031215
904.0, 0.005859538694177762
905.0, 0.005169027535420863
906.0, 0.00628877180886237
907.0, 0.005897325545200787
908.0, 0.005542594444380248
909.0, 0.005119233487035691
910.0, 0.004307732043022631
911.0, 0.0040257785613401955
912.0, 0.0043285495934016725
913.0, 0.0041559104417580785
914.0, 0.005142043375240903
915.0, 0.005594911599755007
916.0, 0.006759816342488816
917.0, 0.008091280579890092
918.0, 0.009157517507419775
919.0, 0.00922544719176182
920.0, 0.008127802808681658
921.0, 0.007841662006772438
922.0, 0.008595222680784408
923.0, 0.010020578127148535
924.0, 0.010203689052425954
925.0, 0.009644876674887115
926.0, 0.010166632625132654
927.0, 0.010568251622621632
928.0, 0.01034082581292053
929.0, 0.010719562683146546
930.0, 0.011590344448049551
931.0, 0.010548093334791911
932.0, 0.012119938836895262
933.0, 0.0110049332717594
934.0, 0.010015938826115922
935.0, 0.00984427553275013
936.0, 0.009788998765729372
937.0, 0.009211772252919005
938.0, 0.008749750484044496
939.0, 0.009438404429309932
940.0, 0.009349979419459496
941.0, 0.007414216777281947
942.0, 0.007473352877039807
943.0, 0.007794169996769153
944.0, 0.009042378743688038
945.0, 0.008172196756609082
946.0, 0.005853257736161617
947.0, 0.005054612470757026
948.0, 0.005662913544074451
949.0, 0.0040615323465822886
950.0, 0.004323291628500887
951.0, 0.0028008649450637847
952.0, 0.0032731946981517995
953.0, 0.004511979972712137
954.0, 0.005878359406707849
955.0, 0.006798590137480362
956.0, 0.006765015116649004
957.0, 0.00594183918509064
958.0, 0.005503888730170589
959.0, 0.006313559356017423
960.0, 0.0032362400226319697
961.0, 0.006402851008631813
962.0, 0.00866105413432335
963.0, 0.008307783209679046
964.0, 0.00910570419971987
965.0, 0.011343055613590483
966.0, 0.012692550365556308
967.0, 0.012438166858049646
968.0, 0.011684958612106932
969.0, 0.014319568657355185
970.0, 0.013257924335827533
971.0, 0.017063962495299546
972.0, 0.01920571903438169
973.0, 0.021675031298263807
974.0, 0.02447799665830806
975.0, 0.02902871778778428
976.0, 0.035699719838421684
977.0, 0.04231170973321449
978.0, 0.055286723422802095
979.0, 0.07278041140562
980.0, 0.10256188275805198
981.0, 0.14835351128146085
982.0, 0.20921597516554935
983.0, 0.28463668359287164
984.0, 0.38539894642810063
985.0, 0.5279335119895038
986.0, 0.709577958414889
987.0, 0.887763158988585
988.0, 0.9998019297538188
989.0, 0.9956754662917092
990.0, 0.8366028197431743
991.0, 0.6154816816177613
992.0, 0.41964073717805866
993.0, 0.2942188014995111
994.0, 0.2335352704882085
995.0, 0.20958721086202672
996.0, 0.20160356462238774
997.0, 0.20304754757661794
998.0, 0.20881627200726516
999.0, 0.2164174270422416
1000.0, 0.21744143878128272
1001.0, 0.21727887750050154
1002.0, 0.21343641989140927
1003.0, 0.20505527013659736
1004.0, 0.19370373203135927
1005.0, 0.18014297350648498
1006.0, 0.1641371347664024
1007.0, 0.1474548116488272
1008.0, 0.13150021219352317
1009.0, 0.11909180857659028
1010.0, 0.10574467933532418
1011.0, 0.09439395954812824
1012.0, 0.08515397013223003
1013.0, 0.07697948067189146
1014.0, 0.06946486244419396
1015.0, 0.06281948703473356
1016.0, 0.05657466703798371
1017.0, 0.049643362796361966
1018.0, 0.04413067675574305
1019.0, 0.04317749370787152
1020.0, 0.03710402443253884
1021.0, 0.033064885170844424
1022.0, 0.028543703830745153
1023.0, 0.02582434613776905
1024.0, 0.02423487693391076
1025.0, 0.022188529404251766
1026.0, 0.01974675195607848
1027.0, 0.017257382533388124
1028.0, 0.015057761389045722
1029.0, 0.017928551496155465
1030.0, 0.01238242729750668
1031.0, 0.01411623078490234
1032.0, 0.01164137302224369
1033.0, 0.00959481031902459
1034.0, 0.00968527353499892
1035.0, 0.009665285924371951
1036.0, 0.008256914829495308
1037.0, 0.0066942991212687805
1038.0, 0.0060385169734343885
1039.0, 0.006471465834122805
1040.0, 0.005863398312494943
1041.0, 0.006462886148477384
1042.0, 0.006062718177758559
1043.0, 0.005866515194170206
1044.0, 0.005407208000866668
1045.0, 0.006175722077422283
1046.0, 0.006409253582248323
1047.0, 0.003627493669930363
1048.0, 0.0022366451182299174
1049.0, 0.0015125706884119416
1050.0, 0.005610380873541137
1051.0, 0.004376462889967888
1052.0, 0.0040299122025942696
1053.0, 0.0032327699061599673
1054.0, 0.004195722486302866
1055.0, 0.0032063881398923717
1056.0, 0.0018243524990828337
1057.0, 0.0019403734432431282
1058.0, 0.0004695946605801491
1059.0, 0.0008875966578832466
1060.0, 0.0017327829561126907
1061.0, 0.0012229571225672359
1062.0, 0.002368644611294788
1063.0, 0.0011917678078902285
1064.0, 0.0017653659227195475
1065.0, 0.0013871821530983374
1066.0, 0.0009199628489558448
1067.0, 0.0013439334456112485
1068.0, 0.0014647598053048126
1069.0, 0.001404371966646031
1070.0, 0.0024997201173484326
1071.0, 0.002890545845600602
1072.0, 0.0023280773597585728
1073.0, 0.002295908961806884
1074.0, 0.0023020875570374973
1075.0, 0.0015120796174271979
1076.0, 0.001014775693967266
1077.0, 0.0018616188168740415
1078.0, 0.0033632752365314895
1079.0, 0.003499981449293412
1080.0, 0.00221876796945877
1081.0, 0.003924842916537127
1082.0, 0.005204372421385481
1083.0, 0.004352442299722078
1084.0, 0.005074041647256773
1085.0, 0.003287065895947177
1086.0, 0.004721772914466437
1087.0, 0.0030861378749273047
1088.0, 0.0018887353188019387
1089.0, 0.003219036857057298
1090.0, 0.003474071741985263
1091.0, 0.003132392166357895
1092.0, 0.0012279282091307237
1093.0, 0.002611591341075873
1094.0, 0.0005551712330994615
1095.0, 0.002068188594902182
1096.0, 0.0035992917393773242
1097.0, 0.003267623454190183
1098.0, 0.004391824053983933
1099.0, 0.005253516322500435
1100.0, 0.004674339620227867
1101.0, 0.005040367855626058
1102.0, 0.007196542643152179
1103.0, 0.0077575808781414676
1104.0, 0.004428809346483303
1105.0, 0.007015785783866354
1106.0, 0.005072962012832886
1107.0, 0.00528685341907735
1108.0, 0.0036184730682261527
1109.0, 0.0036926806682291233
1110.0, 0.005142017934523036
1111.0, 0.005872920817103931
1112.0, 0.004851757322662792
1113.0, 0.0030208143945226057
1114.0, 0.0028055258847272868
1115.0, 0.0030982817126395694
1116.0, 0.007251006285969943
1117.0, 0.004997513501393989
1118.0, 0.006191462459468528
1119.0, 0.006408352557975199
1120.0, 0.006850716726268544
1121.0, 0.006789172120881443
1122.0, 0.006768995045646407
1123.0, 0.0072660866986923416
1124.0, 0.00766496685000389
1125.0, 0.007581476694214817
1126.0, 0.007240107612891282
1127.0, 0.007824520611427986
1128.0, 0.008323905758877823
1129.0, 0.010769123607005283
1130.0, 0.010972884855284125
1131.0, 0.014480479844706323
1132.0, 0.014618309188623524
1133.0, 0.017207269190264076
1134.0, 0.021416147717934424
1135.0, 0.02656589602605808
1136.0, 0.03450676937483736
1137.0, 0.04030039120480961
1138.0, 0.045454666499695554
1139.0, 0.05064915644823195
1140.0, 0.051582302894412534
1141.0, 0.05548557827232366
1142.0, 0.05626500969960271
1143.0, 0.05420935554079453
1144.0, 0.05338398703121436
1145.0, 0.04956219797248881
1146.0, 0.04489964366307379
1147.0, 0.04055637753630242
1148.0, 0.034121237081180984
1149.0, 0.029325106788179067
1150.0, 0.025744461838594593
1151.0, 0.020199237513249948
1152.0, 0.018982033343151128
1153.0, 0.014281796453794559
1154.0, 0.011872395674225858
1155.0, 0.011225019885332529
1156.0, 0.01152245817404164
1157.0, 0.010684850377736033
1158.0, 0.008329229993296931
1159.0, 0.00628008883412131
1160.0, 0.006241780201119438
1161.0, 0.0075890949070188795
1162.0, 0.00837479318034045
1163.0, 0.01072850330011137
1164.0, 0.015057352320140502
1165.0, 0.012373666955866277
1166.0, 0.015309335375550808
1167.0, 0.01568351982573872
1168.0, 0.015874633797619487
1169.0, 0.014850420880083932
1170.0, 0.011949964729082416
1171.0, 0.009370059089155426
1172.0, 0.007575706125094488
1173.0, 0.005598538625977077
1174.0, 0.0055633170470592705
1175.0, 0.0031111181458092414
1176.0, 0.001744928722484924
1177.0, 0.005100233507247841
1178.0, 0.005735566492478196
1179.0, 0.003229556331026238
1180.0, 0.0025869613290101633
1181.0, 0.0013486581658769836
1182.0, 0.0006714402038698464
1183.0, 0.0018814877308214017
1184.0, 0.003049652938854609
1185.0, 0.0028997926397452507
1186.0, 0.0025743169154602416
1187.0, 0.0010786766495927385
1188.0, 0.0018069319874517342
1189.0, 0.003985232463937139
1190.0, 0.0010797873061209797
1191.0, 0.0005358070819903363
1192.0, 0.0013168592791462609
1193.0, 0.002165511337102094
1194.0, 0.0013056203842344313
1195.0, 0.0010508173558208983
1196.0, 0.0012154149718861746
1197.0, 0.0007707158819940756
1198.0, 0.0007374188757132889
1199.0, 0.0012178950465825688
1200.0, 0.0017325615916107063
1201.0, 0.0026859212088620995
1202.0, 0.0009405409595016088
1203.0, 0.0003622364727239951
1204.0, 0.0005621084402234464
1205.0, 0.0002005954160129321
1206.0, 0.00013181048112029546
1207.0, 0.0002014497351274371
1208.0, 0.0026016661309861367
1209.0, 0.0037919184802978428
1210.0, 0.0026847742977401277
1211.0, 0.0020715207165582835
1212.0, 0.0010290303363502471
1213.0, 0.0014025214467572066
1214.0, 0.003761007099769543
1215.0, 0.004550487141515739
1216.0, 0.0023147793881923753
1217.0, 0.0018923147735724238
1218.0, 0.0009887073368899644
1219.0, 0.0009436581823125783
1220.0, 0.0006357144507686443
1221.0, 0.0022937494755570476
1222.0, 0.0028461197189502564
1223.0, 0.0016409013562486189
1224.0, 0.0008697812691107588
1225.0, 0.0003193793629129171
1226.0, 0.0009139174874169022
1227.0, 0.0012917381148128682
1228.0, 0.00033503810622728626
1229.0, 0.0013872982280015598
1230.0, 0.0008078426347222839
1231.0, 0.00121300445848327
1232.0, 0.001875939308089132
1233.0, 0.001742660644263656
1234.0, 0.002676958327763281
1235.0, 0.003234255303799901
1236.0, 0.0017869825438365182
1237.0, 0.0013186792064338892
1238.0, 0.003883576306251081
1239.0, 0.00488544730040715
1240.0, 0.002367978193339008
1241.0, 0.004136570159928309
1242.0, 0.0021537685557239186
1243.0, 0.004429930793257162
1244.0, 0.0010185766312669662
1245.0, 0.0004427465523584153
1246.0, 0.0035305239484733518
1247.0, 0.00227794836655565
1248.0, 0.0023253754647526775
1249.0, 0.003283660095538614
1250.0, 0.002338809792360874
1251.0, 0.0010251347825969072
1252.0, 0.001477548600927082
1253.0, 0.0026518555876394226
1254.0, 0.0033846251828469035
1255.0, 0.0032110185639098957
1256.0, 0.0009649398094920376
1257.0, 0.001938981958350081
1258.0, 0.0010965144220095751
1259.0, 0.0011994939238796215
1260.0, 0.0005652512072312213
1261.0, 0.001984985547204152
1262.0, 0.002886423687191874
1263.0, 0.003704690116647099
1264.0, 0.0040138152471403035
1265.0, 0.003711595625576057
1266.0, 0.003953182779857121
1267.0, 0.0042296451181168615
1268.0, 0.0031138422356400213
1269.0, 0.0026374974043707022
1270.0, 0.004640618850230662
1271.0, 0.004061462765417001
1272.0, 0.0027167937709527924
1273.0, 0.0006022008348662934
1274.0, 0.004528329215675206
1275.0, 0.0013907031897402453
1276.0, 0.0034269737733958906
1277.0, 0.0020416060169312104
1278.0, 0.002419143920829139
1279.0, 0.003137512644756874
1280.0, 0.001747460009054408
1281.0, 0.0018377207609419429
1282.0, 0.0020346964392470375
1283.0, 0.0009947641066963958
1284.0, 0.0035263196095276857
1285.0, 0.0036367227019456754
1286.0, 0.004046843374640268
1287.0, 0.00202626523765833
1288.0, 0.004269067776402208
1289.0, 0.0017969412598005145
1290.0, 0.0014975873624928806
1291.0, 0.002060971571094302
1292.0, 0.003968337843446488
1293.0, 0.0026919273722775744
1294.0, 0.0027280875102882476
1295.0, 0.0034442842584161302
1296.0, 0.002544877891398629
1297.0, 0.0029367177584649516
1298.0, 0.002124895552083987
1299.0, 0.0035638525852645735
1300.0, 0.0038137250127288505
1301.0, 0.003423129456212818
1302.0, 0.005598288519141528
1303.0, 0.001411512363099349
1304.0, 0.001672760682327855
1305.0, 0.006287381412890191
1306.0, 0.0025892669374526253
1307.0, 0.0024331614071356933
1308.0, 0.004102111921724091
1309.0, 0.005059868701340701
1310.0, 0.005837355495740766
1311.0, 0.006207437796602561
1312.0, 0.00629369863915926
1313.0, 0.006135015261399644
1314.0, 0.004645990984025905
1315.0, 0.004240825131019536
1316.0, 0.0028835746891340873
1317.0, 0.002662434035654515
1318.0, 0.00399276642624845
1319.0, 0.004497545297633667
1320.0, 0.0042180017731009755
1321.0, 0.005167073153815012
1322.0, 0.004153675901611908
1323.0, 0.0035823421449109245
1324.0, 0.003668768034018372
1325.0, 0.0033277682343678203
1326.0, 0.003672008423693905
1327.0, 0.003541442555019808
1328.0, 0.003330234681318248
1329.0, 0.004660719969106335
1330.0, 0.0033126821739048527
1331.0, 0.0016439631468354885
1332.0, 0.0012657517799754344
1333.0, 0.0004853618646024219
1334.0, 0.0030037919898370856
1335.0, 0.002506240252595131
1336.0, 0.0036717129940703193
1337.0, 0.0046642062918540094
1338.0, 0.0057401138409074424
1339.0, 0.004032402383161561
1340.0, 0.003003913195481869
1341.0, 0.004913929754423047
1342.0, 0.004341002869397534
1343.0, 0.00477075800575208
1344.0, 0.005868490782186712
1345.0, 0.004216749856902551
1346.0, 0.004827668293145264
1347.0, 0.00357973111958467
1348.0, 0.0010742157500773053
1349.0, 0.005189908026803862
1350.0, 0.004681194020599327
1351.0, 0.00590351126447664
1352.0, 0.0020752493553910303
1353.0, 0.0011105433577058817
1354.0, 0.003022406161306601
1355.0, 0.0010827054765747493
1356.0, 0.0023848879557572754
1357.0, 0.003706128006069336
1358.0, 0.0023908918210622993
1359.0, 0.002436941540913602
1360.0, 0.003317139612813888
1361.0, 0.003508693833535912
1362.0, 0.00391729836977903
1363.0, 0.0044276639117582835
1364.0, 0.005030018214050433
1365.0, 0.004233119767078281
1366.0, 0.0024009754665670104
1367.0, 0.002814280738066422
1368.0, 0.0001303824374961507
1369.0, 0.001885707828244107
1370.0, 0.0044000193436867716
1371.0, 0.003229034352035179
1372.0, 0.0015918909188720638
1373.0, 0.0010763234679358764
1374.0, 0.002059796807383479
1375.0, 0.001163416051188549
1376.0, 0.0030259986257021717
1377.0, 0.0027874820921978847
1378.0, 0.0017597546866173102
1379.0, 0.0032895712296092425
1380.0, 0.003816019274729838
1381.0, 0.0031956093307679637
1382.0, 0.0033619790905999847
1383.0, 0.0016012326699286926
1384.0, 0.0018238231715905454
1385.0, 0.0018295017764282636
1386.0, 0.0007063543506867808
1387.0, 0.0013867755640312512
1388.0, 0.0011093245658364325
1389.0, 0.0010589729899525549
1390.0, 0.0013308704833868493
1391.0, 0.0033778190017391455
1392.0, 0.002436287454187742
1393.0, 0.0019482099276323043
1394.0, 0.00342991996161161
1395.0, 0.0032824051955557903
1396.0, 0.002117887842210781
1397.0, 0.0018456980939187346
1398.0, 0.0027538735464907715
1399.0, 0.0025229701704555497
1400.0, 0.0005053008542506457
1401.0, 0.002115785265433161
1402.0, 0.005181782083526238
1403.0, 0.0018708239325280667
1404.0, 0.00336081009643741
1405.0, 0.0010374521293353982
1406.0, 0.002644496478069127
1407.0, 0.003604263304522728
1408.0, 0.001872918607611935
1409.0, 0.0012686775232558778
1410.0, 0.0037680266889805374
1411.0, 0.0028913064493753036
1412.0, 0.0022627932729785117
1413.0, 0.0010235557883423651
1414.0, 0.0003115339274641113
1415.0, 0.0008348522047884411
1416.0, 0.0009962791221281016
1417.0, 0.0011616426797281078
1418.0, 0.0016034153185334823
1419.0, 0.0015545865250585476
1420.0, 0.0017814101147807012
1421.0, 0.0024182177892046654
1422.0, 0.003748254546532378
1423.0, 0.005094788329434124
1424.0, 0.001364496727545532
1425.0, 0.0009133941026487305
1426.0, 0.004426656996833034
1427.0, 0.0006131778571197518
1428.0, 0.0028916040117390523
1429.0, 0.0020774539411741746
1430.0, 0.0022562034264458812
1431.0, 0.0027919648290446416
1432.0, 0.004875217702926219
1433.0, 0.004411008696886351
1434.0, 0.003152640087998962
1435.0, 0.005779381965142317
1436.0, 0.005587263524496999
1437.0, 0.004815171888074493
1438.0, 0.005050231723794188
1439.0, 0.003856788737373904
1440.0, 0.00309379053272379
1441.0, 0.0026390580440055892
1442.0, 0.002585601395066995
1443.0, 0.0029970090378628345
1444.0, 0.003507291467902939
1445.0, 0.003861290738363665
1446.0, 0.005321379227063352
1447.0, 0.0035458766660410907
1448.0, 0.004160996936200978
1449.0, 0.004222983163247116
1450.0, 0.0030040455886799896
1451.0, 0.0036243957255686003
1452.0, 0.004435262705244753
1453.0, 0.004324718624283019
1454.0, 0.0020902894633759994
1455.0, 0.0018626936434429715
1456.0, 0.001432799668917199
1457.0, 0.0015335647033126254
1458.0, 0.0018961459440615521
1459.0, 0.0025450487676590824
1460.0, 0.0020489483426273532
1461.0, 0.0029184648170076603
1462.0, 0.005092898747618645
1463.0, 0.003350549281357782
1464.0, 0.002591486136081905
1465.0, 0.004079663678056448
1466.0, 0.00400258202168271
1467.0, 0.0036922819725389187
1468.0, 0.00437627971339934
1469.0, 0.0029453615639425173
1470.0, 0.0022098611086839542
1471.0, 0.002991113442049621
1472.0, 0.004035330217593785
1473.0, 0.0023366864550783146
1474.0, 0.001194694945447394
1475.0, 0.0003417693385168368
1476.0, 0.0025342938504888373
1477.0, 0.005997611993312072
1478.0, 0.004804277642421438
1479.0, 0.0031333980344058726
1480.0, 0.0031972510669292407
1481.0, 0.00253538473799667
1482.0, 0.002645692895694249
1483.0, 0.0033875695000168946
1484.0, 0.0036282874341931784
1485.0, 0.0038414662330913587
1486.0, 0.004429325556094989
1487.0, 0.0057636512087436646
1488.0, 0.0046210084266598145
1489.0, 0.0017082641747710166
1490.0, 0.004885302222138557
1491.0, 0.0006766778724492995
1492.0, 0.0031169637627356883
1493.0, 0.004191420604295888
1494.0, 0.003910799144375433
1495.0, 0.004642362318849177
1496.0, 0.0038849702574326453
1497.0, 0.003502947533711687
1498.0, 0.002075754630049751
1499.0, 0.0009706355025827958
1500.0, 0.0003121218048953465
1501.0, 0.002125108551715343
1502.0, 0.0019345545047447428
1503.0, 0.004100794298045057
1504.0, 0.004028178156789205
1505.0, 0.00258572460114559
1506.0, 0.0028911427651297688
1507.0, 0.004673783790294641
1508.0, 0.004697075247271166
1509.0, 0.0034798512208999025
1510.0, 0.004237904473265208
1511.0, 0.0038871611987908263
1512.0, 0.0009863730136525834
1513.0, 0.0017900230237163158
1514.0, 0.003778380382741737
1515.0, 0.003242785304302405
1516.0, 0.006250401106751772
1517.0, 0.00479666685851653
1518.0, 0.005676358786300594
1519.0, 0.0021138110894980727
1520.0, 0.003497359481829015
1521.0, 0.003170852833048954
1522.0, 0.0023313502872242334
1523.0, 0.005915121094023408
1524.0, 0.0025312154575365302
1525.0, 0.0064922728406844555
1526.0, 0.0036490367035663307
1527.0, 0.0020060789983804947
1528.0, 0.005643500350801849
1529.0, 0.0036981004554174123
1530.0, 0.002923172667350415
1531.0, 0.0014695440366117374
1532.0, 0.0006416067400371452
1533.0, 0.002301937190793034
1534.0, 0.0019581981074023543
1535.0, 0.0005286193220258785
1536.0, 0.00012443133967701366
1537.0, 0.0021091062700351213
1538.0, 0.003298803351401736
1539.0, 0.0020997513536834735
1540.0, 0.002687634305335503
1541.0, 0.0034962296540978675
1542.0, 0.0034152377906872264
1543.0, 0.004641791460386726
1544.0, 0.004449249031849088
1545.0, 0.0033578649367609343
1546.0, 0.0018229443703141105
1547.0, 0.0013287640219140865
1548.0, 0.0015381665448599524
1549.0, 0.00676801921368996
1550.0, 0.0021054094697102194
1551.0, 0.0054418216345584105
1552.0, 0.003521965059331897
1553.0, 0.0036343924069660995
1554.0, 0.003557787041144782
1555.0, 0.0029803955405665124
1556.0, 0.004154881452963647
1557.0, 0.0033754712748105113
1558.0, 0.0017263754976534988
1559.0, 0.003942477040651922
1560.0, 0.003086631043806865
1561.0, 0.0023487699629282247
1562.0, 0.0024547280971366782
1563.0, 0.003890414990567906
1564.0, 0.004778145631813678
1565.0, 0.003762263316621571
1566.0, 0.0021819971875042176
1567.0, 0.0016664756314813838
1568.0, 0.0010707208947205334
1569.0, 0.00022141736116643583
1570.0, 7.043941560346394e-06
1571, 0.0
1572, 0.0
1573, 0.0
1574, 0.0
1575, 0.0
1576, 0.0
1577, 0.0
1578, 0.0
1579, 0.0
1580, 0.0
1581, 0.0
1582, 0.0
1583, 0.0
1584, 0.0
1585, 0.0
1586, 0.0
1587, 0.0
1588, 0.0
1589, 0.0
1590, 0.0
1591, 0.0
1592, 0.0
1593, 0.0
1594, 0.0
1595, 0.0
1596, 0.0
1597, 0.0
1598, 0.0
1599, 0.0
