30, 0.0
31, 0.0
32, 0.0
33, 0.0
34, 0.0
35, 0.0
36, 0.0
37, 0.0
38, 0.0
39, 0.0
40, 0.0
41, 0.0
42, 0.0
43, 0.0
44, 0.0
45, 0.0
46, 0.0
47, 0.0
48, 0.0
49, 0.0
50, 0.0
51, 0.0
52, 0.0
53, 0.0
54, 0.0
55, 0.0
56, 0.0
57, 0.0
58, 0.0
59, 0.0
60, 0.0
61, 0.0
62, 0.0
63, 0.0
64, 0.0
65, 0.0
66, 0.0
67, 0.0
68, 0.0
69, 0.0
70, 0.0
71, 0.0
72, 0.0
73, 0.0
74, 0.0
75, 0.0
76, 0.0
77, 0.0
78, 0.0
79, 0.0
80, 0.0
81, 0.0
82, 0.0
83, 0.0
84, 0.0
85, 0.0
86, 0.0
87, 0.0
88, 0.0
89, 0.0
90, 0.0
91, 0.0
92, 0.0
93, 0.0
94, 0.0
95, 0.0
96, 0.0
97, 0.0
98, 0.0
99, 0.0
100, 0.0
101, 0.0
102, 0.0
103, 0.0
104, 0.0
105, 0.0
106, 0.0
107, 0.0
108, 0.0
109, 0.0
110, 0.0
111, 0.0
112, 0.0
113, 0.0
114, 0.0
115, 0.0
116, 0.0
117, 0.0
118, 0.0
119, 0.0
120, 0.0
121.0, 0.00025372374939190907
122.0, 0.00484872479898655
123.0, 0.011693966099352636
124.0, 0.015146653683742333
125.0, 0.015423107798517638
126.0, 0.015073845931640672
127.0, 0.015430800807091914
128.0, 0.018579344538036408
129.0, 0.02415258259353288
130.0, 0.030787722939148797
131.0, 0.03681125912334904
132.0, 0.04333713708643399
133.0, 0.05003948117121143
134.0, 0.05650094804570404
135.0, 0.06240678605330396
136.0, 0.07030646300116285
137.0, 0.08197384673567645
138.0, 0.09787419434681167
139.0, 0.11694732447107668
140.0, 0.14317984368664433
141.0, 0.1777760898757517
142.0, 0.2079202142770666
143.0, 0.2151617126528379
144.0, 0.18429504009907552
145.0, 0.13056746804603014
146.0, 0.08030078539476147
147.0, 0.04656328979281052
148.0, 0.027502310454754795
149.0, 0.01648896381479521
150.0, 0.010000029516113184
151.0, 0.006045414992958496
152.0, 0.002668311656951387
153.0, 0.0009508314225657953
154.0, 0.00024675219477208636
155.0, 0.001324573227017346
156.0, 0.002196759305621729
157.0, 0.0011556925092829247
158.0, 0.0009333588478127127
159.0, 0.001318110458973441
160.0, 0.001389948612721304
161.0, 0.0013447528876104483
162.0, 0.0008467579608039561
163.0, 0.00020730110300168998
164.0, 0.0005453129250528863
165.0, 0.0015111344453616225
166.0, 0.004005050828087701
167.0, 0.005426665475829246
168.0, 0.0063363539840142384
169.0, 0.008345083188760182
170.0, 0.010845521586170874
171.0, 0.012714600512882602
172.0, 0.014039499023068185
173.0, 0.015246747698337962
174.0, 0.01671498614178408
175.0, 0.018425514738540476
176.0, 0.021073161369785914
177.0, 0.025006608934365966
178.0, 0.029481462646072366
179.0, 0.03375254924910449
180.0, 0.03885057042756363
181.0, 0.04547551816767723
182.0, 0.0535581015068238
183.0, 0.0620303093716088
184.0, 0.07011520221998736
185.0, 0.07796707517974541
186.0, 0.08525085753899384
187.0, 0.09011038298805871
188.0, 0.09572312109832748
189.0, 0.09994569906557942
190.0, 0.10198838943035259
191.0, 0.10245859306582507
192.0, 0.10125080647793122
193.0, 0.10061832065412532
194.0, 0.10070042940180786
195.0, 0.10115449093573904
196.0, 0.10355403267155273
197.0, 0.10711367800904766
198.0, 0.1111637725139545
199.0, 0.11607851180467313
200.0, 0.1228148931366117
201.0, 0.1294769157045822
202.0, 0.1355677861743453
203.0, 0.1376380965224845
204.0, 0.13224446035303786
205.0, 0.12180851765161774
206.0, 0.10650959835467547
207.0, 0.09080951832826675
208.0, 0.0774915710797189
209.0, 0.06510220788714394
210.0, 0.05609215120486976
211.0, 0.04944022992924501
212.0, 0.04344702715993537
213.0, 0.03768294944378784
214.0, 0.03420557751128858
215.0, 0.030504356326970492
216.0, 0.026490782320400193
217.0, 0.02242139743530661
218.0, 0.01810886438761389
219.0, 0.015524209340768232
220.0, 0.01263572069008786
221.0, 0.009628203938181056
222.0, 0.0076701373983514
223.0, 0.0064177272163531505
224.0, 0.005442216571823756
225.0, 0.0047509373786247715
226.0, 0.004091200151235794
227.0, 0.002433525732299199
228.0, 0.0015796613958494199
229.0, 0.0009040343709479177
230.0, 0.00028054449666334194
231.0, 0.0001002238632570446
232.0, 0.0008271604641117063
233.0, 0.0015061282086846852
234.0, 0.0012650019799390747
235.0, 0.000500351278069459
236.0, 0.000994364654698952
237.0, 0.0016138616408666521
238.0, 0.001594222048941267
239.0, 0.001395666418484633
240.0, 0.0015788716092420242
241.0, 0.0014274738279679662
242.0, 0.0008974000239647415
243.0, 0.00042449721216922904
244.0, 0.00041731259586092904
245.0, 0.0010375767595366691
246.0, 0.0008362996799247143
247.0, 0.0002973152713753933
248.0, 0.00048300305174853484
249.0, 0.0012866907400701318
250.0, 0.0011169400747308492
251.0, 0.0014927769137372145
252.0, 0.002194932778421634
253.0, 0.002478804280272903
254.0, 0.0021452856480398933
255.0, 0.0018817233307164114
256.0, 0.0028525111341926703
257.0, 0.0045726158470272595
258.0, 0.0058345519800830645
259.0, 0.005655236944406189
260.0, 0.007005344471544468
261.0, 0.008254913183621286
262.0, 0.009020279308469284
263.0, 0.009867433718662036
264.0, 0.009890628816179603
265.0, 0.011427099601609597
266.0, 0.01200071380802385
267.0, 0.010573066052056795
268.0, 0.00909719905391035
269.0, 0.007844374507168924
270.0, 0.006115379100043203
271.0, 0.004664943554055053
272.0, 0.004446665867155027
273.0, 0.003952064533880984
274.0, 0.002793573333322883
275.0, 0.002269553695789447
276.0, 0.0027376327646795153
277.0, 0.0029912011722254216
278.0, 0.0027325773059712543
279.0, 0.0033094237872399943
280.0, 0.003976368858226714
281.0, 0.004393957936830439
282.0, 0.005450712130839651
283.0, 0.006741628653672784
284.0, 0.007563270872151483
285.0, 0.008582719272545702
286.0, 0.010297705010691471
287.0, 0.012143094857243191
288.0, 0.014324389976037154
289.0, 0.016428620898751623
290.0, 0.018478614573280604
291.0, 0.020836504653299243
292.0, 0.023579895114820948
293.0, 0.0274934573850386
294.0, 0.03203675099752261
295.0, 0.03688674409570514
296.0, 0.042090510960439656
297.0, 0.04901848577397108
298.0, 0.057827054003079484
299.0, 0.06798800333683223
300.0, 0.07953120709016324
301.0, 0.09399017741662309
302.0, 0.10990025499774636
303.0, 0.126432857591228
304.0, 0.14367689184772814
305.0, 0.1615579129623301
306.0, 0.179017050348989
307.0, 0.19613921810424853
308.0, 0.21445528854800538
309.0, 0.23413923220885596
310.0, 0.2545064262053631
311.0, 0.27499958085650267
312.0, 0.2935096432787147
313.0, 0.31385546165213557
314.0, 0.33631721609122056
315.0, 0.3581351416036053
316.0, 0.38220613662523795
317.0, 0.4080421877599027
318.0, 0.43428359751170753
319.0, 0.45932223394163635
320.0, 0.48099810737395493
321.0, 0.49270704396563536
322.0, 0.493860281832388
323.0, 0.48323673637438186
324.0, 0.46065480301137823
325.0, 0.43237923891918645
326.0, 0.4016448092700615
327.0, 0.36926627475251655
328.0, 0.33585595393901013
329.0, 0.3021524211096588
330.0, 0.26891699143623976
331.0, 0.23693836497921672
332.0, 0.20616532466519244
333.0, 0.17721111547487747
334.0, 0.15098890625649294
335.0, 0.12747539170540664
336.0, 0.11122893031195297
337.0, 0.09505658349236885
338.0, 0.07828962188663274
339.0, 0.06479994743464615
340.0, 0.05415909827790401
341.0, 0.04550116408429863
342.0, 0.03761864386033602
343.0, 0.030801379658471177
344.0, 0.025875595245313725
345.0, 0.02135515190471935
346.0, 0.017295371635501093
347.0, 0.014386708353462407
348.0, 0.012204551437353566
349.0, 0.009214880418058256
350.0, 0.007225414746408771
351.0, 0.005519435874680059
352.0, 0.004071948419903765
353.0, 0.002968660285103594
354.0, 0.00219370944515393
355.0, 0.0022176624151468297
356.0, 0.0015785871392483715
357.0, 0.0008380597182150021
358.0, 0.0008175956073141256
359.0, 0.0010115744012936885
360.0, 0.0014058170157729129
361.0, 0.0019823941433634875
362.0, 0.0026780904514964437
363.0, 0.0034695383255335635
364.0, 0.004521968348125506
365.0, 0.006553263725391935
366.0, 0.009333325709649651
367.0, 0.01205440568692025
368.0, 0.015345070227507659
369.0, 0.02090366316097296
370.0, 0.028414959751296535
371.0, 0.03829586954026642
372.0, 0.050145761467251714
373.0, 0.06282304301570668
374.0, 0.0745494181502827
375.0, 0.08241973379425149
376.0, 0.08708266216383041
377.0, 0.09059154968738203
378.0, 0.09483293317266074
379.0, 0.10110655067640739
380.0, 0.10717544883782974
381.0, 0.1136083160936044
382.0, 0.1209988091229828
383.0, 0.12933749016375312
384.0, 0.13838195800093397
385.0, 0.14925282672712326
386.0, 0.16037242609973992
387.0, 0.17404912782118534
388.0, 0.19084420853106024
389.0, 0.20741689446678896
390.0, 0.21879601214207575
391.0, 0.22100184580846027
392.0, 0.2089079180775976
393.0, 0.18260621244381198
394.0, 0.14984284507329404
395.0, 0.12014365290096975
396.0, 0.09717611203903169
397.0, 0.08322106775785748
398.0, 0.0761476755454417
399.0, 0.07070483598311016
400.0, 0.06645294241041207
401.0, 0.06312261988046661
402.0, 0.059228695901003485
403.0, 0.054930740443992265
404.0, 0.05033357618495601
405.0, 0.04344890286574646
406.0, 0.03718243506138763
407.0, 0.03057033390626478
408.0, 0.024620675115372182
409.0, 0.02043033857060994
410.0, 0.016758182928696654
411.0, 0.012730542245654198
412.0, 0.009908705778151098
413.0, 0.008345394423076134
414.0, 0.007099260807856389
415.0, 0.005084240997432599
416.0, 0.004198623134609078
417.0, 0.0034484754886744654
418.0, 0.0028865924053211372
419.0, 0.002433945661276486
420.0, 0.0012426768252582565
421.0, 0.0011883906479399743
422.0, 0.0003933352810389326
423.0, 0.00038574554796573475
424.0, 0.00019747666252159827
425.0, 0.0007566630906005942
426.0, 0.0010625731386238668
427.0, 0.0007309834353225308
428.0, 0.0006017120984516245
429.0, 0.000715995289510805
430.0, 0.00057746991265746
431.0, 0.0007111166815140451
432.0, 0.0005592282662753544
433.0, 0.0007418071334723703
434.0, 0.0009634946314150395
435.0, 0.0007872107374144989
436.0, 0.00118215946280405
437.0, 0.0009135494524063372
438.0, 0.0010115246455389205
439.0, 0.0005741495829492993
440.0, 0.0004530079850547984
441.0, 0.00013510799055701551
442.0, 0.00029260670775362263
443.0, 0.0003596092944964559
444.0, 0.00037072647717985025
445.0, 0.00022823006254225978
446.0, 0.00020167526520761873
447.0, 0.00014543627295559862
448.0, 0.00046075463520449573
449.0, 0.0003062703729174032
450.0, 0.0005257725460103104
451.0, 0.000927085672590273
452.0, 0.00013401655431868304
453.0, 0.00018893908250421773
454.0, 0.0009798995222695533
455.0, 0.0017073277541051536
456.0, 0.001891554509889387
457.0, 0.0014376717148553036
458.0, 0.0010901666876757864
459.0, 0.0016592095910110383
460.0, 0.001752828923760108
461.0, 0.0017735768962531709
462.0, 0.0024760696846736854
463.0, 0.0019373503284708328
464.0, 0.0018992005314418573
465.0, 0.0025431803970242988
466.0, 0.0033317856918913067
467.0, 0.0035233840970113786
468.0, 0.002394701706917966
469.0, 0.003038585396779231
470.0, 0.0031842404304347487
471.0, 0.003093444572583313
472.0, 0.003372789450322203
473.0, 0.003906569008810145
474.0, 0.003884257331320125
475.0, 0.004095871035181776
476.0, 0.003602673495893261
477.0, 0.003360597348830627
478.0, 0.0041077934448791285
479.0, 0.003940091996652756
480.0, 0.00453796089646314
481.0, 0.004431188935033855
482.0, 0.004059824869635122
483.0, 0.004278003004388149
484.0, 0.005260166613215105
485.0, 0.004681078413150442
486.0, 0.004136504518123915
487.0, 0.004449136549767452
488.0, 0.004959918398830699
489.0, 0.00482185753687824
490.0, 0.005141762373880383
491.0, 0.004762582342941772
492.0, 0.004396137263532534
493.0, 0.004181692174266465
494.0, 0.0039024906328997276
495.0, 0.003830711263979196
496.0, 0.00422586005430496
497.0, 0.003854206725867717
498.0, 0.004174447272871545
499.0, 0.004117961891399893
500.0, 0.0032236083194130856
501.0, 0.003984691106699284
502.0, 0.003938164810011543
503.0, 0.0035225390105159864
504.0, 0.0029974419120459136
505.0, 0.0031641553628374616
506.0, 0.0038969494502728323
507.0, 0.00278814327900658
508.0, 0.002975994752347127
509.0, 0.0033489295555454413
510.0, 0.0032688080263715276
511.0, 0.003033305056577215
512.0, 0.002689702423561646
513.0, 0.00213444229389309
514.0, 0.0025296792754759415
515.0, 0.0029236798539287743
516.0, 0.002757752812998187
517.0, 0.0025005861000781636
518.0, 0.00286615970205062
519.0, 0.0033282049754677413
520.0, 0.0029898560801001183
521.0, 0.0022993175251362734
522.0, 0.0021367797574897173
523.0, 0.002487749429311724
524.0, 0.0022804112273685246
525.0, 0.0016238367710410633
526.0, 0.002153894894702578
527.0, 0.002692652458039209
528.0, 0.0023810503598765257
529.0, 0.0018877555690774218
530.0, 0.002300199504149434
531.0, 0.0018280430354392053
532.0, 0.0015473362822969877
533.0, 0.0015823964305998282
534.0, 0.0015057828298417884
535.0, 0.0014159344386591379
536.0, 0.001350985972842245
537.0, 0.0009723952794618798
538.0, 0.0009942112223324546
539.0, 0.0012267176941540927
540.0, 0.0013036367164848258
541.0, 0.0014905970259737075
542.0, 0.0014994907155348265
543.0, 0.0014991606159684351
544.0, 0.0012285978194508977
545.0, 0.0012427860442409948
546.0, 0.0016398100567928816
547.0, 0.0009810776590485485
548.0, 0.000991649749357691
549.0, 0.0010061441101566677
550.0, 0.0014730982135582537
551.0, 0.0020420369513539515
552.0, 0.0019201205251165186
553.0, 0.0019566484138135443
554.0, 0.0010477575463669149
555.0, 0.0013061049131185905
556.0, 0.0015846343067184474
557.0, 0.0013964562679557194
558.0, 0.0015229750150625237
559.0, 0.0017193035126502206
560.0, 0.0016413365704879958
561.0, 0.002193939376498729
562.0, 0.0022864583114145273
563.0, 0.0018666259489237202
564.0, 0.0021686484816762705
565.0, 0.0025791135915682714
566.0, 0.002890613231696402
567.0, 0.002737596765614021
568.0, 0.0028225291613772226
569.0, 0.003228824199116433
570.0, 0.0033727043225069923
571.0, 0.0036927970384445525
572.0, 0.0043390762027428215
573.0, 0.003748655769715616
574.0, 0.0034839556983023824
575.0, 0.004075501908693394
576.0, 0.004073927323539487
577.0, 0.0034793901892332
578.0, 0.004255949351345151
579.0, 0.004626348564061894
580.0, 0.004653408805772311
581.0, 0.004458594851893477
582.0, 0.0037094547832861426
583.0, 0.003379458889499508
584.0, 0.002759161270352032
585.0, 0.002961236181155561
586.0, 0.0033474926329527836
587.0, 0.0032787534523188275
588.0, 0.002977426642529378
589.0, 0.0029062734180369623
590.0, 0.0028531587989377065
591.0, 0.002178316506975414
592.0, 0.002017920447479902
593.0, 0.0022055322532975093
594.0, 0.0016892001680902631
595.0, 0.0015354553568945545
596.0, 0.0015931769003597342
597.0, 0.0015004101089844688
598.0, 0.0010979185990512097
599.0, 0.0007847887307545705
600.0, 0.0008659881149184451
601.0, 0.0009022191548582128
602.0, 0.0007983436901037277
603.0, 0.00045244752033843063
604.0, 0.000708876381326192
605.0, 0.0008804916686061102
606.0, 0.000437424612120443
607.0, 0.0006653971863802762
608.0, 0.00027987585584345916
609.0, 2.5963402209741124e-05
610.0, 0.0005122052673790593
611.0, 0.0007208158770048997
612.0, 0.00032355160568934665
613.0, 0.0005870036387470078
614.0, 0.0004527254276158101
615.0, 8.490021082616645e-05
616.0, 0.00010072572050239956
617.0, 0.00012284808192673317
618.0, 0.00029467699171797235
619.0, 0.00012891931815563272
620.0, 0.00032908141945053757
621.0, 0.0007292398029258521
622.0, 0.0006115729675712908
623.0, 0.0001697697579487514
624.0, 0.00031144544834632695
625.0, 0.0006527262618079446
626.0, 0.0009189171828007109
627.0, 0.0003855519694289322
628.0, 0.00012325487180773605
629.0, 0.00024190581950651906
630.0, 0.000162019528743685
631.0, 0.00020469101062643204
632.0, 0.00013321928949673812
633.0, 0.0009339227559305092
634.0, 0.0007971934017011458
635.0, 0.0006316881290177874
636.0, 0.0008038515787349199
637.0, 0.0007209063466234491
638.0, 0.0003763190599966014
639.0, 0.0010464544448609773
640.0, 0.000794160248243294
641.0, 0.00022312384935948133
642.0, 0.0005312726541298433
643.0, 0.0008818821615569145
644.0, 0.0004715822102667073
645.0, 0.0006550952151138642
646.0, 0.001378400659604184
647.0, 0.0008056842335345411
648.0, 0.0001813445715340198
649.0, 0.0006035352854068029
650.0, 0.0012289770734731304
651.0, 0.0006444713043253523
652.0, 0.0009689844764373385
653.0, 0.0010875472072440584
654.0, 0.000844678878818726
655.0, 0.0012015532122505613
656.0, 0.0013508435211542517
657.0, 0.0007558717767861532
658.0, 0.0010961645830308887
659.0, 0.001272892009403856
660.0, 0.0012401391445043487
661.0, 0.0011610894049705423
662.0, 0.0011718495911105043
663.0, 0.00123674320975661
664.0, 0.0013526336178316326
665.0, 0.001615400452942267
666.0, 0.0015777344906633757
667.0, 0.0018903056014262503
668.0, 0.001390004028615445
669.0, 0.0011360057719155556
670.0, 0.0020498594522588088
671.0, 0.0023175937931538978
672.0, 0.001944017023415397
673.0, 0.0018457826861093861
674.0, 0.002012210775315709
675.0, 0.0019540546573949416
676.0, 0.0015766501783603254
677.0, 0.0013783271007977444
678.0, 0.001840156532326848
679.0, 0.0022115024217092905
680.0, 0.00180482757189523
681.0, 0.001798226127904443
682.0, 0.002213702221457398
683.0, 0.002398785361881671
684.0, 0.0021945805696236115
685.0, 0.002254271995925724
686.0, 0.0021783204408824452
687.0, 0.0020775787691302105
688.0, 0.00201766998290934
689.0, 0.0020955908648930474
690.0, 0.0020190720822032206
691.0, 0.0016564338944866598
692.0, 0.002213790027480526
693.0, 0.002579159506993282
694.0, 0.0025181862511488417
695.0, 0.002303752627707048
696.0, 0.002139089993175719
697.0, 0.0019525076643912838
698.0, 0.00155624940238936
699.0, 0.0012807157129034238
700.0, 0.0014452981274010184
701.0, 0.001562706145131759
702.0, 0.0017027989277953643
703.0, 0.001394295678250491
704.0, 0.0009694605160301013
705.0, 0.0014423246469139534
706.0, 0.0015335924051360088
707.0, 0.0013383551568059413
708.0, 0.0013902428623296297
709.0, 0.0011123868247439755
710.0, 0.0012448073540501914
711.0, 0.0015343712767219631
712.0, 0.0004921004843207718
713.0, 0.0007896251580498089
714.0, 0.0006437999149275566
715.0, 0.0001171300366968778
716.0, 0.00012912353152344454
717.0, 0.0005617354714748461
718.0, 0.0005595969033472921
719.0, 9.460593002059319e-05
720.0, 0.00036495601165842286
721.0, 0.00025914327648535976
722.0, 0.0004040232287015074
723.0, 0.0004348134466345004
724.0, 0.00030629482677382565
725.0, 0.0003591544049978247
726.0, 0.0003786109781335308
727.0, 0.00010259279579698699
728.0, 4.801282543731121e-05
729.0, 0.00033690674438767893
730.0, 0.00013497631671166007
731.0, 0.0003412121440746918
732.0, 0.0007560793257833261
733.0, 0.0010841917262952561
734.0, 0.00040389933663865027
735.0, 0.000553255358318262
736.0, 0.0004272000915453797
737.0, 0.00011624244671164897
738.0, 0.00026780804600790416
739.0, 0.0002396809476429443
740.0, 0.0009774679751674861
741.0, 0.00042553269083599014
742.0, 8.906126107288474e-05
743.0, 0.0003624734773913546
744.0, 0.00015275822090743028
745.0, 0.00014572502454262006
746.0, 0.00029694456150690715
747.0, 0.0008535995148619781
748.0, 0.0006053231363497305
749.0, 0.0011928815951185567
750.0, 0.00025408585176583514
751.0, 0.0004105953258758877
752.0, 0.0007137750848289662
753.0, 0.0002574296136463602
754.0, 3.5317938417210855e-05
755.0, 0.0003566519509517882
756.0, 0.000979610579812002
757.0, 0.0009618252209164654
758.0, 0.0010779840907090628
759.0, 0.0016711550785418498
760.0, 0.002312983754828491
761.0, 0.0027365204394450768
762.0, 0.00320793431255716
763.0, 0.0035452945648548253
764.0, 0.003383040716475178
765.0, 0.0040226939111823986
766.0, 0.004855167689112233
767.0, 0.005074176359660897
768.0, 0.005877995465983036
769.0, 0.007809253253792666
770.0, 0.008293095543328117
771.0, 0.010418045258193575
772.0, 0.01283565124500993
773.0, 0.015625234458902234
774.0, 0.01980135194051196
775.0, 0.024986339236884255
776.0, 0.031141604722479635
777.0, 0.03951542923637305
778.0, 0.05082508289380452
779.0, 0.06228125160481364
780.0, 0.07141319531509137
781.0, 0.0795537896185758
782.0, 0.08553599022425777
783.0, 0.09174366504957455
784.0, 0.1000160480743988
785.0, 0.10863084639624633
786.0, 0.11763175780633578
787.0, 0.12786264178019174
788.0, 0.14071480055564348
789.0, 0.15507141301197522
790.0, 0.17318259425338858
791.0, 0.1924768062289556
792.0, 0.20710863761740614
793.0, 0.21261979253542493
794.0, 0.20026776248128328
795.0, 0.17351983256091075
796.0, 0.1371079434829731
797.0, 0.10061410587626526
798.0, 0.07138323322990775
799.0, 0.051254588921791085
800.0, 0.03740838728216535
801.0, 0.026798190613736297
802.0, 0.019997070965335092
803.0, 0.015353692325049597
804.0, 0.011157170397376466
805.0, 0.008229334681510698
806.0, 0.006083602312513316
807.0, 0.0041238734521239365
808.0, 0.0025790591700416993
809.0, 0.0015045960754885416
810.0, 0.001055204664369766
811.0, 0.00026286145307670476
812.0, 0.0007199484658469075
813.0, 0.0009818489611386554
814.0, 0.0008476952139995598
815.0, 0.0008128072575015917
816.0, 0.000804192972181751
817.0, 0.0005489653356625932
818.0, 0.0007030095806235314
819.0, 0.0012184993763984344
820.0, 0.00021253879853953578
821.0, 0.0007171555265397659
822.0, 0.001438980958275058
823.0, 0.0020343692238109262
824.0, 0.002408741861771564
825.0, 0.0036841218699910612
826.0, 0.005252833560106379
827.0, 0.006979191850910959
828.0, 0.009656224330321586
829.0, 0.013881424315873227
830.0, 0.019666684566356892
831.0, 0.026928207236818925
832.0, 0.03577967863168949
833.0, 0.0459711580687657
834.0, 0.05623655311657588
835.0, 0.061975618139554114
836.0, 0.06577445186635203
837.0, 0.07160414466687988
838.0, 0.07856533349950912
839.0, 0.08570058140094026
840.0, 0.09358929167036922
841.0, 0.10349308377658148
842.0, 0.11655079111637447
843.0, 0.13125432464617487
844.0, 0.14980256796067962
845.0, 0.17284863547304155
846.0, 0.19037542447949687
847.0, 0.18985852278989715
848.0, 0.17000465792636493
849.0, 0.13846667331938786
850.0, 0.10439955008201326
851.0, 0.07964116511490085
852.0, 0.06469791074191301
853.0, 0.05766770722703381
854.0, 0.056779439160869354
855.0, 0.05992337913800858
856.0, 0.06627065202741132
857.0, 0.0764097841832767
858.0, 0.09044714416131222
859.0, 0.10844117480798143
860.0, 0.13504837481961762
861.0, 0.16990202561145312
862.0, 0.2140747368732474
863.0, 0.27073774414112506
864.0, 0.3347202218804932
865.0, 0.3961386898365328
866.0, 0.449017576057636
867.0, 0.49283587946167834
868.0, 0.5314204632573767
869.0, 0.5723709704066441
870.0, 0.616532410705006
871.0, 0.6616516031283234
872.0, 0.7090963797306727
873.0, 0.7606059198843474
874.0, 0.8191586176164001
875.0, 0.8860773738382713
876.0, 0.9525139954329462
877.0, 0.9951226317420224
878.0, 0.9881845663518312
879.0, 0.919197236964577
880.0, 0.7930761369370573
881.0, 0.6413090224735469
882.0, 0.5003775048728291
883.0, 0.3873777601576246
884.0, 0.30144205748362285
885.0, 0.23740336741963464
886.0, 0.19085317363661786
887.0, 0.15573703401283645
888.0, 0.12814419729480586
889.0, 0.10764873212018475
890.0, 0.09134136937429582
891.0, 0.07762892939316464
892.0, 0.06646350734550693
893.0, 0.05744606782523518
894.0, 0.050317897163365155
895.0, 0.04459545044333246
896.0, 0.039494392239967716
897.0, 0.03514713796020819
898.0, 0.03141597513791654
899.0, 0.02778299299544413
900.0, 0.024814696731475166
901.0, 0.02279774005690085
902.0, 0.021049416154682112
903.0, 0.019088544548764096
904.0, 0.017152440546283926
905.0, 0.015958272558697216
906.0, 0.014566637707451827
907.0, 0.01291348587246314
908.0, 0.0120973240121362
909.0, 0.01089519154264551
910.0, 0.009525844551331526
911.0, 0.008438529681012155
912.0, 0.006214232386210801
913.0, 0.005440893463500907
914.0, 0.005081250153127363
915.0, 0.0030400492946001355
916.0, 0.0028263792520668964
917.0, 0.0022363394083577794
918.0, 0.0016250490770392523
919.0, 0.001369153533363027
920.0, 0.0011491211622747307
921.0, 0.0015056243494037647
922.0, 0.0004493600863174122
923.0, 0.0004628420822685674
924.0, 0.0007114183594753993
925.0, 0.00014644843628499544
926.0, 2.2798157570219955e-05
927.0, 0.0003683530947122556
928.0, 0.00027649976236395006
929.0, 4.820288932971747e-05
930.0, 0.00012769862748842419
931.0, 9.47202790590185e-05
932.0, 0.0003805726808177855
933.0, 0.00019196767061474288
934.0, 0.00016766627646852938
935.0, 0.0005446123037276541
936.0, 0.0002483560371290156
937.0, 0.00024275058393043294
938.0, 0.0003874144247790301
939.0, 0.0005151404861849158
940.0, 0.0008383084563601317
941.0, 0.0003906778388705113
942.0, 0.0008346245023683833
943.0, 0.0006606176996324422
944.0, 0.00028782324520538636
945.0, 1.928933066182565e-05
946.0, 0.00015055087196963276
947.0, 8.397669746236599e-05
948.0, 0.00029464454675039376
949.0, 0.00047399633989173544
950.0, 0.00028523515486897426
951.0, 0.0004893528801722046
952.0, 9.078472423851384e-05
953.0, 0.00015604245856667723
954.0, 0.0004632273252203805
955.0, 0.0002113049446097049
956.0, 0.0006191333549059243
957.0, 0.0005628745076942291
958.0, 3.56532318411361e-05
959.0, 0.0007870398951480102
960.0, 0.0014643098494868162
961.0, 0.0007280736918865132
962.0, 0.00026717836141162634
963.0, 0.0010945695606167723
964.0, 0.001150499216149066
965.0, 0.0007115397070947251
966.0, 0.000695416633092447
967.0, 0.0014023544868923229
968.0, 0.001642287465283416
969.0, 0.0015246951867985516
970.0, 0.0016715080570920437
971.0, 0.001495585578450276
972.0, 0.0012658932850849202
973.0, 0.0014166172961243432
974.0, 0.0016592593817977264
975.0, 0.0013282051226665816
976.0, 0.001240928482059814
977.0, 0.0014699578179839473
978.0, 0.0016565580648884852
979.0, 0.0016750532998450558
980.0, 0.0017708561925753065
981.0, 0.002003936774817465
982.0, 0.00201231951474132
983.0, 0.0020491972615875845
984.0, 0.001824072039385199
985.0, 0.002420951438653439
986.0, 0.002242119502913302
987.0, 0.0021767683526895815
988.0, 0.00236346792002447
989.0, 0.0018441150883395918
990.0, 0.0016957422575360143
991.0, 0.00252079963505507
992.0, 0.0020807206161758685
993.0, 0.0012406319963749832
994.0, 0.0020459008833631554
995.0, 0.0017223923656641987
996.0, 0.0018662736736445508
997.0, 0.001839222473071967
998.0, 0.001912310454091402
999.0, 0.001904470484522369
1000.0, 0.001824383324287069
1001.0, 0.0014902856998484381
1002.0, 0.001359040127706735
1003.0, 0.0017323694272888335
1004.0, 0.001497891660816626
1005.0, 0.0014631895336960216
1006.0, 0.0011102153678199675
1007.0, 0.0013318063205677323
1008.0, 0.0013762968159155562
1009.0, 0.001249560504760195
1010.0, 0.0011035562117372975
1011.0, 0.001205605424480513
1012.0, 0.0014411421771169347
1013.0, 0.0017985328786947043
1014.0, 0.0021051632402163917
1015.0, 0.0016003443673958055
1016.0, 0.0009941109204414998
1017.0, 0.0010179621054982589
1018.0, 0.001115749606055196
1019.0, 0.0008629287692266668
1020.0, 0.0010081983099039652
1021.0, 0.0013408374685940814
1022.0, 0.0011490509887018975
1023.0, 0.0010210536011478395
1024.0, 0.0009715729595027648
1025.0, 0.0007694350764873279
1026.0, 0.0009869255350206062
1027.0, 0.0011347665599846608
1028.0, 0.0007591547652345592
1029.0, 0.0010899021014277237
1030.0, 0.0013971567620945993
1031.0, 0.0012676354799597835
1032.0, 0.0010781038366700062
1033.0, 0.0012516704701482427
1034.0, 0.0011376118819281457
1035.0, 0.0012915868513951741
1036.0, 0.0010695279420094958
1037.0, 0.0005462966157838077
1038.0, 0.001229662134129967
1039.0, 0.001296343213766496
1040.0, 0.0009425760440277158
1041.0, 0.0006751829001839984
1042.0, 0.0011179995127399256
1043.0, 0.0014618080626708206
1044.0, 0.0013919976831964056
1045.0, 0.0010767449565271708
1046.0, 0.0011154924640791525
1047.0, 0.001453714415682474
1048.0, 0.0012701580708793507
1049.0, 0.0006825041053138128
1050.0, 0.0006099149703502357
1051.0, 0.0008697821796772373
1052.0, 0.0006192364528357584
1053.0, 0.0006756776887695212
1054.0, 0.00012239054399221358
1055.0, 0.00012413818071474084
1056.0, 0.0008708451399248763
1057.0, 0.0009612168030416623
1058.0, 0.0002012702282443868
1059.0, 0.00014149002993592456
1060.0, 0.00040009247676046575
1061.0, 0.0005811678467161934
1062.0, 0.0007109425769680855
1063.0, 0.0006588911950372377
1064.0, 0.0008616344885261335
1065.0, 0.0011297321226152377
1066.0, 0.0011075778726071439
1067.0, 0.00047311125488368416
1068.0, 0.0005456418315645368
1069.0, 0.0005553853890832285
1070.0, 0.0008332268318399802
1071.0, 0.00035715641833666936
1072.0, 0.00034193138176936554
1073.0, 0.0007864425795499604
1074.0, 0.0007665157217031192
1075.0, 0.000506591331535349
1076.0, 0.0003906309559895805
1077.0, 0.00047245997272335157
1078.0, 0.0009580487737610143
1079.0, 0.0006584794073187009
1080.0, 0.0004098587856344093
1081.0, 0.00017432814051217602
1082.0, 0.0004798337380972443
1083.0, 0.0013427663477979287
1084.0, 0.0011085188730277618
1085.0, 0.0005684316012914814
1086.0, 0.00011228892334761476
1087.0, 7.968061392393607e-05
1088.0, 0.00010166978387318605
1089.0, 8.86636803392151e-05
1090.0, 0.00047505672483533744
1091.0, 0.0006242654917818571
1092.0, 0.0005230611233956669
1093.0, 0.0001768931025813013
1094.0, 0.00015016444258174604
1095.0, 0.0006291894492813251
1096.0, 0.0005626325279270009
1097.0, 0.0006037190594931282
1098.0, 0.00039920958428531005
1099.0, 0.000965763298507789
1100.0, 0.0011289869098420496
1101.0, 0.00034899542106102085
1102.0, 0.0003155985064203152
1103.0, 0.0008040663199345341
1104.0, 0.0005489572835185654
1105.0, 0.0006274234959818536
1106.0, 0.0005896286282046222
1107.0, 0.00014449477180083809
1108.0, 0.0006848015901184031
1109.0, 0.0010044787800881042
1110.0, 0.0007424976526099109
1111.0, 0.0006452629029642157
1112.0, 0.0004583629319290389
1113.0, 0.001253029767281939
1114.0, 0.0011849116751082426
1115.0, 0.000703491652484916
1116.0, 0.0004582321334104703
1117.0, 0.0010310352980292027
1118.0, 0.0022060870198158545
1119.0, 0.0014982138199593996
1120.0, 0.001904188424641067
1121.0, 0.00020090651736463642
1122.0, 0.0016563738146674158
1123.0, 0.00045855085640544044
1124.0, 0.0006687973151592185
1125.0, 0.0003145645885503108
1126.0, 0.0004456307579815534
1127.0, 0.0006248756921718778
1128.0, 0.000721743795109238
1129.0, 0.0001702297109692516
1130.0, 0.00014642532195082586
1131.0, 0.00010425960955247347
1132.0, 7.934613714548583e-05
1133.0, 0.0007583432622495672
1134.0, 0.0003783637119345944
1135.0, 0.00026064741711827094
1136.0, 0.00025694383675532056
1137.0, 0.00039998945675304436
1138.0, 0.0002974259069645199
1139.0, 0.00011163094617934853
1140.0, 0.00036130330949524724
1141.0, 0.0002925784759374703
1142.0, 0.00016068753796228134
1143.0, 0.00035418273900954787
1144.0, 0.0009886796073617127
1145.0, 0.0005377763042270713
1146.0, 0.0004387736964867517
1147.0, 0.0009022498875705617
1148.0, 0.00037146632044417243
1149.0, 0.000180443138439324
1150.0, 0.0007580937161885546
1151.0, 0.0006354321770562287
1152.0, 0.0008743959001544818
1153.0, 0.0007176612601361934
1154.0, 0.0010138386511348203
1155.0, 0.0003725596203625185
1156.0, 0.0005195435963815377
1157.0, 0.0008031189865026525
1158.0, 0.000543658263920273
1159.0, 0.0006189472756902577
1160.0, 0.0006990781125153305
1161.0, 0.0005732143098491366
1162.0, 0.0007234463693776447
1163.0, 0.0007909392997897983
1164.0, 0.0005457982236005631
1165.0, 0.00044325745004102486
1166.0, 0.001101399078658033
1167.0, 0.0008841034926591654
1168.0, 0.0003562546407085554
1169.0, 0.0013248769687266532
1170.0, 0.001430124395758192
1171.0, 0.000985600070819013
1172.0, 0.0011972158249421365
1173.0, 0.0004914774591230266
1174.0, 0.0016308218187541857
1175.0, 0.001277771848831932
1176.0, 0.0007059070150571148
1177.0, 0.0009391998671088645
1178.0, 0.0008854207447060147
1179.0, 0.0014118876603197317
1180.0, 0.0012568554549763468
1181.0, 0.0016002810462304312
1182.0, 0.002070972772809226
1183.0, 0.0012997998788690118
1184.0, 0.000943960670224057
1185.0, 0.0013383345366622112
1186.0, 0.0011241529275158092
1187.0, 0.00048716502975260946
1188.0, 0.0009222791393067995
1189.0, 0.0012699201340435954
1190.0, 0.0013239358275194699
1191.0, 0.0013975365900589071
1192.0, 0.0012906047860251563
1193.0, 0.0010552389456146317
1194.0, 0.0006221425782013177
1195.0, 0.0010210276510729914
1196.0, 0.0011375111610376948
1197.0, 0.0007939255836687108
1198.0, 0.0005156577507841109
1199.0, 0.00028751455148954457
1200.0, 6.171967707389513e-05
1201.0, 0.00027747733039632254
1202.0, 0.0009335033508263802
1203.0, 0.0008913976685488703
1204.0, 0.0009359495838462311
1205.0, 0.0009040735117442634
1206.0, 0.0006512514053128854
1207.0, 0.0010292912394342273
1208.0, 0.0014237053243988758
1209.0, 0.0013773312753814423
1210.0, 0.0011758054764827812
1211.0, 0.0010379400748511437
1212.0, 0.001026503832727024
1213.0, 0.0011872530364188463
1214.0, 0.0007270077373649646
1215.0, 0.0006259587729407232
1216.0, 0.0006462097877879
1217.0, 0.0007437279384991362
1218.0, 0.00039860413898077746
1219.0, 0.0006982967583075633
1220.0, 0.000769769876597602
1221.0, 0.0006465760757786863
1222.0, 0.0005496390746806182
1223.0, 0.0005116117278646542
1224.0, 0.0008540458126940414
1225.0, 0.0006386688064037034
1226.0, 0.0005112192613190732
1227.0, 0.0010023297153941395
1228.0, 0.00025108888184348295
1229.0, 2.5348826953771738e-05
1230.0, 8.489806319045513e-05
1231.0, 0.00031061495315707016
1232.0, 0.0001400814360117833
1233.0, 0.00026549838928660694
1234.0, 0.0006096785532374492
1235.0, 0.00043263286361956753
1236.0, 0.0002929076660591949
1237.0, 0.0005315712332918809
1238.0, 0.0005116122576040981
1239.0, 0.0006540892212270073
1240.0, 0.0009721509953317638
1241.0, 0.0010123688609687234
1242.0, 0.001135445165814383
1243.0, 0.0011761791766501106
1244.0, 0.0009607611089895979
1245.0, 0.0007821438577845555
1246.0, 0.0008866768786594062
1247.0, 0.000759663077582856
1248.0, 0.00033159127856138766
1249.0, 0.0006314681867974475
1250.0, 0.0009811771239574359
1251.0, 0.0007883741331028286
1252.0, 0.0010252400581170938
1253.0, 0.0008425657495434766
1254.0, 0.001280993196866333
1255.0, 8.60771782036568e-05
1256.0, 0.00020095699831346322
1257.0, 0.0003620820789961794
1258.0, 0.0012637209189263069
1259.0, 0.00015142914841165231
1260.0, 0.0005266071295352084
1261.0, 0.0011908661434864405
1262.0, 0.0013973638949953645
1263.0, 0.0005475093194534367
1264.0, 0.0008538635716427862
1265.0, 0.0006590569486048549
1266.0, 0.0010665613269014232
1267.0, 0.0015016032248543372
1268.0, 0.0012905255852036447
1269.0, 0.0010972933138939025
1270.0, 0.0011496720425963234
1271.0, 0.0012140815588684072
1272.0, 0.0010389280580312156
1273.0, 0.0009718876527792015
1274.0, 0.0007713879317706229
1275.0, 0.0004989045864928441
1276.0, 0.0005290588409413399
1277.0, 6.997481339428424e-06
1278.0, 0.000375948216927527
1279.0, 0.0006518668641325557
1280.0, 0.0007056416121560407
1281.0, 0.00020287888531440694
1282.0, 0.00012208739700766483
1283.0, 3.16314660785288e-05
1284.0, 0.00022630604950786307
1285, 0.0
1286, 0.0
1287, 0.0
1288, 0.0
1289, 0.0
1290, 0.0
1291, 0.0
1292, 0.0
1293, 0.0
1294, 0.0
1295, 0.0
1296, 0.0
1297, 0.0
1298, 0.0
1299, 0.0
1300, 0.0
1301, 0.0
1302, 0.0
1303, 0.0
1304, 0.0
1305, 0.0
1306, 0.0
1307, 0.0
1308, 0.0
1309, 0.0
1310, 0.0
1311, 0.0
1312, 0.0
1313, 0.0
1314, 0.0
1315, 0.0
1316, 0.0
1317, 0.0
1318, 0.0
1319, 0.0
1320, 0.0
1321, 0.0
1322, 0.0
1323, 0.0
1324, 0.0
1325, 0.0
1326, 0.0
1327, 0.0
1328, 0.0
1329, 0.0
1330, 0.0
1331, 0.0
1332, 0.0
1333, 0.0
1334, 0.0
1335, 0.0
1336, 0.0
1337, 0.0
1338, 0.0
1339, 0.0
1340, 0.0
1341, 0.0
1342, 0.0
1343, 0.0
1344, 0.0
1345, 0.0
1346, 0.0
1347, 0.0
1348, 0.0
1349, 0.0
1350, 0.0
1351, 0.0
1352, 0.0
1353, 0.0
1354, 0.0
1355, 0.0
1356, 0.0
1357, 0.0
1358, 0.0
1359, 0.0
1360, 0.0
1361, 0.0
1362, 0.0
1363, 0.0
1364, 0.0
1365, 0.0
1366, 0.0
1367, 0.0
1368, 0.0
1369, 0.0
1370, 0.0
1371, 0.0
1372, 0.0
1373, 0.0
1374, 0.0
1375, 0.0
1376, 0.0
1377, 0.0
1378, 0.0
1379, 0.0
1380, 0.0
1381, 0.0
1382, 0.0
1383, 0.0
1384, 0.0
1385, 0.0
1386, 0.0
1387, 0.0
1388, 0.0
1389, 0.0
1390, 0.0
1391, 0.0
1392, 0.0
1393, 0.0
1394, 0.0
1395, 0.0
1396, 0.0
1397, 0.0
1398, 0.0
1399, 0.0
1400, 0.0
1401, 0.0
1402, 0.0
1403, 0.0
1404, 0.0
1405, 0.0
1406, 0.0
1407, 0.0
1408, 0.0
1409, 0.0
1410, 0.0
1411, 0.0
1412, 0.0
1413, 0.0
1414, 0.0
1415, 0.0
1416, 0.0
1417, 0.0
1418, 0.0
1419, 0.0
1420, 0.0
1421, 0.0
1422, 0.0
1423, 0.0
1424, 0.0
1425, 0.0
1426, 0.0
1427, 0.0
1428, 0.0
1429, 0.0
1430, 0.0
1431, 0.0
1432, 0.0
1433, 0.0
1434, 0.0
1435, 0.0
1436, 0.0
1437, 0.0
1438, 0.0
1439, 0.0
1440, 0.0
1441, 0.0
1442, 0.0
1443, 0.0
1444, 0.0
1445, 0.0
1446, 0.0
1447, 0.0
1448, 0.0
1449, 0.0
1450, 0.0
1451, 0.0
1452, 0.0
1453, 0.0
1454, 0.0
1455, 0.0
1456, 0.0
1457, 0.0
1458, 0.0
1459, 0.0
1460, 0.0
1461, 0.0
1462, 0.0
1463, 0.0
1464, 0.0
1465, 0.0
1466, 0.0
1467, 0.0
1468, 0.0
1469, 0.0
1470, 0.0
1471, 0.0
1472, 0.0
1473, 0.0
1474, 0.0
1475, 0.0
1476, 0.0
1477, 0.0
1478, 0.0
1479, 0.0
1480, 0.0
1481, 0.0
1482, 0.0
1483, 0.0
1484, 0.0
1485, 0.0
1486, 0.0
1487, 0.0
1488, 0.0
1489, 0.0
1490, 0.0
1491, 0.0
1492, 0.0
1493, 0.0
1494, 0.0
1495, 0.0
1496, 0.0
1497, 0.0
1498, 0.0
1499, 0.0
1500, 0.0
1501, 0.0
1502, 0.0
1503, 0.0
1504, 0.0
1505, 0.0
1506, 0.0
1507, 0.0
1508, 0.0
1509, 0.0
1510, 0.0
1511, 0.0
1512, 0.0
1513, 0.0
1514, 0.0
1515, 0.0
1516, 0.0
1517, 0.0
1518, 0.0
1519, 0.0
1520, 0.0
1521, 0.0
1522, 0.0
1523, 0.0
1524, 0.0
1525, 0.0
1526, 0.0
1527, 0.0
1528, 0.0
1529, 0.0
1530, 0.0
1531, 0.0
1532, 0.0
1533, 0.0
1534, 0.0
1535, 0.0
1536, 0.0
1537, 0.0
1538, 0.0
1539, 0.0
1540, 0.0
1541, 0.0
1542, 0.0
1543, 0.0
1544, 0.0
1545, 0.0
1546, 0.0
1547, 0.0
1548, 0.0
1549, 0.0
1550, 0.0
1551, 0.0
1552, 0.0
1553, 0.0
1554, 0.0
1555, 0.0
1556, 0.0
1557, 0.0
1558, 0.0
1559, 0.0
1560, 0.0
1561, 0.0
1562, 0.0
1563, 0.0
1564, 0.0
1565, 0.0
1566, 0.0
1567, 0.0
1568, 0.0
1569, 0.0
1570, 0.0
1571, 0.0
1572, 0.0
1573, 0.0
1574, 0.0
1575, 0.0
1576, 0.0
1577, 0.0
1578, 0.0
1579, 0.0
1580, 0.0
1581, 0.0
1582, 0.0
1583, 0.0
1584, 0.0
1585, 0.0
1586, 0.0
1587, 0.0
1588, 0.0
1589, 0.0
1590, 0.0
1591, 0.0
1592, 0.0
1593, 0.0
1594, 0.0
1595, 0.0
1596, 0.0
1597, 0.0
1598, 0.0
1599, 0.0
