30, 0.0
31, 0.0
32, 0.0
33, 0.0
34, 0.0
35, 0.0
36, 0.0
37, 0.0
38, 0.0
39, 0.0
40, 0.0
41, 0.0
42, 0.0
43, 0.0
44, 0.0
45, 0.0
46, 0.0
47, 0.0
48, 0.0
49, 0.0
50, 0.0
51, 0.0
52, 0.0
53, 0.0
54, 0.0
55, 0.0
56, 0.0
57, 0.0
58, 0.0
59, 0.0
60, 0.0
61, 0.0
62, 0.0
63, 0.0
64, 0.0
65, 0.0
66, 0.0
67, 0.0
68, 0.0
69, 0.0
70, 0.0
71.0, 0.008052752729014253
72.0, 0.019568952338645536
73.0, 0.028564779113484387
74.0, 0.01831383903403072
75.0, 0.009611068431896498
76.0, 0.006472525833636923
77.0, 0.002530047511553793
78.0, 0.00557060903283508
79.0, 0.011125933139379854
80.0, 0.014067825403676045
81.0, 0.02148082541864189
82.0, 0.03441929187641794
83.0, 0.05380518813581159
84.0, 0.0855375746801321
85.0, 0.10308035446679241
86.0, 0.11690164577552667
87.0, 0.13716674636657417
88.0, 0.1484305295474284
89.0, 0.1696962469802256
90.0, 0.19919210250800898
91.0, 0.207584805196772
92.0, 0.22931351332115987
93.0, 0.25887372450515467
94.0, 0.29378592994050934
95.0, 0.3184624015129696
96.0, 0.3585934036931646
97.0, 0.4091493354344436
98.0, 0.437424834432212
99.0, 0.49015258927478383
100.0, 0.5394948360827171
101.0, 0.5678893752454985
102.0, 0.6201719138793058
103.0, 0.6777780681951475
104.0, 0.7350024729092105
105.0, 0.7753820198667978
106.0, 0.8497266654598894
107.0, 0.908474895418904
108.0, 0.9296456815202307
109.0, 0.9803697755936044
110.0, 0.9987212245868613
111.0, 0.9918055842751395
112.0, 0.9680623307394396
113.0, 0.9461395198314585
114.0, 0.9120043301359089
115.0, 0.8650040387228637
116.0, 0.875333302988563
117.0, 0.8602200309359473
118.0, 0.8464361637245252
119.0, 0.8713292336390199
120.0, 0.8817216940041492
121.0, 0.9080067952421993
122.0, 0.9497819252991511
123.0, 0.9659377421305576
124.0, 0.9675087874974239
125.0, 0.9663252222653661
126.0, 0.971554092082126
127.0, 0.9330360340147352
128.0, 0.9081375131801629
129.0, 0.8908100416505192
130.0, 0.8415170487805421
131.0, 0.8169837981562809
132.0, 0.7935099299726222
133.0, 0.7600473750836769
134.0, 0.7328951771905988
135.0, 0.7255409446053096
136.0, 0.7242328745811325
137.0, 0.6999304370361574
138.0, 0.7199070570073168
139.0, 0.7327453713706437
140.0, 0.7281337671977106
141.0, 0.7516513988352941
142.0, 0.7757060166934258
143.0, 0.7940470995861035
144.0, 0.7978433673601193
145.0, 0.8371541561313318
146.0, 0.8497755148554527
147.0, 0.839797379095819
148.0, 0.8646639505523908
149.0, 0.8589285775693334
150.0, 0.8495310983924748
151.0, 0.8515088908320295
152.0, 0.8392981774605627
153.0, 0.8269911679319627
154.0, 0.818042877171218
155.0, 0.8211309863199914
156.0, 0.8113306192470141
157.0, 0.8093071266818094
158.0, 0.8189485383090871
159.0, 0.8078080228713641
160.0, 0.8036440242886598
161.0, 0.8038065554471601
162.0, 0.8063904598357021
163.0, 0.7897349138812632
164.0, 0.7804559336370719
165.0, 0.7729660348524975
166.0, 0.7283463997443845
167.0, 0.7079515901636657
168.0, 0.6848841622539705
169.0, 0.6455241715794245
170.0, 0.6067234185998194
171.0, 0.5824767301443277
172.0, 0.5621027069784393
173.0, 0.5256567210500845
174.0, 0.5209283535417422
175.0, 0.5063371123459793
176.0, 0.47771090829223184
177.0, 0.47295192753231924
178.0, 0.45892391626119083
179.0, 0.4445934372446234
180.0, 0.43693077327309493
181.0, 0.44139410684509583
182.0, 0.4363664592040583
183.0, 0.42894060337547363
184.0, 0.44189151402812954
185.0, 0.43454478424963056
186.0, 0.43389045825208267
187.0, 0.44618083408244125
188.0, 0.4353478829450654
189.0, 0.4385608490747792
190.0, 0.4462780994587545
191.0, 0.44919896275288096
192.0, 0.4511425724254066
193.0, 0.4626938104694886
194.0, 0.4768007548251862
195.0, 0.46386385875116054
196.0, 0.4750747581221887
197.0, 0.48612323524079615
198.0, 0.4881366881519936
199.0, 0.4960337906512423
200.0, 0.504871159145297
201.0, 0.5098065725275426
202.0, 0.5036289050541065
203.0, 0.5191113474334724
204.0, 0.523844971952892
205.0, 0.5201629582265762
206.0, 0.533433042116413
207.0, 0.5356106982028075
208.0, 0.5377345435086236
209.0, 0.5448158831880452
210.0, 0.5649303719698043
211.0, 0.5595415255892107
212.0, 0.5506904609401732
213.0, 0.568044594069046
214.0, 0.5667207892646319
215.0, 0.5699749833706083
216.0, 0.5775621958724021
217.0, 0.5766179040807592
218.0, 0.5667724667611567
219.0, 0.5651945384711387
220.0, 0.5780977924285514
221.0, 0.553266206332202
222.0, 0.5583484395532113
223.0, 0.5673639961926448
224.0, 0.5475559150374883
225.0, 0.5405965856174506
226.0, 0.5317219016554445
227.0, 0.5187551803451182
228.0, 0.4987686322255524
229.0, 0.49512350828325546
230.0, 0.4808845673257693
231.0, 0.4484796503837101
232.0, 0.45248896722856
233.0, 0.4362219457427281
234.0, 0.4150214958517458
235.0, 0.4041749338982088
236.0, 0.39487482343408575
237.0, 0.37946426980667747
238.0, 0.3615885111821374
239.0, 0.3532072765920019
240.0, 0.33171229389194373
241.0, 0.3175418381735027
242.0, 0.31390721487421525
243.0, 0.2931582936382541
244.0, 0.27720338279938617
245.0, 0.266290430683195
246.0, 0.26130412521234453
247.0, 0.23923454968096095
248.0, 0.2293019345303249
249.0, 0.22343723726269532
250.0, 0.20434752018873542
251.0, 0.1947683064734335
252.0, 0.18503872957612666
253.0, 0.17382568266499357
254.0, 0.1634059488825036
255.0, 0.15856244202095324
256.0, 0.1494585751850021
257.0, 0.13175966173074194
258.0, 0.1350784462080767
259.0, 0.12796717184268838
260.0, 0.11784009812132834
261.0, 0.11342857567415729
262.0, 0.10921917520907518
263.0, 0.10143561424736909
264.0, 0.0928075028815834
265.0, 0.0925942740063699
266.0, 0.08356130089354412
267.0, 0.07658764471932995
268.0, 0.07396776018950761
269.0, 0.06863153428885502
270.0, 0.060479374452962
271.0, 0.05498767216787891
272.0, 0.05607693580659161
273.0, 0.046239258292353674
274.0, 0.043135716269479284
275.0, 0.04176469250054876
276.0, 0.0342369743952405
277.0, 0.03187675432544999
278.0, 0.028809687448833346
279.0, 0.025470835909788804
280.0, 0.026114121517858378
281.0, 0.025076087802475222
282.0, 0.020483642434131977
283.0, 0.013079224840560066
284.0, 0.018594655772347115
285.0, 0.016436363463898634
286.0, 0.013428063093152745
287.0, 0.014395786097512303
288.0, 0.015577241805343865
289.0, 0.014828651817323983
290.0, 0.01485761163678351
291.0, 0.020190066617128254
292.0, 0.017355831534546895
293.0, 0.019872600765439178
294.0, 0.026844654538144615
295.0, 0.030014618498370168
296.0, 0.03502530924012729
297.0, 0.04192657298159716
298.0, 0.05038012085165122
299.0, 0.05682110181728186
300.0, 0.07010488313003148
301.0, 0.08135112055258543
302.0, 0.08513832773425828
303.0, 0.09999888863435435
304.0, 0.10531344311980201
305.0, 0.10319163483196975
306.0, 0.09536553158187812
307.0, 0.09664922064919358
308.0, 0.08658253993715993
309.0, 0.07052321027738266
310.0, 0.06563517860234105
311.0, 0.051417133000896405
312.0, 0.0396025392941604
313.0, 0.0324279156124365
314.0, 0.02855142565788574
315.0, 0.018093469694611522
316.0, 0.012325465522098667
317.0, 0.014935051761774575
318.0, 0.004220295773628137
319.0, 0.0008717098432594994
320.0, 0.0018106349956339628
321.0, 0.004943887689567046
322.0, 0.00888676788758845
323.0, 0.011022420038956364
324.0, 0.012620454158026428
325.0, 0.015671670319633797
326.0, 0.01531451637773655
327.0, 0.017034595381446024
328.0, 0.020104443570004793
329.0, 0.020944755866637525
330.0, 0.019294774249476055
331.0, 0.0204553044202116
332.0, 0.02399438057562588
333.0, 0.020608419485075583
334.0, 0.021695038139063854
335.0, 0.022365956289787256
336.0, 0.020749481390766787
337.0, 0.01999466042067645
338.0, 0.02064005979813896
339.0, 0.020178018003852598
340.0, 0.01667139746112566
341.0, 0.01981484333635333
342.0, 0.017293822519127394
343.0, 0.013817478277220891
344.0, 0.015551078540826518
345.0, 0.010370391229367918
346.0, 0.007126022617523245
347.0, 0.005787150934512021
348.0, 0.005116250998710747
349.0, 0.00535523467741658
350.0, 0.00627168301400168
351.0, 0.00870070466599308
352.0, 0.016041133420061422
353.0, 0.021441009267071258
354.0, 0.02703327930455888
355.0, 0.03372174933089822
356.0, 0.043400635261313505
357.0, 0.04999751961590932
358.0, 0.060295638144578514
359.0, 0.07666386346533685
360.0, 0.08204016228659423
361.0, 0.09492091252780187
362.0, 0.10929413468267413
363.0, 0.12068006563115732
364.0, 0.1268376149141793
365.0, 0.13488942563102438
366.0, 0.1381215732805212
367.0, 0.12788772601627704
368.0, 0.12558617417816928
369.0, 0.11401849062040141
370.0, 0.09829637436456827
371.0, 0.08921156544392975
372.0, 0.0775838642281037
373.0, 0.06483567183755665
374.0, 0.05320814061334597
375.0, 0.048670450743138645
376.0, 0.03974914281730401
377.0, 0.03291311501450685
378.0, 0.028642873258562913
379.0, 0.023221407484075286
380.0, 0.018072377485557074
381.0, 0.01537108563372795
382.0, 0.014839172344562687
383.0, 0.009277142363524334
384.0, 0.008818148694429246
385.0, 0.00851593328062574
386.0, 0.00622660958173157
387.0, 0.004015749291757094
388.0, 0.0046616836900494635
389.0, 0.004596390155740695
390.0, 0.0015727434139690608
391.0, 0.001519782912521752
392.0, 0.0027772243449081372
393.0, 0.00309923960507222
394.0, 0.00033201954223714084
395.0, 0.0012451589276988992
396.0, 0.002900925255469544
397.0, 0.0038693792828363833
398.0, 0.0022775123803876955
399.0, 0.0054297040741739895
400.0, 0.005349089531590081
401.0, 0.0036006771229356582
402.0, 0.0035399871278913387
403.0, 0.0049273816474745945
404.0, 0.004082045966901428
405.0, 0.0021099959538758936
406.0, 0.002365886894089582
407.0, 0.0015285936690752954
408.0, 0.0012200672755556682
409.0, 0.0012348173046686122
410.0, 0.00018436763183847917
411.0, 0.0008096894750894564
412.0, 0.0012406397399613758
413.0, 0.0012789106714383952
414.0, 0.0017447823915725759
415.0, 0.0007660366786014115
416.0, 0.0016274250453912446
417.0, 0.0044156120664741545
418.0, 0.004469898755511879
419.0, 0.0047332053094602524
420.0, 0.005994746179446685
421.0, 0.00797124964537074
422.0, 0.006402016549588106
423.0, 0.007376425095333961
424.0, 0.008944908687090102
425.0, 0.010194130612554463
426.0, 0.010597369826821782
427.0, 0.011473454331768492
428.0, 0.011976025041470406
429.0, 0.011906595749340707
430.0, 0.01533029233031078
431.0, 0.015705521475531104
432.0, 0.015564954322554222
433.0, 0.016546142497062058
434.0, 0.018538319210509687
435.0, 0.01940186876777154
436.0, 0.021032699878653176
437.0, 0.024752042843177932
438.0, 0.023058888556437347
439.0, 0.02585364072730954
440.0, 0.029394459149544517
441.0, 0.030352095335765047
442.0, 0.030324026041212915
443.0, 0.03339140496049981
444.0, 0.037474762954496824
445.0, 0.04045416868662297
446.0, 0.0468165321806375
447.0, 0.05127928850670743
448.0, 0.05567737155344026
449.0, 0.06221299995811471
450.0, 0.07277028064581764
451.0, 0.08393495233409637
452.0, 0.0982611082371483
453.0, 0.1192619263061017
454.0, 0.13792362562019425
455.0, 0.16260538134974098
456.0, 0.1893683709715936
457.0, 0.21238771655418415
458.0, 0.22221997452097023
459.0, 0.23264671842065288
460.0, 0.23496453865541694
461.0, 0.21484177745567493
462.0, 0.2007252227691752
463.0, 0.18706316922357394
464.0, 0.171720955564193
465.0, 0.1517745305140229
466.0, 0.145275832684209
467.0, 0.13232375444714234
468.0, 0.11882116156804551
469.0, 0.11654219365010429
470.0, 0.10543730272059883
471.0, 0.09754144079428778
472.0, 0.09216586685338969
473.0, 0.08683608880710826
474.0, 0.0802315752679186
475.0, 0.078182968142284
476.0, 0.07737518121016378
477.0, 0.07156954898847077
478.0, 0.07220348170502981
479.0, 0.07278086256727492
480.0, 0.07246460747993717
481.0, 0.07062580770837573
482.0, 0.07046126506444651
483.0, 0.06960408665793513
484.0, 0.0693444936375559
485.0, 0.07209727314431791
486.0, 0.07076623434602294
487.0, 0.0697170637838866
488.0, 0.07023641746479484
489.0, 0.07394061374921444
490.0, 0.06974434753100708
491.0, 0.070138722225914
492.0, 0.07276045545420308
493.0, 0.07304062478134936
494.0, 0.07299908253704643
495.0, 0.07561094821197757
496.0, 0.07744900469910058
497.0, 0.07349435020932482
498.0, 0.07840334594080592
499.0, 0.07971759243247287
500.0, 0.07925335194390387
501.0, 0.07998189576018765
502.0, 0.08108366900036239
503.0, 0.07925349124005908
504.0, 0.07744061949667332
505.0, 0.07920235863545463
506.0, 0.07380961544618311
507.0, 0.07143541340859404
508.0, 0.07026617755612367
509.0, 0.06824350023763498
510.0, 0.0627311878035587
511.0, 0.06268765121059212
512.0, 0.06213870382634884
513.0, 0.0557623250748173
514.0, 0.05903840611952039
515.0, 0.05793302171920453
516.0, 0.05479747125224192
517.0, 0.05166923247595336
518.0, 0.05163521515493208
519.0, 0.048107766892320006
520.0, 0.0457033072212901
521.0, 0.047299021379342755
522.0, 0.04689243056353525
523.0, 0.04323026989039018
524.0, 0.04056182978753581
525.0, 0.04085725882808498
526.0, 0.03790607936547871
527.0, 0.0371254369083068
528.0, 0.035841598069738675
529.0, 0.03340660709417919
530.0, 0.035089731381239775
531.0, 0.03469250106046985
532.0, 0.03377409119690373
533.0, 0.03281840003953284
534.0, 0.031020355916254416
535.0, 0.02932823261052429
536.0, 0.028994818024490183
537.0, 0.030091874821898658
538.0, 0.031115948456054063
539.0, 0.027839457444361275
540.0, 0.026855363013032634
541.0, 0.02835956002584637
542.0, 0.02743608301587126
543.0, 0.027540969962049654
544.0, 0.027574123853307587
545.0, 0.026917028263010383
546.0, 0.02449158803223972
547.0, 0.026620968553515024
548.0, 0.026157054876115485
549.0, 0.024407984442156992
550.0, 0.025778981378041972
551.0, 0.023812008596092324
552.0, 0.02249513359685282
553.0, 0.022150638785239995
554.0, 0.022770562120115332
555.0, 0.02062864115451405
556.0, 0.020978322410526693
557.0, 0.021541408831165076
558.0, 0.01955108848379557
559.0, 0.01868103560990589
560.0, 0.017735362470441416
561.0, 0.017001490923179267
562.0, 0.016666348169360988
563.0, 0.015494095770426066
564.0, 0.014281642595527874
565.0, 0.013380303708290702
566.0, 0.0129349000342645
567.0, 0.012181509937201889
568.0, 0.011532981856048856
569.0, 0.011089414141007529
570.0, 0.010665004139655695
571.0, 0.008880566299253469
572.0, 0.0075106495990290385
573.0, 0.008276288436476641
574.0, 0.010212437244947142
575.0, 0.007503315285266316
576.0, 0.007495193621038378
577.0, 0.007622139490811296
578.0, 0.007017507276164141
579.0, 0.004814593010302348
580.0, 0.005661421001289597
581.0, 0.004748035109365008
582.0, 0.0033412912197111505
583.0, 0.004677652597978737
584.0, 0.0029950084095324322
585.0, 0.003508841002139582
586.0, 0.004502315214226073
587.0, 0.003600509906959431
588.0, 0.0036246152740739244
589.0, 0.004245048141365777
590.0, 0.0040965878333946845
591.0, 0.002277271120006757
592.0, 0.0023019771143621645
593.0, 0.0019335169333839942
594.0, 0.0012377715095265695
595.0, 0.0004000456717618153
596.0, 0.0004941558230999132
597.0, 0.0006329618938091147
598.0, 0.0005780001419526237
599.0, 0.00039731388221529956
600.0, 0.0007027247801737388
601.0, 0.0011936825387133046
602.0, 0.0017552246240501277
603.0, 0.0019408660442447661
604.0, 0.0007101830081649721
605.0, 0.003079401535259641
606.0, 0.00328997302453762
607.0, 0.0017571704386059334
608.0, 8.432350460058427e-05
609.0, 0.0014016854386465342
610.0, 0.0016694023120679311
611.0, 0.0013111122797843863
612.0, 0.0008901129034926703
613.0, 0.0007270862513010495
614.0, 0.0007254101283222336
615.0, 0.0006489850346829356
616.0, 0.0004314564208412321
617.0, 0.0007109213542136855
618.0, 0.0008929010866875657
619.0, 0.0009842302714144734
620.0, 0.0010644818755897406
621.0, 0.0014439623245282112
622.0, 0.001128088656247714
623.0, 0.0005877683131488297
624.0, 0.00015477241561370525
625.0, 0.00036539397554110974
626.0, 0.00037682326389018117
627.0, 0.0007781714836974431
628.0, 0.0013543256335928735
629.0, 0.0017458974725064432
630.0, 0.0009765448147042994
631.0, 0.0009368450367780117
632.0, 0.0009305104764174844
633.0, 0.0005206648556357167
634.0, 0.0015494236646297031
635.0, 0.0017060497698717198
636.0, 0.001357931976814613
637.0, 0.0010855833688961218
638.0, 0.0029667365115207942
639.0, 0.0012934658028035146
640.0, 0.0005167120207863748
641.0, 0.0012865456914946628
642.0, 0.002383750501977235
643.0, 0.0013236691812938501
644.0, 0.0018972745955764007
645.0, 0.002967887903015917
646.0, 0.002307958085528376
647.0, 0.0028904010890232995
648.0, 0.0025755669776718537
649.0, 0.0017938025764612487
650.0, 0.0012069469054748045
651.0, 0.004183553553976812
652.0, 0.0022720327372674418
653.0, 0.0019574035941711523
654.0, 0.004764751148410622
655.0, 0.004313963344306907
656.0, 0.0046201754415185125
657.0, 0.0051118827272063185
658.0, 0.005538654320813614
659.0, 0.00562471219056112
660.0, 0.004803841376531806
661.0, 0.005750023023481684
662.0, 0.00606642616856149
663.0, 0.0028358696271729403
664.0, 0.00664682269318221
665.0, 0.006993523371709745
666.0, 0.006737782131997147
667.0, 0.007502906354964207
668.0, 0.007089875312561498
669.0, 0.0065185198786698794
670.0, 0.007314618664361462
671.0, 0.009026492900380443
672.0, 0.00866471893151114
673.0, 0.0097245028644194
674.0, 0.00968598126448052
675.0, 0.009210541097544659
676.0, 0.00985198470169241
677.0, 0.01209085066379722
678.0, 0.01234933757835697
679.0, 0.012278672328601921
680.0, 0.013155142706943757
681.0, 0.013539738759580474
682.0, 0.012725838644912422
683.0, 0.01379527246320996
684.0, 0.016399230097740147
685.0, 0.014678386259019901
686.0, 0.016165116972817892
687.0, 0.017439616654026782
688.0, 0.017568180903793053
689.0, 0.015983939554811095
690.0, 0.019849555368309936
691.0, 0.020266298153474
692.0, 0.020987182726720618
693.0, 0.024891762694150412
694.0, 0.024974813804235503
695.0, 0.024821948029089838
696.0, 0.026067932148862997
697.0, 0.02819295380970753
698.0, 0.026781541895030174
699.0, 0.029103737620707528
700.0, 0.02970317803876611
701.0, 0.029309999688319426
702.0, 0.030616682716841474
703.0, 0.031666564017523144
704.0, 0.030746276879808913
705.0, 0.029541776405727214
706.0, 0.029310317298448966
707.0, 0.028651036724598806
708.0, 0.028584261812455127
709.0, 0.030128765267084814
710.0, 0.03194093241329789
711.0, 0.028665462513331855
712.0, 0.030282122059348406
713.0, 0.030450589930299966
714.0, 0.029664823476604454
715.0, 0.029754141329973338
716.0, 0.032078281063702786
717.0, 0.032379444242242275
718.0, 0.03292944976636632
719.0, 0.03492633642447928
720.0, 0.03655129574343881
721.0, 0.035923196760234595
722.0, 0.03919103651728996
723.0, 0.04427331729478206
724.0, 0.042635756060546356
725.0, 0.048172322465027416
726.0, 0.05162705463638119
727.0, 0.05328656703899055
728.0, 0.054563164519501696
729.0, 0.06177046295928406
730.0, 0.0633210673413738
731.0, 0.06417030631174406
732.0, 0.06678841556777892
733.0, 0.07203590727784386
734.0, 0.06881676277342322
735.0, 0.0704359804921137
736.0, 0.07325383471239778
737.0, 0.06893123849460263
738.0, 0.07053878968652734
739.0, 0.07119225068729056
740.0, 0.0692440097227453
741.0, 0.06535626623762411
742.0, 0.06968560655559095
743.0, 0.06753222847258174
744.0, 0.06576913261726362
745.0, 0.06557818046544729
746.0, 0.06576504188377187
747.0, 0.05894040107110307
748.0, 0.060307644364010544
749.0, 0.061870935816798325
750.0, 0.05710650775034556
751.0, 0.05763031849161637
752.0, 0.06011573707971059
753.0, 0.058787818243647615
754.0, 0.05473223877205494
755.0, 0.05648725984778059
756.0, 0.055667711643921716
757.0, 0.05515925651430217
758.0, 0.055129128653942164
759.0, 0.055091598854817465
760.0, 0.04906522563160908
761.0, 0.050054824353160346
762.0, 0.050241166336504973
763.0, 0.04752102710854585
764.0, 0.046577349802095686
765.0, 0.0489038397840699
766.0, 0.04665230480147174
767.0, 0.04415147965241649
768.0, 0.04772327454592175
769.0, 0.045359984835882994
770.0, 0.042511865899694544
771.0, 0.041249357981266284
772.0, 0.041382856945288087
773.0, 0.038071170592450014
774.0, 0.039041328585378426
775.0, 0.03907572960919101
776.0, 0.037336659439815095
777.0, 0.03406320211309838
778.0, 0.03729694810186204
779.0, 0.03553321041570428
780.0, 0.03389004309709529
781.0, 0.03450117429608229
782.0, 0.034346760160326686
783.0, 0.03296028297897993
784.0, 0.0332769164512424
785.0, 0.033772601022670094
786.0, 0.0317195934063009
787.0, 0.032705735641197116
788.0, 0.033111012461764754
789.0, 0.031661114998679525
790.0, 0.029502359837261523
791.0, 0.03410266384737928
792.0, 0.03233370889458756
793.0, 0.03136281876844671
794.0, 0.03137077981992004
795.0, 0.031010495923869622
796.0, 0.031158704269589926
797.0, 0.03282814789549864
798.0, 0.031628129637724524
799.0, 0.028164574186726
800.0, 0.032989490612544636
801.0, 0.03221260449396657
802.0, 0.031325877577919915
803.0, 0.03178070123557384
804.0, 0.03403541924492397
805.0, 0.03141074956964702
806.0, 0.0321372333209688
807.0, 0.03355775123603381
808.0, 0.034016927772537474
809.0, 0.032138280733051104
810.0, 0.034892383948200587
811.0, 0.03512594425259698
812.0, 0.03436846618407953
813.0, 0.03496787243208095
814.0, 0.03591146560418661
815.0, 0.034944974286460956
816.0, 0.03650713716164865
817.0, 0.03922610005875878
818.0, 0.03589457571337115
819.0, 0.03364602499488786
820.0, 0.035448333429610346
821.0, 0.03578124144262956
822.0, 0.03175286058544963
823.0, 0.03708603391684131
824.0, 0.03678802985310412
825.0, 0.034391831584709605
826.0, 0.03275647085386965
827.0, 0.035272320678400075
828.0, 0.03076788862081431
829.0, 0.03130808478363441
830.0, 0.032695990962161525
831.0, 0.032268440320391625
832.0, 0.030850213080899375
833.0, 0.032527917016890416
834.0, 0.030679353332558865
835.0, 0.027863036949977098
836.0, 0.028662318314282585
837.0, 0.028586251765925892
838.0, 0.02572035060267319
839.0, 0.025183196547825755
840.0, 0.026516596855280537
841.0, 0.02215861752234471
842.0, 0.02181940320429552
843.0, 0.02226025184194872
844.0, 0.021691317530340152
845.0, 0.019487623445903633
846.0, 0.021157312494166802
847.0, 0.019735273222918553
848.0, 0.018605158349953393
849.0, 0.01832519078275566
850.0, 0.018253037274476636
851.0, 0.017210788452358836
852.0, 0.01653952743776142
853.0, 0.015652228606668556
854.0, 0.014444845058949057
855.0, 0.013819200072575607
856.0, 0.01383207735243369
857.0, 0.012875200709654151
858.0, 0.011809417935963249
859.0, 0.011671246988612879
860.0, 0.011030542955100746
861.0, 0.009152450278362298
862.0, 0.009215566369862436
863.0, 0.009886334332804008
864.0, 0.006414265699843344
865.0, 0.0077399776047822975
866.0, 0.00823267581078709
867.0, 0.007743075484627559
868.0, 0.006779996645398881
869.0, 0.007403416535842351
870.0, 0.005889418013339238
871.0, 0.004953688888353422
872.0, 0.004862212129995493
873.0, 0.005255191095630226
874.0, 0.004132239092117265
875.0, 0.006013801444866138
876.0, 0.005846694582848713
877.0, 0.003609633353400846
878.0, 0.002630673753847448
879.0, 0.0043365893185738184
880.0, 0.0031750285653749377
881.0, 0.0030091999984989777
882.0, 0.004686451584143363
883.0, 0.0021579695738034536
884.0, 0.002529825337345758
885.0, 0.003054449909044407
886.0, 0.0027380287331450833
887.0, 0.0012943392203510445
888.0, 0.0017825791158072126
889.0, 0.0015628700421090752
890.0, 0.0016815582817319807
891.0, 0.0019450039294241722
892.0, 0.0015598981060026373
893.0, 0.000851674415842348
894.0, 0.00037227825974536733
895.0, 0.0004916510234828264
896.0, 0.0009880511364351297
897.0, 0.0007357156919833208
898.0, 0.000299531124436692
899.0, 0.0007299755854222488
900.0, 0.001001860462115443
901.0, 0.0004412774675559753
902.0, 0.00018255815203085563
903.0, 0.000540547007820077
904.0, 0.0007141762066476563
905.0, 0.0005827577166238067
906.0, 0.00028560621943730577
907.0, 0.0010282162396837422
908.0, 0.0010301166278274796
909.0, 0.0008371255638010845
910.0, 0.000692992436999833
911.0, 0.0007024105616399473
912.0, 0.0005070814215580124
913.0, 0.0003878234534488168
914.0, 0.0009259738569159373
915.0, 0.0016977324502042647
916.0, 0.0005415580460303623
917.0, 0.00045699522988818664
918.0, 0.0016364393245537853
919.0, 0.0022357712421266504
920.0, 0.0016295157326343462
921.0, 0.004145653013978889
922.0, 0.0021420132545867917
923.0, 0.0021598368032972512
924.0, 0.0035210526912635917
925.0, 0.0039854225833418295
926.0, 0.0018025278856517374
927.0, 0.0034208151865400016
928.0, 0.003802596649704982
929.0, 0.002240234774597694
930.0, 0.0001193516159790789
931.0, 0.0018347201231144897
932.0, 0.0015643034971363128
933.0, 0.0012737596063862634
934.0, 0.001367144263157696
935.0, 0.0008014651546442526
936.0, 0.0004881003571261549
937.0, 0.0002472407738130244
938.0, 0.00034549448443487645
939.0, 0.0006271530396017077
940.0, 6.319265789460137e-05
941.0, 0.0002511790848656409
942.0, 0.0010949264662774934
943.0, 0.0018989522667381114
944.0, 0.0021991605582640846
945.0, 0.002476173978296714
946.0, 0.0024138091200527323
947.0, 0.0014743387229815804
948.0, 0.0008855831987108396
949.0, 0.001636703951151237
950.0, 0.0007137981758712545
951.0, 0.00021475837791482233
952.0, 0.0005175613259849176
953.0, 0.001118141435480176
954.0, 0.0012673716133469646
955.0, 0.0019078441368198934
956.0, 0.0007748286171257448
957.0, 0.00021751638595067613
958.0, 0.0004923570301277912
959.0, 0.0007112196377086555
960.0, 0.002133820764039369
961.0, 0.0018229219129350983
962.0, 0.0012204423209565493
963.0, 0.0009859237921524921
964.0, 0.0011443445121921516
965.0, 0.0007926651970762841
966.0, 0.0012939563158775762
967.0, 0.0016950717771620086
968.0, 0.00146279586161208
969.0, 0.0006181219139840845
970.0, 0.0023996407625482014
971.0, 0.0022876589698115715
972.0, 0.002290947441455347
973.0, 0.0030802031460274546
974.0, 0.0019312613662353867
975.0, 0.0012738290071156522
976.0, 0.002693688372595596
977.0, 0.003430107783958374
978.0, 0.0022210983509260433
979.0, 0.003089378597682571
980.0, 0.0030351406359646737
981.0, 0.0021418011560415473
982.0, 0.0015019553546224663
983.0, 0.0020061974935703655
984.0, 0.0033382384664011
985.0, 0.0032997527180276057
986.0, 0.0023169331597667833
987.0, 0.0013574684661576796
988.0, 0.0014265730863074395
989.0, 0.003213571663302566
990.0, 0.0030201213982265626
991.0, 0.003255901288413364
992.0, 0.003971822053040323
993.0, 0.004392490421509153
994.0, 0.0021117316083171045
995.0, 0.0037267917392651393
996.0, 0.004179521259793738
997.0, 0.003082206378511426
998.0, 0.0018057758807982541
999.0, 0.004352266677026146
1000.0, 0.004856214071014379
1001.0, 0.004720439798720278
1002.0, 0.005101553793723681
1003.0, 0.006558311524339352
1004.0, 0.004271870669766456
1005.0, 0.0055770609735437265
1006.0, 0.005855005835611711
1007.0, 0.004915956235620374
1008.0, 0.00442846013375107
1009.0, 0.006949787670125271
1010.0, 0.006396533081274014
1011.0, 0.005639894183164081
1012.0, 0.005780647065536006
1013.0, 0.006923200815719215
1014.0, 0.005921624262814904
1015.0, 0.0077905761666977
1016.0, 0.0074253282785152145
1017.0, 0.006313106623006673
1018.0, 0.008196937209691993
1019.0, 0.007043894977128262
1020.0, 0.00589332521622088
1021.0, 0.006009137168841283
1022.0, 0.006614064122368081
1023.0, 0.0061195064804133005
1024.0, 0.0049359095513918805
1025.0, 0.007423296578437091
1026.0, 0.007015323201879639
1027.0, 0.005140953304994993
1028.0, 0.0062160346565540035
1029.0, 0.008038621092097594
1030.0, 0.0063984726633459785
1031.0, 0.0064173176361892684
1032.0, 0.007165390278483042
1033.0, 0.00577291297174313
1034.0, 0.004557280746808481
1035.0, 0.006442508281143785
1036.0, 0.006255773672206299
1037.0, 0.004888810537120949
1038.0, 0.004866087231302073
1039.0, 0.0036023253016764017
1040.0, 0.0037347875025891095
1041.0, 0.004824458529982867
1042.0, 0.005279562597430639
1043.0, 0.0038715961402496484
1044.0, 0.00414497958233743
1045.0, 0.004544511251533198
1046.0, 0.0034622765591311947
1047.0, 0.002949076678836139
1048.0, 0.0045784795586673085
1049.0, 0.0025376739345945943
1050.0, 0.0015086598822541533
1051.0, 0.002495473694072772
1052.0, 0.0032665833558042155
1053.0, 0.0021537523920356987
1054.0, 0.002415259716988225
1055.0, 0.0036685217220742286
1056.0, 0.0029060899602519957
1057.0, 0.002198555423573919
1058.0, 0.0031547984178125327
1059.0, 0.0036923320680756415
1060.0, 0.003162199903565829
1061.0, 0.003973481438398527
1062.0, 0.004541974158093211
1063.0, 0.0038888578661803973
1064.0, 0.003263298835756292
1065.0, 0.0034287347783002703
1066.0, 0.003151574448245539
1067.0, 0.002906117800591769
1068.0, 0.002993222625737897
1069.0, 0.003267398455325517
1070.0, 0.0031989998208065036
1071.0, 0.003785888376885187
1072.0, 0.0029725865128564523
1073.0, 0.0015528654025586388
1074.0, 0.0034180314944620323
1075.0, 0.002403095493418622
1076.0, 0.002137624927555065
1077.0, 0.0023828492199358692
1078.0, 0.0022666748201748037
1079.0, 0.0007864862563846612
1080.0, 0.003530130666002605
1081.0, 0.002989133801074274
1082.0, 0.002584130658932629
1083.0, 0.003264005442851379
1084.0, 0.004458351682567119
1085.0, 0.0031646563135626425
1086.0, 0.002357830925952609
1087.0, 0.0028121827395525423
1088.0, 0.0025864722124349098
1089.0, 0.00028711257048672585
1090.0, 0.0014613687663972022
1091.0, 0.002185011349934072
1092.0, 0.0018202322133125917
1093.0, 0.001608540492912114
1094.0, 0.002206273196341099
1095.0, 0.0015899983340503065
1096.0, 0.0012185846664122852
1097.0, 0.0009651213361686886
1098.0, 0.0006629857812844833
1099.0, 0.0003546498368255983
1100.0, 0.0004339078971594027
1101.0, 0.0010754110433234163
1102.0, 0.0008722037632317173
1103.0, 0.0007807154351270763
1104.0, 0.001025160103519397
1105.0, 0.0011002995614869705
1106.0, 0.002416767070553301
1107.0, 0.0028118495901589997
1108.0, 0.0026174084897034214
1109.0, 0.0017993718016960018
1110.0, 0.00040811242098144824
1111.0, 0.0008432473399445488
1112.0, 0.0009192750951312468
1113.0, 0.0009285402742092609
1114.0, 0.0010696929539506812
1115.0, 0.001268675829648155
1116.0, 0.00046354347654029455
1117.0, 0.00032659816933002824
1118.0, 0.0006327173954930619
1119.0, 0.0011120740965180162
1120.0, 0.0014120378995505646
1121.0, 0.0010511296823124182
1122.0, 0.0020485880526959397
1123.0, 0.0013059527318327116
1124.0, 0.0004335777525985826
1125.0, 0.00026790057602829836
1126.0, 0.0005684184842249607
1127.0, 0.0003785399160453044
1128.0, 0.00040226922063152327
1129.0, 0.0013076448082678866
1130.0, 0.0018459736195946296
1131.0, 0.0004642252487091297
1132.0, 0.00042300125304113985
1133.0, 0.0013988156078237539
1134.0, 0.001270729252115371
1135.0, 0.0009919310117589032
1136.0, 0.0015234381591870134
1137.0, 0.0016239477165506154
1138.0, 0.0005023840000422583
1139.0, 0.0014445418266169012
1140.0, 0.0016125463930096364
1141.0, 0.00041407851619957995
1142.0, 0.0009299249423123917
1143.0, 0.0013120885879875656
1144.0, 0.0007149547814678904
1145.0, 0.0009347776682519175
1146.0, 0.0016167964718199854
1147.0, 0.0012395191727203833
1148.0, 0.00016190911088288795
1149.0, 0.0007921206492213864
1150.0, 0.0007961540015963111
1151.0, 0.0007897154660143717
1152.0, 0.0013714290673230692
1153.0, 0.0006385261606957854
1154.0, 0.00034477790492676915
1155.0, 0.0010034282401301896
1156.0, 0.001487256638717458
1157.0, 0.0012516830143645687
1158.0, 0.000727559811271666
1159.0, 0.0006032776308045293
1160.0, 0.0005517079933869339
1161.0, 0.0003363215246326714
1162.0, 0.00017997637768190088
1163.0, 0.0004657527480769014
1164.0, 0.0010010259220186559
1165.0, 0.0007142834647547058
1166.0, 0.0010888242092983093
1167.0, 0.0013549818778327203
1168.0, 0.0012870761290123785
1169.0, 0.0029504884966144594
1170.0, 0.0012041912104356674
1171.0, 0.0012352219118437675
1172.0, 0.0018866005251496848
1173.0, 0.0018076225495515163
1174.0, 0.00014118559788149035
1175.0, 0.00043547363140294465
1176.0, 0.0015916992400280693
1177.0, 0.0021338100553753435
1178.0, 0.001921918119294271
1179.0, 0.0013038152358037856
1180.0, 0.0005825655523644922
1181.0, 0.001543118554970185
1182.0, 0.0010067941029617705
1183.0, 0.0004448271629506736
1184.0, 0.0008498939451022048
1185.0, 0.0018839094714161817
1186.0, 0.0007431437532117778
1187.0, 0.001080627746932731
1188.0, 0.001510462809976453
1189.0, 0.001327127418570376
1190.0, 0.0006544782680243298
1191.0, 0.0018108028226875594
1192.0, 0.0016951126939850028
1193.0, 0.0015452662827914647
1194.0, 0.0020009348300143045
1195.0, 0.0025570801231012616
1196.0, 0.001268831899832202
1197.0, 0.0007180732078413592
1198.0, 0.000683119603956927
1199.0, 0.0010066852223571707
1200.0, 0.0009802813742607543
1201.0, 0.00011722409656204455
1202.0, 0.0004885606151971307
1203.0, 0.00029840452970942015
1204.0, 0.0008672141331646509
1205.0, 0.001335472914339943
1206.0, 0.001445687767181733
1207.0, 0.0023730799164545535
1208.0, 0.0021752198235538496
1209.0, 0.0024010952910328296
1210.0, 0.0021661742585588014
1211.0, 0.0017995206321353861
1212.0, 0.0018199657059540836
1213.0, 0.0004234691594994888
1214.0, 0.0014856895236712423
1215.0, 0.0014213694874156016
1216.0, 0.0009065279100604924
1217.0, 0.0008339770975689746
1218.0, 0.0014187177130745923
1219.0, 0.0010978447987302514
1220.0, 0.0012314065055099499
1221.0, 0.0010412135829613548
1222.0, 0.0008002682713888151
1223.0, 0.0012447706731959357
1224.0, 0.0030465550035376596
1225.0, 0.001910460647044991
1226.0, 0.0009743048859959993
1227.0, 0.0013482973553198743
1228.0, 0.002118911639989568
1229.0, 0.0008600797833616704
1230.0, 0.0017315055244843246
1231.0, 0.0022285487273995108
1232.0, 0.001245368599854157
1233.0, 0.0010423161853152733
1234.0, 0.0027116207684557735
1235.0, 0.0014258419515534063
1236.0, 0.0016349456516120053
1237.0, 0.001859684176736551
1238.0, 0.0013734872877805488
1239.0, 0.000786324369880914
1240.0, 0.0013231953025886567
1241.0, 0.0015628724486294798
1242.0, 0.0008728692623153918
1243.0, 0.0014735554382321286
1244.0, 0.002100104648421435
1245.0, 0.0016595784813526683
1246.0, 0.0005978103960489124
1247.0, 0.0020642998873881694
1248.0, 0.001352134332556007
1249.0, 0.001296778521147883
1250.0, 0.0018621628802759436
1251.0, 0.0019163475477195272
1252.0, 0.0014618075962924784
1253.0, 0.00157087556375642
1254.0, 0.0023466567023922697
1255.0, 0.0017005442694956764
1256.0, 0.0005882862722581889
1257.0, 0.0019651107633321947
1258.0, 0.00036600236579165796
1259.0, 0.000691180717531054
1260.0, 0.002136206921955084
1261.0, 0.0027704940989611224
1262.0, 0.0019004452558499443
1263.0, 0.0013931466932976331
1264.0, 0.0026945962198786453
1265.0, 0.0018672126467480191
1266.0, 0.0018967530710479578
1267.0, 0.002438297860628063
1268.0, 0.0022453114044886356
1269.0, 0.002356984461221479
1270.0, 0.0022328808910196496
1271.0, 0.0016660595617310086
1272.0, 0.0016127641398838164
1273.0, 0.0017507619356004432
1274.0, 0.0009759003292884648
1275.0, 0.00022579490874534398
1276.0, 0.0032426125981565596
1277.0, 0.0025532517316960235
1278.0, 0.001566773410128642
1279.0, 0.00204572699971992
1280.0, 0.0011962351983370242
1281.0, 0.00048397447299504756
1282.0, 0.0017870769282118855
1283.0, 0.003038025657048862
1284.0, 0.0028176410508905687
1285.0, 0.0013857502510839336
1286.0, 0.001853951084119908
1287.0, 0.001404294193281879
1288.0, 0.0005104618570597436
1289.0, 0.0011617695584264951
1290.0, 0.001989448260330327
1291.0, 0.0011445789169007843
1292.0, 0.0011269959304861343
1293.0, 0.0008504338308385462
1294.0, 0.0008952206406337432
1295.0, 0.0010408307015978713
1296.0, 0.0012838699290661007
1297.0, 0.0016836968863215796
1298.0, 0.0014520311336130983
1299.0, 0.002114233455756117
1300.0, 0.0015980097074578827
1301.0, 0.0009707707212954774
1302.0, 0.0015677112698327998
1303.0, 0.003770666232921151
1304.0, 0.0018085006898308107
1305.0, 0.0019262834889898813
1306.0, 0.0015787061275443824
1307.0, 0.000981200558271659
1308.0, 0.0006971847516805431
1309.0, 0.0008741608216366333
1310.0, 0.0021252047921005088
1311.0, 0.001775364305038167
1312.0, 0.001625154371926444
1313.0, 0.001572364416173781
1314.0, 0.0013291769825135012
1315.0, 0.001399048537214352
1316.0, 0.00151732597963435
1317.0, 0.0009578948243910758
1318.0, 0.0006749417414887948
1319.0, 0.0008393877898010687
1320.0, 0.0012976964265379038
1321.0, 0.0019847408927947414
1322.0, 0.0025972466166572007
1323.0, 0.0017845862452431735
1324.0, 0.0018222927682682317
1325.0, 0.0022369060491719103
1326.0, 0.001754998619600837
1327.0, 0.001182717060644569
1328.0, 0.0020866445086975354
1329.0, 0.002906872156290022
1330.0, 0.0029956605444586533
1331.0, 0.0029948952796526695
1332.0, 0.0033768019116285253
1333.0, 0.0014377855369074129
1334.0, 0.0015770535474519912
1335.0, 0.0022331249305657798
1336.0, 0.002245862465281968
1337.0, 0.002174371933866818
1338.0, 0.002896235945869137
1339.0, 0.0019258150063484708
1340.0, 0.001957458332865974
1341.0, 0.0031923822070550967
1342.0, 0.0031133675762133935
1343.0, 0.0018208228624650954
1344.0, 0.0013238542202252854
1345.0, 0.002567658772762618
1346.0, 0.0025066078854227066
1347.0, 0.00250049457170169
1348.0, 0.0027055841223644905
1349.0, 0.0026029463924428864
1350.0, 0.0018020055444409183
1351.0, 0.002347094484821786
1352.0, 0.0026412875759806416
1353.0, 0.0017612207131148148
1354.0, 0.0022000746619378667
1355.0, 0.0032195973764457316
1356.0, 0.002516579304778502
1357.0, 0.003186351943484829
1358.0, 0.0037811334327420977
1359.0, 0.002665933098812583
1360.0, 0.001939007633204262
1361.0, 0.002364605044694454
1362.0, 0.0032827408750930463
1363.0, 0.0038441589954689927
1364.0, 0.004062859519634748
1365.0, 0.004207626364255207
1366.0, 0.0042725883981826465
1367.0, 0.0040229496467240255
1368.0, 0.0033721665098826272
1369.0, 0.003282561689364558
1370.0, 0.0022620707025131663
1371.0, 0.002233593505521686
1372.0, 0.0020204307587669895
1373.0, 0.001971223482704054
1374.0, 0.002926740411589448
1375.0, 0.00368444840044407
1376.0, 0.003797434326956961
1377.0, 0.004826256553320218
1378.0, 0.005018079733868515
1379.0, 0.00430196329643806
1380.0, 0.0036978873832683827
1381.0, 0.004153825209547103
1382.0, 0.004788801939234122
1383.0, 0.00435871112229118
1384.0, 0.0051124624688612145
1385.0, 0.005278073993444375
1386.0, 0.003730260679285366
1387.0, 0.004853386975916321
1388.0, 0.005651721425321365
1389.0, 0.0044058876486510285
1390.0, 0.0051931830613353965
1391.0, 0.0056624475442871745
1392.0, 0.003966623931080299
1393.0, 0.003430193691568211
1394.0, 0.004952715392644556
1395.0, 0.004048603430457888
1396.0, 0.004601051501665218
1397.0, 0.0048827310291972926
1398.0, 0.003961554601376083
1399.0, 0.004119671038325062
1400.0, 0.006080319954566777
1401.0, 0.005456795027456149
1402.0, 0.004510549644358583
1403.0, 0.004949841374281421
1404.0, 0.005898723612281058
1405.0, 0.005179877371788697
1406.0, 0.007994642754569565
1407.0, 0.005749539364564504
1408.0, 0.004039533067934565
1409.0, 0.0038038369921427877
1410.0, 0.003983078073609075
1411.0, 0.00299839794002602
1412.0, 0.001365744824218853
1413.0, 0.004629912625625886
1414.0, 0.004416123974307849
1415.0, 0.0033554145209657637
1416.0, 0.0036008438727225664
1417.0, 0.004825373967729861
1418.0, 0.0028226340905386465
1419.0, 0.0011530653971858224
1420.0, 0.0027412735641827667
1421.0, 0.002722215882456055
1422.0, 0.0026804771428027042
1423.0, 0.00420025972493036
1424.0, 0.004938745950067654
1425.0, 0.0037981861375540843
1426.0, 0.004200185017913173
1427.0, 0.0035262444719720773
1428.0, 0.0023674950426227728
1429.0, 0.002460540797185681
1430.0, 0.004710017496319955
1431.0, 0.0037203953872365064
1432.0, 0.0035273019836243183
1433.0, 0.004032481557275566
1434.0, 0.003432641865020098
1435.0, 0.002758233074138375
1436.0, 0.0037389571045576098
1437.0, 0.004009709753235598
1438.0, 0.0020996054786912867
1439.0, 0.0026374859958630185
1440.0, 0.003554191307099628
1441.0, 0.00327122192046169
1442.0, 0.0022698010114215682
1443.0, 0.0033702603463929256
1444.0, 0.002196317053302791
1445.0, 0.0031765583195361084
1446.0, 0.0035744827916307366
1447.0, 0.0030685044086727394
1448.0, 0.0027118909408028946
1449.0, 0.0035335367203593064
1450.0, 0.0025447939742312365
1451.0, 0.0008951968160830234
1452.0, 0.0013918181132513178
1453.0, 0.0020107897499128014
1454.0, 0.001869374890188766
1455.0, 0.0017856160701219446
1456.0, 0.0038777715091042725
1457.0, 0.003259934220350988
1458.0, 0.0014468546878993816
1459.0, 0.0014978902714285732
1460.0, 0.0023200783946731277
1461.0, 0.0027515832343609835
1462.0, 0.0033631058972575225
1463.0, 0.003302663283618359
1464.0, 0.00078584875447654
1465.0, 0.0025157301667744765
1466.0, 0.003140618023457228
1467.0, 0.0018844269477244675
1468.0, 0.0020994338691323056
1469.0, 0.0047805769760318265
1470.0, 0.0034403026407880477
1471.0, 0.0032055103885632852
1472.0, 0.003396663969231268
1473.0, 0.0029413960663286828
1474.0, 0.0020130598358651924
1475.0, 0.0023853884206125817
1476.0, 0.0030415959880956225
1477.0, 0.001036210391900013
1478.0, 0.002095854266903719
1479.0, 0.002630358988038449
1480.0, 0.0021750035263077487
1481.0, 0.002685306066405874
1482.0, 0.0024824603417463115
1483.0, 0.0013601699939707914
1484.0, 0.0013376734794079543
1485.0, 0.002058868076594311
1486.0, 0.0024650175412298234
1487.0, 0.0022703391483078106
1488.0, 0.0025508575967663934
1489.0, 0.004179695526361464
1490.0, 0.003920292270826842
1491.0, 0.003661878539506623
1492.0, 0.003882346826685545
1493.0, 0.003626834233078843
1494.0, 0.00233151674246599
1495.0, 0.0023337231921923595
1496.0, 0.0023993501029255047
1497.0, 0.0023378940633160344
1498.0, 0.003028329054250368
1499.0, 0.002919301551841567
1500.0, 0.0021456783915843724
1501.0, 0.0027408918284976018
1502.0, 0.0026078241619242526
1503.0, 0.0009460762560701178
1504.0, 0.002405807377734815
1505.0, 0.0035138607716555625
1506.0, 0.0029541680853087927
1507.0, 0.0019026400104534857
1508.0, 0.0027208603657274894
1509.0, 0.0038403343396930904
1510.0, 0.0027660846545062576
1511.0, 0.0014224718467975958
1512.0, 0.0005673953897287665
1513.0, 0.000639337018406968
1514.0, 0.00148000808599743
1515.0, 0.001618264078836782
1516.0, 0.0002398449316163288
1517, 0.0
1518, 0.0
1519, 0.0
1520, 0.0
1521, 0.0
1522, 0.0
1523, 0.0
1524, 0.0
1525, 0.0
1526, 0.0
1527, 0.0
1528, 0.0
1529, 0.0
1530, 0.0
1531, 0.0
1532, 0.0
1533, 0.0
1534, 0.0
1535, 0.0
1536, 0.0
1537, 0.0
1538, 0.0
1539, 0.0
1540, 0.0
1541, 0.0
1542, 0.0
1543, 0.0
1544, 0.0
1545, 0.0
1546, 0.0
1547, 0.0
1548, 0.0
1549, 0.0
1550, 0.0
1551, 0.0
1552, 0.0
1553, 0.0
1554, 0.0
1555, 0.0
1556, 0.0
1557, 0.0
1558, 0.0
1559, 0.0
1560, 0.0
1561, 0.0
1562, 0.0
1563, 0.0
1564, 0.0
1565, 0.0
1566, 0.0
1567, 0.0
1568, 0.0
1569, 0.0
1570, 0.0
1571, 0.0
1572, 0.0
1573, 0.0
1574, 0.0
1575, 0.0
1576, 0.0
1577, 0.0
1578, 0.0
1579, 0.0
1580, 0.0
1581, 0.0
1582, 0.0
1583, 0.0
1584, 0.0
1585, 0.0
1586, 0.0
1587, 0.0
1588, 0.0
1589, 0.0
1590, 0.0
1591, 0.0
1592, 0.0
1593, 0.0
1594, 0.0
1595, 0.0
1596, 0.0
1597, 0.0
1598, 0.0
1599, 0.0
