30, 0.0
31, 0.0
32, 0.0
33, 0.0
34, 0.0
35, 0.0
36, 0.0
37, 0.0
38, 0.0
39, 0.0
40, 0.0
41, 0.0
42, 0.0
43, 0.0
44, 0.0
45, 0.0
46, 0.0
47, 0.0
48, 0.0
49, 0.0
50, 0.0
51, 0.0
52, 0.0
53, 0.0
54, 0.0
55, 0.0
56, 0.0
57, 0.0
58, 0.0
59, 0.0
60, 0.0
61, 0.0
62, 0.0
63, 0.0
64, 0.0
65, 0.0
66, 0.0
67, 0.0
68, 0.0
69, 0.0
70, 0.0
71, 0.0
72, 0.0
73, 0.0
74, 0.0
75, 0.0
76, 0.0
77, 0.0
78, 0.0
79, 0.0
80, 0.0
81, 0.0
82, 0.0
83, 0.0
84, 0.0
85, 0.0
86, 0.0
87, 0.0
88, 0.0
89, 0.0
90, 0.0
91, 0.0
92, 0.0
93, 0.0
94, 0.0
95, 0.0
96, 0.0
97, 0.0
98, 0.0
99, 0.0
100, 0.0
101, 0.0
102, 0.0
103, 0.0
104, 0.0
105, 0.0
106, 0.0
107, 0.0
108, 0.0
109, 0.0
110, 0.0
111, 0.0
112, 0.0
113, 0.0
114, 0.0
115, 0.0
116.0, 0.0007882073751581044
117.0, 0.0006375368176520709
118.0, 0.00018295283294772735
119.0, 0.000491512574439951
120.0, 0.00032444667968766747
121.0, 0.0009266683938084593
122.0, 0.0011816305851748837
123.0, 0.0010989443105436396
124.0, 0.0010979530562043008
125.0, 0.002066140003551058
126.0, 0.001613859171055758
127.0, 0.0016684148569237848
128.0, 0.001885426864272647
129.0, 0.0021927794827693685
130.0, 0.002902386617048969
131.0, 0.0025392720478807957
132.0, 0.0028728502094018888
133.0, 0.0029809632444139735
134.0, 0.0029531605740959178
135.0, 0.0033172924081061503
136.0, 0.003858780899680854
137.0, 0.00384879385778155
138.0, 0.004346281512111206
139.0, 0.004596960772828939
140.0, 0.0041406123548979445
141.0, 0.004518211876518549
142.0, 0.00466978673566317
143.0, 0.0049708571370884825
144.0, 0.0049622544162282066
145.0, 0.004832276776422741
146.0, 0.005569308419744001
147.0, 0.005269937260164874
148.0, 0.005181574743059052
149.0, 0.00559374902913331
150.0, 0.0059592371472101235
151.0, 0.005544130679608547
152.0, 0.005541179274012308
153.0, 0.005556945943459002
154.0, 0.005227813064876662
155.0, 0.004824860589936645
156.0, 0.004765205063722194
157.0, 0.005452485242882484
158.0, 0.004650531257678888
159.0, 0.004194189875458251
160.0, 0.0045358415599066875
161.0, 0.0050380293289558585
162.0, 0.0041928415053693
163.0, 0.004170507150009355
164.0, 0.004455066556102657
165.0, 0.004331927424934491
166.0, 0.004165190246733992
167.0, 0.004588193944231142
168.0, 0.00517912276150363
169.0, 0.004482321661451836
170.0, 0.004003560950917872
171.0, 0.0039419932464996085
172.0, 0.0041334326395290905
173.0, 0.004162206277785344
174.0, 0.0032201614317481243
175.0, 0.0035906671707438276
176.0, 0.0038350797663601792
177.0, 0.003614354606745565
178.0, 0.003342033255981342
179.0, 0.0021637011395215385
180.0, 0.0023461549882360885
181.0, 0.0026071274787853606
182.0, 0.0025942161372861177
183.0, 0.002377004984980487
184.0, 0.002472777974207631
185.0, 0.0026416506455034824
186.0, 0.0016450005102325819
187.0, 0.0010226813606273163
188.0, 0.0011900516882876549
189.0, 0.001294710773484303
190.0, 0.001507390279850034
191.0, 0.0015280942775819624
192.0, 0.0016506739883588946
193.0, 0.0016729201050691767
194.0, 0.0014251731432384316
195.0, 0.0014672232261152601
196.0, 0.0013685541622391797
197.0, 0.0013393880819685712
198.0, 0.0013442041521478233
199.0, 0.0013565391012597702
200.0, 0.001373184921403087
201.0, 0.000894674323698975
202.0, 0.0011935794326274288
203.0, 0.0011731225744815847
204.0, 0.0008067435357161012
205.0, 0.0007421858537313284
206.0, 0.002441064240411377
207.0, 0.0020477231154696946
208.0, 0.002499132994349302
209.0, 0.003008321708479525
210.0, 0.003416643647998722
211.0, 0.004775371773991312
212.0, 0.0040675170430526444
213.0, 0.005034029094693281
214.0, 0.00546748770147099
215.0, 0.005570739423051392
216.0, 0.006289214037177608
217.0, 0.007204663837865924
218.0, 0.007138935217560208
219.0, 0.006935790474262187
220.0, 0.006937843143672942
221.0, 0.007281389539470931
222.0, 0.007837783329787948
223.0, 0.006945601299073449
224.0, 0.007593740030437049
225.0, 0.008065234140904766
226.0, 0.008261985962731448
227.0, 0.008556966950130616
228.0, 0.008675266951000436
229.0, 0.008526289736803605
230.0, 0.008263531191857866
231.0, 0.008287962309307307
232.0, 0.008523078681113959
233.0, 0.0084835969911372
234.0, 0.008999678473084319
235.0, 0.008895179370422312
236.0, 0.008778097845543587
237.0, 0.008787565656535441
238.0, 0.00878042002536999
239.0, 0.008290483128191832
240.0, 0.008113900451724174
241.0, 0.007748769216691593
242.0, 0.007325784908197931
243.0, 0.006882592299636379
244.0, 0.006358032855097038
245.0, 0.005677183280401262
246.0, 0.005330885743123283
247.0, 0.005383801166549785
248.0, 0.005158065589745104
249.0, 0.004561370658320395
250.0, 0.004714899105526109
251.0, 0.003786601719066736
252.0, 0.004078905403506511
253.0, 0.004184333101257938
254.0, 0.003939594110001955
255.0, 0.003791027716552273
256.0, 0.003856551387710586
257.0, 0.0049454227668988505
258.0, 0.005822523512025404
259.0, 0.0058164496896061495
260.0, 0.0049171495463772585
261.0, 0.0038254611444473318
262.0, 0.004070255118193991
263.0, 0.003961608979577527
264.0, 0.0041012042634866516
265.0, 0.004094802514007961
266.0, 0.0036469937051213683
267.0, 0.0033080093694347707
268.0, 0.0037800630987044645
269.0, 0.004443436318314647
270.0, 0.004438839111898116
271.0, 0.00429211421421705
272.0, 0.0049756895628539485
273.0, 0.005543123649960834
274.0, 0.0056401004369476026
275.0, 0.006240697261147478
276.0, 0.007051077684203014
277.0, 0.007536424507142381
278.0, 0.007350098234013961
279.0, 0.009167902719091821
280.0, 0.008930189255989032
281.0, 0.01010800370934067
282.0, 0.012506488844973369
283.0, 0.015000403823604175
284.0, 0.016916720609940077
285.0, 0.020053856999222797
286.0, 0.023185067968711934
287.0, 0.027042622564676017
288.0, 0.031235725613484453
289.0, 0.03539520362181419
290.0, 0.04166869391761822
291.0, 0.04699441419188512
292.0, 0.052310884458491407
293.0, 0.05920304487386249
294.0, 0.0665885910540181
295.0, 0.07162432837494942
296.0, 0.07668850363581226
297.0, 0.08210165721776905
298.0, 0.08442990832948914
299.0, 0.08491172353807397
300.0, 0.08390739415614504
301.0, 0.07928471864081049
302.0, 0.0744775205439537
303.0, 0.06950483677646631
304.0, 0.06334530706522143
305.0, 0.05684836148347244
306.0, 0.05115951190608053
307.0, 0.04645915963354148
308.0, 0.04216332440504321
309.0, 0.039686356638874834
310.0, 0.037997461863213455
311.0, 0.036240714515013615
312.0, 0.03424145285328591
313.0, 0.03363109563445433
314.0, 0.03355305137855178
315.0, 0.03237109327152817
316.0, 0.03099137084703956
317.0, 0.030144130077179546
318.0, 0.02986435990895225
319.0, 0.02832726668066443
320.0, 0.026867106878900794
321.0, 0.025231202685785097
322.0, 0.023501992757055504
323.0, 0.021534328928860782
324.0, 0.01894289876814597
325.0, 0.016008294918976956
326.0, 0.01370307183143947
327.0, 0.011789592679168839
328.0, 0.010321476920144191
329.0, 0.00922511375864546
330.0, 0.008163826381586999
331.0, 0.007249454912877053
332.0, 0.006433811123473184
333.0, 0.005912367310921853
334.0, 0.005159719092143908
335.0, 0.004058926923062086
336.0, 0.0037803241666209586
337.0, 0.0028680281913928745
338.0, 0.002816042445115735
339.0, 0.0026180952466945354
340.0, 0.0020865415583070394
341.0, 0.0015712050008125664
342.0, 0.0017193965135478223
343.0, 0.0016418038234521984
344.0, 0.001767043128046765
345.0, 0.0020635056025458524
346.0, 0.0020313363257870687
347.0, 0.0013948388943727256
348.0, 0.0014085504474263934
349.0, 0.0016617508086110117
350.0, 0.0011013630538821305
351.0, 0.0006454002793242948
352.0, 0.0006569209920246942
353.0, 0.0008749115738694833
354.0, 0.0005609113531395982
355.0, 0.0007705646450945277
356.0, 0.0009176788480817242
357.0, 0.000957058000503173
358.0, 0.000976897743379152
359.0, 0.0009849591769123503
360.0, 0.00026525584817321704
361.0, 0.0004532249017142724
362.0, 0.0009272621974844646
363.0, 0.0010439346942271949
364.0, 0.001010147367198771
365.0, 0.0014124605834351246
366.0, 0.0007502681214108374
367.0, 0.0005278457490787757
368.0, 0.0002119428346868299
369.0, 0.0002517347447419666
370.0, 0.0006210214824231194
371.0, 0.0008190216305220453
372.0, 0.0009304334056918979
373.0, 0.0006394994109504454
374.0, 0.0003058417239515585
375.0, 0.00012760378523020505
376.0, 8.562552035411e-05
377.0, 5.386010030011083e-05
378.0, 0.0004766522799117102
379.0, 0.00013072665877098815
380.0, 0.00021547505653512182
381.0, 0.0005606350003180186
382.0, 0.0008111473312820909
383.0, 0.0007199627435122344
384.0, 0.0003677244865530866
385.0, 0.0005067386430150383
386.0, 0.0008064718560108176
387.0, 0.0010445764839233354
388.0, 0.001225295135763095
389.0, 0.0014847693016030335
390.0, 0.0015022292472523019
391.0, 0.002060676952587794
392.0, 0.0022967111142785986
393.0, 0.0028923072774037317
394.0, 0.0039531669814678
395.0, 0.004904704322919226
396.0, 0.005427706095574219
397.0, 0.006342631687240682
398.0, 0.0074610321850372705
399.0, 0.009567816269190177
400.0, 0.01182927986073448
401.0, 0.012947208561314186
402.0, 0.015995467397374088
403.0, 0.01841127776645425
404.0, 0.021181083418265422
405.0, 0.02393805104347184
406.0, 0.02684523597199349
407.0, 0.030048676782706826
408.0, 0.03173999650038656
409.0, 0.03378026713893797
410.0, 0.03414795790834609
411.0, 0.033705353015771815
412.0, 0.0326983467512893
413.0, 0.030745948030672914
414.0, 0.02726601679600915
415.0, 0.024729467611489305
416.0, 0.021740017719738883
417.0, 0.019028021041060172
418.0, 0.01684292101881608
419.0, 0.014942749037989303
420.0, 0.012727521562279171
421.0, 0.011595015740675549
422.0, 0.010562177020444246
423.0, 0.00951683680776235
424.0, 0.008319832917239645
425.0, 0.007181512069705494
426.0, 0.006881907213332218
427.0, 0.005462801001062166
428.0, 0.00520828011648541
429.0, 0.004048903085465574
430.0, 0.0030173648595081142
431.0, 0.0029263985101750448
432.0, 0.0027038851157511912
433.0, 0.0020041977946964468
434.0, 0.0015909367951073205
435.0, 0.0013793637599072487
436.0, 0.0012818451730592921
437.0, 0.0010178026418279592
438.0, 0.0002928501579299559
439.0, 7.781714425214516e-05
440.0, 5.9737844306767784e-05
441.0, 0.0009718258113280822
442.0, 0.0010041969737906932
443.0, 0.0003672839189737201
444.0, 0.0007241469614225597
445.0, 0.0010367983657881322
446.0, 0.0006124506500595243
447.0, 0.0003078461799144814
448.0, 0.00035230237512286347
449.0, 0.0006415285095138369
450.0, 0.0009064475702232099
451.0, 0.0009481834297236272
452.0, 0.0005841544436757873
453.0, 0.0010146339020571415
454.0, 0.0010353259844390556
455.0, 0.0007924606342233955
456.0, 0.0006971446460282819
457.0, 0.00052830760689707
458.0, 0.00038583130015951974
459.0, 0.0007797726512865962
460.0, 0.00047033368494003457
461.0, 0.00011716917655203944
462.0, 0.00041816418416568374
463.0, 0.001198369678836741
464.0, 0.0005456083886040586
465.0, 0.0005480118886181147
466.0, 0.001152052830172838
467.0, 0.0011986503740062937
468.0, 0.001025116010189956
469.0, 0.0015341566817237342
470.0, 0.0008997688749426101
471.0, 0.0016251290051902767
472.0, 0.001486001005870935
473.0, 0.0012244696326468036
474.0, 0.0015794209604872772
475.0, 0.0023770291939129184
476.0, 0.0019923197434074135
477.0, 0.0021593861936276236
478.0, 0.0015853548469064397
479.0, 0.0017806506649654982
480.0, 0.00226432930256934
481.0, 0.00228112215036055
482.0, 0.0017812157306556797
483.0, 0.0023984476436291896
484.0, 0.002160539436062459
485.0, 0.002389468369882394
486.0, 0.0022933002489413817
487.0, 0.0018580410171382508
488.0, 0.001781617933275972
489.0, 0.0023589395739555645
490.0, 0.0021101207711704253
491.0, 0.0022497169544977392
492.0, 0.0024937252923409596
493.0, 0.0026875972680164848
494.0, 0.002804285198956851
495.0, 0.002861435929437896
496.0, 0.00241848591225223
497.0, 0.001992170418673164
498.0, 0.0019053417314191172
499.0, 0.0017843868877409732
500.0, 0.0016845809319200337
501.0, 0.0019780710400964133
502.0, 0.001965787742099496
503.0, 0.0016169965156800198
504.0, 0.0017035133578135893
505.0, 0.002018504408680334
506.0, 0.0022722248621142973
507.0, 0.002256093483506158
508.0, 0.001946268476353355
509.0, 0.001581684593764468
510.0, 0.002322308352775611
511.0, 0.0025134266121600935
512.0, 0.0029796568680912263
513.0, 0.003367839206230393
514.0, 0.0023396397807823894
515.0, 0.0031513461738561406
516.0, 0.002182894928068357
517.0, 0.001914716842392877
518.0, 0.0026715189167366084
519.0, 0.003250207056216125
520.0, 0.0028469405093889586
521.0, 0.0029229984135148426
522.0, 0.0027236284713752753
523.0, 0.0026868303307157585
524.0, 0.002242281340170141
525.0, 0.002244022053377268
526.0, 0.0025472302288770715
527.0, 0.002086895846697587
528.0, 0.001962242284346522
529.0, 0.002188041191434049
530.0, 0.0028759986508222982
531.0, 0.0029819947926907862
532.0, 0.0026250370691153894
533.0, 0.0026077998500053674
534.0, 0.003529738566596941
535.0, 0.0035701962656183245
536.0, 0.004401357941181149
537.0, 0.003958250590966788
538.0, 0.003504572880358965
539.0, 0.0037672671038124213
540.0, 0.0043707453405409874
541.0, 0.005068656418567872
542.0, 0.004560050612071245
543.0, 0.004574120251633022
544.0, 0.0051623606785710435
545.0, 0.0052260217156278365
546.0, 0.004795113531393614
547.0, 0.005524795867067382
548.0, 0.005067362787718625
549.0, 0.004976967317204644
550.0, 0.006115081101774331
551.0, 0.005956992541536227
552.0, 0.005227045754425314
553.0, 0.005809041956939062
554.0, 0.0066060903743215315
555.0, 0.005832504305064828
556.0, 0.006095168034369955
557.0, 0.006852843093447312
558.0, 0.0072113301996154944
559.0, 0.007373794560801177
560.0, 0.008084498883537912
561.0, 0.007804392655920515
562.0, 0.007697345186331785
563.0, 0.007894974610761257
564.0, 0.00808123787847889
565.0, 0.008401796857971466
566.0, 0.009010607985307884
567.0, 0.009773297099096424
568.0, 0.010500648246362487
569.0, 0.011383777345078328
570.0, 0.011981176205283765
571.0, 0.013021271515026972
572.0, 0.014102223130726378
573.0, 0.014735983458856952
574.0, 0.015611776452140224
575.0, 0.015644578985801433
576.0, 0.01789148352200426
577.0, 0.019234921771894148
578.0, 0.020216337460211987
579.0, 0.02174611163914424
580.0, 0.023874930251611314
581.0, 0.025304007685085114
582.0, 0.026933307846563788
583.0, 0.029441461251260775
584.0, 0.03291759425430546
585.0, 0.03699615484512506
586.0, 0.0414494504350433
587.0, 0.04620861604532202
588.0, 0.0507453908133635
589.0, 0.05777908123014651
590.0, 0.06568963421293054
591.0, 0.07327345030980581
592.0, 0.08024673126593063
593.0, 0.08823251475818261
594.0, 0.09916385833957873
595.0, 0.10760518812024672
596.0, 0.11570900729093438
597.0, 0.1230083501629268
598.0, 0.13029063703338076
599.0, 0.13570987570281584
600.0, 0.1380679053586693
601.0, 0.13858969326425197
602.0, 0.1353656637003788
603.0, 0.1346901048898256
604.0, 0.12914704765998483
605.0, 0.12134271835914438
606.0, 0.11316490312128168
607.0, 0.10462701660735078
608.0, 0.09489632632357242
609.0, 0.08760591980174547
610.0, 0.0779763707745943
611.0, 0.07043579376580093
612.0, 0.06254447520598166
613.0, 0.05487345671934551
614.0, 0.04895557035801518
615.0, 0.04364575018840991
616.0, 0.03851673384497153
617.0, 0.03440944147458106
618.0, 0.030557750879801428
619.0, 0.02669241525396913
620.0, 0.023837282385470088
621.0, 0.02214546772549162
622.0, 0.019120688988714177
623.0, 0.018108516840751807
624.0, 0.016203977669692882
625.0, 0.014761920729249338
626.0, 0.01273425911779963
627.0, 0.011214777275706385
628.0, 0.010946514368135249
629.0, 0.009217158338371776
630.0, 0.009299242971629451
631.0, 0.008183252906876633
632.0, 0.006973271376564888
633.0, 0.006319783496431978
634.0, 0.005806057936993079
635.0, 0.004957370032779269
636.0, 0.004404964606964078
637.0, 0.004266582491511206
638.0, 0.004092011664415169
639.0, 0.004310931620461708
640.0, 0.004064988460288723
641.0, 0.0034242095966317814
642.0, 0.00302642228517142
643.0, 0.003047689613592008
644.0, 0.00214942555889954
645.0, 0.0020731266431991543
646.0, 0.0024779225949125992
647.0, 0.001961989235526628
648.0, 0.00106679195335316
649.0, 0.0009782064128470533
650.0, 0.0016688602247248092
651.0, 0.0013483424081251855
652.0, 0.0007107239107171568
653.0, 0.0007579813832010253
654.0, 0.001016516285451429
655.0, 0.001248303748433521
656.0, 0.0013675159829072737
657.0, 0.0012171377942506666
658.0, 0.0005704208296480029
659.0, 0.0004127484557071701
660.0, 0.00012875224294855845
661.0, 0.0009111064283827029
662.0, 0.0011606121189474152
663.0, 0.0004549809024808547
664.0, 0.0004914188063959847
665.0, 1.619404816239863e-05
666.0, 0.0008834761867200166
667.0, 0.0006970078875531498
668.0, 0.000921365281664001
669.0, 0.0009153952684717222
670.0, 0.0007736127397083073
671.0, 0.0012631997730389625
672.0, 0.0010210539041986772
673.0, 0.00026966310251007515
674.0, 0.0009158503722803928
675.0, 0.0009174477030219057
676.0, 0.0007758085549856228
677.0, 0.0006903909899879774
678.0, 0.0005062411602344658
679.0, 0.0007397503205360023
680.0, 0.0006728365754893847
681.0, 0.0003582216433688093
682.0, 0.0007981538454588445
683.0, 0.0010552191707949568
684.0, 0.0007335783338683348
685.0, 0.00034551724824130267
686.0, 0.0006375385521255681
687.0, 0.00023207679341827033
688.0, 7.764320970420982e-05
689.0, 0.0002654290166275786
690.0, 0.0003127285052051835
691.0, 0.0002117448023200961
692.0, 0.00012448641088323413
693.0, 0.00014375090685089497
694.0, 0.0003515871086098324
695.0, 0.0004892659708771734
696.0, 0.0010181576824019611
697.0, 0.0006498776819579692
698.0, 0.00037559714512009647
699.0, 0.0008138437083127062
700.0, 0.0013071251896458309
701.0, 0.0006321812647700077
702.0, 0.0012565301173947697
703.0, 0.0008613263322504714
704.0, 0.0009785443644262444
705.0, 0.0006087433216023167
706.0, 0.00033921773716347127
707.0, 0.0006324876442989466
708.0, 0.0005421270551625091
709.0, 0.0007849601016158454
710.0, 0.0008264406960411084
711.0, 0.0009214759432785152
712.0, 0.0011845388322509376
713.0, 0.0015999316667177918
714.0, 0.0019720310377838663
715.0, 0.0021426194228399247
716.0, 0.0023478872948515424
717.0, 0.0026020750936154276
718.0, 0.001815250241862176
719.0, 0.0022418219955531483
720.0, 0.0024934529744836745
721.0, 0.002290901173162777
722.0, 0.0022666708397086747
723.0, 0.002546260319901498
724.0, 0.002065258436696851
725.0, 0.0015840940907475521
726.0, 0.0017767458596933505
727.0, 0.002162758958360597
728.0, 0.0019010632437900226
729.0, 0.0019405370678053963
730.0, 0.003141426874262831
731.0, 0.0023056832728952066
732.0, 0.0023299785821059397
733.0, 0.0030087571280353687
734.0, 0.002959223342462749
735.0, 0.0025330507958672486
736.0, 0.0023392901721608506
737.0, 0.002722470813485228
738.0, 0.003590610702891148
739.0, 0.004544645692740389
740.0, 0.004339285009490286
741.0, 0.005175870948000583
742.0, 0.004888825250547527
743.0, 0.004703673379154489
744.0, 0.004988694588440125
745.0, 0.005133922381066389
746.0, 0.005401844129192064
747.0, 0.005024769589445532
748.0, 0.0048563055593338865
749.0, 0.006630214446708875
750.0, 0.006597279789852097
751.0, 0.006159904940754659
752.0, 0.006831112626013408
753.0, 0.007531297903191594
754.0, 0.00708652366367368
755.0, 0.007397583617048981
756.0, 0.007401681204491018
757.0, 0.007784166934332999
758.0, 0.00898242846950631
759.0, 0.009820558166247103
760.0, 0.009743388320311287
761.0, 0.010009560254335217
762.0, 0.010925523440157039
763.0, 0.01069112436789433
764.0, 0.010491313507945549
765.0, 0.010670254080464053
766.0, 0.010685510906245803
767.0, 0.011070643549467914
768.0, 0.011910263958608657
769.0, 0.011782440389949115
770.0, 0.01318994345229805
771.0, 0.015071886354705433
772.0, 0.014355329468574792
773.0, 0.01472651662680266
774.0, 0.01600187235804051
775.0, 0.01600970036431121
776.0, 0.014846293995250955
777.0, 0.01670165177231284
778.0, 0.016813605590010758
779.0, 0.017831205705384427
780.0, 0.018766521605839397
781.0, 0.019350008229867263
782.0, 0.020985600618145594
783.0, 0.023008522725955122
784.0, 0.02356093344852825
785.0, 0.023804730770028773
786.0, 0.02651632494589167
787.0, 0.026153905377515184
788.0, 0.028449386509017432
789.0, 0.03068261708782237
790.0, 0.0322359481228418
791.0, 0.033602259416777476
792.0, 0.035576383233839985
793.0, 0.03938819871370596
794.0, 0.04129370867399735
795.0, 0.04591387785862567
796.0, 0.050721041469622245
797.0, 0.05548630051442245
798.0, 0.061601687663775696
799.0, 0.0686970823636238
800.0, 0.07460629746248805
801.0, 0.07913954629955433
802.0, 0.08803847137238756
803.0, 0.09782715913529487
804.0, 0.11179641313562497
805.0, 0.1264421712191278
806.0, 0.14403038903980775
807.0, 0.16607982281195086
808.0, 0.1912169556312825
809.0, 0.2198459060617259
810.0, 0.25680331946091356
811.0, 0.3015470884446885
812.0, 0.3588278120436895
813.0, 0.42670806531833505
814.0, 0.5031943643031392
815.0, 0.5884252644946151
816.0, 0.6808647813622501
817.0, 0.7725610676410394
818.0, 0.8609341895412063
819.0, 0.935596757841988
820.0, 0.985495029560042
821.0, 0.9979704951693928
822.0, 0.9691036124974215
823.0, 0.9132282139421481
824.0, 0.8421179242462671
825.0, 0.7461314150074965
826.0, 0.650518466845138
827.0, 0.568362077832873
828.0, 0.49480391228757326
829.0, 0.4359342798120802
830.0, 0.3907319962277142
831.0, 0.3555558165017344
832.0, 0.3274597124672948
833.0, 0.3057199303744561
834.0, 0.29210704729535913
835.0, 0.2810347385106552
836.0, 0.27917004158749686
837.0, 0.2818950665702043
838.0, 0.2891280817873526
839.0, 0.3015836876109887
840.0, 0.31857726733599384
841.0, 0.3410858157113942
842.0, 0.3783234193128529
843.0, 0.41880289201698595
844.0, 0.47050336502474194
845.0, 0.5282468367356642
846.0, 0.5962120066368557
847.0, 0.6720890931530696
848.0, 0.7491497798846014
849.0, 0.822687983479931
850.0, 0.8928495623082393
851.0, 0.948089807591572
852.0, 0.9751794274554058
853.0, 0.9833657382662476
854.0, 0.9613453178535443
855.0, 0.9121960856063692
856.0, 0.8435438143774818
857.0, 0.7624611439736004
858.0, 0.6761489444208076
859.0, 0.5946301409110251
860.0, 0.5165431697398732
861.0, 0.4436745090237417
862.0, 0.38127353807087494
863.0, 0.3293990197921318
864.0, 0.2855416387797134
865.0, 0.24552256492309305
866.0, 0.20915723501481498
867.0, 0.1853696350182735
868.0, 0.16030324535624363
869.0, 0.14079104254252675
870.0, 0.1252981285209515
871.0, 0.11031193194590821
872.0, 0.0981255818391625
873.0, 0.08804962389498887
874.0, 0.07875179458874233
875.0, 0.07212445216872417
876.0, 0.06429576781771322
877.0, 0.05692834030953318
878.0, 0.0516633653766869
879.0, 0.04656283762106499
880.0, 0.04305997945661665
881.0, 0.039595337663744595
882.0, 0.03573051758204356
883.0, 0.03254294267213821
884.0, 0.02881546394231612
885.0, 0.026910141511737394
886.0, 0.023740197653422813
887.0, 0.02130283128256739
888.0, 0.019316047717503986
889.0, 0.017315345883090617
890.0, 0.01564441823761945
891.0, 0.014276772809984172
892.0, 0.012675281625195668
893.0, 0.011895962962513103
894.0, 0.01104006991673544
895.0, 0.010069612546008152
896.0, 0.009323617583173086
897.0, 0.00869172663400392
898.0, 0.008253337839038142
899.0, 0.0077528207701085565
900.0, 0.006950579556570511
901.0, 0.006093143792338871
902.0, 0.0053563626392255405
903.0, 0.005553442603186463
904.0, 0.006424350982030862
905.0, 0.0055468499522474575
906.0, 0.003942728521265695
907.0, 0.0030902802695284646
908.0, 0.0035299248109824837
909.0, 0.004448976534431121
910.0, 0.004461886861646595
911.0, 0.0037445843494017957
912.0, 0.003656050329687218
913.0, 0.0033495804204180654
914.0, 0.0031161811205375673
915.0, 0.0033711339812786774
916.0, 0.0034732657182512043
917.0, 0.0032751875771234937
918.0, 0.003037297108417286
919.0, 0.0024825689170858214
920.0, 0.0034245443599604363
921.0, 0.001212854886978294
922.0, 0.002083059575495564
923.0, 0.002380865955489904
924.0, 0.002089207584663208
925.0, 0.0018394305284895917
926.0, 0.0021016384423157
927.0, 0.0030076930515204035
928.0, 0.004108274820661515
929.0, 0.004014118195778624
930.0, 0.004911041256596558
931.0, 0.005197039422720671
932.0, 0.0070934292958940385
933.0, 0.007671025476716661
934.0, 0.008447717373270353
935.0, 0.009619101515766514
936.0, 0.010494412537731892
937.0, 0.013568793467203575
938.0, 0.014375556682334338
939.0, 0.014977671953293683
940.0, 0.01875181533510603
941.0, 0.020110065452391024
942.0, 0.02332797167381153
943.0, 0.02815598391421195
944.0, 0.03268413254252569
945.0, 0.036876910108780005
946.0, 0.04210201766234362
947.0, 0.04816465462245167
948.0, 0.054548342113595175
949.0, 0.06151010765722934
950.0, 0.06941565448716998
951.0, 0.07755759476509029
952.0, 0.08440716760785505
953.0, 0.09011514513959884
954.0, 0.09556249206431286
955.0, 0.1005939468763782
956.0, 0.1048636052635647
957.0, 0.1077117663938215
958.0, 0.11013117102803761
959.0, 0.10989264898737895
960.0, 0.10623901925407583
961.0, 0.10364402017984274
962.0, 0.10162069335149351
963.0, 0.09758544459496807
964.0, 0.09224477176029358
965.0, 0.08818528231727078
966.0, 0.0825357908264706
967.0, 0.07540890390244494
968.0, 0.06990000324628431
969.0, 0.06381214697894218
970.0, 0.057577674438028754
971.0, 0.051967722581374456
972.0, 0.04730157660154665
973.0, 0.04303084891596417
974.0, 0.038511692951567665
975.0, 0.03553120422814761
976.0, 0.03134519944833661
977.0, 0.027690635440812808
978.0, 0.026736756362356017
979.0, 0.024908652399556353
980.0, 0.023008248618680078
981.0, 0.020798045940950572
982.0, 0.018519219084563627
983.0, 0.017631295000191224
984.0, 0.016721379759258397
985.0, 0.015408104427879881
986.0, 0.014718576439011187
987.0, 0.013918733443215798
988.0, 0.0131680126249415
989.0, 0.01250899604708992
990.0, 0.011795802023396047
991.0, 0.01119330844186086
992.0, 0.01069445670523608
993.0, 0.009922140816985456
994.0, 0.009535754325738015
995.0, 0.009534692420972433
996.0, 0.008450975046872049
997.0, 0.007960180868702968
998.0, 0.008225471654421097
999.0, 0.007513674532580758
1000.0, 0.006704776934943479
1001.0, 0.00662706378171334
1002.0, 0.006262991162251175
1003.0, 0.005164820251903986
1004.0, 0.006000186561589843
1005.0, 0.006042099534077195
1006.0, 0.005321872443996075
1007.0, 0.004241143571242183
1008.0, 0.004233710785394148
1009.0, 0.0041453307434649415
1010.0, 0.004222263040178638
1011.0, 0.004630200733459123
1012.0, 0.0044632653267256605
1013.0, 0.0038255433437378627
1014.0, 0.003263340878383467
1015.0, 0.00330629892681156
1016.0, 0.003812326472704369
1017.0, 0.0029832751823687617
1018.0, 0.0034734462019543264
1019.0, 0.003744359082968485
1020.0, 0.003708663040697284
1021.0, 0.003225800291562638
1022.0, 0.002246754079355492
1023.0, 0.0036083639684538526
1024.0, 0.002867183808364267
1025.0, 0.0024298511170103266
1026.0, 0.0033643359469529106
1027.0, 0.003766476610736308
1028.0, 0.0030925836190220804
1029.0, 0.002796785050021406
1030.0, 0.0025540823696383495
1031.0, 0.002193298094203645
1032.0, 0.0025777225160961786
1033.0, 0.002887607766622855
1034.0, 0.0015124183223465858
1035.0, 0.0015570075330349836
1036.0, 0.0008948902135996278
1037.0, 0.0020937597201497156
1038.0, 0.0015345812722774566
1039.0, 0.0014376706403968675
1040.0, 0.0015850514021167866
1041.0, 0.0010731270247529207
1042.0, 0.0007647858297230934
1043.0, 0.0010411497431758528
1044.0, 0.00045777220524347495
1045.0, 0.0012796351609537656
1046.0, 0.00026190926847025607
1047.0, 0.00024495370815742935
1048.0, 0.00050398888460261
1049.0, 0.00036323204026815123
1050.0, 0.00017543372591619243
1051.0, 0.0002263889587464182
1052.0, 0.0003458361878152305
1053.0, 0.00043742453071323633
1054.0, 0.0005455733309384595
1055.0, 9.996492418357398e-05
1056.0, 9.689447742951142e-05
1057.0, 0.0007528640300357378
1058.0, 0.0009429007341358168
1059.0, 0.0007212486221050439
1060.0, 0.0009160838187608123
1061.0, 0.0010249560094157688
1062.0, 0.0007972989211334505
1063.0, 0.0008351802670936865
1064.0, 0.0008348522622503883
1065.0, 0.0015075104970311425
1066.0, 0.0003295340142573485
1067.0, 0.0005516922381089983
1068.0, 0.0011506204418970346
1069.0, 0.0010711090879400957
1070.0, 0.0004948951809807744
1071.0, 0.001086008142000482
1072.0, 0.0012859270484726307
1073.0, 0.0002615477143543574
1074.0, 0.0009213310522111632
1075.0, 0.0014686813054947756
1076.0, 0.0006048488626900415
1077.0, 0.0006528056104874007
1078.0, 0.00029427108996339473
1079.0, 0.000551658869569735
1080.0, 0.00028739531735441886
1081.0, 0.0004747752202916686
1082.0, 0.0008723932228806094
1083.0, 0.0007277301123258586
1084.0, 0.00033209245644657827
1085.0, 0.0003446885891483421
1086.0, 0.0003624042471412994
1087.0, 1.4356492669027058e-05
1088.0, 3.7528997254869803e-06
1089.0, 0.0003083693686525672
1090.0, 0.0008130172669205416
1091.0, 0.0005431913351397846
1092.0, 0.00016017090556421978
1093.0, 0.0002867517463990174
1094.0, 0.00039428213068952564
1095.0, 6.311925230046367e-05
1096.0, 0.0005008027050466789
1097.0, 0.0024010658446656985
1098.0, 0.0003405731151485741
1099.0, 0.001208268787538496
1100.0, 0.0014098002613001008
1101.0, 0.0008901124961068812
1102.0, 0.0005527844919224274
1103.0, 0.0005222025423241254
1104.0, 0.0009286530053003247
1105.0, 0.0011779799954685722
1106.0, 0.0008271570950459556
1107.0, 0.0009369244552293387
1108.0, 0.0011379018606739208
1109.0, 6.495802501938408e-06
1110.0, 0.0015602134700719544
1111.0, 0.0018905720680322477
1112.0, 0.0021235002168141434
1113.0, 0.0014517307370772031
1114.0, 0.0014073343493861215
1115.0, 0.001769945226742696
1116.0, 0.0018170768362880871
1117.0, 0.0019085920651158725
1118.0, 0.0022309855021022803
1119.0, 0.0021484146706121188
1120.0, 0.0024338258643664965
1121.0, 0.0021867504786858075
1122.0, 0.0018803362353484088
1123.0, 0.0019943682328335648
1124.0, 0.002207930425579617
1125.0, 0.0018678805084820101
1126.0, 0.0018140692786061295
1127.0, 0.002274688738765615
1128.0, 0.0025366657972340787
1129.0, 0.002510821708246895
1130.0, 0.0028070777473467247
1131.0, 0.0030724773479628006
1132.0, 0.0033972508952318245
1133.0, 0.0033901553901667172
1134.0, 0.00313169826074671
1135.0, 0.003190727855818061
1136.0, 0.003160121576395644
1137.0, 0.0026806804313046087
1138.0, 0.00245183207611504
1139.0, 0.002868777079668569
1140.0, 0.00296041451317675
1141.0, 0.0021962868212359525
1142.0, 0.002591114880667726
1143.0, 0.0028759288891739903
1144.0, 0.0026891553901071566
1145.0, 0.0030029909380127414
1146.0, 0.002896100756655996
1147.0, 0.0031600613741822416
1148.0, 0.003285465857118734
1149.0, 0.0032803162984937056
1150.0, 0.002977662972489564
1151.0, 0.00261536716683054
1152.0, 0.0028528603932037088
1153.0, 0.00326456489127158
1154.0, 0.002888584615680556
1155.0, 0.003371931495222242
1156.0, 0.0034176229806263387
1157.0, 0.0035820411142082928
1158.0, 0.003344202006098879
1159.0, 0.003422352131379834
1160.0, 0.00333569418892868
1161.0, 0.0033612121457842433
1162.0, 0.0033010276651359665
1163.0, 0.002912406940363598
1164.0, 0.0027428519978149072
1165.0, 0.0030890496714385566
1166.0, 0.0032134855798337794
1167.0, 0.0028599489114482265
1168.0, 0.004376694135703169
1169.0, 0.003574466631268458
1170.0, 0.003211960305262527
1171.0, 0.0037495969899021264
1172.0, 0.00335513230057258
1173.0, 0.002782534603686517
1174.0, 0.0030936052737056043
1175.0, 0.003547264464327348
1176.0, 0.003132053792607918
1177.0, 0.0026219488489485705
1178.0, 0.003054546325085019
1179.0, 0.003067881395873735
1180.0, 0.004324397445359759
1181.0, 0.0029640068437859967
1182.0, 0.003136413019373417
1183.0, 0.003962547857289358
1184.0, 0.003495421252500928
1185.0, 0.003670603927535071
1186.0, 0.004190707908444124
1187.0, 0.004256617191453855
1188.0, 0.004083761516883941
1189.0, 0.0038152399647938097
1190.0, 0.004084461333398168
1191.0, 0.004189362910795723
1192.0, 0.004373113596606161
1193.0, 0.004391528694323729
1194.0, 0.004462137386089954
1195.0, 0.004669567969699161
1196.0, 0.004527048959604277
1197.0, 0.0044369812281939095
1198.0, 0.004200914043681603
1199.0, 0.004178095496401291
1200.0, 0.004482006056722571
1201.0, 0.00475147687120025
1202.0, 0.00506901117972314
1203.0, 0.005076556011252499
1204.0, 0.00458110628784073
1205.0, 0.005070108586270711
1206.0, 0.004570058034736188
1207.0, 0.005467382708821532
1208.0, 0.005470733287240418
1209.0, 0.005448321006072457
1210.0, 0.005800805401278886
1211.0, 0.005542880570655065
1212.0, 0.0051569326677960515
1213.0, 0.0050242374511971005
1214.0, 0.00473861081944799
1215.0, 0.0048624828808257305
1216.0, 0.0050869731086371555
1217.0, 0.004959902469731139
1218.0, 0.005111913433728428
1219.0, 0.004814961388104637
1220.0, 0.004513997157321524
1221.0, 0.0045476979984556245
1222.0, 0.004528387311636203
1223.0, 0.0045520249319607065
1224.0, 0.004764096549724937
1225.0, 0.00450667251121391
1226.0, 0.004587562053334548
1227.0, 0.0053680911480284985
1228.0, 0.005141526062536963
1229.0, 0.004725455074721017
1230.0, 0.0035241954122409084
1231.0, 0.004665830322708316
1232.0, 0.004101446195996533
1233.0, 0.0045048805992082925
1234.0, 0.005582297918872755
1235.0, 0.0048775705266043195
1236.0, 0.003916338225281876
1237.0, 0.004343394537115594
1238.0, 0.004959617660979871
1239.0, 0.004202593670397803
1240.0, 0.0031914547974082083
1241.0, 0.0032954851407652713
1242.0, 0.003258452245779683
1243.0, 0.0035155294764637416
1244.0, 0.0034684383821520014
1245.0, 0.002319730501338351
1246.0, 0.002947866250011514
1247.0, 0.0034306728321183365
1248.0, 0.0029779785637197888
1249.0, 0.003624401212121101
1250.0, 0.0027619567133203254
1251.0, 0.002652680601324965
1252.0, 0.00247797557444776
1253.0, 0.0015863853689836059
1254.0, 0.0014736151947582449
1255.0, 0.0020883943000034482
1256.0, 0.00267050670862415
1257.0, 0.002796314505893358
1258.0, 0.002812768368969337
1259.0, 0.0028492950318638405
1260.0, 0.0026927432515330527
1261.0, 0.002514992098901174
1262.0, 0.0026989130008562424
1263.0, 0.002603892881659991
1264.0, 0.0021489173698755405
1265.0, 0.0016198055626147631
1266.0, 0.001921171150990531
1267.0, 0.001994149273729655
1268.0, 0.0016134837499049246
1269.0, 0.001779314696892044
1270.0, 0.0011748325546253125
1271.0, 0.0010531344620779161
1272.0, 0.0019896598604542044
1273.0, 0.00097304396125746
1274.0, 0.001464071152931398
1275.0, 0.0015270082800621046
1276.0, 0.0006946127624170163
1277.0, 0.001291176343631331
1278.0, 0.001730407195740021
1279.0, 0.0016365824200670958
1280.0, 0.001180938641571634
1281.0, 0.0014121929991893919
1282.0, 0.0020592517043377255
1283.0, 0.0019280647715714792
1284.0, 0.0012115576084827991
1285.0, 0.0003820727631152803
1286.0, 0.00018830899793233094
1287.0, 0.0008311782505005692
1288.0, 8.949636720069563e-05
1289.0, 0.0010794192794878338
1290.0, 0.0002942461074010799
1291.0, 0.00037286255382736776
1292.0, 0.0005878496077694004
1293.0, 0.000725695570134945
1294.0, 0.0008719608688728521
1295.0, 0.0008007172828705997
1296.0, 0.0007076739710697048
1297.0, 0.0008311321773017643
1298.0, 0.0007876713718133031
1299.0, 0.0005767398719673714
1300.0, 0.0010837273541822344
1301.0, 0.001611578778513503
1302.0, 0.0011662052774761287
1303.0, 0.0009176289923761392
1304.0, 0.0005624122234303356
1305.0, 0.00046148063228100805
1306.0, 0.0008676123706509055
1307.0, 0.0011102788454263682
1308.0, 0.0007350053928708262
1309.0, 0.0006096667963378486
1310.0, 0.00039706579088834526
1311.0, 0.000467513793933484
1312.0, 0.0009800370301207126
1313.0, 0.0010254365320261501
1314.0, 0.0005639151737179112
1315.0, 0.0005032228878603355
1316.0, 0.0005452738876010358
1317.0, 0.0015526972244759279
1318.0, 0.0004979229293369215
1319.0, 0.0004251307690569404
1320.0, 0.0017381568805501543
1321.0, 0.0010803812374502665
1322.0, 0.0006614296533054354
1323.0, 0.0008600759461135862
1324.0, 0.000772542086283266
1325.0, 0.0008447693520501153
1326.0, 0.0009235184823362088
1327.0, 0.0007572548663240631
1328.0, 0.0004884264872491934
1329.0, 0.0005303281583043534
1330.0, 0.0006604944985036726
1331.0, 0.0005035001406080168
1332.0, 0.0011319532674082563
1333.0, 0.0005738506307616764
1334.0, 0.0003619319538535788
1335.0, 0.000667807130270982
1336.0, 0.0014287695225301455
1337.0, 0.0017004045903871614
1338.0, 0.0026053015080041405
1339.0, 0.002073019646196716
1340.0, 0.0013437608285890856
1341.0, 0.000678816687800055
1342.0, 0.0012640731542504992
1343.0, 0.0015634433216706587
1344.0, 0.001319801019303413
1345.0, 0.001396507486075873
1346.0, 0.0010513670239818496
1347.0, 0.0005581890392720981
1348.0, 0.00123934568376243
1349.0, 0.0009372603803102027
1350.0, 0.0011325760982662187
1351.0, 0.0006308889026679415
1352.0, 0.0015487143566569792
1353.0, 0.0014400873460673133
1354.0, 0.0004897145241625517
1355.0, 0.0005916005892174758
1356.0, 0.0012986998295350276
1357.0, 0.0013506796321854893
1358.0, 0.0007446482269885667
1359.0, 0.0013476690048460213
1360.0, 0.0015373323620791735
1361.0, 0.0016375131009659422
1362.0, 0.0014497239634226938
1363.0, 0.0009953791138583024
1364.0, 0.0018222011671344145
1365.0, 0.0013012051435079258
1366.0, 0.00040658042248613725
1367.0, 0.0018031859190641487
1368.0, 0.001111244614452676
1369.0, 0.0007751850864007488
1370.0, 0.0009721318691559064
1371.0, 0.0005952199283489002
1372.0, 0.0005988828634798693
1373.0, 0.0004368462447991887
1374.0, 0.0008124193167481713
1375.0, 0.0009203685659445003
1376.0, 0.0006091020953496089
1377.0, 0.0008199405553435982
1378.0, 0.001274984255925454
1379.0, 0.0015600804235551616
1380.0, 0.0012466881485179142
1381.0, 0.0009042995482357955
1382.0, 0.0014492843019383588
1383.0, 0.0013042749510942333
1384.0, 0.0008031677286901916
1385.0, 0.0020099084047624353
1386.0, 0.0020599926552940843
1387.0, 0.00047129062739669766
1388.0, 0.0012409481654486235
1389.0, 0.0009914070810217882
1390.0, 0.0015052224696779815
1391.0, 0.0011350956492876675
1392.0, 0.0012052361244121166
1393.0, 0.0010178877880237319
1394.0, 0.00032358653105315095
1395.0, 0.0009686885284746776
1396.0, 0.001739494618039899
1397.0, 0.001203801247996648
1398.0, 0.0010598408549609855
1399.0, 0.00140671687884457
1400.0, 0.0010859530119686962
1401.0, 0.0008232880865245808
1402.0, 0.00011902475069312096
1403.0, 0.0004028083411109959
1404.0, 0.0010421439605385805
1405.0, 0.0005826690394489805
1406.0, 0.000738044156714728
1407.0, 0.0013129549881222878
1408.0, 0.0012683019678376415
1409.0, 0.000996218533981992
1410.0, 0.00046734068336943413
1411.0, 0.0006843901069773654
1412.0, 0.0003669941634416561
1413.0, 8.676999347867416e-05
1414.0, 0.0008632665329632902
1415.0, 0.0017835505123557924
1416.0, 0.0010835142410000438
1417.0, 0.00048040233831150733
1418.0, 0.0005037805454478369
1419.0, 0.00022610756660415319
1420.0, 0.0005562654512177044
1421.0, 0.0009724012940534889
1422.0, 0.0004842950963977471
1423.0, 0.0006498078734010228
1424.0, 0.0013917853549178343
1425.0, 0.000783653499412475
1426.0, 0.0009205453161909584
1427.0, 0.00039870342726610133
1428.0, 0.0007766516228308705
1429.0, 0.0004991120649620205
1430.0, 0.0003519177443832655
1431.0, 0.0002808638032348224
1432.0, 0.00018603330135716958
1433.0, 0.00013472728975337154
1434.0, 0.0005839581074553429
1435.0, 0.0007038235445123598
1436.0, 0.000528429294054822
1437.0, 0.0005331546366747691
1438.0, 0.0004950422781594825
1439.0, 0.00030553417975630705
1440.0, 0.0003401534935877222
1441.0, 0.00041985363566539617
1442.0, 0.0004946040783753664
1443.0, 0.0011343638092894948
1444.0, 0.0010656480678347766
1445.0, 0.0008692557833329955
1446.0, 0.0015364147854438333
1447.0, 0.0016804360513427291
1448.0, 0.002901221545868296
1449.0, 0.0019496724275116346
1450.0, 0.0018828118660621602
1451.0, 0.0013517574873156183
1452.0, 0.001687466222625985
1453.0, 0.0016477207102881565
1454.0, 0.0012875375096420337
1455.0, 0.0019850707795913596
1456.0, 0.0018190211830898838
1457.0, 0.0021276331205901727
1458.0, 0.0018510292181716523
1459.0, 0.002060581072354276
1460.0, 0.002283298058036584
1461.0, 0.002490360543741877
1462.0, 0.0027988836729817995
1463.0, 0.002188430223980783
1464.0, 0.0018073227380463412
1465.0, 0.0016571860311379984
1466.0, 0.0019613375012743775
1467.0, 0.002034834297743175
1468.0, 0.0008078145945988346
1469.0, 0.001852096039823447
1470.0, 0.0012458829149593058
1471.0, 0.0013705813352445195
1472.0, 0.0017980526039151775
1473.0, 0.0016978534306268025
1474.0, 0.0018218050530385604
1475.0, 0.0027017993886402415
1476.0, 0.0016400965335974
1477.0, 0.0010931877238194868
1478.0, 0.001376796896543758
1479.0, 0.0020282116477602107
1480.0, 0.0018594917475854478
1481.0, 0.0013125660663063513
1482.0, 0.0014384764457243998
1483.0, 0.0009909327479006168
1484.0, 0.0007594918820017844
1485.0, 0.0015506155757083002
1486.0, 0.0018837083962356027
1487.0, 0.0016317613116487565
1488.0, 0.0014021770715973384
1489.0, 0.0011007163855316817
1490.0, 0.001201770945554483
1491.0, 0.0010258819433413276
1492.0, 0.0009711376054401269
1493.0, 0.0006226186176304045
1494.0, 0.0010130865380168562
1495.0, 0.0002763560433862752
1496.0, 0.0019470809755662017
1497.0, 0.0024654149901261442
1498.0, 0.0016595956372375857
1499.0, 0.0016616876699166888
1500.0, 0.0020356926826599897
1501.0, 0.0006933484199311983
1502.0, 0.0012229032171843335
1503.0, 0.0006017943627992121
1504.0, 0.0016930919891242876
1505.0, 0.0015252212023259555
1506.0, 0.0010057874749263577
1507.0, 0.0020369772909685844
1508.0, 0.002132219345495674
1509.0, 0.001373931147617173
1510.0, 0.0016378581247252968
1511.0, 0.0013373482835546254
1512.0, 0.0003346973978975024
1513.0, 0.0008507254194714497
1514.0, 0.0016730245751002551
1515.0, 0.0014786293610082573
1516.0, 0.0014516229997338231
1517.0, 0.0012183673844024078
1518.0, 0.0012242948461565106
1519.0, 0.0015995006013834396
1520.0, 0.0013499639805502547
1521.0, 0.0015156182508707235
1522.0, 0.0007342635891084409
1523.0, 0.002290165864448454
1524.0, 9.655663665832738e-05
1525.0, 0.0008273987516646423
1526.0, 0.0026025624338398322
1527.0, 0.0013482438937031014
1528.0, 0.0016621638391453779
1529.0, 0.0018711396014479316
1530.0, 0.0008756445233449562
1531.0, 0.0008697875014612936
1532.0, 0.0004535808101367914
1533.0, 0.0007117910521828616
1534.0, 0.00032565995747365804
1535.0, 0.0003802716993869565
1536.0, 0.0005648485425394272
1537.0, 0.0014882555055472115
1538.0, 0.0012300552938157574
1539.0, 0.0012775841271057368
1540.0, 0.002007742303759751
1541.0, 0.0013958317933282496
1542.0, 0.0007126141838139661
1543.0, 0.0013543093868828232
1544.0, 0.002051602329256158
1545.0, 0.0013398124121589618
1546.0, 0.0013467892660636851
1547.0, 0.001151390009699391
1548.0, 0.0006805175233508619
1549.0, 0.0010392271993568617
1550.0, 0.0009250951927225024
1551.0, 0.0015005686389349701
1552.0, 0.002168480010381711
1553.0, 0.0002594393490960732
1554.0, 0.0015694092513188153
1555.0, 0.001134131025513263
1556.0, 0.0005851297510780984
1557.0, 0.0005599568833433344
1558.0, 0.0001397529451412628
1559.0, 0.0006286151411041932
1560.0, 0.0008329768045847949
1561.0, 0.0007312843206927935
1562.0, 0.0004250097448763187
1563.0, 8.200323045375116e-05
1564.0, 0.0003363451522167012
1565.0, 0.00012240723969982742
1566, 0.0
1567, 0.0
1568, 0.0
1569, 0.0
1570, 0.0
1571, 0.0
1572, 0.0
1573, 0.0
1574, 0.0
1575, 0.0
1576, 0.0
1577, 0.0
1578, 0.0
1579, 0.0
1580, 0.0
1581, 0.0
1582, 0.0
1583, 0.0
1584, 0.0
1585, 0.0
1586, 0.0
1587, 0.0
1588, 0.0
1589, 0.0
1590, 0.0
1591, 0.0
1592, 0.0
1593, 0.0
1594, 0.0
1595, 0.0
1596, 0.0
1597, 0.0
1598, 0.0
1599, 0.0
