30, 0.0
31, 0.0
32, 0.0
33, 0.0
34, 0.0
35, 0.0
36, 0.0
37, 0.0
38, 0.0
39, 0.0
40, 0.0
41, 0.0
42, 0.0
43, 0.0
44, 0.0
45, 0.0
46, 0.0
47.0, 1.1200012339160133e-05
48.0, 4.2660721157025536e-05
49.0, 0.0005706447150711613
50.0, 0.0013486082237748958
51.0, 0.002195919355659262
52.0, 0.002396643300475714
53.0, 0.003875002088029492
54.0, 0.006536903070764101
55.0, 0.010620329597286907
56.0, 0.012054271962894776
57.0, 0.014046402147383641
58.0, 0.01671010944718134
59.0, 0.01985549055846464
60.0, 0.022407996394110428
61.0, 0.02423161738956353
62.0, 0.025056687321969584
63.0, 0.02619701204162479
64.0, 0.026453696034554802
65.0, 0.025973186600626277
66.0, 0.02556761851118694
67.0, 0.02378473434804726
68.0, 0.02226388306709249
69.0, 0.02210794774623936
70.0, 0.02204618780571943
71.0, 0.022521149347807284
72.0, 0.023662357635809136
73.0, 0.026093004935872032
74.0, 0.025602328710388214
75.0, 0.024065435675684532
76.0, 0.02235160479732081
77.0, 0.019393671264850955
78.0, 0.01607014878988467
79.0, 0.012703853010908272
80.0, 0.010358543387934488
81.0, 0.007891193822507138
82.0, 0.006287483886860962
83.0, 0.006203982772681288
84.0, 0.004449355460680247
85.0, 0.0032867532589873094
86.0, 0.0026226354352973523
87.0, 0.0021230656568388363
88.0, 0.0017530430954616938
89.0, 0.0014341911186503227
90.0, 0.0011403243518572257
91.0, 0.0015730066713872434
92.0, 0.0016716338827769347
93.0, 0.0016228164223075828
94.0, 0.0018607600317183124
95.0, 0.0011037912784163271
96.0, 0.00047516939889874997
97.0, 0.0003590827037162846
98.0, 0.0007760028101739166
99.0, 0.0006909285722345902
100.0, 0.00036604191588485136
101.0, 0.00021923736906453555
102.0, 0.0012159340493670201
103.0, 0.001517048863686912
104.0, 0.00073871237483102
105.0, 0.0004731553459021317
106.0, 0.0010801892398588056
107.0, 0.0023720734504908084
108.0, 0.0043184390212865995
109.0, 0.006446023788064551
110.0, 0.006869633039692498
111.0, 0.005531700091956535
112.0, 0.004762327395672484
113.0, 0.003300758782165759
114.0, 0.0023190582881571476
115.0, 0.003040386385399176
116.0, 0.0023827560811501385
117.0, 0.0021206101453595445
118.0, 0.002235119443213675
119.0, 0.001860599965230519
120.0, 0.0017139123224055362
121.0, 0.0018035556479937271
122.0, 0.0021800930790490266
123.0, 0.001576156552200003
124.0, 0.0014542197259462958
125.0, 0.0016203334168966872
126.0, 0.0014108825002148778
127.0, 0.0017604411086774962
128.0, 0.0017843215929366372
129.0, 0.0011599526823853797
130.0, 0.0015973301082680134
131.0, 0.001892994191367215
132.0, 0.0019714421506401504
133.0, 0.0016314449538590025
134.0, 0.001381432747177818
135.0, 0.0012428191272165123
136.0, 0.001219945345287944
137.0, 0.0012696943628430117
138.0, 0.001741428609639158
139.0, 0.0021503561482127034
140.0, 0.0019901885794988265
141.0, 0.0015300241969440926
142.0, 0.0018491957559147666
143.0, 0.0026839136863452645
144.0, 0.002350774712952293
145.0, 0.001720783136408037
146.0, 0.0014562651249587378
147.0, 0.0019687233794585465
148.0, 0.0012659562293920712
149.0, 0.0010730396973019454
150.0, 0.001316790345854218
151.0, 0.0018737055082313134
152.0, 0.001861770286448651
153.0, 0.0024344392697061004
154.0, 0.0037528257104728984
155.0, 0.0029453245288862
156.0, 0.003850095917105524
157.0, 0.004349958362341414
158.0, 0.0018400659855719282
159.0, 0.0009578655549293856
160.0, 0.0007444316519748664
161.0, 0.0009429486346949543
162.0, 0.0008553698543810449
163.0, 0.0005839136691693659
164.0, 0.00041442953210023975
165.0, 0.0005189942098842084
166.0, 0.0005914600541210334
167.0, 0.0007404819785515106
168.0, 0.0009477796014000428
169.0, 0.0011830849855319146
170.0, 0.0011826188347862302
171.0, 0.0011513558937562916
172.0, 0.0011018377864801475
173.0, 0.0006273346292031945
174.0, 0.0005793188250661328
175.0, 0.0005797948777853645
176.0, 0.00027396137703601144
177.0, 0.00019783026349773697
178.0, 0.00015129366969483262
179.0, 0.00011612040517253117
180.0, 8.536187236845999e-05
181.0, 0.00019455890391831103
182.0, 0.000398792502221204
183.0, 0.0006752803133996904
184.0, 0.0005702724888777996
185.0, 0.000647429814786332
186.0, 0.0007961456456930707
187.0, 0.0008715923231418516
188.0, 0.0006432191108414304
189.0, 0.0004230414757768792
190.0, 0.0003239574274032502
191.0, 0.0007341490092462679
192.0, 0.00073408393943002
193.0, 0.000584974614048611
194.0, 0.00041285585663918266
195.0, 0.00045724913956308923
196.0, 0.00029538596006934857
197.0, 0.00011788419085646687
198.0, 0.0003004072591130051
199.0, 0.0004478466639172017
200.0, 0.0004780417881338213
201.0, 0.0003958284287027924
202.0, 0.00036827249604483807
203.0, 0.0005149923585938155
204.0, 0.000627213030905003
205.0, 0.0005574583686575355
206.0, 0.0004158310792701857
207.0, 0.000824033073629303
208.0, 0.0014442766298796116
209.0, 0.0015220503757828198
210.0, 0.0022143383160987554
211.0, 0.002680612715331109
212.0, 0.0028980153156841658
213.0, 0.0043129747495517295
214.0, 0.005101485950607891
215.0, 0.006202520838989137
216.0, 0.008352480421025248
217.0, 0.009978452587022206
218.0, 0.011447854713058255
219.0, 0.012996859975162475
220.0, 0.015158208788940957
221.0, 0.016471423388000915
222.0, 0.017418981408905385
223.0, 0.01808045334436519
224.0, 0.018300771509701934
225.0, 0.017830566157397535
226.0, 0.017401923178989323
227.0, 0.01752231610747151
228.0, 0.016097555394513123
229.0, 0.015291969830815494
230.0, 0.014837511016629798
231.0, 0.014163731543271494
232.0, 0.01409161443369729
233.0, 0.013954971033952235
234.0, 0.013762691077785418
235.0, 0.014386778180965079
236.0, 0.0144528596161577
237.0, 0.01395400874001949
238.0, 0.012832697944444848
239.0, 0.012734979744433553
240.0, 0.012122820602400731
241.0, 0.01135047809710593
242.0, 0.010967074562310683
243.0, 0.01021357913825298
244.0, 0.009400143638713856
245.0, 0.008607082909067816
246.0, 0.00800679443630966
247.0, 0.007780458873775807
248.0, 0.0075781735917551845
249.0, 0.0072660436946236405
250.0, 0.0070899278529112375
251.0, 0.00676258009205827
252.0, 0.006428848610300199
253.0, 0.006250232658234421
254.0, 0.005813953442361008
255.0, 0.00585622883860386
256.0, 0.00612286688723252
257.0, 0.0057523201621656524
258.0, 0.00610078299443041
259.0, 0.0059883996366345916
260.0, 0.005270899564776798
261.0, 0.005585752149531005
262.0, 0.005505512399363571
263.0, 0.005425434954712148
264.0, 0.00561188903940992
265.0, 0.0058353381588744984
266.0, 0.005697357134678583
267.0, 0.005539492188022235
268.0, 0.0059486336506710084
269.0, 0.005589491516607351
270.0, 0.00534882893556387
271.0, 0.005332195275776318
272.0, 0.005487086377178697
273.0, 0.005619049899439863
274.0, 0.0057153113285307155
275.0, 0.005756750001612177
276.0, 0.005574222450352041
277.0, 0.005495352028313982
278.0, 0.005589809304028741
279.0, 0.005941610224667474
280.0, 0.006159369076727953
281.0, 0.006312075677851619
282.0, 0.0063782949203106355
283.0, 0.006296496582710311
284.0, 0.00700743539851722
285.0, 0.007723879126318935
286.0, 0.00830001909830783
287.0, 0.008659641876082126
288.0, 0.00971785569446624
289.0, 0.010387949536759554
290.0, 0.010376500979070476
291.0, 0.01215322528713228
292.0, 0.013846557512983467
293.0, 0.01593859744943035
294.0, 0.018898295482921813
295.0, 0.022441458036250743
296.0, 0.027186307040311972
297.0, 0.03308916798531727
298.0, 0.04020437062086383
299.0, 0.046127260682908025
300.0, 0.052533639235510896
301.0, 0.05839520579898522
302.0, 0.058488296394709004
303.0, 0.057936198805071525
304.0, 0.0549642344193589
305.0, 0.048994556847082885
306.0, 0.041392716926276565
307.0, 0.03513602417013441
308.0, 0.02964970087230161
309.0, 0.02460753053518629
310.0, 0.021464911287850143
311.0, 0.019143253136120978
312.0, 0.01743083867198639
313.0, 0.01609894955258869
314.0, 0.015508044486042196
315.0, 0.015083817419668303
316.0, 0.01477999614568513
317.0, 0.014628744790453669
318.0, 0.014857080071390548
319.0, 0.015266100827392355
320.0, 0.01581839807406381
321.0, 0.016546036492817547
322.0, 0.017500303070534802
323.0, 0.018576858881514974
324.0, 0.019654667893723
325.0, 0.0194568922278322
326.0, 0.019356114357659035
327.0, 0.018718916133661077
328.0, 0.016974604264265586
329.0, 0.015601504646291692
330.0, 0.014225942076253975
331.0, 0.013041890317452103
332.0, 0.012379979945361526
333.0, 0.012124211225451317
334.0, 0.011525574432497465
335.0, 0.010876417124104016
336.0, 0.011183396652860599
337.0, 0.010813261520959898
338.0, 0.010509861184057634
339.0, 0.010295560097227664
340.0, 0.009451613633802768
341.0, 0.008686440989108143
342.0, 0.008138525459824759
343.0, 0.0077889959173648915
344.0, 0.006697754657473459
345.0, 0.006097037220829434
346.0, 0.0058564654147087785
347.0, 0.00589757443226152
348.0, 0.005086087448199121
349.0, 0.004994248478726159
350.0, 0.005096867596102953
351.0, 0.004801588058686554
352.0, 0.005103052075646905
353.0, 0.0051211780333669694
354.0, 0.004970298629578083
355.0, 0.004935262628333188
356.0, 0.005035965689422886
357.0, 0.005081104249556664
358.0, 0.005026954918645402
359.0, 0.004806500733818049
360.0, 0.004719567208109542
361.0, 0.004473852601426218
362.0, 0.004066736254789908
363.0, 0.0038603872968097698
364.0, 0.0036425640547085177
365.0, 0.0033710911865170493
366.0, 0.0030537582551006543
367.0, 0.0029519592628132574
368.0, 0.00269703533019609
369.0, 0.0025453406491800037
370.0, 0.002649159868712691
371.0, 0.0027342434967445053
372.0, 0.0026155873666266764
373.0, 0.0023737746816427313
374.0, 0.0020749431113942407
375.0, 0.0022237153020607204
376.0, 0.0018960239658814243
377.0, 0.0014615838016781956
378.0, 0.001454813131573879
379.0, 0.0016993220237982187
380.0, 0.0019156500332382952
381.0, 0.002059734626206848
382.0, 0.0020746515546263148
383.0, 0.0020423191968107156
384.0, 0.0018833444521795114
385.0, 0.001680013458014845
386.0, 0.0017090409943986734
387.0, 0.0016200551575442433
388.0, 0.001557362414145668
389.0, 0.0015031035497151358
390.0, 0.0012391108689414117
391.0, 0.001121626785636624
392.0, 0.0010734409779784228
393.0, 0.001060033760453328
394.0, 0.0010039893679175123
395.0, 0.0010756769187070796
396.0, 0.0011633493513680962
397.0, 0.0012244401748122892
398.0, 0.0013329081508843955
399.0, 0.0012122108641885873
400.0, 0.0012634872882423633
401.0, 0.0016978494976547136
402.0, 0.0015565720592018249
403.0, 0.002167781192526222
404.0, 0.0030023942765213477
405.0, 0.003639987887942339
406.0, 0.003940244834822302
407.0, 0.004446421423802764
408.0, 0.005172800280046034
409.0, 0.006145821141484748
410.0, 0.006914416445338611
411.0, 0.007940578309936849
412.0, 0.009469723212697475
413.0, 0.011862406545385208
414.0, 0.013019601548662782
415.0, 0.013734899398232215
416.0, 0.01428954300645833
417.0, 0.015084388971262385
418.0, 0.014194008012364477
419.0, 0.013343008719306031
420.0, 0.0126666770636363
421.0, 0.012092126389705436
422.0, 0.010863186639171447
423.0, 0.01039169752219472
424.0, 0.010560042302821829
425.0, 0.010530575635911825
426.0, 0.011124367304346862
427.0, 0.012281910537804152
428.0, 0.013722460425358372
429.0, 0.014543029967774996
430.0, 0.016535309186943337
431.0, 0.018659455827795463
432.0, 0.02090722973810873
433.0, 0.024227948183335745
434.0, 0.02623553685188223
435.0, 0.027809229526582664
436.0, 0.028840868845401685
437.0, 0.02759573811088369
438.0, 0.025381427893140605
439.0, 0.02273589239467823
440.0, 0.01983818959012849
441.0, 0.016747227365793774
442.0, 0.013531357936903021
443.0, 0.011058439622043384
444.0, 0.009503791383544263
445.0, 0.007669276542335634
446.0, 0.0062932823955140155
447.0, 0.005257993020614378
448.0, 0.004496631960957549
449.0, 0.0037938591448455493
450.0, 0.003091036502498849
451.0, 0.0025434764460253575
452.0, 0.0022009536530845056
453.0, 0.0017864518290471054
454.0, 0.001371881257917999
455.0, 0.0010706587415891704
456.0, 0.000966135177867174
457.0, 0.0012858916236108753
458.0, 0.0013336829300748501
459.0, 0.0011533497949900262
460.0, 0.00078545655345262
461.0, 0.0005273770773275892
462.0, 0.0006735061467779538
463.0, 0.0008100756090821797
464.0, 0.0007078362500246617
465.0, 0.0005806907412050617
466.0, 0.0004917683603642401
467.0, 0.0004945442249055808
468.0, 0.0006207537589939885
469.0, 0.0008085386523226296
470.0, 0.0005586796786845491
471.0, 0.0002495371696599063
472.0, 0.00015281336816536383
473.0, 0.0007872398884521869
474.0, 0.0007849095280462709
475.0, 0.0006667935220778391
476.0, 0.0007439955110017678
477.0, 0.0007342692461029472
478.0, 0.0007530466990435747
479.0, 0.0006283766782305242
480.0, 0.0002900505122835719
481.0, 0.0003852731463065321
482.0, 0.00042306922744393314
483.0, 0.0003095211521495482
484.0, 1.855910853395877e-05
485.0, 6.087296732923411e-05
486.0, 0.0004012375316194707
487.0, 0.0005259985110754805
488.0, 0.0001957796788087148
489.0, 0.0003565614353864974
490.0, 0.0003426033477015209
491.0, 0.0002859518753558653
492.0, 0.0002619360482665774
493.0, 0.00028562262590845985
494.0, 0.000135348294490892
495.0, 2.178921291252183e-05
496.0, 4.500719966115383e-05
497.0, 7.992414132690033e-05
498.0, 0.00016331625069919902
499.0, 0.00020210828277729395
500.0, 0.00017612931511767584
501.0, 0.00030884493750190875
502.0, 0.00020531527578821027
503.0, 0.00011498565418744033
504.0, 0.00013124145487584973
505.0, 0.00012758476967551335
506.0, 0.0001692910242842363
507.0, 0.0003186151397416002
508.0, 0.0005389388599224478
509.0, 0.0004480473338319996
510.0, 0.00033880874152596315
511.0, 0.00038656383574763335
512.0, 0.0005803076888492775
513.0, 0.0005483371229860689
514.0, 0.0008301175525421683
515.0, 0.0010384901940770656
516.0, 0.0010944224342374167
517.0, 0.001152488805613114
518.0, 0.0011746221846203773
519.0, 0.0011793736545485315
520.0, 0.0012206616606570226
521.0, 0.0014722826032850449
522.0, 0.0014023515591027203
523.0, 0.0014116054663154613
524.0, 0.0014624070035190446
525.0, 0.0012126337197768664
526.0, 0.0014042413444555171
527.0, 0.0015822824084601509
528.0, 0.0015814858542290524
529.0, 0.0011800333181921567
530.0, 0.0013911865027942047
531.0, 0.0015800336570399788
532.0, 0.001753820823931231
533.0, 0.0020691928628215387
534.0, 0.0020141298687696655
535.0, 0.002217787736610671
536.0, 0.0026338293841786354
537.0, 0.003118195181250024
538.0, 0.0036196785697715224
539.0, 0.004107348512317482
540.0, 0.004555696654188643
541.0, 0.004936223327176746
542.0, 0.004763103879816471
543.0, 0.004488880386854728
544.0, 0.004116612064242894
545.0, 0.0036418823807271026
546.0, 0.002882905540134324
547.0, 0.002531875688082213
548.0, 0.0022177782177655756
549.0, 0.0017345520047623519
550.0, 0.0020991881683326006
551.0, 0.0018182267964837904
552.0, 0.0014780086089380335
553.0, 0.0014044920518721988
554.0, 0.001583108702939857
555.0, 0.0014740002282426913
556.0, 0.0014984722075418002
557.0, 0.0017503048717558375
558.0, 0.001784025421764075
559.0, 0.002346770667844657
560.0, 0.0026639696952176625
561.0, 0.0026751087434691402
562.0, 0.0030150819147588726
563.0, 0.003233378740876137
564.0, 0.003453789613582373
565.0, 0.003693953073410425
566.0, 0.00393404359165499
567.0, 0.00443673545213284
568.0, 0.005284826247845346
569.0, 0.0063035476410164045
570.0, 0.007155515409159204
571.0, 0.008057551939180037
572.0, 0.009253152630603351
573.0, 0.010770730367990592
574.0, 0.012621571892876647
575.0, 0.014918264061455801
576.0, 0.017676613419301237
577.0, 0.02064945405048424
578.0, 0.023655436882074467
579.0, 0.02797207790530705
580.0, 0.0319984133850015
581.0, 0.03571448470941466
582.0, 0.03912801214332179
583.0, 0.0424321731971382
584.0, 0.04206491238030898
585.0, 0.04094744035350297
586.0, 0.039881307794969054
587.0, 0.0366821928881014
588.0, 0.03340813041851532
589.0, 0.0307411856065772
590.0, 0.02854331964888208
591.0, 0.02579743690610759
592.0, 0.024574259334069842
593.0, 0.023681644471583697
594.0, 0.02320552932784359
595.0, 0.02369954504908559
596.0, 0.025579707939338996
597.0, 0.027869985769454157
598.0, 0.03062721735093397
599.0, 0.03400302257667391
600.0, 0.03799185647591574
601.0, 0.04122061203334047
602.0, 0.04510376311141256
603.0, 0.0504344040756189
604.0, 0.05076849384266926
605.0, 0.05197439551662998
606.0, 0.05230878179124089
607.0, 0.05083581663565223
608.0, 0.04752223665895734
609.0, 0.04396122665397765
610.0, 0.04015556739023156
611.0, 0.0362442911703728
612.0, 0.03271464736633692
613.0, 0.028274792992426377
614.0, 0.024674909547187013
615.0, 0.02196502025156263
616.0, 0.019608622893631536
617.0, 0.01605053958615241
618.0, 0.013938205131855341
619.0, 0.012700136503792965
620.0, 0.01137156709407406
621.0, 0.010417874448853006
622.0, 0.00899819495377594
623.0, 0.0076670259652246164
624.0, 0.006829522810798026
625.0, 0.006288886514211565
626.0, 0.005379541473979949
627.0, 0.00505964613227236
628.0, 0.005388828292980548
629.0, 0.004619863013926233
630.0, 0.0037943336469642443
631.0, 0.003384413325127507
632.0, 0.003232610521289719
633.0, 0.002651970944846413
634.0, 0.0023409331988427386
635.0, 0.002250220026050862
636.0, 0.002059740410166091
637.0, 0.0013323258925466927
638.0, 0.0013723192389782108
639.0, 0.0012839517625497351
640.0, 0.0011619928334718503
641.0, 0.0010857829956904326
642.0, 0.0009458303461442514
643.0, 0.0007857180901718041
644.0, 0.000876076076620506
645.0, 0.001165791661196101
646.0, 0.0008252398688818194
647.0, 0.0005418448557698805
648.0, 0.0005712262200523294
649.0, 0.000682059250545095
650.0, 0.00019019883375440112
651.0, 8.236278160356916e-05
652.0, 8.914296717292681e-05
653.0, 0.00017282290878737098
654.0, 0.0003117622594909822
655.0, 0.0003303007536623697
656.0, 0.0003770631434233215
657.0, 0.0004411929881613296
658.0, 0.000494391925080544
659.0, 0.00036485904925785966
660.0, 0.0005350085278809721
661.0, 0.0005686163198579299
662.0, 0.0004386483607011477
663.0, 0.0005929154913421032
664.0, 0.0006791630069762203
665.0, 0.0007848043872885892
666.0, 0.0007568596217603458
667.0, 0.0003192716087683314
668.0, 0.0005746706921001335
669.0, 0.0008143852912221935
670.0, 0.0008053252967260047
671.0, 0.00044149563947895105
672.0, 0.0007703426553897542
673.0, 0.0006997159355142579
674.0, 0.0004541056973905075
675.0, 0.0002544077280484332
676.0, 0.0006104533261211257
677.0, 0.0005517992024356886
678.0, 0.0004528258424516014
679.0, 0.00033999246736888313
680.0, 0.00011711606508014541
681.0, 8.624830321287655e-05
682.0, 6.56481863309444e-05
683.0, 6.960230949403205e-05
684.0, 0.00011911871546815928
685.0, 0.00018949880655512403
686.0, 0.00015512246760221422
687.0, 0.00011746201208624265
688.0, 0.00016110934669461154
689.0, 0.00044690864986150785
690.0, 0.0002312996989606622
691.0, 0.00010680571115084185
692.0, 0.00016489922289593346
693.0, 0.0003378048034483212
694.0, 0.00011301021604006965
695.0, 6.860876418584918e-05
696.0, 0.0002589667608832914
697.0, 0.0006378348563723156
698.0, 0.00030484102036863476
699.0, 0.00015214195241636315
700.0, 7.926591755177793e-05
701.0, 0.0001216814303868429
702.0, 0.0006042493525558951
703.0, 0.00032010440661903
704.0, 0.00027066871429557284
705.0, 0.0003882641181926965
706.0, 0.00026124908361135706
707.0, 0.00045188510693332674
708.0, 0.000658701098972057
709.0, 0.0006767233121265763
710.0, 0.0004094092016876263
711.0, 0.00036372858701153645
712.0, 0.0006080930921063473
713.0, 0.0008132228594884698
714.0, 0.0008455492293746111
715.0, 0.0006511247100176737
716.0, 0.00041992624539025173
717.0, 0.0006489532391203435
718.0, 0.0011206727848198487
719.0, 0.0014695709982459693
720.0, 0.0012888015261640602
721.0, 0.0012461366924412854
722.0, 0.0012895795813826464
723.0, 0.0013672630774128826
724.0, 0.0013771394879013577
725.0, 0.001467185717592075
726.0, 0.001541582874104963
727.0, 0.0016438355674276584
728.0, 0.0018970516119449742
729.0, 0.0018872043062599963
730.0, 0.0022798344124790753
731.0, 0.0025904102635115962
732.0, 0.002455687343806904
733.0, 0.002519311729051878
734.0, 0.0028736151223874838
735.0, 0.0030520018401150283
736.0, 0.002997083601901737
737.0, 0.0030065953728671303
738.0, 0.002829379467980167
739.0, 0.002966660548474849
740.0, 0.003175044122930512
741.0, 0.0031601906272563
742.0, 0.003808157449358488
743.0, 0.0036800871471332447
744.0, 0.0036153730682337622
745.0, 0.003917083323468078
746.0, 0.004185198404198933
747.0, 0.004082640886420869
748.0, 0.004129934837354571
749.0, 0.0043572604247660495
750.0, 0.0046759608467898724
751.0, 0.004577393322812941
752.0, 0.005026809590538587
753.0, 0.005174940264652187
754.0, 0.004771615200773658
755.0, 0.0051627774590553375
756.0, 0.00556558523019388
757.0, 0.005694771127819781
758.0, 0.005823244208216908
759.0, 0.0065139017583737266
760.0, 0.0065072785432692334
761.0, 0.006557391140000994
762.0, 0.0065693911415716
763.0, 0.0065116360230827765
764.0, 0.006645159927859771
765.0, 0.007233288351658178
766.0, 0.007457427762263935
767.0, 0.007450455695200896
768.0, 0.007856923499907298
769.0, 0.00801172828894618
770.0, 0.00811289303106847
771.0, 0.00850828380931539
772.0, 0.009240427774320673
773.0, 0.008884645851025549
774.0, 0.00960978065943101
775.0, 0.01029051341801117
776.0, 0.010621231958876834
777.0, 0.010606550114555337
778.0, 0.011134029689540085
779.0, 0.011315052339471499
780.0, 0.011789601753890126
781.0, 0.012788170031440754
782.0, 0.012419514935125135
783.0, 0.013068152710557557
784.0, 0.01374231770280014
785.0, 0.01404164388486061
786.0, 0.013714126093634614
787.0, 0.014877652912663939
788.0, 0.015815406022250966
789.0, 0.016424072491019136
790.0, 0.016862394985121716
791.0, 0.018269446259708794
792.0, 0.0191611474788344
793.0, 0.020251640176006523
794.0, 0.021477264042428664
795.0, 0.022435154456793973
796.0, 0.02346165188984226
797.0, 0.025612096923212656
798.0, 0.027653630771068326
799.0, 0.029112299583198185
800.0, 0.0316713832206305
801.0, 0.034702064866289115
802.0, 0.03653930504443568
803.0, 0.038738467208366996
804.0, 0.04391994374769204
805.0, 0.047083592236399664
806.0, 0.0524717082444666
807.0, 0.05898450974783173
808.0, 0.0659255011864587
809.0, 0.07304106216569603
810.0, 0.08497958325193913
811.0, 0.09600806089161937
812.0, 0.10818008222808144
813.0, 0.12503269903415587
814.0, 0.15097157305659023
815.0, 0.17810625558843524
816.0, 0.21520403204223984
817.0, 0.26368072887143346
818.0, 0.3176448567485875
819.0, 0.38557426030673436
820.0, 0.4587856102780962
821.0, 0.5200569498278782
822.0, 0.5554966757579225
823.0, 0.5691718727931743
824.0, 0.5402298054611145
825.0, 0.49079808532586566
826.0, 0.43410457797046015
827.0, 0.3835345190212872
828.0, 0.323277022248205
829.0, 0.2809393430402633
830.0, 0.24829878069305755
831.0, 0.21994919943120742
832.0, 0.19891217593654867
833.0, 0.1864175876112779
834.0, 0.17447571616568183
835.0, 0.16489325198800459
836.0, 0.16141719211961142
837.0, 0.16291846667242887
838.0, 0.1649499940461813
839.0, 0.169781428425703
840.0, 0.17747220424054835
841.0, 0.18571416508944497
842.0, 0.20236424376098466
843.0, 0.22137121692046371
844.0, 0.24453490014751927
845.0, 0.2745151494503707
846.0, 0.31808704185632974
847.0, 0.36571770876480353
848.0, 0.4369898080338626
849.0, 0.5274270690963383
850.0, 0.6219355240895836
851.0, 0.7157761776142826
852.0, 0.8320593099646705
853.0, 0.9260863406795942
854.0, 0.9785219976691318
855.0, 0.9984829663781167
856.0, 0.975173666279811
857.0, 0.8968402869556387
858.0, 0.7947644044681995
859.0, 0.698937891195545
860.0, 0.6004670950462985
861.0, 0.5015382852581414
862.0, 0.4239683510896818
863.0, 0.363835827971678
864.0, 0.3052702850629296
865.0, 0.26571056852397396
866.0, 0.23268670010694892
867.0, 0.20336621272427538
868.0, 0.17791727785509454
869.0, 0.1614992442077651
870.0, 0.1466702557686854
871.0, 0.1359652427151286
872.0, 0.12915018805405623
873.0, 0.1252380147062084
874.0, 0.12160390039760986
875.0, 0.12485698498588187
876.0, 0.13126290594441156
877.0, 0.14033985636212526
878.0, 0.15252883509591111
879.0, 0.17089943765950893
880.0, 0.17667621673795283
881.0, 0.1782640603861465
882.0, 0.17492618690721265
883.0, 0.15599731490300328
884.0, 0.13252913168340844
885.0, 0.11255518840413481
886.0, 0.09329007371413753
887.0, 0.07438613260029069
888.0, 0.06487958221374354
889.0, 0.05616005894348308
890.0, 0.04803808317629783
891.0, 0.04198008716709823
892.0, 0.03901511809600121
893.0, 0.03363555827659559
894.0, 0.031274985629793486
895.0, 0.02935708113251643
896.0, 0.027190616893816903
897.0, 0.024952770527316943
898.0, 0.024370886313083782
899.0, 0.022790566161472254
900.0, 0.021513362376886336
901.0, 0.020936454135360587
902.0, 0.02032689990928958
903.0, 0.01843507028940564
904.0, 0.017822669967566023
905.0, 0.017467000791899556
906.0, 0.016652815405079596
907.0, 0.016336136343855653
908.0, 0.0164458985416204
909.0, 0.016469258257609493
910.0, 0.01662169213875311
911.0, 0.01721443839019613
912.0, 0.01821402252414007
913.0, 0.019782593756912062
914.0, 0.022272009604754495
915.0, 0.025504049168352128
916.0, 0.029013111503647354
917.0, 0.03292750028461068
918.0, 0.03450042977022133
919.0, 0.033177867579772334
920.0, 0.029595316557433485
921.0, 0.025690265849312496
922.0, 0.021087438369877937
923.0, 0.017863703991199572
924.0, 0.01531317892697693
925.0, 0.01308123165057719
926.0, 0.011638334489650322
927.0, 0.010926727562401059
928.0, 0.009841461125868844
929.0, 0.008817072459716864
930.0, 0.0083000791971055
931.0, 0.008326493818752664
932.0, 0.007291109524618885
933.0, 0.006858799024717082
934.0, 0.0069126491931380705
935.0, 0.006906208446429638
936.0, 0.005999144241498614
937.0, 0.006672154323035799
938.0, 0.007154014100898322
939.0, 0.0069825963024995955
940.0, 0.006283156732407069
941.0, 0.006941347160794219
942.0, 0.0064863181594179056
943.0, 0.006515594373947976
944.0, 0.0070131741343616395
945.0, 0.006938494385440863
946.0, 0.007090916406811963
947.0, 0.007143589882587419
948.0, 0.007145294494149511
949.0, 0.007299025278758033
950.0, 0.008008499902713233
951.0, 0.0072816854755524555
952.0, 0.006892128113175743
953.0, 0.007160691941384603
954.0, 0.007749151775141682
955.0, 0.007225173737768316
956.0, 0.007543338553326482
957.0, 0.00760613015821442
958.0, 0.007349763976192445
959.0, 0.006978699770364195
960.0, 0.007213924348504281
961.0, 0.006628047007851939
962.0, 0.006304068567455418
963.0, 0.006207439273662162
964.0, 0.006148150026963286
965.0, 0.005862452441098252
966.0, 0.00518033842218362
967.0, 0.004888257837105099
968.0, 0.004670673548315301
969.0, 0.004195129523220941
970.0, 0.0040693535633026245
971.0, 0.00405926667276332
972.0, 0.0037788073242888123
973.0, 0.003346879142066896
974.0, 0.002972899132281938
975.0, 0.0025487335366666916
976.0, 0.002548808255066979
977.0, 0.0022001484391283876
978.0, 0.0019218095882431213
979.0, 0.002289406851549686
980.0, 0.0016283048473045112
981.0, 0.0017641196836145727
982.0, 0.001788079622919942
983.0, 0.0015093365779189094
984.0, 0.0010803223975065454
985.0, 0.0013709754820924753
986.0, 0.0015254119712630539
987.0, 0.0013980987007578027
988.0, 0.0013517187288594225
989.0, 0.0018653652981478787
990.0, 0.0011065768646342036
991.0, 0.0012337904301515635
992.0, 0.001381821816951578
993.0, 0.0012494568526861681
994.0, 0.000878162125586886
995.0, 0.0013104805441676638
996.0, 0.0009875390621414898
997.0, 0.0009070099278789196
998.0, 0.0012238330445456132
999.0, 0.0015742045189282214
1000.0, 0.001278266095473153
1001.0, 0.0011480784135663269
1002.0, 0.0010625287224562264
1003.0, 0.0008887946299421637
1004.0, 0.0005200623443271846
1005.0, 0.0008275134366975359
1006.0, 0.0008925363274075043
1007.0, 0.0007037504173685239
1008.0, 0.0005970920402781409
1009.0, 0.0010700274618218324
1010.0, 0.0007045159167214654
1011.0, 0.0005048208926209158
1012.0, 0.0005992669367880427
1013.0, 0.0006846984845749746
1014.0, 0.00025278710244165583
1015.0, 0.0005755590194620483
1016.0, 0.0007763770646522543
1017.0, 0.0008000924459150861
1018.0, 0.0007391918472409929
1019.0, 0.0007564866011695518
1020.0, 0.0005459041156843056
1021.0, 0.00049059115467798
1022.0, 0.0005159334321831774
1023.0, 0.0005233058271883515
1024.0, 0.0004201910111593202
1025.0, 0.00046574059744493323
1026.0, 0.00045487842696724523
1027.0, 0.00045732376494209446
1028.0, 0.0004735147757695658
1029.0, 0.00047253765649345116
1030.0, 0.00044546736667594217
1031.0, 0.0005342841433793531
1032.0, 0.0005344010352545113
1033.0, 0.00041398685671595163
1034.0, 0.00028768707096064915
1035.0, 0.0009081229181968643
1036.0, 0.00033343132411843654
1037.0, 0.00025212365522964624
1038.0, 0.0005802871278460843
1039.0, 0.0007171330983217983
1040.0, 0.000563846262833539
1041.0, 0.0006283297510533601
1042.0, 0.0005728936916869303
1043.0, 0.0005760430651397863
1044.0, 0.0007976393397835066
1045.0, 0.0006867320144112082
1046.0, 0.00031484222147062463
1047.0, 0.0007712137458985397
1048.0, 0.00105083595384254
1049.0, 0.00044587801074274055
1050.0, 0.0006312577648685987
1051.0, 0.0008165533933164675
1052.0, 0.0006834039963066517
1053.0, 0.000424946529400931
1054.0, 0.0002610120564070835
1055.0, 0.0003055376105591936
1056.0, 0.00011890442098887051
1057.0, 0.00028875818044697086
1058.0, 0.00033151567335222234
1059.0, 0.0001243881414410303
1060.0, 0.00030556970057604715
1061.0, 0.0002927155783528798
1062.0, 0.0004828993307301582
1063.0, 0.0004586922928278069
1064.0, 0.00025391703317218656
1065.0, 0.0004527750921247059
1066.0, 0.00031346045348390266
1067.0, 0.000271313488100661
1068.0, 0.0004246473054113002
1069.0, 0.0005871283408113923
1070.0, 0.00038872403477263194
1071.0, 0.0002187867548393607
1072.0, 0.0004657586646100788
1073.0, 0.00040043257198129674
1074.0, 0.00024260743736537882
1075.0, 0.0005244300439009556
1076.0, 0.0002684128343900675
1077.0, 0.0004299538499357034
1078.0, 0.00043864236146836435
1079.0, 0.000384007654124325
1080.0, 0.0004355470491676293
1081.0, 0.00016601727001581615
1082.0, 0.0004999434245097796
1083.0, 0.00044662832601366704
1084.0, 0.0003113625542174996
1085.0, 0.0003724748548820002
1086.0, 0.00023068359824423388
1087.0, 0.00012507849152962796
1088.0, 0.0003540259332663252
1089.0, 0.0004220535313422526
1090.0, 0.00020321978092012767
1091.0, 0.00022161525026038334
1092.0, 0.0006557598628321611
1093.0, 0.0006278532974764325
1094.0, 0.00035689792688439807
1095.0, 9.888675428918481e-05
1096.0, 8.837282613144721e-05
1097.0, 4.2602250465522356e-05
1098.0, 5.735755220650201e-05
1099.0, 0.0002552503730713007
1100.0, 0.0003674479969507037
1101.0, 9.044471612913764e-05
1102.0, 0.00014610376296247447
1103.0, 0.0007162789565749115
1104.0, 0.0005836450804093658
1105.0, 0.0001983100609418122
1106.0, 0.0001987593166452374
1107.0, 0.0005101683956795439
1108.0, 0.00014266847410019482
1109.0, 0.0004089943846051668
1110.0, 0.0006521539446033857
1111.0, 0.0005072283967797635
1112.0, 0.0004065070890310722
1113.0, 0.0002777941453335355
1114.0, 0.00054552367875368
1115.0, 0.00063884558179057
1116.0, 0.0005920211500919485
1117.0, 0.0008346395006598858
1118.0, 0.00013672785298183003
1119.0, 0.00038555856414221627
1120.0, 0.0005545711764360492
1121.0, 0.0005758444645439972
1122.0, 0.0007031255820040341
1123.0, 0.0009292935439405717
1124.0, 0.0005714299828738451
1125.0, 0.0007089851460628807
1126.0, 0.0008855316549049187
1127.0, 0.0007136011550563181
1128.0, 0.00048527168953328725
1129.0, 0.0010587020943153085
1130.0, 0.0012291404086605168
1131.0, 0.0008849200505814574
1132.0, 0.0005546157108958992
1133.0, 0.001167439193256235
1134.0, 0.0009953791628353936
1135.0, 0.001344714855854363
1136.0, 0.0012784334769558954
1137.0, 0.0010520910195620748
1138.0, 0.001238429605400023
1139.0, 0.0014194974174001856
1140.0, 0.0008897439062660814
1141.0, 0.0007675280119209706
1142.0, 0.0011437274825827593
1143.0, 0.0016889663115844567
1144.0, 0.0016299491952350188
1145.0, 0.0014042028802261923
1146.0, 0.0016993559794039118
1147.0, 0.001650747449462285
1148.0, 0.0014333196673294792
1149.0, 0.0019393062977709145
1150.0, 0.001909183870219562
1151.0, 0.001569165880061103
1152.0, 0.0014513064397939108
1153.0, 0.0016491898594685804
1154.0, 0.0019635832549008054
1155.0, 0.0017214215882266706
1156.0, 0.0016923484149148427
1157.0, 0.0016274223274460222
1158.0, 0.0017145908118351959
1159.0, 0.0019444759383966505
1160.0, 0.002001586982436719
1161.0, 0.0015544186220361438
1162.0, 0.001859662248176653
1163.0, 0.001916408273454405
1164.0, 0.0017541763301459974
1165.0, 0.0018668662693470733
1166.0, 0.002298986724901155
1167.0, 0.002039152070370453
1168.0, 0.0019035083952807885
1169.0, 0.001630304469733119
1170.0, 0.0012319197785997185
1171.0, 0.0015174998090562587
1172.0, 0.0017810588389559272
1173.0, 0.0013628902695733338
1174.0, 0.001445364433172163
1175.0, 0.001758685930361779
1176.0, 0.0013564497015521174
1177.0, 0.0017825639242368529
1178.0, 0.0018920040384281284
1179.0, 0.0014308951691625925
1180.0, 0.0013723263718596506
1181.0, 0.0019394339133805413
1182.0, 0.001219345488988663
1183.0, 0.0014502805343906064
1184.0, 0.001683380790432556
1185.0, 0.0018943201787349692
1186.0, 0.0017782703690930155
1187.0, 0.001076081330999268
1188.0, 0.0016467128824653315
1189.0, 0.0013133670622437789
1190.0, 0.0010571749902815075
1191.0, 0.0010087374829436432
1192.0, 0.0010794337766302565
1193.0, 0.0011618623461233735
1194.0, 0.0018467502314031359
1195.0, 0.0017641084187268417
1196.0, 0.0018220363486629225
1197.0, 0.0019502146838222384
1198.0, 0.001536605508423409
1199.0, 0.0016178371135278683
1200.0, 0.0019881237048211277
1201.0, 0.0020623212535747053
1202.0, 0.0019008476233617411
1203.0, 0.0017176659711093487
1204.0, 0.0017251525563312527
1205.0, 0.0020631877890088354
1206.0, 0.002033416007861583
1207.0, 0.0021049262034231637
1208.0, 0.002253004848144773
1209.0, 0.0022002349052782427
1210.0, 0.002008243466029691
1211.0, 0.0021942983557195228
1212.0, 0.0024138733469172965
1213.0, 0.0026735653475753744
1214.0, 0.0028178456734060313
1215.0, 0.0024377051047243465
1216.0, 0.002069828487410208
1217.0, 0.0023967816469194947
1218.0, 0.0027483612353324744
1219.0, 0.0026740585506158272
1220.0, 0.002198452171835034
1221.0, 0.002551909316444453
1222.0, 0.002490316848495518
1223.0, 0.0027941012561471185
1224.0, 0.0027428938063159343
1225.0, 0.0023763842229194186
1226.0, 0.0024975298532581417
1227.0, 0.0029997286323901803
1228.0, 0.0028372969396821663
1229.0, 0.002555388230251281
1230.0, 0.002680109168738191
1231.0, 0.0030915629709624857
1232.0, 0.002456610092254096
1233.0, 0.0025601258514639895
1234.0, 0.0023428028472190477
1235.0, 0.002177188823444695
1236.0, 0.0022204805299982596
1237.0, 0.0023101520555219445
1238.0, 0.001522919202856308
1239.0, 0.0017969771321893712
1240.0, 0.0022654543561192626
1241.0, 0.0020590800399465205
1242.0, 0.0014630953366775077
1243.0, 0.0017700109956994199
1244.0, 0.0013947414342534744
1245.0, 0.0013612928360528147
1246.0, 0.001743829020962899
1247.0, 0.0018896475603632113
1248.0, 0.001483669335946314
1249.0, 0.001273326633315177
1250.0, 0.0014945244299729044
1251.0, 0.0012983219595189082
1252.0, 0.0012189832071984683
1253.0, 0.0011841436806643499
1254.0, 0.0009755707617113952
1255.0, 0.0011204326739656797
1256.0, 0.0010964074116168925
1257.0, 0.0008925793938776739
1258.0, 0.0006978024203061796
1259.0, 0.0005775451960483871
1260.0, 0.0005268438434971406
1261.0, 0.0010851132270699255
1262.0, 0.0009559453204745025
1263.0, 0.0009714345019159404
1264.0, 0.0008579361578785399
1265.0, 0.0006245434343898178
1266.0, 0.0009076824653814976
1267.0, 0.0004922709820475338
1268.0, 0.0006631913066498107
1269.0, 0.0007525314342276577
1270.0, 0.0005667293225207811
1271.0, 0.00030267861250808534
1272.0, 0.000598068167551837
1273.0, 0.00044927201551992624
1274.0, 0.00020366426547670143
1275.0, 0.00017142965971488546
1276.0, 0.0002837851456296116
1277.0, 0.00028370103397688644
1278.0, 2.025801150770757e-05
1279.0, 0.0003695960959565507
1280.0, 0.000431783792092189
1281.0, 0.00023929204400731672
1282.0, 6.667811187947137e-05
1283.0, 0.00017519601210273138
1284.0, 8.29262354603643e-05
1285.0, 0.0004513215072399951
1286.0, 0.0005086852142960967
1287.0, 0.00033124132380718204
1288.0, 0.00033119391612086897
1289.0, 0.0009098700867643885
1290.0, 0.0005490400776609767
1291.0, 0.0003015639057243791
1292.0, 0.0003509089997299951
1293.0, 0.0004103155316199057
1294.0, 0.0003705451658405684
1295.0, 0.0004942741105511535
1296.0, 0.00042662143900845016
1297.0, 0.00034942523281174487
1298.0, 0.0002701578511385435
1299.0, 0.00021918589031472475
1300.0, 0.00018988122679835089
1301.0, 0.00011250976192820193
1302.0, 0.00046384198572222216
1303.0, 0.0002513056162811178
1304.0, 9.696948797190602e-05
1305.0, 8.204166545536502e-05
1306.0, 0.00010600537660742953
1307.0, 0.00017174650403586124
1308.0, 8.700521522014463e-05
1309.0, 0.00020832132911022952
1310.0, 0.0001775609670306618
1311.0, 0.00020542373977678994
1312.0, 0.000465027881675791
1313.0, 0.00031949025028144695
1314.0, 0.00013103844304507945
1315.0, 0.00022439903606169358
1316.0, 0.0002981768638306718
1317.0, 0.00022191378079514993
1318.0, 0.00011696546171901883
1319.0, 0.0004956897780660004
1320.0, 0.00026782118563782446
1321.0, 0.0001553051913509681
1322.0, 6.751213433277346e-05
1323.0, 0.00020098385505761058
1324.0, 0.0006172484407302438
1325.0, 0.00033883859458908267
1326.0, 0.0005355474773352018
1327.0, 0.0006314929871515645
1328.0, 0.000558396955258993
1329.0, 0.0004666517683845122
1330.0, 0.0005152008709337822
1331.0, 0.0004886268463132693
1332.0, 0.00044812899699480356
1333.0, 0.00044760920381394013
1334.0, 0.00044521052921116656
1335.0, 0.00047064620968740965
1336.0, 0.0005417370391800679
1337.0, 0.0004663787359793776
1338.0, 0.0006144441005647888
1339.0, 0.0006954500373451021
1340.0, 0.000515258318785397
1341.0, 0.000456176227189763
1342.0, 0.0008621612608342837
1343.0, 0.0008006201086861064
1344.0, 0.0005560863513289168
1345.0, 0.0005720172739878013
1346.0, 0.0005966900617885941
1347.0, 0.0007412170977171627
1348.0, 0.0010281268015539724
1349.0, 0.0005123973515907124
1350.0, 0.0006360535472477197
1351.0, 0.0011184473841375385
1352.0, 0.0011772468985462975
1353.0, 0.0009289039332145969
1354.0, 0.0007117751850337385
1355.0, 6.29388404139785e-05
1356.0, 3.547210360978425e-05
1357.0, 0.0005834045889272135
1358.0, 0.0008312046871802533
1359.0, 0.0008267826986990511
1360.0, 0.0009025426092137416
1361.0, 0.0009469568786602562
1362.0, 0.0010599847122389756
1363.0, 0.0009476332867017804
1364.0, 0.0008993252586090063
1365.0, 0.0006975754832550839
1366.0, 0.00037555554089538476
1367.0, 0.0007215684238023767
1368.0, 0.0004972013827110634
1369.0, 0.0003338306407141016
1370.0, 0.0005200753194141873
1371.0, 0.0006688983745454699
1372.0, 0.0006129101324089057
1373.0, 0.0007835083507443975
1374.0, 0.0006907880336677827
1375.0, 0.0007372360431710484
1376.0, 0.0006291279216204303
1377.0, 0.0005874570865692648
1378.0, 0.000719537216477379
1379.0, 0.0009166849349313657
1380.0, 0.001685578760372029
1381.0, 0.002778568298599293
1382.0, 0.0031264144897898334
1383.0, 0.003461043897836056
1384.0, 0.00354110956100836
1385.0, 0.0023938359969644983
1386.0, 0.0010578645129950127
1387.0, 0.000806981398811377
1388.0, 0.000610872909569904
1389.0, 0.0003908390946269121
1390.0, 0.00033701010930475785
1391.0, 0.0005373598872149829
1392.0, 0.0004064590540280551
1393.0, 0.0006062122240786395
1394.0, 0.0011374005337003662
1395.0, 0.000741974266961293
1396.0, 0.0004014491569313538
1397.0, 0.000915015639180025
1398.0, 0.0005081778985203062
1399.0, 0.00032405854600475986
1400.0, 0.00035784736410862276
1401.0, 0.0005175636985141377
1402.0, 0.0005978451904975076
1403.0, 0.0004602073102361606
1404.0, 0.0001677874886336652
1405.0, 0.0002654747527183471
1406.0, 0.000706989719762383
1407.0, 0.00041089417644042794
1408.0, 0.00040967347864442297
1409.0, 0.0007992171309663972
1410.0, 0.0007369281118719344
1411.0, 0.0008760690973988938
1412.0, 0.0005989779040187561
1413.0, 0.0005082197320719178
1414.0, 0.0003763405513238017
1415.0, 0.00027469418899164896
1416.0, 0.0003944980441256428
1417.0, 0.0006510588020018484
1418.0, 0.0005204110034661712
1419.0, 0.0007296308547459472
1420.0, 0.0007163377735505814
1421.0, 0.000630396940548516
1422.0, 0.0006108135643962702
1423.0, 0.0004201393136282653
1424.0, 0.000457374142181885
1425.0, 0.0004307578767005561
1426.0, 0.0005704573364290071
1427.0, 0.000611984502598642
1428.0, 0.0006311181639525603
1429.0, 0.0009021156320019452
1430.0, 0.0008773207786528477
1431.0, 0.0008429287192986036
1432.0, 0.0008441492148871762
1433.0, 0.0007419631740231077
1434.0, 0.0005351235457707229
1435.0, 0.0002962175861049665
1436.0, 8.653818052660489e-05
1437.0, 0.000466553334451586
1438.0, 0.00023904143189497598
1439.0, 0.000525771492433174
1440.0, 0.0006857807769471288
1441.0, 0.000537263923455403
1442.0, 0.0007551771850934194
1443.0, 0.00037981607666140406
1444.0, 0.00023447899960398123
1445.0, 0.00031549168905286765
1446.0, 0.00034745288014728117
1447.0, 0.00032754474033955326
1448.0, 0.00034476844892490405
1449.0, 0.0002200593508270293
1450.0, 0.00012540399262099924
1451.0, 0.0006207437729851405
1452.0, 0.0008153363088126262
1453.0, 0.0008562868390018317
1454.0, 0.0008327220449661963
1455.0, 0.0005158673129695061
1456.0, 0.0010371204181683113
1457.0, 0.000632653692216999
1458.0, 0.0004926333334668898
1459.0, 0.00043777481006075045
1460.0, 0.000390195438198094
1461.0, 0.00042809879343794427
1462.0, 0.0005609636556233176
1463.0, 0.00037682170004902824
1464.0, 0.00036414606238360526
1465.0, 0.0004167205716674175
1466.0, 0.0004242753191802159
1467.0, 0.00047767203083109555
1468.0, 0.0007273866879198432
1469.0, 0.0003739272951913002
1470.0, 0.0006754476683002851
1471.0, 0.0007094407913071237
1472.0, 0.0005472642066488766
1473.0, 0.0004217930959568367
1474.0, 0.00046880681795994283
1475.0, 0.0005512450744709862
1476.0, 0.0005381303050297916
1477.0, 0.0008111159351048478
1478.0, 0.0010630319023951932
1479.0, 0.0012100957345760582
1480.0, 0.001062927728565658
1481.0, 0.0005871287036389557
1482.0, 0.0008445571184113559
1483.0, 0.00039017145763342505
1484.0, 0.0005316008161125904
1485.0, 0.000734454677408157
1486.0, 0.000676847054925597
1487.0, 0.0005888505059905865
1488.0, 0.0010339408242641466
1489.0, 0.00049862819446456
1490.0, 0.0002740399219237724
1491.0, 0.0003975954067995505
1492.0, 0.0004040732781095802
1493.0, 0.00035104670833510025
1494.0, 0.0005659818833032428
1495.0, 0.001004968773717931
1496.0, 0.0006182878546682491
1497.0, 0.00038416109560489574
1498.0, 0.0005396659870154352
1499.0, 0.0004247580756164364
1500.0, 0.00024895003941209084
1501.0, 0.0006643802590109097
1502.0, 8.59180175294411e-05
1503.0, 0.00027525447871960156
1504.0, 0.0006066389050597135
1505.0, 0.0006488071531763983
1506.0, 0.0006601000826629255
1507.0, 0.0007745468066906983
1508.0, 0.0006910659788868881
1509.0, 0.000741342342096717
1510.0, 0.0007572287910917654
1511.0, 0.0005647498383440793
1512.0, 0.000453556209532295
1513.0, 0.00034366237694392085
1514.0, 0.00017205630255466315
1515.0, 0.000251023918287611
1516.0, 0.00031811386907504324
1517.0, 0.0003378780725883049
1518.0, 0.00013158406011584207
1519.0, 1.0370195409231856e-06
1520, 0.0
1521, 0.0
1522, 0.0
1523, 0.0
1524, 0.0
1525, 0.0
1526, 0.0
1527, 0.0
1528, 0.0
1529, 0.0
1530, 0.0
1531, 0.0
1532, 0.0
1533, 0.0
1534, 0.0
1535, 0.0
1536, 0.0
1537, 0.0
1538, 0.0
1539, 0.0
1540, 0.0
1541, 0.0
1542, 0.0
1543, 0.0
1544, 0.0
1545, 0.0
1546, 0.0
1547, 0.0
1548, 0.0
1549, 0.0
1550, 0.0
1551, 0.0
1552, 0.0
1553, 0.0
1554, 0.0
1555, 0.0
1556, 0.0
1557, 0.0
1558, 0.0
1559, 0.0
1560, 0.0
1561, 0.0
1562, 0.0
1563, 0.0
1564, 0.0
1565, 0.0
1566, 0.0
1567, 0.0
1568, 0.0
1569, 0.0
1570, 0.0
1571, 0.0
1572, 0.0
1573, 0.0
1574, 0.0
1575, 0.0
1576, 0.0
1577, 0.0
1578, 0.0
1579, 0.0
1580, 0.0
1581, 0.0
1582, 0.0
1583, 0.0
1584, 0.0
1585, 0.0
1586, 0.0
1587, 0.0
1588, 0.0
1589, 0.0
1590, 0.0
1591, 0.0
1592, 0.0
1593, 0.0
1594, 0.0
1595, 0.0
1596, 0.0
1597, 0.0
1598, 0.0
1599, 0.0
