30, 0.0
31, 0.0
32, 0.0
33, 0.0
34, 0.0
35, 0.0
36, 0.0
37, 0.0
38, 0.0
39, 0.0
40, 0.0
41, 0.0
42, 0.0
43, 0.0
44, 0.0
45, 0.0
46, 0.0
47, 0.0
48, 0.0
49, 0.0
50, 0.0
51, 0.0
52, 0.0
53, 0.0
54, 0.0
55, 0.0
56, 0.0
57, 0.0
58, 0.0
59, 0.0
60, 0.0
61, 0.0
62, 0.0
63, 0.0
64, 0.0
65, 0.0
66, 0.0
67, 0.0
68, 0.0
69, 0.0
70, 0.0
71, 0.0
72, 0.0
73, 0.0
74, 0.0
75, 0.0
76, 0.0
77, 0.0
78, 0.0
79, 0.0
80, 0.0
81, 0.0
82, 0.0
83, 0.0
84, 0.0
85, 0.0
86, 0.0
87, 0.0
88, 0.0
89, 0.0
90, 0.0
91, 0.0
92, 0.0
93, 0.0
94, 0.0
95, 0.0
96, 0.0
97, 0.0
98, 0.0
99, 0.0
100, 0.0
101, 0.0
102, 0.0
103, 0.0
104, 0.0
105, 0.0
106.0, 0.0010539257534265233
107.0, 0.007248993932299565
108.0, 0.020810037455731845
109.0, 0.025796226995205992
110.0, 0.030431040678755277
111.0, 0.035674296019059526
112.0, 0.043810474775444364
113.0, 0.05283992251693833
114.0, 0.0643775730148317
115.0, 0.07852920732874819
116.0, 0.08641532594917635
117.0, 0.09404770633240277
118.0, 0.09960282419395503
119.0, 0.09992008914473981
120.0, 0.1154470258799486
121.0, 0.1344623299132371
122.0, 0.15617096779865514
123.0, 0.18844123407570298
124.0, 0.222599919840507
125.0, 0.25628637964138484
126.0, 0.28742102437901973
127.0, 0.3073009535476189
128.0, 0.32238598670661645
129.0, 0.32854632979079346
130.0, 0.30533852909586856
131.0, 0.2915598263774373
132.0, 0.26714159721080716
133.0, 0.22127937879264556
134.0, 0.17568713622522966
135.0, 0.13643395147395965
136.0, 0.10437003898498282
137.0, 0.08323622173228598
138.0, 0.07017093864214109
139.0, 0.059291189813753316
140.0, 0.04925167193912547
141.0, 0.04075274915111626
142.0, 0.03581508169268419
143.0, 0.032827589878281
144.0, 0.03045184413708258
145.0, 0.03218359683878603
146.0, 0.03263369891969602
147.0, 0.03211180409308229
148.0, 0.035462851504589055
149.0, 0.03970853493988449
150.0, 0.04369618467440869
151.0, 0.046716119271878104
152.0, 0.05817112260688887
153.0, 0.06821253146533741
154.0, 0.07749973625090165
155.0, 0.08794036940927343
156.0, 0.10493856663917214
157.0, 0.11969261226505758
158.0, 0.12914050895880955
159.0, 0.12596185109069238
160.0, 0.12053313167904658
161.0, 0.11005272995240598
162.0, 0.0900534683750178
163.0, 0.06988158509082373
164.0, 0.055331592825754984
165.0, 0.04677387841118045
166.0, 0.04397279107095706
167.0, 0.0346632718234719
168.0, 0.02883950684226028
169.0, 0.03183637544433114
170.0, 0.02702965331663972
171.0, 0.02359710512431221
172.0, 0.02114995463273966
173.0, 0.019158646525710754
174.0, 0.012265862858274247
175.0, 0.005457663941033587
176.0, 0.0003852947988141819
177.0, 0.002409882784873914
178.0, 0.004729953071330813
179.0, 0.005461925957672904
180.0, 0.002823901468417135
181.0, 0.0010853324556386065
182.0, 0.004571045310622097
183.0, 0.009129112364754407
184.0, 0.002507036719288208
185.0, 0.006673696112869757
186.0, 0.007893689669332384
187.0, 0.0029330806491461594
188.0, 0.008954704002729557
189.0, 0.008555107050929557
190.0, 0.005240765189767177
191.0, 0.0021416927508155423
192.0, 0.013339878845117102
193.0, 0.016380723113075858
194.0, 0.013583773606552049
195.0, 0.020241872941482948
196.0, 0.023591210125584492
197.0, 0.021711336700387357
198.0, 0.014442642483890968
199.0, 0.02735655297534536
200.0, 0.02982641940558874
201.0, 0.02824788598886699
202.0, 0.030043725019201994
203.0, 0.04076066471396045
204.0, 0.05706972569286169
205.0, 0.07585349481126177
206.0, 0.08544572141987353
207.0, 0.0942986627648596
208.0, 0.10149400661983562
209.0, 0.10636696978552489
210.0, 0.10507712690947339
211.0, 0.09444469988735948
212.0, 0.07682470554953591
213.0, 0.05395078943607397
214.0, 0.04169301775957185
215.0, 0.031008376284972855
216.0, 0.020327519320784533
217.0, 0.007542291735598898
218.0, 0.002513383544774592
219.0, 0.0018423191454593289
220.0, 0.004425422302689437
221.0, 0.009326397634894497
222.0, 0.011661518493227229
223.0, 0.012063839415585061
224.0, 0.010955534095050457
225.0, 0.01262166263483095
226.0, 0.011460132198447793
227.0, 0.0077213425089033335
228.0, 0.004263337439529578
229.0, 0.0021868204852865795
230.0, 0.0019785531228632696
231.0, 0.004326784994495343
232.0, 0.015626878324797998
233.0, 0.022518314383477574
234.0, 0.03257517514977818
235.0, 0.05440521829120493
236.0, 0.08178880844500136
237.0, 0.10998256638846976
238.0, 0.13539661898205085
239.0, 0.14795290603176728
240.0, 0.15770480475136997
241.0, 0.16834479341308684
242.0, 0.17840357368524645
243.0, 0.16275436283687825
244.0, 0.14727981228780107
245.0, 0.13223302925999375
246.0, 0.11786555822344244
247.0, 0.11157092730953297
248.0, 0.11201491029953049
249.0, 0.1200627952775887
250.0, 0.1389191143816131
251.0, 0.16108661994961998
252.0, 0.19462656363891967
253.0, 0.24221004800213097
254.0, 0.3105638551875202
255.0, 0.4051917609208511
256.0, 0.5181143978696016
257.0, 0.6465681634001321
258.0, 0.7753852417042099
259.0, 0.8744384593880596
260.0, 0.9370519440187627
261.0, 0.9484885817598059
262.0, 0.8871994062528582
263.0, 0.7934742444797578
264.0, 0.6735155224544884
265.0, 0.531625526841966
266.0, 0.41597461416550935
267.0, 0.3223889166427367
268.0, 0.24931429365083596
269.0, 0.18661779212333196
270.0, 0.14217366894293357
271.0, 0.11086665164701393
272.0, 0.0906811533794484
273.0, 0.08067531988331833
274.0, 0.06462694399341899
275.0, 0.049784365956741135
276.0, 0.048085629972544286
277.0, 0.04251447090118543
278.0, 0.039569950618053004
279.0, 0.03829123198243501
280.0, 0.032363490305131526
281.0, 0.029494392867766624
282.0, 0.02597450817858684
283.0, 0.021787074296857674
284.0, 0.029598215047379334
285.0, 0.02992141001176095
286.0, 0.02917560057663565
287.0, 0.03187236683337737
288.0, 0.046949999246204105
289.0, 0.052495886877110806
290.0, 0.05722795860064096
291.0, 0.07547827196013132
292.0, 0.0827007662269904
293.0, 0.09609135208460506
294.0, 0.11313281478761646
295.0, 0.11830709818061681
296.0, 0.11987437894121758
297.0, 0.12288261702139472
298.0, 0.12767741869401866
299.0, 0.12393356035249449
300.0, 0.1285095894608485
301.0, 0.13187083705961547
302.0, 0.1283264639716675
303.0, 0.1416339099963718
304.0, 0.153974134115877
305.0, 0.165497346018048
306.0, 0.17628776635860027
307.0, 0.17925053253596235
308.0, 0.17305654386041022
309.0, 0.15948569305192398
310.0, 0.14234879543125406
311.0, 0.11753253346202991
312.0, 0.08996212930275285
313.0, 0.0628771032142858
314.0, 0.04832972152631236
315.0, 0.03324306597320142
316.0, 0.02273366892412027
317.0, 0.018646737225985612
318.0, 0.011456898568884644
319.0, 0.011440625262946274
320.0, 0.011954842926158801
321.0, 0.0076243557362503656
322.0, 0.01961918903890207
323.0, 0.027882431803218373
324.0, 0.03658677614147861
325.0, 0.05281999402141587
326.0, 0.0633389159213209
327.0, 0.0689640351861762
328.0, 0.06851650382827994
329.0, 0.05763666230257956
330.0, 0.04791979245492664
331.0, 0.037187049729192324
332.0, 0.02565558516825851
333.0, 0.01736360512656756
334.0, 0.012776104145724825
335.0, 0.008709932961597694
336.0, 0.004240064712050564
337.0, 0.004804403983364397
338.0, 0.0024050502012054015
339.0, 0.000610265730755083
340.0, 0.0021109014822237745
341.0, 0.0011912857780911044
342.0, 0.0039552407448427765
343.0, 0.005767051972571161
344.0, 0.0003759455510417148
345.0, 0.0036756301212256346
346.0, 0.00386295060784885
347.0, 0.003935936996278202
348.0, 0.012371002057124388
349.0, 0.014110848703207945
350.0, 0.013048562149503715
351.0, 0.0121966721301312
352.0, 0.020569718913854187
353.0, 0.03067081101732464
354.0, 0.037990617249211836
355.0, 0.04133654470613215
356.0, 0.041965299154717556
357.0, 0.04979767276011819
358.0, 0.05784205145153291
359.0, 0.06346940236146857
360.0, 0.07796011455826965
361.0, 0.08617419012985882
362.0, 0.09664272702063761
363.0, 0.1159719858486492
364.0, 0.13918589997600728
365.0, 0.16244353812589435
366.0, 0.1842014995346308
367.0, 0.2024396193505324
368.0, 0.20215093020479327
369.0, 0.1880640759579407
370.0, 0.16610723568951338
371.0, 0.14603467679667942
372.0, 0.1213171748959405
373.0, 0.09830078266990469
374.0, 0.07927212125141435
375.0, 0.06887123980060508
376.0, 0.06465778325460152
377.0, 0.057973587841909674
378.0, 0.04882434373847276
379.0, 0.04505084604513081
380.0, 0.03993448123795512
381.0, 0.034881435396863954
382.0, 0.031127724207317617
383.0, 0.034184965592292074
384.0, 0.032100828300158486
385.0, 0.02338466220966174
386.0, 0.008934154585670385
387.0, 0.012937984781134757
388.0, 0.010800282852069342
389.0, 0.007441906601018057
390.0, 0.0060797905201876125
391.0, 0.006936510093054318
392.0, 0.008666928585735565
393.0, 0.008065360731340072
394.0, 0.001997703425532237
395.0, 0.004179151234519675
396.0, 0.004117809763063794
397.0, 0.00340951867031378
398.0, 0.004269940324713981
399.0, 0.0019279424660656897
400.0, 0.0007995990423584782
401.0, 0.0005143377894834408
402.0, 7.745297343444881e-05
403.0, 0.0037070585210613252
404.0, 0.004231914329049768
405.0, 0.002521477254051373
406.0, 0.0021039608521140818
407.0, 0.0009116055223255855
408.0, 0.0034955344310626277
409.0, 0.007156133673655304
410.0, 0.0014472717042608532
411.0, 0.002073729352491891
412.0, 0.0027080782628327404
413.0, 0.002306672186207206
414.0, 0.0021280168167223997
415.0, 0.006849580297846372
416.0, 0.009330158620225766
417.0, 0.008446372807363843
418.0, 0.009162053413092407
419.0, 0.008284056990161654
420.0, 0.005561135585173051
421.0, 0.0014744148328852645
422.0, 0.0004581202861927151
423.0, 0.004654343594206299
424.0, 0.008893449974124688
425.0, 0.010730439338448366
426.0, 0.009101873077825246
427.0, 0.010734389057397776
428.0, 0.012350780904667425
429.0, 0.012430143561617278
430.0, 0.015048113770791748
431.0, 0.015105590712080579
432.0, 0.013870537005331104
433.0, 0.012307422175581216
434.0, 0.014536516173313327
435.0, 0.017195895282197244
436.0, 0.01683166207301248
437.0, 0.0107731707684502
438.0, 0.003943488354246495
439.0, 0.002627877870865822
440.0, 0.0036712607992809786
441.0, 0.0043082079954587455
442.0, 0.004895651449191108
443.0, 0.005484091611268023
444.0, 0.004844902338631533
445.0, 0.0016780953011500009
446.0, 0.003922348496295765
447.0, 0.006506054126121467
448.0, 0.007226540633602631
449.0, 0.0035288607207247247
450.0, 0.009544748072404956
451.0, 0.010394923275396149
452.0, 0.01118710240070017
453.0, 0.018935121444297643
454.0, 0.015128120094599216
455.0, 0.015205694713421923
456.0, 0.018994434928078955
457.0, 0.025596029281231208
458.0, 0.029501458900687613
459.0, 0.029513642464955463
460.0, 0.03127406977113665
461.0, 0.043336936602342044
462.0, 0.04721910168937502
463.0, 0.05517309168093453
464.0, 0.06772964939258896
465.0, 0.08482646767602059
466.0, 0.09710600352421779
467.0, 0.10828514482666142
468.0, 0.11879881949581647
469.0, 0.1289206469519012
470.0, 0.1434327565916546
471.0, 0.1537133305399141
472.0, 0.15695156033716662
473.0, 0.14915123970575614
474.0, 0.14407048642539508
475.0, 0.13880822752051664
476.0, 0.13466099952834637
477.0, 0.1342284621896072
478.0, 0.1351995473948374
479.0, 0.1374614714968669
480.0, 0.1412271319540654
481.0, 0.1469353401773066
482.0, 0.15435896501029506
483.0, 0.16511655055470234
484.0, 0.18541621910099623
485.0, 0.2256070419330244
486.0, 0.2567580471114446
487.0, 0.2831708041416325
488.0, 0.31005405587102236
489.0, 0.3451386858902424
490.0, 0.34966666078018693
491.0, 0.3450476670917991
492.0, 0.32998834016739675
493.0, 0.3002910732074914
494.0, 0.2528470974269043
495.0, 0.2151849871832486
496.0, 0.1835183897541903
497.0, 0.15075224718896024
498.0, 0.12686414700292717
499.0, 0.09928105712060309
500.0, 0.07637832130871484
501.0, 0.06966086266638286
502.0, 0.05926482973071838
503.0, 0.04501344286865286
504.0, 0.03450548963309807
505.0, 0.03664986940885367
506.0, 0.025859814031164198
507.0, 0.025505165398710478
508.0, 0.028015574666228504
509.0, 0.02510626936478245
510.0, 0.01591099993588789
511.0, 0.01094534521092788
512.0, 0.009753094969928003
513.0, 0.011757613848770805
514.0, 0.010187964540537657
515.0, 0.012230596777300944
516.0, 0.013060414853074723
517.0, 0.008885232967053956
518.0, 0.00393849190996205
519.0, 0.006356588119012285
520.0, 0.01030008967200641
521.0, 0.011438331814021561
522.0, 0.005951684931500468
523.0, 0.007468036688309307
524.0, 0.012365400954794332
525.0, 0.017776476783529005
526.0, 0.015574658367619574
527.0, 0.021068385320746324
528.0, 0.021477055462705816
529.0, 0.014087556404923533
530.0, 0.027349507630703623
531.0, 0.028576171802220263
532.0, 0.027979305992370068
533.0, 0.029453203223283396
534.0, 0.031776693806644773
535.0, 0.036532363921418246
536.0, 0.04059936301977669
537.0, 0.044347534191725956
538.0, 0.053882308291756546
539.0, 0.06133490737889343
540.0, 0.06660469897722052
541.0, 0.07245661296219973
542.0, 0.08830875916938632
543.0, 0.10969232043235494
544.0, 0.1309446147566809
545.0, 0.1540408489637531
546.0, 0.18689309897625705
547.0, 0.23850632801226604
548.0, 0.28980787315391154
549.0, 0.34697150479359856
550.0, 0.42721551707127164
551.0, 0.5148362016986613
552.0, 0.6151384340695569
553.0, 0.7173956549694089
554.0, 0.8049469155290435
555.0, 0.8667340710250067
556.0, 0.873435213993925
557.0, 0.8468287232864369
558.0, 0.8130507561316985
559.0, 0.7284134730243361
560.0, 0.6522879121986249
561.0, 0.5804426852913354
562.0, 0.5097353240405222
563.0, 0.4524587661948738
564.0, 0.41060919920008193
565.0, 0.38405499481506133
566.0, 0.3720807997324865
567.0, 0.3680736858197141
568.0, 0.37098563885442176
569.0, 0.3849763156246809
570.0, 0.41227032808945935
571.0, 0.4544894625584762
572.0, 0.49720484921890407
573.0, 0.552295355530533
574.0, 0.6216591867701382
575.0, 0.698123708399699
576.0, 0.772409951242638
577.0, 0.8386014790518627
578.0, 0.8858550340393003
579.0, 0.8891459431830047
580.0, 0.8597709324769425
581.0, 0.8116218608094398
582.0, 0.7457712386543726
583.0, 0.6610191486289523
584.0, 0.5813200516555437
585.0, 0.5024854209860719
586.0, 0.4283510340614653
587.0, 0.3636060288562555
588.0, 0.30565531614609676
589.0, 0.2586643583872738
590.0, 0.21904133006332804
591.0, 0.18417844812163203
592.0, 0.16326350878008097
593.0, 0.14321531590392728
594.0, 0.12613498424388633
595.0, 0.11282428249134774
596.0, 0.10076977769382565
597.0, 0.08564370058656696
598.0, 0.07317703632360004
599.0, 0.06540898155818564
600.0, 0.06243523787707447
601.0, 0.052148076917422334
602.0, 0.047050241748015795
603.0, 0.045186672232751454
604.0, 0.03531042183060633
605.0, 0.039241357969405574
606.0, 0.0442744133032362
607.0, 0.046315214246127105
608.0, 0.04126531154985851
609.0, 0.042134442756586614
610.0, 0.042281710278435934
611.0, 0.04022291389180769
612.0, 0.0351864214484781
613.0, 0.03855415281440241
614.0, 0.040103780574292834
615.0, 0.03978336192479092
616.0, 0.03900426283487386
617.0, 0.049355950480291934
618.0, 0.053084713615981376
619.0, 0.056204442968146605
620.0, 0.06072565431560916
621.0, 0.06582773463709538
622.0, 0.06879372953212602
623.0, 0.07225570558992703
624.0, 0.07425395891253604
625.0, 0.06910572405553428
626.0, 0.06555281062454323
627.0, 0.06333342318489894
628.0, 0.06118216108901413
629.0, 0.05745637371332906
630.0, 0.05353921066201795
631.0, 0.04774628106763008
632.0, 0.04166911552558135
633.0, 0.03701796442893226
634.0, 0.038871258317977234
635.0, 0.029149711640469072
636.0, 0.020164629387904424
637.0, 0.017315183797139373
638.0, 0.018711890157790182
639.0, 0.017459126499597154
640.0, 0.015804689093050685
641.0, 0.014588954158002841
642.0, 0.014533439690077839
643.0, 0.013411747385727646
644.0, 0.013212513570323542
645.0, 0.014312649458809326
646.0, 0.016893982096432655
647.0, 0.020835089386953175
648.0, 0.025460157480272198
649.0, 0.026363865401202148
650.0, 0.02151101764345072
651.0, 0.029670587612635982
652.0, 0.02834829155916791
653.0, 0.030137293892399653
654.0, 0.038195937761747935
655.0, 0.04104467577776065
656.0, 0.04129937146349675
657.0, 0.04620411082484686
658.0, 0.053712118483119665
659.0, 0.0554802924066313
660.0, 0.06911829369624192
661.0, 0.08892389572412578
662.0, 0.10894062400615118
663.0, 0.12319991469662617
664.0, 0.16757808024151802
665.0, 0.1940679061290061
666.0, 0.22591547989787378
667.0, 0.27656173266287737
668.0, 0.3316896793495312
669.0, 0.3854767685910351
670.0, 0.4362732796887398
671.0, 0.4766757230119383
672.0, 0.48522796365533843
673.0, 0.48730097139168194
674.0, 0.4511776357557322
675.0, 0.3911722200607864
676.0, 0.3366910653901281
677.0, 0.30336267763043406
678.0, 0.2564228437625885
679.0, 0.20881653178108436
680.0, 0.17211831374451725
681.0, 0.15149356212238957
682.0, 0.1299517616238262
683.0, 0.10862689254468705
684.0, 0.09027873126494397
685.0, 0.08347192465726276
686.0, 0.0683139318281696
687.0, 0.05772696889600305
688.0, 0.05422368887195478
689.0, 0.05812400182380401
690.0, 0.04681248694535165
691.0, 0.04498265793647359
692.0, 0.047450778227876335
693.0, 0.04891546923156747
694.0, 0.04929782720911377
695.0, 0.04646057465976701
696.0, 0.043665451032185866
697.0, 0.04163148617178509
698.0, 0.03801923008398781
699.0, 0.04624624819063168
700.0, 0.04981245254294834
701.0, 0.051086162112389075
702.0, 0.058440431510205136
703.0, 0.062252268270743746
704.0, 0.06356639580237418
705.0, 0.06615595421622775
706.0, 0.07148404771100803
707.0, 0.06504137065563846
708.0, 0.07960963212028419
709.0, 0.09111685737898798
710.0, 0.09482989666633941
711.0, 0.10336475902620369
712.0, 0.10340078798773336
713.0, 0.1018051383660829
714.0, 0.09932948245956079
715.0, 0.09579351428109471
716.0, 0.08443515175629569
717.0, 0.08556213500433633
718.0, 0.08194737136450751
719.0, 0.066521644860043
720.0, 0.06515626741985486
721.0, 0.05095802915087616
722.0, 0.04845127124727799
723.0, 0.05592626433929595
724.0, 0.05428596407814002
725.0, 0.048970761816568245
726.0, 0.05134439682470898
727.0, 0.055172085040531144
728.0, 0.053171212373393464
729.0, 0.04352206289615653
730.0, 0.05426555631015107
731.0, 0.06204885673135049
732.0, 0.06391074314046769
733.0, 0.08785420404140677
734.0, 0.09431973873791676
735.0, 0.10340690513264233
736.0, 0.11861869411437274
737.0, 0.1400940978946455
738.0, 0.14656861197512835
739.0, 0.14781095373978984
740.0, 0.1414439812182655
741.0, 0.12927462147241806
742.0, 0.13028192769556332
743.0, 0.11778705588160852
744.0, 0.10089155938091413
745.0, 0.08385586433800205
746.0, 0.07071962806161085
747.0, 0.06186110752431708
748.0, 0.05410947467923078
749.0, 0.04746085804463765
750.0, 0.04203658151958745
751.0, 0.03820340773831481
752.0, 0.034659061452811064
753.0, 0.027521671004228483
754.0, 0.019571138612454814
755.0, 0.022125038171873064
756.0, 0.027793415961288245
757.0, 0.024781268112958804
758.0, 0.018433953895806238
759.0, 0.015801172522223746
760.0, 0.015159456179585511
761.0, 0.0067253177322477995
762.0, 0.0038182511634738273
763.0, 0.007908918837201203
764.0, 0.003974397482432262
765.0, 0.014047970761862516
766.0, 0.011679785905366068
767.0, 0.004589222893718032
768.0, 0.006804818396838807
769.0, 0.011131607034416412
770.0, 0.0084285665327402
771.0, 0.005069360785850927
772.0, 0.00428750388555233
773.0, 0.00578030894365884
774.0, 0.0044254121290301434
775.0, 0.0029939988734211374
776.0, 0.0020560484329542553
777.0, 0.0018849419109423205
778.0, 0.008003053941434754
779.0, 0.005659978683482134
780.0, 0.002990657993361191
781.0, 0.003971369054425214
782.0, 0.006206593326987201
783.0, 0.00421913831603455
784.0, 0.006159590235227968
785.0, 0.007447603039424133
786.0, 0.00012492439723207536
787.0, 0.0017123583492652155
788.0, 0.0037746210388374633
789.0, 0.0033102455511227753
790.0, 0.0006101085793044825
791.0, 0.003509801710071361
792.0, 0.0057661630543745825
793.0, 0.003787369745059296
794.0, 0.0010830434373358556
795.0, 0.002975340356221799
796.0, 0.0012861283007932155
797.0, 0.0019385751279046314
798.0, 0.002710464161391448
799.0, 0.002495507942219338
800.0, 0.0015043627546466893
801.0, 0.00563627297612424
802.0, 0.0040397389520150755
803.0, 0.0013372170804832617
804.0, 0.004645082615713926
805.0, 0.005053114222091686
806.0, 0.002316214680265633
807.0, 0.00043420608511861834
808.0, 0.0006543483986460795
809.0, 0.0012434723115363816
810.0, 0.001347435855304036
811.0, 0.0015216591035017832
812.0, 0.0015445093898710158
813.0, 0.0015537724370047997
814.0, 0.0067436166529177746
815.0, 0.011843065335193057
816.0, 0.009491770240601983
817.0, 0.0035761797518822367
818.0, 0.009946110794397016
819.0, 0.007331079820630003
820.0, 0.007567902906230474
821.0, 0.007770202604345862
822.0, 0.005354626860711844
823.0, 0.0036878346025874115
824.0, 0.0039641415963263035
825.0, 0.004137663211473396
826.0, 0.003757337820385397
827.0, 0.0030115620230872953
828.0, 0.004558654114409844
829.0, 0.0025136745000006373
830.0, 0.0028577095259744254
831.0, 0.007122758302905709
832.0, 0.0049502240334352455
833.0, 0.00569083453271887
834.0, 0.0038478077764521903
835.0, 0.0021265272710614394
836.0, 0.0048489222517628695
837.0, 0.004316062979406841
838.0, 0.006509135897109978
839.0, 0.005687758320740569
840.0, 0.0017709462157988068
841.0, 0.0015754015286956594
842.0, 0.001980844251887538
843.0, 0.002370507829174493
844.0, 0.003147876989415402
845.0, 0.00421181982511595
846.0, 0.0017528568061210919
847.0, 0.003334141170717746
848.0, 0.003506664593435398
849.0, 0.0023534022587614013
850.0, 0.002586391546965712
851.0, 0.004469901277418255
852.0, 0.0040251996206977295
853.0, 0.00418952857312796
854.0, 0.0058204340977984865
855.0, 0.005617192054162689
856.0, 0.0033375219431212595
857.0, 0.001965444699977409
858.0, 0.0030355621360207453
859.0, 0.0074301640947028996
860.0, 0.012493199099633246
861.0, 0.007576728334985584
862.0, 0.004881982104033572
863.0, 0.007515721083803663
864.0, 0.013407062772368118
865.0, 0.006789014741532809
866.0, 0.011036142088563725
867.0, 0.011940586472758875
868.0, 0.0041436972671005925
869.0, 0.005040847677813768
870.0, 0.01588796584802205
871.0, 0.01161864190890839
872.0, 0.00513909203337537
873.0, 0.013413004338196585
874.0, 0.015327244581085274
875.0, 0.01805599997376364
876.0, 0.01883674404385019
877.0, 0.01669727814211284
878.0, 0.01166093746609925
879.0, 0.014040276432746947
880.0, 0.017029406576187213
881.0, 0.0187903873508406
882.0, 0.020064928030236837
883.0, 0.027636099694107387
884.0, 0.03587021219649242
885.0, 0.030485683163686363
886.0, 0.027708534771105926
887.0, 0.04186943844622033
888.0, 0.03756353975525494
889.0, 0.049270093021535656
890.0, 0.06537250849689893
891.0, 0.0787861682565094
892.0, 0.08356912247533717
893.0, 0.09522614348850728
894.0, 0.10523103493763722
895.0, 0.12641599816083485
896.0, 0.15721314593639624
897.0, 0.17528747340834064
898.0, 0.2058987656944241
899.0, 0.24991276711565197
900.0, 0.290052246605143
901.0, 0.3134465327537689
902.0, 0.3255738665948009
903.0, 0.3232039557270301
904.0, 0.2902074777124382
905.0, 0.24313510355022125
906.0, 0.2057508969995871
907.0, 0.1648022279385557
908.0, 0.15092713903845803
909.0, 0.13693444237804991
910.0, 0.11446289097790154
911.0, 0.08548276253089519
912.0, 0.09191486241418695
913.0, 0.09006198716819115
914.0, 0.09108516567797231
915.0, 0.09643656910258937
916.0, 0.09219443186250523
917.0, 0.09124881033628957
918.0, 0.09765465804153231
919.0, 0.10695835106595612
920.0, 0.11402136476959743
921.0, 0.11284339155727001
922.0, 0.10841342257568823
923.0, 0.10225869420121966
924.0, 0.09402373429275879
925.0, 0.08431700312116289
926.0, 0.08499922303156943
927.0, 0.07161630125026572
928.0, 0.06391554173570294
929.0, 0.058769191042928735
930.0, 0.04311968399727324
931.0, 0.044372206578310563
932.0, 0.044325013266605894
933.0, 0.04386624568323608
934.0, 0.04113187955980268
935.0, 0.03118378277971461
936.0, 0.04116654513119539
937.0, 0.04012928244411385
938.0, 0.04060015246744123
939.0, 0.0465948328562288
940.0, 0.044332033859315285
941.0, 0.04877965039850003
942.0, 0.0510226681146109
943.0, 0.047310185845612404
944.0, 0.03984575294343163
945.0, 0.050431541011874303
946.0, 0.05346325455754196
947.0, 0.053022763296790135
948.0, 0.055485351101552734
949.0, 0.06452078918074923
950.0, 0.062225651186346
951.0, 0.07287337785798337
952.0, 0.07635295885061003
953.0, 0.07388056983116131
954.0, 0.07415563011311718
955.0, 0.08182091808617112
956.0, 0.0882386132732724
957.0, 0.09717474491657233
958.0, 0.11053330176828122
959.0, 0.1290677944131231
960.0, 0.1478041391004098
961.0, 0.18082723665134726
962.0, 0.20499318881886577
963.0, 0.22885543905399178
964.0, 0.29144643057249325
965.0, 0.32921369401123174
966.0, 0.3807652380914813
967.0, 0.4461276802873217
968.0, 0.5144249688748632
969.0, 0.5584486561725116
970.0, 0.6931018879594938
971.0, 0.821735532428296
972.0, 0.9277251904525718
973.0, 0.9959544383648192
974.0, 0.9997318068383773
975.0, 0.8935501570908213
976.0, 0.7652135105085142
977.0, 0.6305372746162647
978.0, 0.4991657622483866
979.0, 0.3826343840423486
980.0, 0.31064297990673345
981.0, 0.25291497369201504
982.0, 0.20169567467705132
983.0, 0.15788560763221057
984.0, 0.14759009151348296
985.0, 0.12788539869694163
986.0, 0.10826885748296812
987.0, 0.09420769608891792
988.0, 0.08726613342144214
989.0, 0.07367514502060238
990.0, 0.07628520316999808
991.0, 0.07991524718508454
992.0, 0.07781857264741598
993.0, 0.06911110113313326
994.0, 0.07782675581390926
995.0, 0.07423122080660723
996.0, 0.0799489984260995
997.0, 0.08572686763506952
998.0, 0.07784745527852667
999.0, 0.08427437479898603
1000.0, 0.10421167610138578
1001.0, 0.11420411382209576
1002.0, 0.1285268192389275
1003.0, 0.16775839643431348
1004.0, 0.18096288310487174
1005.0, 0.21593385637972612
1006.0, 0.2646701738718029
1007.0, 0.32960759871132334
1008.0, 0.415366117144936
1009.0, 0.5151263410795022
1010.0, 0.6234454149817098
1011.0, 0.6994296603887564
1012.0, 0.737674485811933
1013.0, 0.7445552473924795
1014.0, 0.6645731449847618
1015.0, 0.5707185965700787
1016.0, 0.4763761917937284
1017.0, 0.3879437109981795
1018.0, 0.30931585359375
1019.0, 0.2509450195051011
1020.0, 0.20486543933923523
1021.0, 0.16635507170870684
1022.0, 0.13807936173979432
1023.0, 0.12312145416281672
1024.0, 0.0958358492235332
1025.0, 0.08858307748531986
1026.0, 0.07723909080818105
1027.0, 0.06541088978531977
1028.0, 0.06539960953307455
1029.0, 0.05206219463403618
1030.0, 0.04672563070273046
1031.0, 0.0403965358891238
1032.0, 0.03395598002531123
1033.0, 0.03104300363033836
1034.0, 0.02381140543780943
1035.0, 0.028219629156530493
1036.0, 0.03003103370138112
1037.0, 0.029770034143057233
1038.0, 0.032037083095885405
1039.0, 0.030707477753967403
1040.0, 0.0322960779103078
1041.0, 0.029087266060102188
1042.0, 0.023153510208723176
1043.0, 0.019135477496861307
1044.0, 0.01731940581370581
1045.0, 0.014936717307549835
1046.0, 0.021824052604451773
1047.0, 0.026435272585611347
1048.0, 0.01895491936249581
1049.0, 0.027453347399529204
1050.0, 0.028833033323982134
1051.0, 0.026818972958464988
1052.0, 0.021832041753116312
1053.0, 0.015873215767974052
1054.0, 0.019359646034961264
1055.0, 0.02089966566117872
1056.0, 0.01987000687657344
1057.0, 0.014849172165409671
1058.0, 0.009715892614684196
1059.0, 0.024474994453351044
1060.0, 0.019047216490753395
1061.0, 0.017465394745040934
1062.0, 0.019982758495176875
1063.0, 0.022637031837088574
1064.0, 0.017984737399627908
1065.0, 0.019959711012667827
1066.0, 0.019626477139010508
1067.0, 0.01758812207330278
1068.0, 0.015309728363835151
1069.0, 0.014543821835101037
1070.0, 0.01628264588451101
1071.0, 0.014882684451565641
1072.0, 0.010787132725326418
1073.0, 0.00544132403939092
1074.0, 0.001218928812311777
1075.0, 0.013174363615429108
1076.0, 0.009498738596273253
1077.0, 0.006336769022672807
1078.0, 0.008980977370370971
1079.0, 0.013742983346976453
1080.0, 0.008340016347925524
1081.0, 0.017097433160427316
1082.0, 0.014889910659727144
1083.0, 0.007438863685612191
1084.0, 0.01277826080991073
1085.0, 0.018598223010676776
1086.0, 0.014808306826448004
1087.0, 0.012096066610620028
1088.0, 0.011966159423965695
1089.0, 0.012668032082874744
1090.0, 0.010897789632753282
1091.0, 0.010327711291341532
1092.0, 0.014891706436281042
1093.0, 0.015034625017798522
1094.0, 0.006444186853056086
1095.0, 0.0065443732558811574
1096.0, 0.003143841804291331
1097.0, 0.008022989742839388
1098.0, 0.013263845703641391
1099.0, 0.012105015841848414
1100.0, 0.0028362037081203807
1101.0, 0.009253592498346742
1102.0, 0.01109930391360737
1103.0, 0.010250930177831307
1104.0, 0.011732544707596802
1105.0, 0.022179532343137274
1106.0, 0.028003462926106306
1107.0, 0.03306974300865919
1108.0, 0.04058384770582157
1109.0, 0.04292764337859284
1110.0, 0.03196871140795601
1111.0, 0.046370295973587654
1112.0, 0.037382871175103756
1113.0, 0.03638977363402975
1114.0, 0.03746600833168499
1115.0, 0.029125256802955878
1116.0, 0.021611602050552778
1117.0, 0.029662634230642113
1118.0, 0.024653572096214136
1119.0, 0.014846204683270749
1120.0, 0.010759482433851622
1121.0, 0.01661187710040015
1122.0, 0.014163074644689598
1123.0, 0.03374129902912617
1124.0, 0.04445861776470443
1125.0, 0.033875712894156654
1126.0, 0.012978198928061846
1127.0, 0.02359410515245425
1128.0, 0.01371028734899432
1129.0, 0.00927951538051619
1130.0, 0.01384634825433699
1131.0, 0.020886262615363534
1132.0, 0.039154197857748645
1133.0, 0.04181461662537133
1134.0, 0.02991054193949432
1135.0, 0.014860775927121452
1136.0, 0.008211818908447471
1137.0, 0.013730072099887143
1138.0, 0.012256364446408574
1139.0, 0.012557643211246501
1140.0, 0.01105457460355757
1141.0, 0.008456919469458271
1142.0, 0.012414922162312512
1143.0, 0.02603737736027966
1144.0, 0.013714383901882092
1145.0, 0.012079966285656826
1146.0, 0.02322590279918077
1147.0, 0.027548592154842767
1148.0, 0.01431352998408
1149.0, 0.01823299481415755
1150.0, 0.02331817111579691
1151.0, 0.022806009632375168
1152.0, 0.016413080828070376
1153.0, 0.015621985958833136
1154.0, 0.016611789403994066
1155.0, 0.01983029321014377
1156.0, 0.03023300496521302
1157.0, 0.03940104324945161
1158.0, 0.023447906721124765
1159.0, 0.021693737631713967
1160.0, 0.03462627867456684
1161.0, 0.038949094229721
1162.0, 0.03905406599114553
1163.0, 0.04950739018099939
1164.0, 0.04899729523179512
1165.0, 0.05405579596118838
1166.0, 0.06015024939882101
1167.0, 0.05861144963619556
1168.0, 0.05271649630632225
1169.0, 0.0739528955945758
1170.0, 0.08877713873581805
1171.0, 0.07996715388527681
1172.0, 0.08828054470900935
1173.0, 0.11183036023454344
1174.0, 0.11329116563736269
1175.0, 0.1364636272203703
1176.0, 0.1612539585240279
1177.0, 0.188679134825723
1178.0, 0.22415754661303872
1179.0, 0.2700272164564486
1180.0, 0.31380319972358584
1181.0, 0.3645134584770599
1182.0, 0.43923021655726335
1183.0, 0.5080268300204563
1184.0, 0.5577916739896548
1185.0, 0.6022609322476663
1186.0, 0.6159077059942508
1187.0, 0.5802317171315865
1188.0, 0.5283894594247244
1189.0, 0.46571694769894484
1190.0, 0.38697135371219854
1191.0, 0.29858031113627054
1192.0, 0.2632718130368236
1193.0, 0.2214121498898805
1194.0, 0.178898505467098
1195.0, 0.14827397486352473
1196.0, 0.13684384154154855
1197.0, 0.11880831209616322
1198.0, 0.09612039154773304
1199.0, 0.08032135982661968
1200.0, 0.06918326660167931
1201.0, 0.057738914533899725
1202.0, 0.0674613847469797
1203.0, 0.047234586780030945
1204.0, 0.04607628867247619
1205.0, 0.049715316431958284
1206.0, 0.043321345062404606
1207.0, 0.02822104681992147
1208.0, 0.023520804292168605
1209.0, 0.02123431541409213
1210.0, 0.019501074892649867
1211.0, 0.02134109568888314
1212.0, 0.028324134563416113
1213.0, 0.022685564952264037
1214.0, 0.012634197471489316
1215.0, 0.017280583432322784
1216.0, 0.01872576218584179
1217.0, 0.012495231685804855
1218.0, 0.018998097412876273
1219.0, 0.010433364865953327
1220.0, 0.005774941857186535
1221.0, 0.011606271559718292
1222.0, 0.019682686269545526
1223.0, 0.018649686453347462
1224.0, 0.01101105235449102
1225.0, 0.01769597390628651
1226.0, 0.015280257249453156
1227.0, 0.015208932797146399
1228.0, 0.020497084476062865
1229.0, 0.020685654848148494
1230.0, 0.004610300268654607
1231.0, 0.005800386922215932
1232.0, 0.01418665625824538
1233.0, 0.014151372439678974
1234.0, 0.00456443305956398
1235.0, 0.02591433052552228
1236.0, 0.010037004312761246
1237.0, 0.011435874278646355
1238.0, 0.010562911290655834
1239.0, 0.005534547752358637
1240.0, 0.009326966459389404
1241.0, 0.02101849123010288
1242.0, 0.009745891695506208
1243.0, 0.004899639543964098
1244.0, 0.007980609778539104
1245.0, 0.010910393714023128
1246.0, 0.0009243202335025699
1247.0, 0.009340447373774076
1248.0, 0.0133978024589015
1249.0, 0.01578324091655661
1250.0, 0.018829464352024938
1251.0, 0.022832454815878724
1252.0, 0.021901493343780436
1253.0, 0.02261623248925152
1254.0, 0.0328174316250716
1255.0, 0.03322634552035866
1256.0, 0.023222259815482305
1257.0, 0.020197099096774872
1258.0, 0.027013958464138635
1259.0, 0.01450308268017045
1260.0, 0.02113878526389243
1261.0, 0.029388025168288076
1262.0, 0.02148694578722381
1263.0, 0.0035468009683167143
1264.0, 0.026856396073770536
1265.0, 0.025336476682038304
1266.0, 0.017576934782935663
1267.0, 0.019962837305971252
1268.0, 0.036108803023803676
1269.0, 0.03512959921685252
1270.0, 0.05274778832062614
1271.0, 0.06194925179947019
1272.0, 0.05656204256963773
1273.0, 0.04858347205134439
1274.0, 0.054171566156787754
1275.0, 0.031618467950135384
1276.0, 0.04298698004713602
1277.0, 0.0374499133060297
1278.0, 0.019139200182532953
1279.0, 0.007424682023597217
1280.0, 0.02306982919899516
1281.0, 0.02011179280739115
1282.0, 0.012114860515691741
1283.0, 0.013567417694555148
1284.0, 0.01671206493719953
1285.0, 0.012854120418388095
1286.0, 0.007088446365723661
1287.0, 0.010875311523120282
1288.0, 0.009216906819903652
1289.0, 0.00447135065752075
1290.0, 0.0031147789250700227
1291.0, 0.008003525934851628
1292.0, 0.00404267296202724
1293.0, 0.0037903439761197435
1294.0, 0.0037244006721969427
1295.0, 0.0037811845706004345
1296.0, 0.003702275248987325
1297.0, 0.0033028849942616364
1298.0, 0.004494123427453375
1299.0, 0.005413536597733645
1300.0, 0.002579521051171367
1301.0, 0.003842902715770464
1302.0, 0.011450113078984967
1303.0, 0.018577158494352236
1304.0, 0.0067641050576584105
1305.0, 0.0062776559283011105
1306.0, 0.007676327466590136
1307.0, 0.006215886026079664
1308.0, 0.006565280969674274
1309.0, 0.022535977113296295
1310.0, 0.02526639286753663
1311.0, 0.010588629843593517
1312.0, 0.004044934941581195
1313.0, 0.008262831505086578
1314.0, 0.013411903639605227
1315.0, 0.0027787708546773877
1316.0, 0.012394706005762396
1317.0, 0.00939299908356154
1318.0, 0.006902279200733173
1319.0, 0.007963820502449518
1320.0, 0.009906178537368212
1321.0, 0.007787069734435233
1322.0, 0.014362609620026452
1323.0, 0.012607659865534105
1324.0, 0.007879079078407502
1325.0, 0.0035961302319394957
1326.0, 0.0034165517526479564
1327.0, 0.01571399128526334
1328.0, 0.0036795563240105845
1329.0, 0.011612975212142102
1330.0, 0.010801612775303344
1331.0, 0.00268205063829266
1332.0, 0.004856531232931231
1333.0, 0.01860894143725585
1334.0, 0.009239619611147543
1335.0, 0.007211251390500866
1336.0, 0.006530941247148722
1337.0, 0.005275888675598597
1338.0, 0.007526600251296657
1339.0, 0.023243459125552854
1340.0, 0.007616068188124848
1341.0, 0.0015833067224070667
1342.0, 0.004909486231644308
1343.0, 0.010137099494531525
1344.0, 0.009757298233617174
1345.0, 0.006815932717525178
1346.0, 0.02402174973135422
1347.0, 0.012325562846938778
1348.0, 0.008542800261994228
1349.0, 0.019446363603632534
1350.0, 0.02283623115377078
1351.0, 0.0031977319566734354
1352.0, 0.010790617416047728
1353.0, 0.005458473211494569
1354.0, 0.006077156070698306
1355.0, 0.017139530921844965
1356.0, 0.02510301908902212
1357.0, 0.008312285292665547
1358.0, 0.018127798855196782
1359.0, 0.019747342237281675
1360.0, 0.01236610351675392
1361.0, 0.008337602524090632
1362.0, 0.017663055435732825
1363.0, 0.011743201362032931
1364.0, 0.007663320482361372
1365.0, 0.016087168699422096
1366.0, 0.02187692774801983
1367.0, 0.02148015196096489
1368.0, 0.020305934294995914
1369.0, 0.01822547174557616
1370.0, 0.017443419743042067
1371.0, 0.02439787768679551
1372.0, 0.02420269479912891
1373.0, 0.01840861655557207
1374.0, 0.018311487604313607
1375.0, 0.028110721237643597
1376.0, 0.02261380070238695
1377.0, 0.027997844307008034
1378.0, 0.03509144288987789
1379.0, 0.04348846489543906
1380.0, 0.05990646785232141
1381.0, 0.09325652562443731
1382.0, 0.18458225189420194
1383.0, 0.2777327895783781
1384.0, 0.3342441351250334
1385.0, 0.3159834541881941
1386.0, 0.22244154598003565
1387.0, 0.12716823304259928
1388.0, 0.11423187464400598
1389.0, 0.07646523848280114
1390.0, 0.05490831196122877
1391.0, 0.047501874177292215
1392.0, 0.04010906981207788
1393.0, 0.029647868842048144
1394.0, 0.02629505406561343
1395.0, 0.030657493145252186
1396.0, 0.026090512633356783
1397.0, 0.02228346754716915
1398.0, 0.026583690506419802
1399.0, 0.03140139516030647
1400.0, 0.021869650352842305
1401.0, 0.03059909081995956
1402.0, 0.03256898093696134
1403.0, 0.03406668480406386
1404.0, 0.03594018167436563
1405.0, 0.029799440526118732
1406.0, 0.025597412823994803
1407.0, 0.019943253914330293
1408.0, 0.021612814175351634
1409.0, 0.019284541605075554
1410.0, 0.019177693592031204
1411.0, 0.031145127724507133
1412.0, 0.02157116855071777
1413.0, 0.005020136833681123
1414.0, 0.01833791181381563
1415.0, 0.021802346840384318
1416.0, 0.013998590588354136
1417.0, 0.011560074864114252
1418.0, 0.013858122753352027
1419.0, 0.004299477873202148
1420.0, 0.008604978969541035
1421.0, 0.015358406358652946
1422.0, 0.015250119384406643
1423.0, 0.010935166255603368
1424.0, 0.018637836570832695
1425.0, 0.016089989945195213
1426.0, 0.014408904514791192
1427.0, 0.022263004959271398
1428.0, 0.016948552571709012
1429.0, 0.004519931823815978
1430.0, 0.017096661863299934
1431.0, 0.02241873627534025
1432.0, 0.01033606676812141
1433.0, 0.017326016421139782
1434.0, 0.01854306452694089
1435.0, 0.010802898794311481
1436.0, 0.00966545138731317
1437.0, 0.024944549876301875
1438.0, 0.01675115032981371
1439.0, 0.0098255736086214
1440.0, 0.02031987138509128
1441.0, 0.025128690629268934
1442.0, 0.015242767389872524
1443.0, 0.029208432164543347
1444.0, 0.03459340964084675
1445.0, 0.02184514559600794
1446.0, 0.024238702486438432
1447.0, 0.02793790323447727
1448.0, 0.02366882744506649
1449.0, 0.020267257170825576
1450.0, 0.03257128257934
1451.0, 0.025473664902075605
1452.0, 0.017528901906838545
1453.0, 0.019366279443777747
1454.0, 0.0221276139045727
1455.0, 0.016826369231490255
1456.0, 0.021972446550342514
1457.0, 0.0321377002701511
1458.0, 0.01769749179330312
1459.0, 0.018511732797675096
1460.0, 0.026623953099835326
1461.0, 0.022578553996790866
1462.0, 0.0033570399172470934
1463.0, 0.026452250333300405
1464.0, 0.02085538217299572
1465.0, 0.022434297652289735
1466.0, 0.02846590563543471
1467.0, 0.023335894915722764
1468.0, 0.003640070547995815
1469.0, 0.014429571063288373
1470.0, 0.013530341636095462
1471.0, 0.00420912935868106
1472, 0.0
1473, 0.0
1474, 0.0
1475, 0.0
1476, 0.0
1477, 0.0
1478, 0.0
1479, 0.0
1480, 0.0
1481, 0.0
1482, 0.0
1483, 0.0
1484, 0.0
1485, 0.0
1486, 0.0
1487, 0.0
1488, 0.0
1489, 0.0
1490, 0.0
1491, 0.0
1492, 0.0
1493, 0.0
1494, 0.0
1495, 0.0
1496, 0.0
1497, 0.0
1498, 0.0
1499, 0.0
1500, 0.0
1501, 0.0
1502, 0.0
1503, 0.0
1504, 0.0
1505, 0.0
1506, 0.0
1507, 0.0
1508, 0.0
1509, 0.0
1510, 0.0
1511, 0.0
1512, 0.0
1513, 0.0
1514, 0.0
1515, 0.0
1516, 0.0
1517, 0.0
1518, 0.0
1519, 0.0
1520, 0.0
1521, 0.0
1522, 0.0
1523, 0.0
1524, 0.0
1525, 0.0
1526, 0.0
1527, 0.0
1528, 0.0
1529, 0.0
1530, 0.0
1531, 0.0
1532, 0.0
1533, 0.0
1534, 0.0
1535, 0.0
1536, 0.0
1537, 0.0
1538, 0.0
1539, 0.0
1540, 0.0
1541, 0.0
1542, 0.0
1543, 0.0
1544, 0.0
1545, 0.0
1546, 0.0
1547, 0.0
1548, 0.0
1549, 0.0
1550, 0.0
1551, 0.0
1552, 0.0
1553, 0.0
1554, 0.0
1555, 0.0
1556, 0.0
1557, 0.0
1558, 0.0
1559, 0.0
1560, 0.0
1561, 0.0
1562, 0.0
1563, 0.0
1564, 0.0
1565, 0.0
1566, 0.0
1567, 0.0
1568, 0.0
1569, 0.0
1570, 0.0
1571, 0.0
1572, 0.0
1573, 0.0
1574, 0.0
1575, 0.0
1576, 0.0
1577, 0.0
1578, 0.0
1579, 0.0
1580, 0.0
1581, 0.0
1582, 0.0
1583, 0.0
1584, 0.0
1585, 0.0
1586, 0.0
1587, 0.0
1588, 0.0
1589, 0.0
1590, 0.0
1591, 0.0
1592, 0.0
1593, 0.0
1594, 0.0
1595, 0.0
1596, 0.0
1597, 0.0
1598, 0.0
1599, 0.0
