30, 0.0
31, 0.0
32, 0.0
33, 0.0
34, 0.0
35, 0.0
36, 0.0
37, 0.0
38, 0.0
39, 0.0
40, 0.0
41, 0.0
42, 0.0
43, 0.0
44, 0.0
45, 0.0
46, 0.0
47, 0.0
48, 0.0
49, 0.0
50, 0.0
51, 0.0
52, 0.0
53, 0.0
54, 0.0
55, 0.0
56, 0.0
57, 0.0
58, 0.0
59, 0.0
60, 0.0
61, 0.0
62, 0.0
63, 0.0
64, 0.0
65, 0.0
66, 0.0
67, 0.0
68, 0.0
69, 0.0
70, 0.0
71, 0.0
72, 0.0
73, 0.0
74, 0.0
75, 0.0
76, 0.0
77, 0.0
78, 0.0
79, 0.0
80, 0.0
81, 0.0
82, 0.0
83, 0.0
84, 0.0
85, 0.0
86, 0.0
87, 0.0
88, 0.0
89, 0.0
90, 0.0
91, 0.0
92, 0.0
93, 0.0
94, 0.0
95, 0.0
96, 0.0
97, 0.0
98, 0.0
99, 0.0
100, 0.0
101, 0.0
102, 0.0
103, 0.0
104, 0.0
105, 0.0
106, 0.0
107, 0.0
108, 0.0
109, 0.0
110, 0.0
111, 0.0
112, 0.0
113, 0.0
114, 0.0
115, 0.0
116, 0.0
117, 0.0
118, 0.0
119, 0.0
120, 0.0
121, 0.0
122, 0.0
123, 0.0
124, 0.0
125, 0.0
126, 0.0
127, 0.0
128, 0.0
129, 0.0
130, 0.0
131, 0.0
132, 0.0
133, 0.0
134, 0.0
135, 0.0
136, 0.0
137, 0.0
138.0, 1.0792313331990637e-05
139.0, 8.626303593332348e-05
140.0, 0.002847713649298531
141.0, 0.0042461116370894275
142.0, 0.0018555486154203129
143.0, 0.003484869993539361
144.0, 0.0054236865638931315
145.0, 0.007660315794725453
146.0, 0.01039345423840001
147.0, 0.015077496020841826
148.0, 0.020092655391124335
149.0, 0.025217865545834058
150.0, 0.03364450759858299
151.0, 0.04118360297385934
152.0, 0.050477310103119406
153.0, 0.06514867821423975
154.0, 0.07744579053781135
155.0, 0.09110765009893294
156.0, 0.1053313576060878
157.0, 0.1136926039449916
158.0, 0.11684273918385746
159.0, 0.11432842762326427
160.0, 0.10507977085281368
161.0, 0.0856521306983645
162.0, 0.06775508957809859
163.0, 0.05143821125517984
164.0, 0.0368441477419577
165.0, 0.028957120385611667
166.0, 0.021859904213703665
167.0, 0.014395650043085087
168.0, 0.009761404010338212
169.0, 0.006791614400530227
170.0, 0.005069473994193884
171.0, 0.004470163829666241
172.0, 0.001684890702648553
173.0, 0.0010863557147632959
174.0, 0.0023838135744054514
175.0, 0.0034648994280594373
176.0, 0.003337713245580688
177.0, 0.0034860991732735703
178.0, 0.004520606032376855
179.0, 0.005723735512344775
180.0, 0.007378281421024824
181.0, 0.009802833669442793
182.0, 0.013669546157302157
183.0, 0.014232879069644603
184.0, 0.014573644427833286
185.0, 0.015644830888105633
186.0, 0.02035075720971188
187.0, 0.02200732546234738
188.0, 0.02372883167122762
189.0, 0.027300867468602625
190.0, 0.026182724075835016
191.0, 0.027960941770655952
192.0, 0.03138527395979209
193.0, 0.03413803617783395
194.0, 0.03224307130392671
195.0, 0.030255829861186287
196.0, 0.028413287824046903
197.0, 0.021328129724664385
198.0, 0.017675757442803395
199.0, 0.01519656109228523
200.0, 0.012475833888275707
201.0, 0.013145678739873405
202.0, 0.013359575977140447
203.0, 0.013268650003154997
204.0, 0.01344480484293322
205.0, 0.014268277752328173
206.0, 0.01567200591138125
207.0, 0.017228029647679177
208.0, 0.01505376813569722
209.0, 0.014183318526250812
210.0, 0.012551166235842941
211.0, 0.008431582789480165
212.0, 0.006440781164794239
213.0, 0.0036606163860182315
214.0, 0.0014312848177949291
215.0, 0.0033870175086536
216.0, 0.0015657976350686943
217.0, 0.0003290255476959666
218.0, 0.0005223433087213527
219.0, 0.000209029575622368
220.0, 0.0006263016462092817
221.0, 0.0015568245130512474
222.0, 0.0029177830099560414
223.0, 0.0030380784217897143
224.0, 0.002887374134002522
225.0, 0.002749923443157234
226.0, 0.003194669225212752
227.0, 0.0021415600155181473
228.0, 0.0018277493409084686
229.0, 0.0030032444900498106
230.0, 0.0076086038714551
231.0, 0.010318521812823904
232.0, 0.014846108046954312
233.0, 0.023694006830608728
234.0, 0.032117908070389674
235.0, 0.04325489986723514
236.0, 0.05738467500674596
237.0, 0.07551994455422277
238.0, 0.09075704503673422
239.0, 0.10146444817506765
240.0, 0.10762777647678778
241.0, 0.11030117748368143
242.0, 0.1026730651967788
243.0, 0.09284053428154561
244.0, 0.0842901536063692
245.0, 0.0738480215778634
246.0, 0.06939937346941295
247.0, 0.06912722806916685
248.0, 0.07150822982870719
249.0, 0.07541507361018114
250.0, 0.0866894290521715
251.0, 0.10431927091892301
252.0, 0.12408791547059789
253.0, 0.15453522332509947
254.0, 0.19253289528856785
255.0, 0.2371715646214173
256.0, 0.28529574482907416
257.0, 0.33019781806128806
258.0, 0.367133453660644
259.0, 0.39131840757578096
260.0, 0.39323896881348785
261.0, 0.36537449359169305
262.0, 0.3164680483644121
263.0, 0.2604501667563918
264.0, 0.20555724008750936
265.0, 0.1597343732585414
266.0, 0.12444286340254222
267.0, 0.10064743266648644
268.0, 0.08093173975243001
269.0, 0.0675312013437989
270.0, 0.061350435538391784
271.0, 0.05140623124371281
272.0, 0.04959906317673235
273.0, 0.05075877830539576
274.0, 0.049987137496863794
275.0, 0.0504108610452427
276.0, 0.05190992807696969
277.0, 0.05621563297753508
278.0, 0.067965252531196
279.0, 0.07394729373142174
280.0, 0.07994286920312273
281.0, 0.08717474302801319
282.0, 0.09576575216807666
283.0, 0.09538754291765766
284.0, 0.09668730740675252
285.0, 0.10460140483417192
286.0, 0.1095814265860759
287.0, 0.12324988476525248
288.0, 0.1440872639248065
289.0, 0.17148486896066006
290.0, 0.1991684733578201
291.0, 0.23391676093054445
292.0, 0.2733205841827524
293.0, 0.3114437226086531
294.0, 0.3359989010125754
295.0, 0.3514242614582261
296.0, 0.3557670559396302
297.0, 0.3342457109549165
298.0, 0.30951348407849016
299.0, 0.28145079721786165
300.0, 0.2503676759376072
301.0, 0.22597101997796093
302.0, 0.20528343443897965
303.0, 0.18647761189327738
304.0, 0.1681363814570184
305.0, 0.1574592161834417
306.0, 0.1468851389718115
307.0, 0.13475901584753672
308.0, 0.1182405031935234
309.0, 0.09889476417610664
310.0, 0.08312263426002632
311.0, 0.07019844160604269
312.0, 0.05442088978654994
313.0, 0.046559817478006686
314.0, 0.03903794178094153
315.0, 0.030289520485280667
316.0, 0.026511310306351343
317.0, 0.026370899809834196
318.0, 0.025798635311633896
319.0, 0.022574052554252634
320.0, 0.02643632149591277
321.0, 0.02908971320640562
322.0, 0.03181207334834225
323.0, 0.03607097349650191
324.0, 0.040655551076843474
325.0, 0.04852743831741386
326.0, 0.058265781948089096
327.0, 0.06674412308247708
328.0, 0.08541260200042985
329.0, 0.09743742013242421
330.0, 0.09985138115857022
331.0, 0.0909978069381159
332.0, 0.0757103151090172
333.0, 0.059706771961111405
334.0, 0.044886972205942455
335.0, 0.03218300592505238
336.0, 0.02602819406149694
337.0, 0.02117468657605794
338.0, 0.015008280353680264
339.0, 0.014926994957133762
340.0, 0.013027094556149197
341.0, 0.010366536155930575
342.0, 0.007921968027961657
343.0, 0.009400571770448058
344.0, 0.010181320736680426
345.0, 0.010801332388945404
346.0, 0.012425653159204294
347.0, 0.01122228185118317
348.0, 0.010627937723667581
349.0, 0.011446522383177697
350.0, 0.015004809346759334
351.0, 0.015559412035249383
352.0, 0.017088107588005635
353.0, 0.019525797331489292
354.0, 0.018106616089639097
355.0, 0.018839690368332614
356.0, 0.02016995480358103
357.0, 0.021346224766531627
358.0, 0.02051708432861584
359.0, 0.0220497272178875
360.0, 0.022956464829979473
361.0, 0.021520881837251763
362.0, 0.02202503581163694
363.0, 0.023578129100693318
364.0, 0.025539874114354082
365.0, 0.02732288641792244
366.0, 0.026381244523159708
367.0, 0.02705277676245583
368.0, 0.026880614402218506
369.0, 0.021906302641422598
370.0, 0.0211419728045899
371.0, 0.017636554813766813
372.0, 0.013524947934038845
373.0, 0.015019650215499768
374.0, 0.008397853178360861
375.0, 0.005244389277879251
376.0, 0.006210303150434342
377.0, 0.0073008068272107565
378.0, 0.0056885979585316266
379.0, 0.004854947980248754
380.0, 0.005016488238350951
381.0, 0.002384725889053049
382.0, 0.0012277251473410912
383.0, 0.0016513175284752078
384.0, 0.003198856184638229
385.0, 0.0007828179191161171
386.0, 0.0011546991310997779
387.0, 0.0016424855151430033
388.0, 0.0008819889074521794
389.0, 0.0012905619316521178
390.0, 0.002344009280486468
391.0, 0.0032756772886213337
392.0, 0.003476964392796359
393.0, 0.002908929110146213
394.0, 0.003214400642804669
395.0, 0.0036607819385719646
396.0, 0.003439394062917167
397.0, 0.003980100493331852
398.0, 0.004211397243929489
399.0, 0.00469460857030299
400.0, 0.006354432370398179
401.0, 0.004137748718937159
402.0, 0.0037158463727878788
403.0, 0.0039505591073962605
404.0, 0.0017055322424922668
405.0, 0.002975805167875586
406.0, 0.002964443100382288
407.0, 0.0022557046837125157
408.0, 0.0040010528599945154
409.0, 0.002145477474309608
410.0, 0.0006128145156272124
411.0, 0.0004264894479399032
412.0, 0.002718865593934065
413.0, 0.003702933357242082
414.0, 0.005533867663532558
415.0, 0.008116664381528589
416.0, 0.008474981795312694
417.0, 0.013788961918910235
418.0, 0.018517569600392983
419.0, 0.021252366287241052
420.0, 0.024357694281217493
421.0, 0.03526458031873627
422.0, 0.04576496473428662
423.0, 0.05405878355254458
424.0, 0.07307266362049726
425.0, 0.09487035974901406
426.0, 0.11667221022554823
427.0, 0.13651946172784277
428.0, 0.14770861203110508
429.0, 0.15131569775319778
430.0, 0.1438238812451175
431.0, 0.12321358909154291
432.0, 0.09971720959142538
433.0, 0.08365575196797173
434.0, 0.07119345596022399
435.0, 0.059666593794005164
436.0, 0.04679638521964177
437.0, 0.03901158503474247
438.0, 0.03425266493205462
439.0, 0.0309035009845914
440.0, 0.029510544012821195
441.0, 0.025523907393806455
442.0, 0.02114588932561147
443.0, 0.01848124532796503
444.0, 0.019693750889474233
445.0, 0.023199247522712477
446.0, 0.024532312792035472
447.0, 0.01872927650379919
448.0, 0.022648643348847333
449.0, 0.025191841084277314
450.0, 0.026276525906737132
451.0, 0.026000038302320373
452.0, 0.032396692146074706
453.0, 0.03806057253751111
454.0, 0.0439956593079441
455.0, 0.05187081558562773
456.0, 0.047545798518814214
457.0, 0.042867448871475526
458.0, 0.0375936072397784
459.0, 0.030587418750735798
460.0, 0.02462671560909291
461.0, 0.02032103889394695
462.0, 0.01710322733159364
463.0, 0.014106403947494128
464.0, 0.012894713087621077
465.0, 0.013363785770955627
466.0, 0.013728185475680369
467.0, 0.01113613897560048
468.0, 0.01465363845938782
469.0, 0.015425326908411016
470.0, 0.01328965657694209
471.0, 0.008840938402512804
472.0, 0.015527657372415815
473.0, 0.015904697629675515
474.0, 0.014220889772202594
475.0, 0.019640688247792776
476.0, 0.014709031269641131
477.0, 0.01221084836600517
478.0, 0.012311934281562386
479.0, 0.013811608428285174
480.0, 0.016342249706968428
481.0, 0.016926683669056114
482.0, 0.016230607006201304
483.0, 0.015661592469985525
484.0, 0.019065578255901897
485.0, 0.020481511967854426
486.0, 0.021583059500007305
487.0, 0.025713562300912863
488.0, 0.026341834337964196
489.0, 0.029478840613205236
490.0, 0.031833081689684586
491.0, 0.02772080697521146
492.0, 0.023038958984405424
493.0, 0.018085131198947068
494.0, 0.014276522478119178
495.0, 0.013667997030477042
496.0, 0.010705526423775119
497.0, 0.00856029559069027
498.0, 0.0067738100185631344
499.0, 0.004536768977017886
500.0, 0.00383923493168233
501.0, 0.0025125316745673344
502.0, 0.0014755435394982908
503.0, 0.0019493207377436444
504.0, 0.002295295766164348
505.0, 0.0015671309976075382
506.0, 0.0015556456566093555
507.0, 0.004262741762840356
508.0, 0.0019474591856540855
509.0, 0.0012526890009131157
510.0, 0.0011712083070809281
511.0, 0.0006850835847117662
512.0, 0.0034950436581773618
513.0, 0.004323632548467556
514.0, 0.0033443427063252766
515.0, 0.0009567592445002132
516.0, 0.005672840037250767
517.0, 0.006407081230259805
518.0, 0.00582596298052644
519.0, 0.005998904923887211
520.0, 0.008174459489227353
521.0, 0.009342692404303153
522.0, 0.011242045635979659
523.0, 0.0146687950533422
524.0, 0.015214544114522294
525.0, 0.01632286032561498
526.0, 0.018742843854506103
527.0, 0.022545647473722827
528.0, 0.0245030029078739
529.0, 0.027396049704183262
530.0, 0.03025640471942549
531.0, 0.033007250114826275
532.0, 0.0380508146645327
533.0, 0.04238262530464354
534.0, 0.04524532134322708
535.0, 0.04791703392424791
536.0, 0.05830473172182822
537.0, 0.06573577559416244
538.0, 0.07389260215985922
539.0, 0.08391342313984951
540.0, 0.0961001355254319
541.0, 0.1159507575092556
542.0, 0.1343374596145418
543.0, 0.15329354904001208
544.0, 0.18475971422981927
545.0, 0.21312901300728646
546.0, 0.255007018514525
547.0, 0.31146513658698854
548.0, 0.3792238978288619
549.0, 0.459647789585195
550.0, 0.5521267602092845
551.0, 0.659620293062029
552.0, 0.7875621418362417
553.0, 0.9347893856262032
554.0, 0.99494430603511
555.0, 0.9974754915512283
556.0, 0.9891711874434259
557.0, 0.9343949409125494
558.0, 0.8661959956947977
559.0, 0.7826094958579489
560.0, 0.6822716896062402
561.0, 0.6047496857767999
562.0, 0.5345812127403811
563.0, 0.47713334048624156
564.0, 0.4352171625988325
565.0, 0.3933372254778491
566.0, 0.36845975867216474
567.0, 0.35113925516727673
568.0, 0.3368847689533086
569.0, 0.3293583966366831
570.0, 0.3350596226703391
571.0, 0.34975201629194813
572.0, 0.37046599977013506
573.0, 0.39043811358072755
574.0, 0.4210882830501182
575.0, 0.4552004524534267
576.0, 0.48740831281653907
577.0, 0.5067383402007525
578.0, 0.5054593445901457
579.0, 0.4887576561398048
580.0, 0.45823242196033975
581.0, 0.41525102321052315
582.0, 0.372656108253835
583.0, 0.322975943948977
584.0, 0.2745571708651229
585.0, 0.24027535489318913
586.0, 0.20113134098811133
587.0, 0.1702730220823647
588.0, 0.1475541249444996
589.0, 0.1320937035684055
590.0, 0.11658785937452026
591.0, 0.10520298834762848
592.0, 0.09466843094438498
593.0, 0.08284377129451444
594.0, 0.07046181794436257
595.0, 0.06454192392371438
596.0, 0.06178077454140159
597.0, 0.05944035209009017
598.0, 0.050618485922625356
599.0, 0.04668635940209764
600.0, 0.04366630090457583
601.0, 0.04114637789662473
602.0, 0.04124684629078394
603.0, 0.03759631702552827
604.0, 0.0346884357125189
605.0, 0.03295472281959094
606.0, 0.031878868710549256
607.0, 0.0329082778201697
608.0, 0.0325171930388793
609.0, 0.030971198606440258
610.0, 0.02893229751886172
611.0, 0.03311963846254882
612.0, 0.032747885754660346
613.0, 0.031357146041550564
614.0, 0.03190832731234211
615.0, 0.03623405233938441
616.0, 0.03740201184279886
617.0, 0.0405141865321692
618.0, 0.04695724613250701
619.0, 0.050756543428188076
620.0, 0.05415271962971882
621.0, 0.056408785229454105
622.0, 0.05690268342034279
623.0, 0.05437286089500899
624.0, 0.05694872675672148
625.0, 0.05405863271120119
626.0, 0.04965105188959944
627.0, 0.053179657811832204
628.0, 0.04056361265664482
629.0, 0.037687116255251486
630.0, 0.03683395006716643
631.0, 0.029094284653451433
632.0, 0.025737978495589092
633.0, 0.023957051737561963
634.0, 0.022014536034906978
635.0, 0.0192520791655273
636.0, 0.018908012711857516
637.0, 0.016512606418802592
638.0, 0.015084810606425155
639.0, 0.014729349419342789
640.0, 0.012061618148022583
641.0, 0.014289156268321643
642.0, 0.01666251939820607
643.0, 0.017476988504286025
644.0, 0.015067479307818387
645.0, 0.012767500147034101
646.0, 0.018311414768033493
647.0, 0.023592813881499135
648.0, 0.019877624581577703
649.0, 0.023131107174309565
650.0, 0.02380402248481379
651.0, 0.024821258564501764
652.0, 0.0276835684711287
653.0, 0.030277283830874323
654.0, 0.038140649564519596
655.0, 0.04203049397143758
656.0, 0.04270746458633989
657.0, 0.052113093160717425
658.0, 0.05614160907658312
659.0, 0.06389260936771997
660.0, 0.07706599681718493
661.0, 0.09610072352137385
662.0, 0.11255444718014629
663.0, 0.13099153108891173
664.0, 0.15539351484640027
665.0, 0.18921063738773714
666.0, 0.23508250894714766
667.0, 0.2759828819804615
668.0, 0.3227127479497609
669.0, 0.37465410090230017
670.0, 0.40509102529946517
671.0, 0.42605324542066
672.0, 0.41968393404103443
673.0, 0.38889250458231384
674.0, 0.3490099274678888
675.0, 0.30232050124973775
676.0, 0.25537931710391
677.0, 0.21166106972375434
678.0, 0.17451723973476393
679.0, 0.14822043966046297
680.0, 0.12158432564949666
681.0, 0.10083802421989546
682.0, 0.08802576058053331
683.0, 0.07447843541788628
684.0, 0.06630632940165876
685.0, 0.06056120460858704
686.0, 0.05595197747221384
687.0, 0.05122772543903284
688.0, 0.04734014101022119
689.0, 0.04430775198537552
690.0, 0.041226922350869645
691.0, 0.03715514982147564
692.0, 0.038242337210187494
693.0, 0.03609775573211829
694.0, 0.03412742801360146
695.0, 0.03453519931934879
696.0, 0.03810165886030678
697.0, 0.034528956740828655
698.0, 0.033679468411495765
699.0, 0.03632589059169866
700.0, 0.03778188227009668
701.0, 0.04064640462861685
702.0, 0.04474864218952674
703.0, 0.049221462202355834
704.0, 0.0532044516245629
705.0, 0.060305251960451355
706.0, 0.06709203698731604
707.0, 0.07461100116418239
708.0, 0.08295621197960429
709.0, 0.08971358855958961
710.0, 0.09644234673847923
711.0, 0.10404396232690244
712.0, 0.10980773024080556
713.0, 0.10782605810355096
714.0, 0.11125037300179882
715.0, 0.11685400384326511
716.0, 0.11687771321655631
717.0, 0.1059415252749332
718.0, 0.10587288053219933
719.0, 0.09616377616159051
720.0, 0.08796675611678212
721.0, 0.08648423464068272
722.0, 0.0933018845271993
723.0, 0.09246934614095172
724.0, 0.09279781976840766
725.0, 0.09343696041704594
726.0, 0.09110273700433448
727.0, 0.08247636071941523
728.0, 0.07548433436156826
729.0, 0.06759197218973018
730.0, 0.05823581824898051
731.0, 0.05536405207042592
732.0, 0.05221225899217818
733.0, 0.04835941567375661
734.0, 0.04497340129967799
735.0, 0.044988385550034614
736.0, 0.04479704217251919
737.0, 0.04538032723165409
738.0, 0.04628546629910122
739.0, 0.04692021797211439
740.0, 0.04639680535460396
741.0, 0.047270305380321384
742.0, 0.046006439630824944
743.0, 0.04319903054005443
744.0, 0.04584557837088767
745.0, 0.048549891438249226
746.0, 0.05187390845894887
747.0, 0.056486222799636464
748.0, 0.0629774909040314
749.0, 0.06548591263553342
750.0, 0.07257702617259518
751.0, 0.07663400055566126
752.0, 0.07540443304283521
753.0, 0.07877322458985897
754.0, 0.07127315696946851
755.0, 0.06639851044809612
756.0, 0.0627450962393674
757.0, 0.053431138766441295
758.0, 0.043841087102469416
759.0, 0.041068498533638795
760.0, 0.03630289444632548
761.0, 0.025715316383779722
762.0, 0.02528811930595497
763.0, 0.020116109664491885
764.0, 0.018708429473568846
765.0, 0.01861259788482746
766.0, 0.010483350588702475
767.0, 0.010953658275279488
768.0, 0.010935260642130101
769.0, 0.009481812727473489
770.0, 0.0069652330664332525
771.0, 0.009839366378188752
772.0, 0.007790030105278132
773.0, 0.004966538856911893
774.0, 0.0042496844422599805
775.0, 0.009245285753207808
776.0, 0.003799951003089533
777.0, 0.0039102950650292565
778.0, 0.005836638778982513
779.0, 0.005697001530212099
780.0, 0.006268200198728651
781.0, 0.005470108060188713
782.0, 0.005510804547891971
783.0, 0.0062056533134448415
784.0, 0.005454045539320157
785.0, 0.0021790732903762744
786.0, 0.004270618483639325
787.0, 0.007655860574708753
788.0, 0.008034084212342224
789.0, 0.0038325238736936166
790.0, 0.003795578216204094
791.0, 0.00494452542823646
792.0, 0.005451445259933023
793.0, 0.0033529116494452043
794.0, 0.006793879120800727
795.0, 0.004226826812962724
796.0, 0.001995226780239876
797.0, 0.004682064454279596
798.0, 0.001676917116166769
799.0, 0.004329289205357384
800.0, 0.0036927153498671353
801.0, 0.0005711825611370853
802.0, 0.001970759900776989
803.0, 0.001000776214817883
804.0, 0.0014503605295194295
805.0, 0.0020329501885922602
806.0, 0.0020585182756809174
807.0, 0.004110111177774449
808.0, 0.004646709858560366
809.0, 0.002745254899464178
810.0, 0.0003534940935727499
811.0, 0.0012154071785737172
812.0, 0.0032981691814602514
813.0, 0.0023463915698032924
814.0, 0.0018612931789014902
815.0, 0.0030353307533822877
816.0, 0.000783512454791086
817.0, 0.0018577470593465594
818.0, 0.0033536660503089228
819.0, 0.004080482695667762
820.0, 0.0031836353253764547
821.0, 0.0015246660400226293
822.0, 0.001279692796665021
823.0, 0.0018149177321599812
824.0, 0.002487730919243434
825.0, 0.002263689636181693
826.0, 0.002327965110211417
827.0, 0.0016637664847227813
828.0, 0.0007645082452096801
829.0, 0.0004217625700615995
830.0, 0.00221296477199021
831.0, 0.002026738867540403
832.0, 0.0013011170133767505
833.0, 0.0018317704675226921
834.0, 0.006490786368799712
835.0, 0.002771173586198379
836.0, 0.006591417846390122
837.0, 0.009176147166056737
838.0, 0.004889544523893166
839.0, 0.0041157930304525124
840.0, 0.0030570937444504625
841.0, 0.0025054622333597746
842.0, 0.002876135743650074
843.0, 0.004404369099659344
844.0, 0.0030276027434867005
845.0, 0.001244978621419393
846.0, 0.0006892493863502537
847.0, 0.001584589788860427
848.0, 0.0019181102574501927
849.0, 0.0023915975151126293
850.0, 0.0032675605845869098
851.0, 0.0037505199349343456
852.0, 0.003020508677817315
853.0, 0.0009623476733487469
854.0, 0.000890660005679833
855.0, 0.001243850966024237
856.0, 0.0014017017516148962
857.0, 0.0010997516553747375
858.0, 0.002273627504269209
859.0, 0.0013652400489446914
860.0, 0.0016676709275562375
861.0, 0.004248032058731597
862.0, 0.004960246812558261
863.0, 0.0022628970419346964
864.0, 0.001304275506913902
865.0, 0.0035646697883026787
866.0, 0.008531365468812278
867.0, 0.0018699683161180272
868.0, 0.004550977308676916
869.0, 0.006963587419732099
870.0, 0.006959956521287446
871.0, 0.006895566418034856
872.0, 0.0048062058034119655
873.0, 0.0056581400586261455
874.0, 0.006671551486648929
875.0, 0.006179620090943518
876.0, 0.0050608445787834735
877.0, 0.007159632263825153
878.0, 0.007923213035142297
879.0, 0.009704197055755205
880.0, 0.014817533293330189
881.0, 0.013878562136217316
882.0, 0.014872621728314446
883.0, 0.014801343044862391
884.0, 0.014330394394277782
885.0, 0.01637113346259067
886.0, 0.014089195976314924
887.0, 0.016841525962643523
888.0, 0.019863246474898365
889.0, 0.021781447337063487
890.0, 0.02739322260754061
891.0, 0.026083012369935803
892.0, 0.03069792403733027
893.0, 0.03749430711131126
894.0, 0.04208727747397349
895.0, 0.04711366082184405
896.0, 0.05388611954524691
897.0, 0.05953323565703399
898.0, 0.06481288349382927
899.0, 0.07147419775822318
900.0, 0.07137492046813186
901.0, 0.07430223888336036
902.0, 0.07302786849237586
903.0, 0.06655721247806635
904.0, 0.05975494996078122
905.0, 0.05530967695712576
906.0, 0.04973297499930385
907.0, 0.043587958175391364
908.0, 0.038042798564714195
909.0, 0.035835236486179395
910.0, 0.03357108239277693
911.0, 0.03306242738449236
912.0, 0.032219455184850636
913.0, 0.029281131982273282
914.0, 0.02869116159339428
915.0, 0.025680594756352506
916.0, 0.026015677504171775
917.0, 0.02814470731743824
918.0, 0.02749127027348384
919.0, 0.02144962960265518
920.0, 0.02446046178056231
921.0, 0.026797980295532094
922.0, 0.02559651653970729
923.0, 0.023422340826038654
924.0, 0.022704599369550674
925.0, 0.022484380121306075
926.0, 0.022697754695240296
927.0, 0.022855503625410042
928.0, 0.021455026763666424
929.0, 0.02319650378133627
930.0, 0.02353405348079676
931.0, 0.02284784300787224
932.0, 0.022628568383053434
933.0, 0.027060572195678805
934.0, 0.025227913201800723
935.0, 0.0241678222331662
936.0, 0.025480692677152177
937.0, 0.0283447035008527
938.0, 0.02165102801553003
939.0, 0.026410161363098116
940.0, 0.029012130617227672
941.0, 0.027914187362254657
942.0, 0.027120639390099843
943.0, 0.034706003615594394
944.0, 0.03536572206198325
945.0, 0.03474562696775547
946.0, 0.03654733188681721
947.0, 0.04346430912192988
948.0, 0.05022745550728701
949.0, 0.053609370821959546
950.0, 0.05684338547079984
951.0, 0.06097551501826062
952.0, 0.06380282302207711
953.0, 0.06425623278556755
954.0, 0.0626735159039396
955.0, 0.06004067453178659
956.0, 0.058038192898412076
957.0, 0.060334250778259435
958.0, 0.06136240132890197
959.0, 0.06566040492556417
960.0, 0.07081897525163545
961.0, 0.07544845912418684
962.0, 0.08614938506947578
963.0, 0.09674952243485328
964.0, 0.10893871148139203
965.0, 0.1281138427541888
966.0, 0.1575705555416409
967.0, 0.18333437082996676
968.0, 0.23158639213480783
969.0, 0.2868907278029783
970.0, 0.3480001311985576
971.0, 0.41628035738644864
972.0, 0.4781640462333442
973.0, 0.49523159720201165
974.0, 0.4817481675264035
975.0, 0.4436399552406516
976.0, 0.385786065251475
977.0, 0.3269606595749072
978.0, 0.27206902332376354
979.0, 0.22066777519729175
980.0, 0.1779656859244191
981.0, 0.1523681196165598
982.0, 0.12665829664105685
983.0, 0.10824218620415854
984.0, 0.09560017285432634
985.0, 0.08427365870537734
986.0, 0.06683687662012983
987.0, 0.06520064806915503
988.0, 0.060578887207428725
989.0, 0.05624985088565517
990.0, 0.054446791843750224
991.0, 0.05640636655596815
992.0, 0.052636616166099465
993.0, 0.053776556949836386
994.0, 0.05446844130538076
995.0, 0.05402958595375899
996.0, 0.058604705607299315
997.0, 0.06190585092747483
998.0, 0.06801375317658631
999.0, 0.07301592491610254
1000.0, 0.0739346327491778
1001.0, 0.06927671005908577
1002.0, 0.08104205692242364
1003.0, 0.08676940472619309
1004.0, 0.09704088115031302
1005.0, 0.11665702483665515
1006.0, 0.13776197382220623
1007.0, 0.16292030154281828
1008.0, 0.19718702090759094
1009.0, 0.2351131983797407
1010.0, 0.27031000516057757
1011.0, 0.29525107566418884
1012.0, 0.2944715465612369
1013.0, 0.27748491509671286
1014.0, 0.25044117670879357
1015.0, 0.21843652120892487
1016.0, 0.18429251824996457
1017.0, 0.1554412976492033
1018.0, 0.1347735731926966
1019.0, 0.11639141597489618
1020.0, 0.09721521322160093
1021.0, 0.08137807682161488
1022.0, 0.07454567278224324
1023.0, 0.06636432889868685
1024.0, 0.05676665908130204
1025.0, 0.04788430704067179
1026.0, 0.0449283615153501
1027.0, 0.038331184520211066
1028.0, 0.03591927581070057
1029.0, 0.03276276241748546
1030.0, 0.028353803050831135
1031.0, 0.03222957248235244
1032.0, 0.029489254607246697
1033.0, 0.023781718754494526
1034.0, 0.020402594162812152
1035.0, 0.02056403725949706
1036.0, 0.01851336021664621
1037.0, 0.02100779043289263
1038.0, 0.020229114719643733
1039.0, 0.018807888257551197
1040.0, 0.018555319062808853
1041.0, 0.01940063522613375
1042.0, 0.019943846481236014
1043.0, 0.020058083868083276
1044.0, 0.01938934099907837
1045.0, 0.018755388780175044
1046.0, 0.02044908137423965
1047.0, 0.017298676936322154
1048.0, 0.01631913176826975
1049.0, 0.01733478798017137
1050.0, 0.019521424216607627
1051.0, 0.021463192882929943
1052.0, 0.017199196136754153
1053.0, 0.01763442540054551
1054.0, 0.019109992044436006
1055.0, 0.019247725932226258
1056.0, 0.016908393230747342
1057.0, 0.015314720592589409
1058.0, 0.01769101036609983
1059.0, 0.018129701789056263
1060.0, 0.01692532323799522
1061.0, 0.01770421128712491
1062.0, 0.01463670296092907
1063.0, 0.01440495501073402
1064.0, 0.01628327604795866
1065.0, 0.017440923299768724
1066.0, 0.014926698229125287
1067.0, 0.013932198154858912
1068.0, 0.01494623357722559
1069.0, 0.018341335041245375
1070.0, 0.01935862759012161
1071.0, 0.014256060513715727
1072.0, 0.014579377692803836
1073.0, 0.01819555961037831
1074.0, 0.016355376934308843
1075.0, 0.0121894155076904
1076.0, 0.010397991705770859
1077.0, 0.011420709855599702
1078.0, 0.010480395774704143
1079.0, 0.010314258987652581
1080.0, 0.01041090710110426
1081.0, 0.010125209780557975
1082.0, 0.009578100621318815
1083.0, 0.010223129797319328
1084.0, 0.008738732154805862
1085.0, 0.007998952430767264
1086.0, 0.008349222475036977
1087.0, 0.005598364731588324
1088.0, 0.008407181104007445
1089.0, 0.009153596452394275
1090.0, 0.009176246773299241
1091.0, 0.009092132647254905
1092.0, 0.008679802252152752
1093.0, 0.010167587873895644
1094.0, 0.01144670603170196
1095.0, 0.011297816551498297
1096.0, 0.012125981419174144
1097.0, 0.016872848747915323
1098.0, 0.011643643360093176
1099.0, 0.012327245287112423
1100.0, 0.014321259695843126
1101.0, 0.018487682794445934
1102.0, 0.025508596069227403
1103.0, 0.026144243512496494
1104.0, 0.031082564526312473
1105.0, 0.03490776916316851
1106.0, 0.039342430335877504
1107.0, 0.04500370506598022
1108.0, 0.04603937776543408
1109.0, 0.05184721487490066
1110.0, 0.052513943106465205
1111.0, 0.05298191861965792
1112.0, 0.05450910053436554
1113.0, 0.05131459691080302
1114.0, 0.041135324183994244
1115.0, 0.03810292546390044
1116.0, 0.03500591368604121
1117.0, 0.02917317474444371
1118.0, 0.022147544476393284
1119.0, 0.018796057105712808
1120.0, 0.015178905348500901
1121.0, 0.014648507710397688
1122.0, 0.017929815296200188
1123.0, 0.02330019248482018
1124.0, 0.022307396070828107
1125.0, 0.01710774015439351
1126.0, 0.014046902731073892
1127.0, 0.010525557933246513
1128.0, 0.005601879707561002
1129.0, 0.006990596257796675
1130.0, 0.003831020904847054
1131.0, 0.004461543250846648
1132.0, 0.006157306612431226
1133.0, 0.006292640570052761
1134.0, 0.0036076124452083013
1135.0, 0.003063888643215929
1136.0, 0.0033702054432212265
1137.0, 0.0032274622608578435
1138.0, 0.0027685551476605763
1139.0, 0.0029647776229660464
1140.0, 0.0045363276228093065
1141.0, 0.002270349089569385
1142.0, 0.002398508083487179
1143.0, 0.0034412373936758703
1144.0, 0.0028283437969229756
1145.0, 0.001138102981859406
1146.0, 0.0016038779697409604
1147.0, 0.0048977116189050296
1148.0, 0.00575157062003198
1149.0, 0.004190617660938028
1150.0, 0.007904694606844743
1151.0, 0.005688705984865199
1152.0, 0.0037090795399781227
1153.0, 0.005109168687558382
1154.0, 0.007794458284469939
1155.0, 0.00744563419507987
1156.0, 0.007801154215491755
1157.0, 0.010701520880227449
1158.0, 0.010181191388021368
1159.0, 0.008822097655732374
1160.0, 0.00953980294561585
1161.0, 0.010202285508092249
1162.0, 0.012827836690374314
1163.0, 0.01186446013190604
1164.0, 0.011271861003619526
1165.0, 0.012117764469965644
1166.0, 0.011804037865978275
1167.0, 0.018510205170966507
1168.0, 0.011875889643411817
1169.0, 0.012902135799646185
1170.0, 0.017795357206904252
1171.0, 0.015789108888983244
1172.0, 0.018686145996367632
1173.0, 0.018926905989065376
1174.0, 0.021185774622298256
1175.0, 0.025256447025772
1176.0, 0.03022102270970951
1177.0, 0.035382362349765085
1178.0, 0.039009412732989864
1179.0, 0.04213461276379607
1180.0, 0.050408372748822906
1181.0, 0.061117216942433696
1182.0, 0.06690287697287664
1183.0, 0.06913695418644825
1184.0, 0.07857183681742264
1185.0, 0.0807350459797969
1186.0, 0.0765035029638914
1187.0, 0.07010309260592573
1188.0, 0.06427749382569305
1189.0, 0.060598191887684345
1190.0, 0.05296703873647596
1191.0, 0.05394183301016746
1192.0, 0.05533889258241594
1193.0, 0.03690426227898356
1194.0, 0.04504212919511426
1195.0, 0.0329178284304398
1196.0, 0.024190915732196477
1197.0, 0.021411517254520004
1198.0, 0.02032622719408751
1199.0, 0.01564624015167371
1200.0, 0.011536712085480605
1201.0, 0.011163792804248578
1202.0, 0.009613347020100162
1203.0, 0.007935601254589206
1204.0, 0.011303845590515085
1205.0, 0.0023503208945952533
1206.0, 0.0059146696564784974
1207.0, 0.0065632112729505235
1208.0, 0.005239435753039
1209.0, 0.005020537430683485
1210.0, 0.0010400933559045265
1211.0, 0.00891308243588221
1212.0, 0.005931053140574294
1213.0, 0.003577962579635814
1214.0, 0.003961501357939731
1215.0, 0.0003963032064819559
1216.0, 0.00014288540419144955
1217.0, 0.003256765878467938
1218.0, 0.0025907041730312535
1219.0, 0.0018744609066849837
1220.0, 0.0035679417370577844
1221.0, 0.0006118441914892193
1222.0, 0.0006075846937367026
1223.0, 0.0020871871445955806
1224.0, 0.0020995892295893955
1225.0, 0.0027187053535898628
1226.0, 0.0076481996997333004
1227.0, 0.00677126695260278
1228.0, 0.0025506331237260494
1229.0, 0.0011273501929140906
1230.0, 0.0019419151412390133
1231.0, 0.003252222607263865
1232.0, 0.0038135500995266124
1233.0, 0.001283227786177844
1234.0, 0.0016762106283058477
1235.0, 0.0015883648922200688
1236.0, 0.0013749626469262352
1237.0, 0.0024397496851355075
1238.0, 0.0020420249859440893
1239.0, 0.001267344540722528
1240.0, 0.001800163784377606
1241.0, 0.0024203567125770696
1242.0, 0.0027885618252608407
1243.0, 0.003674576180894496
1244.0, 0.0015102186483914194
1245.0, 0.001819878311543016
1246.0, 0.0010682325677193038
1247.0, 0.0013699272102068423
1248.0, 0.0037672796746335783
1249.0, 0.0026797359594204267
1250.0, 0.0017925116386010489
1251.0, 0.0020148101797288435
1252.0, 0.0017523775709863386
1253.0, 0.0020440234313710446
1254.0, 0.004129517624608796
1255.0, 0.0004904066717973121
1256.0, 0.00016046137608681608
1257.0, 0.0004574036532171363
1258.0, 0.0016778811692510424
1259.0, 0.0036921590266125077
1260.0, 0.005326103745784897
1261.0, 0.005052680979225352
1262.0, 0.005424213700072965
1263.0, 0.0032737036979491557
1264.0, 0.0025661482149093276
1265.0, 0.0053047171704995065
1266.0, 0.003488525612745013
1267.0, 0.003315362942913706
1268.0, 0.00611551609615939
1269.0, 0.007607836927531156
1270.0, 0.007269989846654664
1271.0, 0.0066951871344696256
1272.0, 0.005291147615998137
1273.0, 0.006593836947103785
1274.0, 0.0064110378992804536
1275.0, 0.004444966980888232
1276.0, 0.0019007377627802242
1277.0, 0.0008145503232847401
1278.0, 0.002035719652288616
1279.0, 0.002871353334676424
1280.0, 0.0035326432020163427
1281.0, 0.0026178758563329576
1282.0, 0.0009315492335984134
1283.0, 0.0030470291901629615
1284.0, 0.0013184893987214573
1285.0, 0.0009190045404581907
1286.0, 0.0014116606036911183
1287.0, 0.0019725102583465597
1288.0, 0.0017618322196517487
1289.0, 0.00030932270538190176
1290.0, 0.002371748462200463
1291.0, 0.003115630052529804
1292.0, 0.0032660719805666727
1293.0, 0.00245285311509162
1294.0, 0.00034984863496748266
1295.0, 0.000305934420632654
1296.0, 0.0026635663006224406
1297.0, 0.0021790463921179644
1298.0, 0.0009465561097296673
1299.0, 0.000438769800291552
1300.0, 0.0008752230156166311
1301.0, 0.003741233139433762
1302.0, 0.003312407930218535
1303.0, 0.003116309110917173
1304.0, 0.002400656567825016
1305.0, 0.001325713649347975
1306.0, 0.0017742639598416683
1307.0, 0.0014978014577052
1308.0, 0.003257489449647785
1309.0, 0.005026929468890225
1310.0, 0.004308904715738729
1311.0, 0.003217305076993255
1312.0, 0.010205897376931224
1313.0, 0.004305865849999237
1314.0, 0.004000660266357912
1315.0, 0.00343651713199673
1316.0, 0.0033043643683681513
1317.0, 0.003979310728889387
1318.0, 0.00022912052576990152
1319.0, 0.0027209728685706203
1320.0, 0.001151699109331496
1321.0, 0.002936182465523464
1322.0, 0.005219635241024843
1323.0, 0.00340059897248823
1324.0, 0.0014393356670711096
1325.0, 0.0014041154413082487
1326.0, 0.001324649579300782
1327.0, 0.0012187644003323146
1328.0, 0.001740997342188703
1329.0, 0.002809544160942038
1330.0, 0.0010750155155304988
1331.0, 0.00026410313513453124
1332.0, 0.0016476587863188353
1333.0, 0.0025524674409399027
1334.0, 0.0023727500999635963
1335.0, 0.0020833212606744633
1336.0, 0.002609269581133984
1337.0, 0.00217430519478128
1338.0, 0.0017419258987108482
1339.0, 0.0018047114438864578
1340.0, 0.0017539954338756229
1341.0, 0.00112813818358467
1342.0, 0.0031997510615493392
1343.0, 0.002260481227288655
1344.0, 0.004205134195687902
1345.0, 0.0036778920061722137
1346.0, 0.0024642245010192067
1347.0, 0.005041456438772163
1348.0, 0.0003713619559051126
1349.0, 0.0035815068875859105
1350.0, 0.005447115579208947
1351.0, 0.00559624288455559
1352.0, 0.005663194875367553
1353.0, 0.006877845128969511
1354.0, 0.004845655391238347
1355.0, 0.004977267025731215
1356.0, 0.006804848183111195
1357.0, 0.007266914272613524
1358.0, 0.0065026166445172435
1359.0, 0.006831516539901791
1360.0, 0.008148367240268597
1361.0, 0.00502692564435948
1362.0, 0.006470757702039995
1363.0, 0.006896786598320059
1364.0, 0.005266420431443542
1365.0, 0.0046964307420554255
1366.0, 0.00688375918940802
1367.0, 0.007218543714030891
1368.0, 0.007833817431802068
1369.0, 0.008233309012600063
1370.0, 0.009136219538646595
1371.0, 0.01059368489573798
1372.0, 0.007074436378488726
1373.0, 0.0075645222769715244
1374.0, 0.007744107760325841
1375.0, 0.009114573202877518
1376.0, 0.010327371920546466
1377.0, 0.010175987308101288
1378.0, 0.013428904268582603
1379.0, 0.015145907232714017
1380.0, 0.0214576116087909
1381.0, 0.04098929187947482
1382.0, 0.06913064904293151
1383.0, 0.09475920311439032
1384.0, 0.10918496732954797
1385.0, 0.11434256963992334
1386.0, 0.08067549539492552
1387.0, 0.045490902168059205
1388.0, 0.024327660731925573
1389.0, 0.017412280676207117
1390.0, 0.016732037878403393
1391.0, 0.014068448397109072
1392.0, 0.013119332662033446
1393.0, 0.012574810084167875
1394.0, 0.011996013665077302
1395.0, 0.011585301343339524
1396.0, 0.011904326005852558
1397.0, 0.011727861044915902
1398.0, 0.011713315186143013
1399.0, 0.011925380950493659
1400.0, 0.01264486834118943
1401.0, 0.012311982280684083
1402.0, 0.008635347673414114
1403.0, 0.010136967461568223
1404.0, 0.01148203527754545
1405.0, 0.008621878888611888
1406.0, 0.006568369985191076
1407.0, 0.007479572513872391
1408.0, 0.008554295721566253
1409.0, 0.003245129994267255
1410.0, 0.006155247805903705
1411.0, 0.00818107422272306
1412.0, 0.006435436920264273
1413.0, 0.004685705325533186
1414.0, 0.006348383575742522
1415.0, 0.002168725075533858
1416.0, 0.005652051429301856
1417.0, 0.008274278721784788
1418.0, 0.007905602059327523
1419.0, 0.005818653045581774
1420.0, 0.005310238360246816
1421.0, 0.009660686196817366
1422.0, 0.006441272470276049
1423.0, 0.009216143204115934
1424.0, 0.0076638156540238525
1425.0, 0.005554044223233107
1426.0, 0.005805281629977932
1427.0, 0.0053128254928623934
1428.0, 0.007446720612531257
1429.0, 0.0064874832062848066
1430.0, 0.006658959536618565
1431.0, 0.005788092003340229
1432.0, 0.005475579148404124
1433.0, 0.008832681385525124
1434.0, 0.008786639907340464
1435.0, 0.0044540894240919756
1436.0, 0.007629215127158614
1437.0, 0.010241103280448496
1438.0, 0.011543188664104163
1439.0, 0.01237484489766311
1440.0, 0.006704805134572762
1441.0, 0.0064168848649990735
1442.0, 0.008492329708843796
1443.0, 0.008930882089315353
1444.0, 0.009306840895671846
1445.0, 0.010237769861906974
1446.0, 0.009121572679569088
1447.0, 0.007587519979168067
1448.0, 0.011115782536475778
1449.0, 0.010942452807398183
1450.0, 0.008602949681251556
1451.0, 0.006323345593283476
1452.0, 0.0062307076485207166
1453.0, 0.01300054610493287
1454.0, 0.007200017529270792
1455.0, 0.007489723209690088
1456.0, 0.010785086197259524
1457.0, 0.010490260053663606
1458.0, 0.006035214038589604
1459.0, 0.008164572604222728
1460.0, 0.012216615175018595
1461.0, 0.00960828060148417
1462.0, 0.010696436710592085
1463.0, 0.011248261016947238
1464.0, 0.009120938291947203
1465.0, 0.007911938426046346
1466.0, 0.011707870048122522
1467.0, 0.005176156521097083
1468.0, 0.0109911806652632
1469.0, 0.009372334718097735
1470.0, 0.005264675369733853
1471.0, 0.008103768087706837
1472.0, 0.005727956515445782
1473.0, 0.01033738406997596
1474.0, 0.007361389638628096
1475.0, 0.010395205841404463
1476.0, 0.011770393607129127
1477.0, 0.008591593124551813
1478.0, 0.0074883436750445564
1479.0, 0.006653711857337482
1480.0, 0.007428084307077697
1481.0, 0.004995473486758399
1482.0, 0.009916622831651614
1483.0, 0.012987585534515683
1484.0, 0.006890101462326974
1485.0, 0.009041729910742561
1486.0, 0.0068464939031837105
1487.0, 0.0038457223068318305
1488.0, 0.002625646194897819
1489.0, 0.002228335901058479
1490.0, 0.0029613366107813224
1491.0, 0.0055869726696199775
1492.0, 0.004445009771852667
1493.0, 0.004044104340332896
1494.0, 0.006263373881166955
1495.0, 0.007284019541235365
1496.0, 0.006584094428567851
1497.0, 0.005868858897309563
1498.0, 0.006673496727331952
1499.0, 0.0026022590614836606
1500.0, 0.0072332183867190696
1501.0, 0.004361879619380986
1502.0, 0.002660665696189145
1503.0, 0.003049267606070237
1504.0, 0.0006863525764745126
1505.0, 0.001584935032002676
1506.0, 0.005631021892804571
1507.0, 0.0031490045884450518
1508.0, 0.0028447477874984518
1509.0, 0.0027407912863965304
1510.0, 0.0013041744894120087
1511.0, 0.0012069967434410961
1512.0, 6.724533320395603e-05
1513, 0.0
1514, 0.0
1515, 0.0
1516, 0.0
1517, 0.0
1518, 0.0
1519, 0.0
1520, 0.0
1521, 0.0
1522, 0.0
1523, 0.0
1524, 0.0
1525, 0.0
1526, 0.0
1527, 0.0
1528, 0.0
1529, 0.0
1530, 0.0
1531, 0.0
1532, 0.0
1533, 0.0
1534, 0.0
1535, 0.0
1536, 0.0
1537, 0.0
1538, 0.0
1539, 0.0
1540, 0.0
1541, 0.0
1542, 0.0
1543, 0.0
1544, 0.0
1545, 0.0
1546, 0.0
1547, 0.0
1548, 0.0
1549, 0.0
1550, 0.0
1551, 0.0
1552, 0.0
1553, 0.0
1554, 0.0
1555, 0.0
1556, 0.0
1557, 0.0
1558, 0.0
1559, 0.0
1560, 0.0
1561, 0.0
1562, 0.0
1563, 0.0
1564, 0.0
1565, 0.0
1566, 0.0
1567, 0.0
1568, 0.0
1569, 0.0
1570, 0.0
1571, 0.0
1572, 0.0
1573, 0.0
1574, 0.0
1575, 0.0
1576, 0.0
1577, 0.0
1578, 0.0
1579, 0.0
1580, 0.0
1581, 0.0
1582, 0.0
1583, 0.0
1584, 0.0
1585, 0.0
1586, 0.0
1587, 0.0
1588, 0.0
1589, 0.0
1590, 0.0
1591, 0.0
1592, 0.0
1593, 0.0
1594, 0.0
1595, 0.0
1596, 0.0
1597, 0.0
1598, 0.0
1599, 0.0
