30, 0.0
31, 0.0
32, 0.0
33, 0.0
34, 0.0
35, 0.0
36, 0.0
37, 0.0
38, 0.0
39, 0.0
40, 0.0
41, 0.0
42, 0.0
43, 0.0
44, 0.0
45, 0.0
46, 0.0
47, 0.0
48, 0.0
49, 0.0
50, 0.0
51, 0.0
52, 0.0
53, 0.0
54, 0.0
55, 0.0
56, 0.0
57, 0.0
58, 0.0
59, 0.0
60, 0.0
61, 0.0
62, 0.0
63, 0.0
64, 0.0
65, 0.0
66, 0.0
67, 0.0
68, 0.0
69, 0.0
70, 0.0
71, 0.0
72, 0.0
73, 0.0
74, 0.0
75, 0.0
76, 0.0
77, 0.0
78, 0.0
79, 0.0
80, 0.0
81, 0.0
82, 0.0
83, 0.0
84, 0.0
85, 0.0
86, 0.0
87, 0.0
88, 0.0
89, 0.0
90, 0.0
91, 0.0
92, 0.0
93, 0.0
94.0, 6.366504165121711e-05
95.0, 0.0003622855089984954
96.0, 0.0013122375097151476
97.0, 0.0009148880034031645
98.0, 0.0010953253194212218
99.0, 0.0022304811269945124
100.0, 0.0018624504687335746
101.0, 0.0035497556641302585
102.0, 0.006351877759972316
103.0, 0.009306975622915525
104.0, 0.015603260104005185
105.0, 0.02464826047718109
106.0, 0.03557707412205152
107.0, 0.04115250825415332
108.0, 0.05274197772606828
109.0, 0.06687805372959944
110.0, 0.08094517020192173
111.0, 0.10907555547826259
112.0, 0.1428690601213557
113.0, 0.18119956476734683
114.0, 0.22322519445381228
115.0, 0.27431410165115633
116.0, 0.32792705322416915
117.0, 0.38052363589719396
118.0, 0.42152358398469314
119.0, 0.4513545032171618
120.0, 0.4612586162794674
121.0, 0.41896720183073527
122.0, 0.3565253810191732
123.0, 0.2934535688312904
124.0, 0.23708283964016993
125.0, 0.18939441078790037
126.0, 0.15314641903149662
127.0, 0.1242282142442402
128.0, 0.09731331858968252
129.0, 0.08090830258304067
130.0, 0.06559541468506234
131.0, 0.04997202791249626
132.0, 0.04022305108500452
133.0, 0.03207598644420059
134.0, 0.02667132357597096
135.0, 0.025905276064856108
136.0, 0.02096682329089222
137.0, 0.019966433763974705
138.0, 0.02239299870156491
139.0, 0.022421210740334326
140.0, 0.021092559799301434
141.0, 0.018877103867699904
142.0, 0.015893309136162086
143.0, 0.01674440359300071
144.0, 0.019161298855237624
145.0, 0.022121114691216526
146.0, 0.02336815536936066
147.0, 0.026277227409110905
148.0, 0.031391893097786054
149.0, 0.03888631933093887
150.0, 0.04704155043757331
151.0, 0.059442742478737445
152.0, 0.07488301496058436
153.0, 0.0927245374808006
154.0, 0.10726686409618931
155.0, 0.12133193427505591
156.0, 0.13416049750055628
157.0, 0.13993785250110835
158.0, 0.13293684546776485
159.0, 0.12088554142750771
160.0, 0.10737208785559303
161.0, 0.09047459971201592
162.0, 0.0743835178332726
163.0, 0.058649329689541646
164.0, 0.042206525302531515
165.0, 0.030574190580660465
166.0, 0.020732691582781376
167.0, 0.01226786076579196
168.0, 0.00807616195535743
169.0, 0.004904739321721493
170.0, 0.0029659127438965314
171.0, 0.002751767690462481
172.0, 0.002541493816388807
173.0, 0.002383488490318782
174.0, 0.002478563048141914
175.0, 0.003622161164566918
176.0, 0.0028772545100587995
177.0, 0.003007001796177895
178.0, 0.005199560356421881
179.0, 0.008716338078030645
180.0, 0.008528020975442715
181.0, 0.006923243560502328
182.0, 0.007012421610038249
183.0, 0.008763772330992667
184.0, 0.009464749302333332
185.0, 0.0088639936064215
186.0, 0.007770011223584513
187.0, 0.007757378021186979
188.0, 0.0073439053551053205
189.0, 0.005630905883439585
190.0, 0.006371393753665627
191.0, 0.006184105919903948
192.0, 0.005571706277625083
193.0, 0.005522816259855627
194.0, 0.0041063925965171225
195.0, 0.0033098354251096616
196.0, 0.0033037183667262338
197.0, 0.0021681828921306084
198.0, 0.0017959563585482209
199.0, 0.0023492557843431076
200.0, 0.0040941320150287685
201.0, 0.002532850425061687
202.0, 0.0016855895342122013
203.0, 0.001485669953075016
204.0, 0.0016233599058060393
205.0, 0.0034939599930979355
206.0, 0.003399135196392185
207.0, 0.000995824502465644
208.0, 0.0017527167344392192
209.0, 0.0017129151512562837
210.0, 0.0023755872049913357
211.0, 0.005018330899584176
212.0, 0.004342019528071836
213.0, 0.004336278570610588
214.0, 0.004666352476687458
215.0, 0.004220307004765178
216.0, 0.0031808163718349625
217.0, 0.002617890799974756
218.0, 0.002618495747235249
219.0, 0.001561518943117717
220.0, 0.0009707835769885622
221.0, 0.0013938131062115684
222.0, 0.0033886128270823367
223.0, 0.0051377100128511995
224.0, 0.007265614708787527
225.0, 0.01005872600729402
226.0, 0.014241612615828767
227.0, 0.018534980161316827
228.0, 0.024121644096883128
229.0, 0.030937657948153213
230.0, 0.03660728443956197
231.0, 0.04654133676599838
232.0, 0.05767987315815
233.0, 0.06826879518914823
234.0, 0.08153102589824594
235.0, 0.09418598925774653
236.0, 0.10525159713032796
237.0, 0.11271935172114811
238.0, 0.12009945456027601
239.0, 0.12091174466824026
240.0, 0.11512383299578008
241.0, 0.10748492186047233
242.0, 0.09889235689426511
243.0, 0.09112537994732181
244.0, 0.08506298948088396
245.0, 0.0799555446819704
246.0, 0.07660635771649821
247.0, 0.07501771050788067
248.0, 0.07551164863974623
249.0, 0.07628911410379427
250.0, 0.08106821498147669
251.0, 0.08986114270731461
252.0, 0.10213919162900793
253.0, 0.11920872040436617
254.0, 0.14001143979779393
255.0, 0.1641687861342353
256.0, 0.18927879051849716
257.0, 0.2161031549057138
258.0, 0.23762680623618376
259.0, 0.247662441817064
260.0, 0.2363039603619739
261.0, 0.20760551681484368
262.0, 0.16973694564438668
263.0, 0.13695821594921587
264.0, 0.10958493497010277
265.0, 0.0869711810138997
266.0, 0.06951372627430358
267.0, 0.05987835564573011
268.0, 0.048947767549395726
269.0, 0.04147380146195159
270.0, 0.03946842099848471
271.0, 0.03651581455592532
272.0, 0.034677112020934917
273.0, 0.03345618696339352
274.0, 0.032435380602363985
275.0, 0.036833497808499455
276.0, 0.040000593812746316
277.0, 0.04260497536449975
278.0, 0.04708486367213166
279.0, 0.05593619805546172
280.0, 0.06505694004692032
281.0, 0.07449397100838469
282.0, 0.08957546168629119
283.0, 0.10602331618825744
284.0, 0.12547477957144385
285.0, 0.14921255815193923
286.0, 0.18369795094196859
287.0, 0.21665111525130062
288.0, 0.25062282649066225
289.0, 0.28851870659355056
290.0, 0.3311536996189371
291.0, 0.3657118300002998
292.0, 0.39152507312557666
293.0, 0.40751668109448563
294.0, 0.40625890108616886
295.0, 0.4006342785468915
296.0, 0.3894187630031594
297.0, 0.35288289124754046
298.0, 0.3152904379248965
299.0, 0.2797828105038309
300.0, 0.24764043010611728
301.0, 0.21514194671329462
302.0, 0.18835218412590995
303.0, 0.16454638681161218
304.0, 0.141632107003243
305.0, 0.12263840176637272
306.0, 0.10583099385880053
307.0, 0.09157748933100472
308.0, 0.08101384176854382
309.0, 0.07209746474137169
310.0, 0.06377502441802968
311.0, 0.0563266790867102
312.0, 0.05139786913858843
313.0, 0.05030238220096167
314.0, 0.04971075720404667
315.0, 0.04867653140480852
316.0, 0.0476706987326017
317.0, 0.049139021048496524
318.0, 0.0515140199322786
319.0, 0.05397495056371979
320.0, 0.05820200068018115
321.0, 0.06151837689639965
322.0, 0.06504899140220044
323.0, 0.07010344118601036
324.0, 0.0716744009122034
325.0, 0.07244860311577435
326.0, 0.07010726374974764
327.0, 0.0589913910312012
328.0, 0.04867098251184119
329.0, 0.03992241060915447
330.0, 0.03325039030234725
331.0, 0.03028352937162279
332.0, 0.024642367657821365
333.0, 0.0221486454914388
334.0, 0.023625765981428987
335.0, 0.019867344864300234
336.0, 0.01755317976304262
337.0, 0.016333758065521037
338.0, 0.016028286480800357
339.0, 0.014994845341174585
340.0, 0.016186424818558903
341.0, 0.018504313855000405
342.0, 0.020968059403858236
343.0, 0.021987425673765257
344.0, 0.024499162622598793
345.0, 0.02802061873736775
346.0, 0.03167385968167772
347.0, 0.03537267759824774
348.0, 0.03699798303620116
349.0, 0.03720644670582718
350.0, 0.03843337817969584
351.0, 0.03699576489564515
352.0, 0.03519024688167149
353.0, 0.03372108708238931
354.0, 0.033585180549928234
355.0, 0.03211580967069373
356.0, 0.031651265364367534
357.0, 0.033012520940565004
358.0, 0.035176653041923286
359.0, 0.03711255912225491
360.0, 0.040390992808387614
361.0, 0.045961440598347995
362.0, 0.05108112193451078
363.0, 0.05845633624512063
364.0, 0.06513151594956192
365.0, 0.06818783847808306
366.0, 0.06819182569862683
367.0, 0.06459716319154413
368.0, 0.057859117281711205
369.0, 0.04839766709854232
370.0, 0.03918042225960244
371.0, 0.029984595555497373
372.0, 0.02171613481457071
373.0, 0.016600160314156398
374.0, 0.014174917986971429
375.0, 0.01059608913400522
376.0, 0.006481797514296618
377.0, 0.006149306088412144
378.0, 0.0030136895080443236
379.0, 0.0010828160554518912
380.0, 0.0011856347146477614
381.0, 0.0021048222132840962
382.0, 0.0032965813580467652
383.0, 0.0039857528395420335
384.0, 0.004052057542154237
385.0, 0.005339884546865193
386.0, 0.005026669114483481
387.0, 0.00529253506315961
388.0, 0.007109487363029784
389.0, 0.005187397995097464
390.0, 0.005722977607280128
391.0, 0.006830582241300293
392.0, 0.0070753003689840235
393.0, 0.008089846984340697
394.0, 0.008258531117094516
395.0, 0.008131675931714768
396.0, 0.008305501226783188
397.0, 0.00791110384935808
398.0, 0.00781155940986563
399.0, 0.0074810763838594856
400.0, 0.00606094458346595
401.0, 0.0056600990162577755
402.0, 0.0052295252930052655
403.0, 0.004592113651752933
404.0, 0.003535016351339945
405.0, 0.0029285604741913773
406.0, 0.002190714005687205
407.0, 0.0017792763406252955
408.0, 0.003147008267987959
409.0, 0.005737309899428127
410.0, 0.009143790255364869
411.0, 0.013134944473154223
412.0, 0.017174348479901527
413.0, 0.024753564850197893
414.0, 0.032780084723006635
415.0, 0.04111518382591078
416.0, 0.05269984982102512
417.0, 0.06692632718843132
418.0, 0.08593353593888584
419.0, 0.1101321861653048
420.0, 0.13720031605117358
421.0, 0.1641132207134448
422.0, 0.1975979562639602
423.0, 0.23925059501011264
424.0, 0.2778840408588504
425.0, 0.3059771471903604
426.0, 0.32359794713751316
427.0, 0.32880083924750936
428.0, 0.30306747286151936
429.0, 0.27041615300461297
430.0, 0.23350832313636707
431.0, 0.19453037016003932
432.0, 0.16698932372468078
433.0, 0.13636776104512838
434.0, 0.10940677637865445
435.0, 0.09081227927612917
436.0, 0.07338632244559547
437.0, 0.0618271170664258
438.0, 0.053158950395299866
439.0, 0.044986114172838265
440.0, 0.037024589796638425
441.0, 0.032775848632473216
442.0, 0.030227662307758023
443.0, 0.027490412747526703
444.0, 0.026436810151669116
445.0, 0.026748987152061587
446.0, 0.027481976676743406
447.0, 0.02760630754984041
448.0, 0.02685114643371568
449.0, 0.02928352988544584
450.0, 0.03277783637373922
451.0, 0.03468899954134038
452.0, 0.0369207681637574
453.0, 0.038154930938231364
454.0, 0.03868697129771791
455.0, 0.03893840394326868
456.0, 0.03468878536330877
457.0, 0.0314032376741589
458.0, 0.02787497068887472
459.0, 0.02200507793056292
460.0, 0.020597227439093965
461.0, 0.019245403825682385
462.0, 0.01744619732365262
463.0, 0.014772146262774188
464.0, 0.015355747543365392
465.0, 0.017021441991060465
466.0, 0.018184497282220668
467.0, 0.016503677514368684
468.0, 0.017721444997976215
469.0, 0.02014042809564451
470.0, 0.022284002975455238
471.0, 0.021894928824576398
472.0, 0.025391215573287832
473.0, 0.02718342157112344
474.0, 0.028182342922653668
475.0, 0.03056438414500109
476.0, 0.03126917199322663
477.0, 0.03200698488672917
478.0, 0.03266024229674568
479.0, 0.03281490510493119
480.0, 0.03080664234508594
481.0, 0.03175820057165865
482.0, 0.03330925515501372
483.0, 0.030969053633651947
484.0, 0.03277648495831257
485.0, 0.0315199757207243
486.0, 0.028697446802119497
487.0, 0.027468047110148348
488.0, 0.027320287826970064
489.0, 0.02588495043116493
490.0, 0.023984212112368324
491.0, 0.023101695576621624
492.0, 0.02275571439049214
493.0, 0.022366031314345877
494.0, 0.0215863043972252
495.0, 0.019953146969584716
496.0, 0.018279392518633406
497.0, 0.017475912921901274
498.0, 0.017378797620680845
499.0, 0.017725627580624365
500.0, 0.016729192782646455
501.0, 0.016676731300036333
502.0, 0.016958885990671545
503.0, 0.016735228508572043
504.0, 0.01812489644351858
505.0, 0.017326349449372086
506.0, 0.016609185240168498
507.0, 0.01857060984878112
508.0, 0.017319631272839562
509.0, 0.017621468596714648
510.0, 0.018447197020097377
511.0, 0.018749116037005686
512.0, 0.019811892852972978
513.0, 0.020727802271689074
514.0, 0.021332818732568978
515.0, 0.021625420032289663
516.0, 0.02658034618989164
517.0, 0.030799661292885017
518.0, 0.031415860804101116
519.0, 0.02694091775093046
520.0, 0.031500457027012124
521.0, 0.03308915043953656
522.0, 0.034028673162548595
523.0, 0.03574667102264204
524.0, 0.03741869979504425
525.0, 0.039216339622889014
526.0, 0.041259045308930875
527.0, 0.04350462464224527
528.0, 0.04494610879418092
529.0, 0.04855140398228982
530.0, 0.053215121277601425
531.0, 0.05839915707981634
532.0, 0.06373108637674163
533.0, 0.07250847298509115
534.0, 0.08211873065771699
535.0, 0.09207290044993571
536.0, 0.10464165534808352
537.0, 0.11697773955236086
538.0, 0.12932762536504294
539.0, 0.14262250622383088
540.0, 0.1601730796769402
541.0, 0.18108715195886785
542.0, 0.20371290384402055
543.0, 0.23066864386689062
544.0, 0.2708328008766095
545.0, 0.31697817852213095
546.0, 0.3732227422820997
547.0, 0.44104090462529694
548.0, 0.5224973990355973
549.0, 0.6224530271085984
550.0, 0.7190825476600571
551.0, 0.8141439399574594
552.0, 0.9146233919380291
553.0, 0.9715834264341849
554.0, 0.995800861326407
555.0, 0.9922923577841174
556.0, 0.9669382715476593
557.0, 0.9057096166888434
558.0, 0.8445004400581816
559.0, 0.7841032557404227
560.0, 0.7251071687056344
561.0, 0.6867658044109077
562.0, 0.6432057080946907
563.0, 0.5988225892522357
564.0, 0.5569350097747308
565.0, 0.5187240222541035
566.0, 0.4799225674284004
567.0, 0.4505632867063477
568.0, 0.4349217787720187
569.0, 0.42450716152088286
570.0, 0.42556777569322624
571.0, 0.43079091696230126
572.0, 0.440216538726779
573.0, 0.4668764687405707
574.0, 0.4876101573611037
575.0, 0.5015310530369204
576.0, 0.5080131919514121
577.0, 0.5058169161133413
578.0, 0.4925108836945447
579.0, 0.46695070044816167
580.0, 0.4298865678303488
581.0, 0.3831126714323211
582.0, 0.3455247779693668
583.0, 0.305000766975992
584.0, 0.26524518651783324
585.0, 0.23308295371839868
586.0, 0.21251950471039088
587.0, 0.190622829797701
588.0, 0.17004409565297535
589.0, 0.1536626452371443
590.0, 0.13966640776989747
591.0, 0.12347981488004889
592.0, 0.11048727785031769
593.0, 0.10378586451544414
594.0, 0.0981365835736454
595.0, 0.09011002964953548
596.0, 0.08229053960781245
597.0, 0.07603587822579579
598.0, 0.07254177764699066
599.0, 0.06943657360531094
600.0, 0.06511082394602317
601.0, 0.060174782721179175
602.0, 0.057912878544172104
603.0, 0.05712153511526495
604.0, 0.05604095926801318
605.0, 0.05427630857788731
606.0, 0.051592311690132044
607.0, 0.04962330341587434
608.0, 0.04869431437440085
609.0, 0.04845181231547871
610.0, 0.04842273123356318
611.0, 0.04923410616940235
612.0, 0.0495674189457651
613.0, 0.05071110028692797
614.0, 0.053427691573076724
615.0, 0.05467963139728411
616.0, 0.055345513202316066
617.0, 0.05639803763315098
618.0, 0.05759592907316885
619.0, 0.054980602906230164
620.0, 0.05426645041757611
621.0, 0.05459618892782367
622.0, 0.054191466347634956
623.0, 0.048396442244164554
624.0, 0.04688663206055896
625.0, 0.04371886207836016
626.0, 0.04039419642017427
627.0, 0.04097637422715348
628.0, 0.034763714384499475
629.0, 0.0316627364749162
630.0, 0.03131075733584187
631.0, 0.032582189083403316
632.0, 0.029291391331476933
633.0, 0.026537881602666385
634.0, 0.023901008228026613
635.0, 0.021538981434287778
636.0, 0.022667145182394613
637.0, 0.02125150523916944
638.0, 0.021588762348753537
639.0, 0.023808698208482436
640.0, 0.02302546471747209
641.0, 0.024455626003397568
642.0, 0.023733509770712077
643.0, 0.022705040924089044
644.0, 0.026380900066622758
645.0, 0.02545674114951987
646.0, 0.026473055240674406
647.0, 0.02817573090517005
648.0, 0.028862975471741537
649.0, 0.031068150905158815
650.0, 0.03365428444453526
651.0, 0.03681025209598276
652.0, 0.04039635602887247
653.0, 0.04265635678134176
654.0, 0.04929304015864554
655.0, 0.054059393455062624
656.0, 0.057184692272851466
657.0, 0.06582861967179253
658.0, 0.0784768975783337
659.0, 0.0896577085237492
660.0, 0.10152114271068058
661.0, 0.11884623238781783
662.0, 0.13989169615087932
663.0, 0.16505244421155188
664.0, 0.1944778431969422
665.0, 0.22803029918310064
666.0, 0.2638385888895427
667.0, 0.2965652697094527
668.0, 0.3256520180255499
669.0, 0.3477609716884848
670.0, 0.3482606193162417
671.0, 0.3297665579001478
672.0, 0.304099089531024
673.0, 0.2721470589746019
674.0, 0.23019734078735485
675.0, 0.1944466929768415
676.0, 0.1622989028759036
677.0, 0.13498947361779323
678.0, 0.11380929349187478
679.0, 0.09620285282866216
680.0, 0.08096338374461468
681.0, 0.07025482090071279
682.0, 0.06464745107248163
683.0, 0.06057870187602183
684.0, 0.0560106131534629
685.0, 0.05290211233477403
686.0, 0.05073273774358947
687.0, 0.046880524596284154
688.0, 0.0455843637464542
689.0, 0.04441537904074579
690.0, 0.042256498097758395
691.0, 0.03808297815176441
692.0, 0.03211150925978329
693.0, 0.032490517333895574
694.0, 0.03258167825818447
695.0, 0.02931533589792243
696.0, 0.02869104895359265
697.0, 0.028247751432624747
698.0, 0.03023813144754196
699.0, 0.03382127298564799
700.0, 0.03543804021877529
701.0, 0.03802758332421072
702.0, 0.0406701338385115
703.0, 0.04504380852614618
704.0, 0.05294953629094935
705.0, 0.06104315232298557
706.0, 0.06810924727956624
707.0, 0.07427335826820536
708.0, 0.08065601060896774
709.0, 0.09257051296079813
710.0, 0.09752960447555221
711.0, 0.10225853579377739
712.0, 0.10526084299968375
713.0, 0.10038413302183054
714.0, 0.09902947038288677
715.0, 0.09703095296796034
716.0, 0.09419831721237787
717.0, 0.09130916840788122
718.0, 0.09813392987486397
719.0, 0.10020807482544793
720.0, 0.1032894819872981
721.0, 0.1084541747187603
722.0, 0.1106528651101078
723.0, 0.11176574250841159
724.0, 0.1110264490607226
725.0, 0.1087659143827469
726.0, 0.10572875603346307
727.0, 0.0970429120198072
728.0, 0.0914945042618472
729.0, 0.08736742582778567
730.0, 0.08131250735642606
731.0, 0.05940902427583047
732.0, 0.0514741633199055
733.0, 0.047807232148587654
734.0, 0.04352064092342282
735.0, 0.03362847525336075
736.0, 0.03624773904250791
737.0, 0.03557682772043424
738.0, 0.03471273001122291
739.0, 0.03688320850492742
740.0, 0.029595676354509205
741.0, 0.022264257249129452
742.0, 0.01828025713184418
743.0, 0.01793742136305868
744.0, 0.017468979955758888
745.0, 0.01620253939679333
746.0, 0.013963263196483128
747.0, 0.012351266883511867
748.0, 0.013336822172831943
749.0, 0.010740354615596172
750.0, 0.012710042719349602
751.0, 0.012491280142970409
752.0, 0.008280598485018817
753.0, 0.009838268132995816
754.0, 0.009570954943898898
755.0, 0.008726473740825282
756.0, 0.008515791832501412
757.0, 0.010502854918349758
758.0, 0.00823537981651615
759.0, 0.009097138959333218
760.0, 0.010151502831706929
761.0, 0.009613188806917802
762.0, 0.01008937182696213
763.0, 0.010023462604022792
764.0, 0.009455999427353352
765.0, 0.009293892146552013
766.0, 0.01131845862217753
767.0, 0.009646754106868972
768.0, 0.009589199587210202
769.0, 0.010614904924160755
770.0, 0.011698176509589698
771.0, 0.009851111154327128
772.0, 0.0112175185417588
773.0, 0.011506736522115878
774.0, 0.01081878747521865
775.0, 0.012311026656057506
776.0, 0.012527713680020779
777.0, 0.012426130163525359
778.0, 0.012410569010934756
779.0, 0.01273565530042197
780.0, 0.012919588983267638
781.0, 0.011621427118306443
782.0, 0.010800762193232475
783.0, 0.01132411455652249
784.0, 0.013712875094541697
785.0, 0.012042243846923602
786.0, 0.010607673515812075
787.0, 0.010770317436374424
788.0, 0.012839806063211799
789.0, 0.011316452695587351
790.0, 0.010014291515797623
791.0, 0.008882942283259221
792.0, 0.008107540611696872
793.0, 0.008135526482100627
794.0, 0.008754723975585204
795.0, 0.00836636670909713
796.0, 0.007303354996497842
797.0, 0.006157717314405031
798.0, 0.006565141041948423
799.0, 0.005618904522485779
800.0, 0.0048566639722925405
801.0, 0.004262251834256782
802.0, 0.0028907041894688347
803.0, 0.003973563140002286
804.0, 0.002540264298342932
805.0, 0.001871737194552884
806.0, 0.0035699926963960286
807.0, 0.001179030997656852
808.0, 0.0013898812314114342
809.0, 0.0012533872872693957
810.0, 0.0005458840157686263
811.0, 0.00013978416525239684
812.0, 0.00017412411894594066
813.0, 0.0004402471122420823
814.0, 0.0006555837175443096
815.0, 0.00061274122283657
816.0, 0.0001821814630685552
817.0, 0.0013554184841904132
818.0, 0.0014799819882923403
819.0, 0.0013754913199020198
820.0, 0.002771809240154439
821.0, 0.0029066027449789603
822.0, 0.00326240390877735
823.0, 0.0037747583129612112
824.0, 0.004286932397888593
825.0, 0.004392921912009198
826.0, 0.003242778301756917
827.0, 0.004167205125385258
828.0, 0.004712021367163393
829.0, 0.0024401512189088544
830.0, 0.004096005703607901
831.0, 0.004848635703239388
832.0, 0.005614920645304162
833.0, 0.006144596838104728
834.0, 0.005140418905684285
835.0, 0.005517184808708907
836.0, 0.004070456467022917
837.0, 0.003159801838485038
838.0, 0.004331068912063033
839.0, 0.0052615213657349925
840.0, 0.003972974362789026
841.0, 0.0036251309940105707
842.0, 0.003671510422120815
843.0, 0.002264827061160219
844.0, 0.0017290499372344997
845.0, 0.003444254007081124
846.0, 0.0037490884014143035
847.0, 0.0020873297548404572
848.0, 0.0028939383171186672
849.0, 0.0026411409834604074
850.0, 0.0014137235621159872
851.0, 0.0005483270533485073
852.0, 0.0012621045998114557
853.0, 0.0025963687574116785
854.0, 0.0013675060817887154
855.0, 0.0009106184765530711
856.0, 0.0014946397203216585
857.0, 0.001669646225687682
858.0, 0.000401890237153264
859.0, 0.00010354810089288075
860.0, 0.0009511083277032608
861.0, 0.002226554904121665
862.0, 0.0008032011206141393
863.0, 0.0019063580723854777
864.0, 0.0022732905948392363
865.0, 0.0024080525788387763
866.0, 0.0032718041991068197
867.0, 0.003213347459019329
868.0, 0.003626492573464885
869.0, 0.003711643518799784
870.0, 0.003575519151237103
871.0, 0.003986030779669084
872.0, 0.006427302504707955
873.0, 0.006418818551275867
874.0, 0.006309137507507051
875.0, 0.007126205431710074
876.0, 0.00655967500109338
877.0, 0.008340063094778355
878.0, 0.009614174976216819
879.0, 0.010728578696626207
880.0, 0.012100932857973182
881.0, 0.009438418115260017
882.0, 0.010692530858494698
883.0, 0.011163746316311179
884.0, 0.010515963363105077
885.0, 0.01085223070834557
886.0, 0.010475996365240959
887.0, 0.0115022984864873
888.0, 0.011451309033960338
889.0, 0.010330696179096934
890.0, 0.012898314863995109
891.0, 0.013462789916389556
892.0, 0.013455848106783554
893.0, 0.014133840973803
894.0, 0.015945423674998273
895.0, 0.015039185402810015
896.0, 0.014763820435140438
897.0, 0.01623930244095942
898.0, 0.018152460476419646
899.0, 0.018323839375955317
900.0, 0.019337019934546635
901.0, 0.020055085338417517
902.0, 0.021045666532872227
903.0, 0.022462840262163206
904.0, 0.02409849755488687
905.0, 0.02573849581604028
906.0, 0.02601170290033905
907.0, 0.026647166459646814
908.0, 0.028177929342544473
909.0, 0.027912500478015
910.0, 0.030412210997608796
911.0, 0.032927129409008965
912.0, 0.03601723250148766
913.0, 0.04028611007897542
914.0, 0.04348362444111086
915.0, 0.047658611294831815
916.0, 0.0512340939724959
917.0, 0.055802760736022056
918.0, 0.0637631396302747
919.0, 0.06457975691628609
920.0, 0.06618123061176683
921.0, 0.06586000266382304
922.0, 0.0636700459883325
923.0, 0.06215496534657311
924.0, 0.05641842590439777
925.0, 0.05125799786955917
926.0, 0.046809563107493124
927.0, 0.04321514140247505
928.0, 0.04096231711029938
929.0, 0.039421134834583205
930.0, 0.039995599050086414
931.0, 0.04056429399811163
932.0, 0.039767188271654694
933.0, 0.040703446541101626
934.0, 0.04310439278315097
935.0, 0.04192110622397716
936.0, 0.041507931931856715
937.0, 0.04674113441076748
938.0, 0.046482887084908116
939.0, 0.04969348468832395
940.0, 0.05423565939086922
941.0, 0.05891533794752679
942.0, 0.0629008458619626
943.0, 0.06824571514516926
944.0, 0.07516318019886895
945.0, 0.08612268041691025
946.0, 0.10032336048062997
947.0, 0.11400562705094199
948.0, 0.13267359246986238
949.0, 0.14972911791071758
950.0, 0.16646247390143587
951.0, 0.17979679929598705
952.0, 0.1790250825520827
953.0, 0.17189578523075258
954.0, 0.16126833636444593
955.0, 0.1500744364940552
956.0, 0.1404803926324927
957.0, 0.13314238941592452
958.0, 0.12950850958495222
959.0, 0.13014714810391875
960.0, 0.1348308933880282
961.0, 0.14239976043467537
962.0, 0.14907157901357143
963.0, 0.16729675292149424
964.0, 0.188095971543664
965.0, 0.21343319695781732
966.0, 0.24765812159154418
967.0, 0.2981305478183356
968.0, 0.3550158831822181
969.0, 0.4147536772576519
970.0, 0.4662909597990284
971.0, 0.4962008665769925
972.0, 0.4938863418904505
973.0, 0.45234906882825415
974.0, 0.39498799978203625
975.0, 0.3328769618779379
976.0, 0.27291350027421607
977.0, 0.2224587787787955
978.0, 0.18366807565900112
979.0, 0.1532238592721068
980.0, 0.12823001587122917
981.0, 0.1057146052706569
982.0, 0.09506952586869237
983.0, 0.08032418585582823
984.0, 0.06977804339618097
985.0, 0.06392321177195925
986.0, 0.05647129784232029
987.0, 0.0493022742903448
988.0, 0.04750216227165843
989.0, 0.04534911616634505
990.0, 0.041611656517453764
991.0, 0.04005211083018418
992.0, 0.037885419587299116
993.0, 0.03491713426318157
994.0, 0.03320810001970878
995.0, 0.032856072373789506
996.0, 0.03123566237815884
997.0, 0.032197908114827464
998.0, 0.030211910087500914
999.0, 0.02954113351246184
1000.0, 0.030839117156797415
1001.0, 0.028462393242989412
1002.0, 0.03094229671179698
1003.0, 0.03266910540654831
1004.0, 0.03358664758150277
1005.0, 0.034925346322601726
1006.0, 0.03988190644027691
1007.0, 0.04246228450294613
1008.0, 0.04675450157730792
1009.0, 0.0522177990721603
1010.0, 0.05751128428731296
1011.0, 0.06018370647218154
1012.0, 0.06123711290132979
1013.0, 0.06250757313802807
1014.0, 0.06339747836805618
1015.0, 0.06360173907464514
1016.0, 0.06370485285196084
1017.0, 0.0627943486277165
1018.0, 0.05879868461699441
1019.0, 0.05360206004241852
1020.0, 0.048957663624000704
1021.0, 0.04582075748749033
1022.0, 0.04123107401097639
1023.0, 0.037443487010714364
1024.0, 0.03318589182659347
1025.0, 0.028627470884731495
1026.0, 0.02740449321897204
1027.0, 0.025193779412543818
1028.0, 0.024897312734164494
1029.0, 0.025212809222552198
1030.0, 0.02476570209784435
1031.0, 0.02251293061117105
1032.0, 0.021037009225066187
1033.0, 0.02046246801592424
1034.0, 0.019258461731150606
1035.0, 0.017276186136528565
1036.0, 0.016870662332646353
1037.0, 0.01793212772916898
1038.0, 0.017889752854524377
1039.0, 0.0177429708612644
1040.0, 0.017363737614743815
1041.0, 0.014665887256191622
1042.0, 0.015375798727135197
1043.0, 0.015251532331992966
1044.0, 0.013727121529489182
1045.0, 0.01186874564218415
1046.0, 0.01263942540935213
1047.0, 0.01161769565839819
1048.0, 0.012345175482555112
1049.0, 0.012545078219071082
1050.0, 0.011954384599305408
1051.0, 0.012435887454327338
1052.0, 0.01203444552016886
1053.0, 0.010562005404719507
1054.0, 0.009868556292959433
1055.0, 0.010186263842765636
1056.0, 0.010457912133996643
1057.0, 0.011783595826142558
1058.0, 0.010162969972535144
1059.0, 0.009755075609622771
1060.0, 0.010705240783356683
1061.0, 0.01083173994743392
1062.0, 0.011448025141084582
1063.0, 0.00949481492827883
1064.0, 0.008894946308176698
1065.0, 0.009326622129612237
1066.0, 0.008892835436035067
1067.0, 0.009581838646635787
1068.0, 0.008238728563583637
1069.0, 0.007884997564714885
1070.0, 0.008537787772551804
1071.0, 0.009185747364465629
1072.0, 0.00878870481928716
1073.0, 0.009183495393517736
1074.0, 0.00982042095126215
1075.0, 0.009529702026787296
1076.0, 0.007844809164525271
1077.0, 0.007288333882043576
1078.0, 0.009362610385867802
1079.0, 0.008296078467585401
1080.0, 0.007367583098714434
1081.0, 0.008771908285308305
1082.0, 0.009109413793155056
1083.0, 0.009548501709643225
1084.0, 0.009530726895701582
1085.0, 0.009603770490324317
1086.0, 0.009879783181401008
1087.0, 0.00968264974873606
1088.0, 0.0125971322214625
1089.0, 0.012846408662975995
1090.0, 0.013552307974510219
1091.0, 0.015273304119569706
1092.0, 0.015972804958452803
1093.0, 0.01720834917380811
1094.0, 0.0197379032134314
1095.0, 0.022444898077228267
1096.0, 0.02484770552871004
1097.0, 0.027170364591973962
1098.0, 0.033098163727501774
1099.0, 0.0390540059086556
1100.0, 0.04443941094011591
1101.0, 0.051491864410688946
1102.0, 0.06206862341640506
1103.0, 0.07144377738386852
1104.0, 0.08331269171726315
1105.0, 0.0928915165231135
1106.0, 0.1029740069933543
1107.0, 0.11382957885713907
1108.0, 0.11509275363057735
1109.0, 0.11595851371391666
1110.0, 0.11265241757115466
1111.0, 0.10667214772278227
1112.0, 0.09950744868364098
1113.0, 0.09187918078586887
1114.0, 0.08833762992999862
1115.0, 0.07349002512011617
1116.0, 0.06012484887023195
1117.0, 0.05142912250737765
1118.0, 0.0428677008410211
1119.0, 0.0376543432973857
1120.0, 0.03255865678224582
1121.0, 0.03078927900310648
1122.0, 0.030846754633371314
1123.0, 0.029659434053345396
1124.0, 0.026707506577401473
1125.0, 0.0236145443817474
1126.0, 0.02133820509062323
1127.0, 0.01966035383329373
1128.0, 0.01857550270976811
1129.0, 0.01929112856422199
1130.0, 0.01727817383550306
1131.0, 0.01685019107435459
1132.0, 0.016148916842836484
1133.0, 0.014824062032108997
1134.0, 0.014893996388906743
1135.0, 0.01853909169890239
1136.0, 0.016971928693653462
1137.0, 0.016009783285481
1138.0, 0.01583617294840278
1139.0, 0.014027536198169734
1140.0, 0.015249299296682034
1141.0, 0.015571901795997435
1142.0, 0.016704180955084583
1143.0, 0.018199593923239547
1144.0, 0.019314704985330985
1145.0, 0.020230993320562118
1146.0, 0.02118719494360224
1147.0, 0.02162913862189736
1148.0, 0.022101630766231107
1149.0, 0.022871430695684845
1150.0, 0.023674072750963435
1151.0, 0.024833971982877776
1152.0, 0.026246187175743445
1153.0, 0.027432219532810265
1154.0, 0.02886226029709341
1155.0, 0.03125640866979781
1156.0, 0.032763388317636276
1157.0, 0.034448862854853976
1158.0, 0.03674721117938999
1159.0, 0.03958219468613002
1160.0, 0.04180930014390107
1161.0, 0.03974226299378461
1162.0, 0.041849398788645034
1163.0, 0.043340975393767495
1164.0, 0.04371540339867795
1165.0, 0.04351730418968475
1166.0, 0.04411251932645785
1167.0, 0.04774673852336897
1168.0, 0.05255532827339561
1169.0, 0.05730512932795029
1170.0, 0.062293359338370435
1171.0, 0.06851283718857028
1172.0, 0.07703545774126706
1173.0, 0.08954923248625965
1174.0, 0.10435213207158625
1175.0, 0.12029279777763681
1176.0, 0.1367064941962118
1177.0, 0.15375627091724176
1178.0, 0.18370175802801306
1179.0, 0.21110433719787053
1180.0, 0.2385464785617107
1181.0, 0.2655042425992548
1182.0, 0.288572068524867
1183.0, 0.2988829760481814
1184.0, 0.29141902936580466
1185.0, 0.27746045686902865
1186.0, 0.258716375584088
1187.0, 0.23585620312061964
1188.0, 0.21180996984305003
1189.0, 0.1890700177083956
1190.0, 0.16654314940678436
1191.0, 0.1446101677913847
1192.0, 0.12432750939397277
1193.0, 0.10685523680374033
1194.0, 0.08977082870484379
1195.0, 0.07964706211429988
1196.0, 0.06974714092461705
1197.0, 0.06028805738246217
1198.0, 0.05268221458012308
1199.0, 0.04610670609968168
1200.0, 0.04114937067650471
1201.0, 0.03751081721725858
1202.0, 0.032962360404420826
1203.0, 0.028260336882582386
1204.0, 0.02649709892800839
1205.0, 0.02473039558800592
1206.0, 0.020190280784964966
1207.0, 0.017290869354204867
1208.0, 0.01609059039319004
1209.0, 0.015412299353821803
1210.0, 0.014543646770472885
1211.0, 0.012480889532487043
1212.0, 0.011212221481936421
1213.0, 0.011119574834890168
1214.0, 0.011302920691539403
1215.0, 0.01012619212321284
1216.0, 0.008424580037284978
1217.0, 0.008946448262533418
1218.0, 0.00850142227938566
1219.0, 0.0071290134965073335
1220.0, 0.005824422633463956
1221.0, 0.005662988665053195
1222.0, 0.0037565663516373206
1223.0, 0.004263343372665496
1224.0, 0.004985771718421125
1225.0, 0.004763518361689253
1226.0, 0.0035620085596127097
1227.0, 0.0019910540998356267
1228.0, 0.00246518899834858
1229.0, 0.001966898790194778
1230.0, 0.0019747508159744056
1231.0, 0.0027815376159443616
1232.0, 0.0013343765284353666
1233.0, 0.002710655519201646
1234.0, 0.0013348231542847546
1235.0, 0.0006934645768708812
1236.0, 0.001221565850145022
1237.0, 0.0019123073845027823
1238.0, 0.002924985615421897
1239.0, 0.002365250921319014
1240.0, 0.0015706192093817757
1241.0, 0.001051420637504449
1242.0, 0.0007242858566064616
1243.0, 0.0001553900966547075
1244.0, 0.00213967087740477
1245.0, 0.0008556880918710154
1246.0, 0.0014896743556478153
1247.0, 0.0020257170758810968
1248.0, 0.0005596837854956809
1249.0, 0.0008519165803127345
1250.0, 0.0006277536777893872
1251.0, 0.0011633169983534196
1252.0, 0.0016763147395898984
1253.0, 0.0015694837509132387
1254.0, 0.0007236258432386001
1255.0, 0.00039658910273410804
1256.0, 0.0020706629319183914
1257.0, 0.0014867790612269486
1258.0, 0.0006029958751782404
1259.0, 0.0008462103672461185
1260.0, 0.0015800186146647088
1261.0, 0.00037909780886147
1262.0, 0.0006893746527196782
1263.0, 0.0006188577374512001
1264.0, 0.002505778755889569
1265.0, 0.007673444320090888
1266.0, 0.011924098343563566
1267.0, 0.012513135205156433
1268.0, 0.013467623332071632
1269.0, 0.01218111680478661
1270.0, 0.00934444160704995
1271.0, 0.007259039140945723
1272.0, 0.0055334183316841186
1273.0, 0.004301449589828411
1274.0, 0.0027492845092618222
1275.0, 0.0013792494997665996
1276.0, 0.0006906793404801826
1277.0, 0.0008538515540333522
1278.0, 0.000918026931840812
1279.0, 0.0009507984801157732
1280.0, 0.001053371596232239
1281.0, 0.0007618191295278226
1282.0, 0.0001819281222564722
1283.0, 0.0004773664183680099
1284.0, 0.0002716816927152393
1285.0, 0.00022070917644376417
1286.0, 0.0004941299116732316
1287.0, 0.0008778103745489274
1288.0, 0.001168995345660119
1289.0, 0.0016263141619382226
1290.0, 0.0017450009065287859
1291.0, 0.0009190499519493051
1292.0, 0.0007402500547187096
1293.0, 0.001166766637948889
1294.0, 0.0012028299368130057
1295.0, 0.0006689871925758906
1296.0, 0.0007977423473885549
1297.0, 0.00037040884852495865
1298.0, 0.0002555210630246468
1299.0, 0.0005318299540737854
1300.0, 0.0005170874388453838
1301.0, 0.0007830644361896166
1302.0, 0.0003328921551409409
1303.0, 0.0012366468912500643
1304.0, 0.0013585699019846161
1305.0, 0.0002171404746476217
1306.0, 0.00024618722433303124
1307.0, 0.002527869945430041
1308.0, 0.0013826716101423666
1309.0, 0.00042285256371754257
1310.0, 0.00019883804606435059
1311.0, 0.0006269642455964245
1312.0, 0.0018534831156314447
1313.0, 0.0008987467374307448
1314.0, 0.0024181992190684762
1315.0, 0.002744310241968494
1316.0, 0.0022082868679707693
1317.0, 0.0016951120888343096
1318.0, 5.3745708097267244e-05
1319.0, 0.0010827412496530041
1320.0, 0.002138221260065142
1321.0, 0.001507047058851419
1322.0, 0.0009837770808474042
1323.0, 0.0019113582683392603
1324.0, 0.0001568831924467827
1325.0, 0.00011442693805117427
1326.0, 0.00030247052786433985
1327.0, 0.000456943874836314
1328.0, 0.0005942114332194853
1329.0, 0.000827237210686613
1330.0, 0.0011028276114625041
1331.0, 0.0006317799351728856
1332.0, 0.0003043151155068585
1333.0, 0.00048062700709764345
1334.0, 0.0007730663225831902
1335.0, 0.000721595776776731
1336.0, 0.0013128306459320926
1337.0, 0.0011448408364808675
1338.0, 0.001508779233171181
1339.0, 0.002345073470681414
1340.0, 0.0023813001650808694
1341.0, 0.0006042569759146903
1342.0, 6.71412367678698e-05
1343.0, 0.000589327774915368
1344.0, 0.0017952100531989131
1345.0, 0.0014818018440131058
1346.0, 0.0008538952106180754
1347.0, 0.0024030559020940187
1348.0, 0.0024145206192994328
1349.0, 0.0005993629476243032
1350.0, 0.000449532946251971
1351.0, 0.0005963611918059942
1352.0, 0.0009042348184103402
1353.0, 0.0019629403071719726
1354.0, 0.0015183640510953568
1355.0, 0.000554848466583762
1356.0, 0.0005492195485147638
1357.0, 0.0010352981878574239
1358.0, 0.0011903822900298775
1359.0, 0.0006266753843437758
1360.0, 0.0011476556961557143
1361.0, 0.0009419075387924877
1362.0, 0.0003992672749897236
1363.0, 0.0001562034594505352
1364.0, 0.00036689432512269503
1365.0, 0.0006552006041424891
1366.0, 0.00013704010137912016
1367.0, 0.0014173985042571695
1368.0, 0.0025000001232631176
1369.0, 0.0016391639318780668
1370.0, 0.000955011151425916
1371.0, 0.002781947168653238
1372.0, 0.0012571863741533602
1373.0, 0.0004799482949202179
1374.0, 0.002771439796713966
1375.0, 0.003921164374794605
1376.0, 0.0033498376786464837
1377.0, 0.0031576888108211893
1378.0, 0.005618769582576994
1379.0, 0.008756716566407167
1380.0, 0.014560285079653032
1381.0, 0.02184453475860545
1382.0, 0.026914045144039587
1383.0, 0.027364583256991478
1384.0, 0.026617797352003245
1385.0, 0.028259161103221332
1386.0, 0.021014831313252994
1387.0, 0.014042192676163497
1388.0, 0.009289133722113494
1389.0, 0.006279985075890781
1390.0, 0.006335855401234009
1391.0, 0.0034393905583909538
1392.0, 0.005372705305721504
1393.0, 0.0055216152637103675
1394.0, 0.004294563611439512
1395.0, 0.003757198342689625
1396.0, 0.004419939296248066
1397.0, 0.004326554624588898
1398.0, 0.0049829844894796185
1399.0, 0.004358132160474696
1400.0, 0.004697110001113544
1401.0, 0.006342845779876471
1402.0, 0.006476368689186908
1403.0, 0.005281665964500055
1404.0, 0.005535799607666809
1405.0, 0.006217274917621147
1406.0, 0.0053523088216154945
1407.0, 0.003758810146928466
1408.0, 0.004022374991224293
1409.0, 0.004642502180561555
1410.0, 0.003835528593899742
1411.0, 0.005044744395091196
1412.0, 0.004683380481995119
1413.0, 0.0032493418440102157
1414.0, 0.0034815558746059076
1415.0, 0.005198773452696101
1416.0, 0.005986258964223451
1417.0, 0.005294930544052046
1418.0, 0.005623668410772535
1419.0, 0.005930241716067522
1420.0, 0.005262350454830093
1421.0, 0.005941920266329197
1422.0, 0.005188180152667687
1423.0, 0.00392924105034267
1424.0, 0.0038185287456086714
1425.0, 0.004480894922729896
1426.0, 0.005349528859691808
1427.0, 0.006284057193095379
1428.0, 0.0056584896265460295
1429.0, 0.006030631935056629
1430.0, 0.005419381538703431
1431.0, 0.005294370321223873
1432.0, 0.0055245944078552356
1433.0, 0.004844164252909847
1434.0, 0.004975578007438304
1435.0, 0.00592253783951856
1436.0, 0.005625061794941939
1437.0, 0.004771440269036035
1438.0, 0.003759522847034573
1439.0, 0.003349287643793896
1440.0, 0.005454498546477305
1441.0, 0.005098578076153087
1442.0, 0.00409208161551923
1443.0, 0.005694528082810338
1444.0, 0.0058203836013668835
1445.0, 0.0038219248490911264
1446.0, 0.005367588662361866
1447.0, 0.0045130702416908645
1448.0, 0.005175872132857334
1449.0, 0.005756964870274828
1450.0, 0.007090248710349318
1451.0, 0.007408541229096668
1452.0, 0.004789476628754908
1453.0, 0.004656234549588202
1454.0, 0.005866406079484564
1455.0, 0.004549506279411748
1456.0, 0.005194934303730743
1457.0, 0.006885334993286999
1458.0, 0.006964192320453731
1459.0, 0.00508826692811851
1460.0, 0.005830726744528718
1461.0, 0.005722077442790872
1462.0, 0.005618392625336847
1463.0, 0.005717714967456295
1464.0, 0.005643766813627299
1465.0, 0.004960511860119254
1466.0, 0.004748035299810149
1467.0, 0.0034306426475343467
1468.0, 0.0037139612451620755
1469.0, 0.004172801643007304
1470.0, 0.004640840416687154
1471.0, 0.005155011716134269
1472.0, 0.004566250640610659
1473.0, 0.005557897089197867
1474.0, 0.004209527591174393
1475.0, 0.0034269886944588157
1476.0, 0.0035702474551653927
1477.0, 0.0040912318810612585
1478.0, 0.004302203444316532
1479.0, 0.00379230434335231
1480.0, 0.004881095469199834
1481.0, 0.004098510029018068
1482.0, 0.004375916434812743
1483.0, 0.004383354190441165
1484.0, 0.003062967018301493
1485.0, 0.004520719751120015
1486.0, 0.002921648443792238
1487.0, 0.003991466124490349
1488.0, 0.004591190973079728
1489.0, 0.004008641140128675
1490.0, 0.0031700364121924948
1491.0, 0.003613339831191759
1492.0, 0.005408080151398658
1493.0, 0.00505089297088825
1494.0, 0.002579159150382271
1495.0, 0.00312985980170469
1496.0, 0.0037298893809385326
1497.0, 0.002500095298462414
1498.0, 0.004636868525490301
1499.0, 0.0008486024140007364
1500.0, 0.0011236228343188917
1501.0, 0.0018897025480666284
1502.0, 0.0032185418174715008
1503.0, 0.004401669860430887
1504.0, 0.004055544521295779
1505.0, 0.0019723377928475014
1506.0, 0.0015441643280265302
1507.0, 0.002237927498843112
1508.0, 0.002269383152889491
1509.0, 0.0022736322305585647
1510.0, 0.003241679251640091
1511.0, 0.005273379800052771
1512.0, 0.007266566053075101
1513.0, 0.0037994806012065516
1514.0, 0.0010788958425195067
1515.0, 0.002405082534347231
1516.0, 0.004697784464104657
1517.0, 0.004096004289647181
1518.0, 0.0017115344735932807
1519.0, 0.000762511838884907
1520.0, 0.00016061141870204508
1521, 0.0
1522, 0.0
1523, 0.0
1524, 0.0
1525, 0.0
1526, 0.0
1527, 0.0
1528, 0.0
1529, 0.0
1530, 0.0
1531, 0.0
1532, 0.0
1533, 0.0
1534, 0.0
1535, 0.0
1536, 0.0
1537, 0.0
1538, 0.0
1539, 0.0
1540, 0.0
1541, 0.0
1542, 0.0
1543, 0.0
1544, 0.0
1545, 0.0
1546, 0.0
1547, 0.0
1548, 0.0
1549, 0.0
1550, 0.0
1551, 0.0
1552, 0.0
1553, 0.0
1554, 0.0
1555, 0.0
1556, 0.0
1557, 0.0
1558, 0.0
1559, 0.0
1560, 0.0
1561, 0.0
1562, 0.0
1563, 0.0
1564, 0.0
1565, 0.0
1566, 0.0
1567, 0.0
1568, 0.0
1569, 0.0
1570, 0.0
1571, 0.0
1572, 0.0
1573, 0.0
1574, 0.0
1575, 0.0
1576, 0.0
1577, 0.0
1578, 0.0
1579, 0.0
1580, 0.0
1581, 0.0
1582, 0.0
1583, 0.0
1584, 0.0
1585, 0.0
1586, 0.0
1587, 0.0
1588, 0.0
1589, 0.0
1590, 0.0
1591, 0.0
1592, 0.0
1593, 0.0
1594, 0.0
1595, 0.0
1596, 0.0
1597, 0.0
1598, 0.0
1599, 0.0
