30, 0.0
31, 0.0
32, 0.0
33, 0.0
34, 0.0
35, 0.0
36, 0.0
37, 0.0
38, 0.0
39, 0.0
40, 0.0
41, 0.0
42, 0.0
43, 0.0
44, 0.0
45, 0.0
46, 0.0
47, 0.0
48, 0.0
49, 0.0
50, 0.0
51, 0.0
52, 0.0
53, 0.0
54, 0.0
55, 0.0
56, 0.0
57, 0.0
58, 0.0
59, 0.0
60, 0.0
61, 0.0
62, 0.0
63, 0.0
64, 0.0
65, 0.0
66, 0.0
67, 0.0
68, 0.0
69, 0.0
70, 0.0
71, 0.0
72, 0.0
73, 0.0
74, 0.0
75, 0.0
76, 0.0
77, 0.0
78, 0.0
79, 0.0
80, 0.0
81, 0.0
82, 0.0
83, 0.0
84, 0.0
85, 0.0
86, 0.0
87, 0.0
88, 0.0
89, 0.0
90, 0.0
91.0, 0.0004299099977171669
92.0, 0.0015076322889362621
93.0, 0.004484260110133908
94.0, 0.004390603195166461
95.0, 0.003077744289774475
96.0, 0.003827127098946417
97.0, 0.003621845849833923
98.0, 0.0030518236285845303
99.0, 0.0022492904380720397
100.0, 0.0013216165797161352
101.0, 0.001327810549326651
102.0, 0.001439793790786067
103.0, 0.0005267198634946627
104.0, 0.0018406548462519862
105.0, 0.003259654811512803
106.0, 0.004066873297927354
107.0, 0.0010475431720025502
108.0, 0.0012560804817841626
109.0, 0.0023430087124129465
110.0, 0.0023006755884039257
111.0, 0.006359121840326591
112.0, 0.013178960179010739
113.0, 0.02063234531849792
114.0, 0.018453862377738415
115.0, 0.026144082922406657
116.0, 0.036011655522133444
117.0, 0.04373961137323484
118.0, 0.04847473040832463
119.0, 0.04863647744982356
120.0, 0.04679136216535932
121.0, 0.05052032784840669
122.0, 0.05655409642837347
123.0, 0.06521358104902779
124.0, 0.07668606083432199
125.0, 0.08066802128480455
126.0, 0.08384664891880778
127.0, 0.08262754960677537
128.0, 0.06910520470922335
129.0, 0.05745205776363143
130.0, 0.04507742037037446
131.0, 0.031923970894913764
132.0, 0.023665981007211324
133.0, 0.016394150521791946
134.0, 0.010579132053810851
135.0, 0.007089814128169657
136.0, 0.004075048634404055
137.0, 0.0027020593208773175
138.0, 0.002675738390692021
139.0, 0.0022229790918326126
140.0, 0.0027651327012794534
141.0, 0.0036044846964605015
142.0, 0.004406083344531341
143.0, 0.005566084981290915
144.0, 0.007378090436490807
145.0, 0.009895244634178759
146.0, 0.013419488100929598
147.0, 0.017007498618636624
148.0, 0.02280284975800293
149.0, 0.031482718640242165
150.0, 0.04220580511783037
151.0, 0.05144227580913173
152.0, 0.06201692296861619
153.0, 0.07766082654346651
154.0, 0.08771223579526907
155.0, 0.09554881212828241
156.0, 0.1006203593012633
157.0, 0.09769953676960041
158.0, 0.0876486809418566
159.0, 0.07433957479984682
160.0, 0.05946492224750943
161.0, 0.044716360351337824
162.0, 0.03272647259781463
163.0, 0.023170669408792345
164.0, 0.01582322991314461
165.0, 0.011111058334017956
166.0, 0.008008010851555126
167.0, 0.006116797791786372
168.0, 0.0029174584537853864
169.0, 0.0010573902603018925
170.0, 0.0010587534210383099
171.0, 0.003863392999425447
172.0, 0.0031491908606514018
173.0, 0.002554151269198943
174.0, 0.0023935327690380592
175.0, 0.0028198717429968197
176.0, 0.0020151355870549805
177.0, 0.0013462687305177176
178.0, 0.0013709512412228713
179.0, 0.0016688420464845211
180.0, 0.0015044746577327491
181.0, 0.0009677698815367534
182.0, 0.00010262598385034089
183.0, 0.002556261514031802
184.0, 0.003695307458663714
185.0, 0.0032325943690131483
186.0, 0.0033949963696921458
187.0, 0.002314088436858118
188.0, 0.001611745079190559
189.0, 0.002263415599018088
190.0, 0.003261209304509224
191.0, 0.003415124268488662
192.0, 0.0029233686516527326
193.0, 0.00206978535344608
194.0, 0.0009150014578151757
195.0, 0.0015058567238554579
196.0, 0.0036978405985539017
197.0, 0.002857512813586119
198.0, 0.003347851582478456
199.0, 0.004104867339836867
200.0, 0.00441586525867286
201.0, 0.004844568361095178
202.0, 0.0049841780682784885
203.0, 0.005252527572740032
204.0, 0.006697143138511043
205.0, 0.00638591384566507
206.0, 0.004935780497451428
207.0, 0.0028258049228435072
208.0, 0.0033898216980616717
209.0, 0.003288864835728233
210.0, 0.002338398977476168
211.0, 0.00025341335801249863
212.0, 0.0009095428440532016
213.0, 0.0009767251147015628
214.0, 0.0005735757116776956
215.0, 0.00019955150695405343
216.0, 0.0005800703883846078
217.0, 0.0006098747118825046
218.0, 0.00015344822283763158
219.0, 0.00044666023707377563
220.0, 0.0011957481373398113
221.0, 0.0017017092828545987
222.0, 0.0014113546700549435
223.0, 0.0014130426786923473
224.0, 0.0008922890659354994
225.0, 0.0007331939535389857
226.0, 0.003010089336758813
227.0, 0.003831529564194279
228.0, 0.0047245554985120355
229.0, 0.006149170919974432
230.0, 0.00910440836846653
231.0, 0.012128429335753707
232.0, 0.015870499115194798
233.0, 0.020813883300173263
234.0, 0.025297709654780072
235.0, 0.030763245214146914
236.0, 0.035669461178581184
237.0, 0.03714714716920638
238.0, 0.04290474267941157
239.0, 0.044985360101261355
240.0, 0.04356678262727339
241.0, 0.04576647579213923
242.0, 0.04543778067538812
243.0, 0.04466363720703944
244.0, 0.04443377566701905
245.0, 0.046507095641054506
246.0, 0.048876478097402504
247.0, 0.053547018588871974
248.0, 0.06345256412547573
249.0, 0.07451107430984237
250.0, 0.09136278287810737
251.0, 0.11411334934500368
252.0, 0.14252888923404883
253.0, 0.1798717453564894
254.0, 0.22446594645500348
255.0, 0.27543842224406456
256.0, 0.32541250674837696
257.0, 0.37110094114810677
258.0, 0.40387265376185855
259.0, 0.41523969978516856
260.0, 0.3795158364138983
261.0, 0.33027952438150243
262.0, 0.27435269517973504
263.0, 0.22231453875709425
264.0, 0.17983211967980822
265.0, 0.1439963650463376
266.0, 0.1155772847958968
267.0, 0.1010642310418971
268.0, 0.08291068831820848
269.0, 0.06827529652891698
270.0, 0.0602960518498556
271.0, 0.054081603023674645
272.0, 0.04821777362303334
273.0, 0.042692359836964684
274.0, 0.03754591294414046
275.0, 0.03898087113893186
276.0, 0.03938970496154376
277.0, 0.03859187336230462
278.0, 0.037014564454679634
279.0, 0.03974550816582162
280.0, 0.043072600700767516
281.0, 0.04639657672702504
282.0, 0.050712505165719894
283.0, 0.05364092758293026
284.0, 0.05772110758349808
285.0, 0.06446470141717896
286.0, 0.0786896907174398
287.0, 0.08887222686307368
288.0, 0.09939915769025491
289.0, 0.11506449269492072
290.0, 0.13256880447883673
291.0, 0.14684832931031283
292.0, 0.15874696638668245
293.0, 0.17060892543739423
294.0, 0.17729686764732783
295.0, 0.18186514833934933
296.0, 0.18517519848184794
297.0, 0.18867050533865948
298.0, 0.18971381268596935
299.0, 0.19227315980824358
300.0, 0.1979229276160359
301.0, 0.20244531363406593
302.0, 0.2092141057130619
303.0, 0.21660813205381788
304.0, 0.22324842258557237
305.0, 0.22353071821842527
306.0, 0.21391438811965835
307.0, 0.19662830751586638
308.0, 0.17490022667469313
309.0, 0.14683372997223884
310.0, 0.12018544516958463
311.0, 0.0958369121442519
312.0, 0.07329077498092926
313.0, 0.06038377684593427
314.0, 0.04988498313908867
315.0, 0.040124812349052234
316.0, 0.03494755936491485
317.0, 0.03377272889143964
318.0, 0.03432119900765929
319.0, 0.03546249882580211
320.0, 0.041025357748682545
321.0, 0.04979608437732066
322.0, 0.0611077295192002
323.0, 0.07449083553464601
324.0, 0.08208608830329774
325.0, 0.08819264435943104
326.0, 0.0904443484311292
327.0, 0.0827893796807375
328.0, 0.07354681519986235
329.0, 0.0640631725426456
330.0, 0.054380561719410414
331.0, 0.043801992313086346
332.0, 0.03520759483672055
333.0, 0.030133380247575153
334.0, 0.028494355545578626
335.0, 0.024659272141770328
336.0, 0.02285483971498705
337.0, 0.02175771847784914
338.0, 0.02064899933141095
339.0, 0.01897306295848758
340.0, 0.019169853081696716
341.0, 0.019634574802194084
342.0, 0.018796699515225227
343.0, 0.019168606261148143
344.0, 0.019827976440880576
345.0, 0.0198794915531649
346.0, 0.01776898395991744
347.0, 0.018730373182371723
348.0, 0.01963898640831018
349.0, 0.019858093436196336
350.0, 0.018513215161581175
351.0, 0.019719429947599114
352.0, 0.02012856440905837
353.0, 0.019035207485116775
354.0, 0.01661753551864799
355.0, 0.0168709228505571
356.0, 0.016935385024546702
357.0, 0.015915625905180825
358.0, 0.015691670694900996
359.0, 0.014758260150348463
360.0, 0.013679154350900535
361.0, 0.01278210597811411
362.0, 0.011875218360072428
363.0, 0.011040809537045036
364.0, 0.01055104449478578
365.0, 0.010697178171989436
366.0, 0.008818883091701066
367.0, 0.00821790652600922
368.0, 0.008279297108898954
369.0, 0.008015478347733291
370.0, 0.007225562767943212
371.0, 0.005933078212809883
372.0, 0.004617583115580225
373.0, 0.004374929979931433
374.0, 0.0054066688584919805
375.0, 0.005353524881227562
376.0, 0.004602098415647212
377.0, 0.005801428907027557
378.0, 0.00322089568919609
379.0, 0.0022171398284351225
380.0, 0.003566046073735702
381.0, 0.003829185235189672
382.0, 0.005087409858322976
383.0, 0.005005667764792218
384.0, 0.0031619739981844667
385.0, 0.004508209069425544
386.0, 0.005362721147341494
387.0, 0.005029484475378385
388.0, 0.003275137631038593
389.0, 0.004222578743828839
390.0, 0.0038806655303624095
391.0, 0.0034527485883303548
392.0, 0.0038805662572507695
393.0, 0.0054359165540632404
394.0, 0.004246469524903079
395.0, 0.0035436003841721212
396.0, 0.006960022746277935
397.0, 0.003104988421163055
398.0, 0.0022020039835265867
399.0, 0.002411188365298368
400.0, 0.0005250069447014375
401.0, 0.0013722402718073963
402.0, 0.001707236037761094
403.0, 0.0013738925643621096
404.0, 0.0005050797166736878
405.0, 0.00043137262693693836
406.0, 0.001010138136102736
407.0, 0.0016623056592869677
408.0, 0.0008850996466036598
409.0, 0.0009433585460813891
410.0, 0.0011754017121009266
411.0, 0.001348092279106274
412.0, 0.0010616192412624935
413.0, 0.0005444382717894013
414.0, 0.0005234562040327218
415.0, 0.0009578073168678263
416.0, 0.0007977501670999943
417.0, 0.0014499236228813872
418.0, 0.0024392757022359975
419.0, 0.003210764306218275
420.0, 0.0012261274638587752
421.0, 0.0025477503196075784
422.0, 0.0033562423412472125
423.0, 0.0023409882462425194
424.0, 0.001619484268150459
425.0, 0.0010079393505221463
426.0, 0.0006430212630769235
427.0, 0.0005537574743750518
428.0, 0.00017332255064763345
429.0, 0.000463647759675308
430.0, 0.0005760650976711269
431.0, 0.0001007981063106412
432.0, 0.0009637176353523228
433.0, 0.0008891004845377683
434.0, 0.0006587012939324047
435.0, 0.0008092099445926232
436.0, 0.0009263707974688392
437.0, 0.0004714012803450039
438.0, 0.00016769638029075912
439.0, 0.0006033638682687181
440.0, 0.00027389528038655633
441.0, 0.0005583166772928283
442.0, 0.0008310921234444099
443.0, 0.0004913291870720973
444.0, 0.00013283878363198415
445.0, 0.0004961724836002252
446.0, 0.0009059430075808216
447.0, 0.0006170868881008414
448.0, 0.0004402849334015052
449.0, 0.0008480079346834457
450.0, 0.0013627222930279754
451.0, 0.001395285936601314
452.0, 0.000815570365376633
453.0, 0.001573940068785601
454.0, 0.002606884937096774
455.0, 0.0024216307832871883
456.0, 0.002305129292170841
457.0, 0.001550824585042947
458.0, 0.0014594859263984705
459.0, 0.003978429674279295
460.0, 0.003598486662874131
461.0, 0.004721676691754885
462.0, 0.006089082541390443
463.0, 0.005414238097589549
464.0, 0.006442546540520858
465.0, 0.007823212614533432
466.0, 0.00925767129139494
467.0, 0.010407119509763443
468.0, 0.012215732148673065
469.0, 0.01431744057694199
470.0, 0.016339069429054148
471.0, 0.017702394967166597
472.0, 0.020282488954424947
473.0, 0.021162179363975506
474.0, 0.021343604253140205
475.0, 0.022831932454756704
476.0, 0.021920941358065354
477.0, 0.021245394089944157
478.0, 0.020067395465543387
479.0, 0.016801331871886007
480.0, 0.01527732647471108
481.0, 0.014874927532122153
482.0, 0.014319221597082689
483.0, 0.011575649371811183
484.0, 0.010712972238330435
485.0, 0.010412736553649929
486.0, 0.010621058604652506
487.0, 0.011419158424293752
488.0, 0.008993010781395085
489.0, 0.007907827777541994
490.0, 0.007729463757141649
491.0, 0.0073685266234919415
492.0, 0.006010734455394081
493.0, 0.0052256285311172365
494.0, 0.004671227910255482
495.0, 0.0037301738037349478
496.0, 0.003013351628830538
497.0, 0.0030221125702581545
498.0, 0.0035049701956572856
499.0, 0.004102494111658847
500.0, 0.003910323891867446
501.0, 0.004258667073347256
502.0, 0.004687383784298469
503.0, 0.0045768856421209295
504.0, 0.00411178146691187
505.0, 0.004217405018446178
506.0, 0.004743795361108465
507.0, 0.005503739762059751
508.0, 0.0055972655154118665
509.0, 0.00605386089313649
510.0, 0.006733067973821367
511.0, 0.007487255794758702
512.0, 0.00840759378834929
513.0, 0.00928020661476624
514.0, 0.010657379376616724
515.0, 0.012968146145600564
516.0, 0.014271574542642652
517.0, 0.014354622983720058
518.0, 0.014422488448519798
519.0, 0.015470234884556563
520.0, 0.019135771122429493
521.0, 0.019387101741906394
522.0, 0.020045464722441217
523.0, 0.023173821777758345
524.0, 0.023385887654427465
525.0, 0.02503956058970171
526.0, 0.02768465712444583
527.0, 0.030947357292133344
528.0, 0.033534327872496966
529.0, 0.0364679970797106
530.0, 0.03913846731527923
531.0, 0.04165796307484821
532.0, 0.04663663741201723
533.0, 0.052100374285769885
534.0, 0.058739720587944265
535.0, 0.0664650251399231
536.0, 0.07349950198185227
537.0, 0.08378320199741474
538.0, 0.09616763695969828
539.0, 0.11027122602019702
540.0, 0.12586741531090914
541.0, 0.14983471726739336
542.0, 0.17561198579152237
543.0, 0.20573130097350506
544.0, 0.2519932473921645
545.0, 0.302568850554236
546.0, 0.3646550578567907
547.0, 0.4401397563760884
548.0, 0.5309469348852178
549.0, 0.6361686743635909
550.0, 0.738112219945324
551.0, 0.8324371336507439
552.0, 0.9148150914363851
553.0, 0.9529392297023158
554.0, 0.9471694529349459
555.0, 0.9061635944708121
556.0, 0.8413798031274796
557.0, 0.749665543687248
558.0, 0.6584807740560489
559.0, 0.5721843341889359
560.0, 0.4949627938312551
561.0, 0.44633205400306397
562.0, 0.4025076378990906
563.0, 0.36748914587825243
564.0, 0.3446145146181411
565.0, 0.3398707108900056
566.0, 0.33662515594257164
567.0, 0.3428181075364359
568.0, 0.3619848238227544
569.0, 0.3884450433539425
570.0, 0.4200480514214633
571.0, 0.45615157985714055
572.0, 0.49811431943164125
573.0, 0.553331693587326
574.0, 0.5919865717002855
575.0, 0.6199527970142382
576.0, 0.6351905018363302
577.0, 0.6265911170473053
578.0, 0.5981550106547349
579.0, 0.5554533686685472
580.0, 0.500802559850962
581.0, 0.43698533556981484
582.0, 0.38317757154341403
583.0, 0.3291313196488711
584.0, 0.27813049906413057
585.0, 0.23614846238115428
586.0, 0.20750749227829493
587.0, 0.18161995746946336
588.0, 0.15895398378589806
589.0, 0.14013734647300402
590.0, 0.1241848909550322
591.0, 0.10895503706743946
592.0, 0.09712052165579127
593.0, 0.08998343535639886
594.0, 0.08266982430155986
595.0, 0.07772597970111296
596.0, 0.07287737034923487
597.0, 0.06769143986344861
598.0, 0.06515122536167918
599.0, 0.06258369660915528
600.0, 0.06038626111114778
601.0, 0.058607258781983286
602.0, 0.057058449467940336
603.0, 0.05521215484819476
604.0, 0.0556969052583796
605.0, 0.0572391891922893
606.0, 0.05659065535004979
607.0, 0.055857786711600306
608.0, 0.05808098450469611
609.0, 0.0609317038702713
610.0, 0.06135532349069563
611.0, 0.06939960339964474
612.0, 0.07493556623999675
613.0, 0.07942220749985655
614.0, 0.08396428013821693
615.0, 0.08762761084195696
616.0, 0.09408275307148527
617.0, 0.0980664258229697
618.0, 0.09827498838524538
619.0, 0.1015836569224607
620.0, 0.10120992629650954
621.0, 0.10203140077573304
622.0, 0.1032969196055752
623.0, 0.09862269382938905
624.0, 0.09834595978509095
625.0, 0.09198484304000874
626.0, 0.08241774341791529
627.0, 0.07724562093876888
628.0, 0.06660465994790649
629.0, 0.058193565672832404
630.0, 0.05230691507877599
631.0, 0.048631603040922726
632.0, 0.041640133961196285
633.0, 0.03893267206656549
634.0, 0.03641789245469325
635.0, 0.03244043031625199
636.0, 0.03387549624718073
637.0, 0.029644099976634763
638.0, 0.028589404477951462
639.0, 0.03213990703824383
640.0, 0.03440491337649167
641.0, 0.034407710897494934
642.0, 0.03385735832840253
643.0, 0.034180732854371836
644.0, 0.03753538243003424
645.0, 0.03987891324471716
646.0, 0.042709944341631924
647.0, 0.044616942534040034
648.0, 0.04407930970414803
649.0, 0.043174646423311466
650.0, 0.04457984989645684
651.0, 0.048321772334769114
652.0, 0.05353906917485184
653.0, 0.05425421013817235
654.0, 0.05815152087858115
655.0, 0.0608636131640636
656.0, 0.0631315001529154
657.0, 0.07180737174108046
658.0, 0.08223565426066175
659.0, 0.09278491037742216
660.0, 0.1049821671506286
661.0, 0.12165025738087537
662.0, 0.14859210864050348
663.0, 0.17968924951529727
664.0, 0.21416275387515585
665.0, 0.2518993250068618
666.0, 0.30075042392220547
667.0, 0.34107422056251774
668.0, 0.3763066528197232
669.0, 0.40363316428077983
670.0, 0.401937922298552
671.0, 0.3827635948029836
672.0, 0.35246533411224656
673.0, 0.31281565312434334
674.0, 0.26472004882956574
675.0, 0.22555692445358955
676.0, 0.18835198337730857
677.0, 0.15583397994636392
678.0, 0.13122956667058389
679.0, 0.10976316544534828
680.0, 0.0908094217948936
681.0, 0.07758743887582499
682.0, 0.07034732485822338
683.0, 0.06012443843706295
684.0, 0.05139892892698822
685.0, 0.04510659196579041
686.0, 0.04040464898742205
687.0, 0.03454813772785212
688.0, 0.032815362906563145
689.0, 0.03045770544838685
690.0, 0.028096129370969784
691.0, 0.026900057786139617
692.0, 0.022767702611076208
693.0, 0.023293467531296682
694.0, 0.024295029101472448
695.0, 0.023729432419076362
696.0, 0.024806403513179746
697.0, 0.023270055280720257
698.0, 0.024281936340787708
699.0, 0.027396109251793938
700.0, 0.02808460315231269
701.0, 0.03125140092061517
702.0, 0.03294259144508951
703.0, 0.035014068376526264
704.0, 0.03994724316949371
705.0, 0.04794996615735725
706.0, 0.054660263200552485
707.0, 0.058577288666935796
708.0, 0.06102190098736549
709.0, 0.07276526698510453
710.0, 0.07401652347832828
711.0, 0.07679282373455595
712.0, 0.07999579159148118
713.0, 0.07576053478721552
714.0, 0.06867835633968473
715.0, 0.061269329238506504
716.0, 0.0547330864682561
717.0, 0.050181703595241545
718.0, 0.04942449478960816
719.0, 0.04722383313632146
720.0, 0.044218921508398755
721.0, 0.041297355973921424
722.0, 0.04067084138789857
723.0, 0.03782966754733851
724.0, 0.0347362033678819
725.0, 0.03244513986257396
726.0, 0.0320245587650889
727.0, 0.029081902270646335
728.0, 0.025801919918308373
729.0, 0.02373835920789513
730.0, 0.023093678004395206
731.0, 0.018280437547374594
732.0, 0.016371359019119704
733.0, 0.016492427484391725
734.0, 0.016842468874786853
735.0, 0.013854104436739885
736.0, 0.013075668250006727
737.0, 0.013004048723761796
738.0, 0.012983312509219264
739.0, 0.0125083135160218
740.0, 0.012243504747422206
741.0, 0.011692299089052286
742.0, 0.011322965692261641
743.0, 0.011200651944678838
744.0, 0.010881333805156209
745.0, 0.010328476169296054
746.0, 0.010040817579012094
747.0, 0.010166624418090112
748.0, 0.010741676930670095
749.0, 0.009378517302435753
750.0, 0.008179042816412479
751.0, 0.007097890963111258
752.0, 0.0063814584370771345
753.0, 0.007353467949882146
754.0, 0.005716844252489019
755.0, 0.002755617159663851
756.0, 0.000579444040954329
757.0, 0.002224998134113175
758.0, 0.0007875499291372148
759.0, 0.0014783683399655124
760.0, 0.001867116238644213
761.0, 0.0006059840167916834
762.0, 0.0005033281301355383
763.0, 0.0009018608245599382
764.0, 0.0016964149760240416
765.0, 0.0021698446917287183
766.0, 0.0009512906192566203
767.0, 0.0021662831376727393
768.0, 0.0026904686596008823
769.0, 0.0023463129310642757
770.0, 0.001617587121549806
771.0, 0.004481086263741307
772.0, 0.00266573441196174
773.0, 0.00224792187887728
774.0, 0.0031029322974606374
775.0, 0.0008005185112227077
776.0, 0.00022112313783913699
777.0, 0.0006448924052839512
778.0, 0.001833511561024743
779.0, 0.0031525493754654323
780.0, 0.0007387612836083585
781.0, 0.0008404759362642838
782.0, 0.0011770444980708542
783.0, 0.0010529177663071217
784.0, 0.0005692421084549252
785.0, 0.0006629586827055145
786.0, 0.0005649203532896158
787.0, 0.0003752685963808805
788.0, 0.00027367991422581287
789.0, 0.0006642440756735256
790.0, 0.0013724664323983206
791.0, 0.0022356351040718424
792.0, 0.0026437694208699867
793.0, 0.0013466794988843764
794.0, 0.0028187562411930273
795.0, 0.0037287312109130642
796.0, 0.0037424249257077343
797.0, 0.002746314020760086
798.0, 0.0005667875043835282
799.0, 0.00038418965083194027
800.0, 0.0010763943813155686
801.0, 0.0019058811218806353
802.0, 0.002023495929497957
803.0, 0.002656788645158715
804.0, 0.002417993370262847
805.0, 0.0016930826827225136
806.0, 0.0010086062615947181
807.0, 0.001439797958497373
808.0, 0.0019453934872509216
809.0, 0.0012609112000888315
810.0, 0.0003965717314655221
811.0, 0.0016147584171037179
812.0, 0.0018678809365394516
813.0, 0.001310256199959909
814.0, 0.0011550342354935679
815.0, 0.0017835865152340596
816.0, 0.0013710192596003503
817.0, 0.0014483266329600084
818.0, 0.0015164360175218205
819.0, 0.0012723417249530906
820.0, 0.0004891575156508411
821.0, 0.0008855202125075278
822.0, 0.00211225654758268
823.0, 0.001913758797930485
824.0, 0.0004118442268552079
825.0, 0.0017107647250572907
826.0, 0.003455114961829137
827.0, 0.003112002847896647
828.0, 0.002981467479028304
829.0, 0.0054988376077502715
830.0, 0.006931489348218519
831.0, 0.007006584947958901
832.0, 0.007185799811419017
833.0, 0.007431206218926555
834.0, 0.006480875298314259
835.0, 0.005973724287329889
836.0, 0.00655031016146966
837.0, 0.006604364095982005
838.0, 0.00534602161255085
839.0, 0.00555731922734008
840.0, 0.009497053460808825
841.0, 0.010410118340137393
842.0, 0.00991188082856955
843.0, 0.012657086803985196
844.0, 0.013442723889203397
845.0, 0.014263360529844567
846.0, 0.015256647946758177
847.0, 0.015902852245945745
848.0, 0.014249572118312027
849.0, 0.016111194580562323
850.0, 0.018263184451008024
851.0, 0.01892845439774468
852.0, 0.017463183413498326
853.0, 0.020800267021112477
854.0, 0.023555346406428042
855.0, 0.026398052733329486
856.0, 0.028279725165446083
857.0, 0.026893080456851966
858.0, 0.029909742543565935
859.0, 0.034103997658923836
860.0, 0.03633254803034576
861.0, 0.03492751657291101
862.0, 0.030819268866961815
863.0, 0.034457146208059806
864.0, 0.032197743581608186
865.0, 0.026940849734457373
866.0, 0.024304454001198898
867.0, 0.02462348461993198
868.0, 0.02296538526132193
869.0, 0.020665698646851013
870.0, 0.01929568405788316
871.0, 0.0210557854427052
872.0, 0.01878815160109662
873.0, 0.01846360740799572
874.0, 0.01855335375056394
875.0, 0.018322235440448125
876.0, 0.019231588955036016
877.0, 0.019939058013063407
878.0, 0.020069056043500157
879.0, 0.019596557063760452
880.0, 0.018602266097287427
881.0, 0.017257089238136066
882.0, 0.018700818518497187
883.0, 0.019300560504719406
884.0, 0.018854570831656776
885.0, 0.019104077744742952
886.0, 0.019788814912791577
887.0, 0.02084745553629446
888.0, 0.022125093455005816
889.0, 0.023410835960987243
890.0, 0.024324448287426168
891.0, 0.02658287204650727
892.0, 0.027283145496488765
893.0, 0.02802996946563844
894.0, 0.030210229772460278
895.0, 0.03127371989048563
896.0, 0.032519147140788615
897.0, 0.03368607555895178
898.0, 0.034593740611046093
899.0, 0.03511167040909849
900.0, 0.03587967145809106
901.0, 0.036312523411517014
902.0, 0.03654901350152768
903.0, 0.03604841247655804
904.0, 0.033433288166226
905.0, 0.03300454918571451
906.0, 0.03140357405356578
907.0, 0.029995987990758366
908.0, 0.029386180571035155
909.0, 0.02794766157671889
910.0, 0.0279989404866534
911.0, 0.028291859157483303
912.0, 0.028383585024874234
913.0, 0.028432537795321636
914.0, 0.03189057657265345
915.0, 0.0306443968460886
916.0, 0.029658473129261342
917.0, 0.03065607116844207
918.0, 0.033965544998026086
919.0, 0.03329047905813484
920.0, 0.033267198682668066
921.0, 0.03300567581768758
922.0, 0.03250065289689232
923.0, 0.032533362589044656
924.0, 0.032925600862489426
925.0, 0.02855776140094389
926.0, 0.025569577667151722
927.0, 0.026478421438046063
928.0, 0.02690038790376651
929.0, 0.02583928082025461
930.0, 0.0267595642856566
931.0, 0.027258841103151358
932.0, 0.025768985505999462
933.0, 0.026329000655507296
934.0, 0.02765462229080042
935.0, 0.02628030922100542
936.0, 0.025936712923856492
937.0, 0.030437834877794907
938.0, 0.02854028171354727
939.0, 0.028108250300619978
940.0, 0.02973799360235929
941.0, 0.03136765223267399
942.0, 0.029741237941819838
943.0, 0.02829845372634648
944.0, 0.0317037974439246
945.0, 0.03588131401224491
946.0, 0.038755246427297656
947.0, 0.03956923619950853
948.0, 0.04275163609843705
949.0, 0.04249338588086296
950.0, 0.04371304098072432
951.0, 0.04707211863982469
952.0, 0.04675570516583546
953.0, 0.046588948992992645
954.0, 0.0513032545690399
955.0, 0.05614659611446638
956.0, 0.058680234905731044
957.0, 0.06333754405951807
958.0, 0.06725291131065723
959.0, 0.07545074698343832
960.0, 0.08590034509974592
961.0, 0.09665871346305523
962.0, 0.11013784495329615
963.0, 0.12921915187999586
964.0, 0.1527350747221864
965.0, 0.18278215815841836
966.0, 0.22182665913390576
967.0, 0.27308434645458435
968.0, 0.3361269286798414
969.0, 0.40303650323552115
970.0, 0.4620336691473584
971.0, 0.49980907528130125
972.0, 0.5034158885810164
973.0, 0.4631734672709352
974.0, 0.40522249043798375
975.0, 0.3395755233017738
976.0, 0.2710222594876011
977.0, 0.21733325273238951
978.0, 0.18165995548669203
979.0, 0.15249456078568066
980.0, 0.12748427155189052
981.0, 0.10968887552310873
982.0, 0.10355172013297292
983.0, 0.09098266789829416
984.0, 0.08255278235250418
985.0, 0.08084439180680222
986.0, 0.08163939294767637
987.0, 0.078093254357729
988.0, 0.08227915246296814
989.0, 0.08499025866387694
990.0, 0.08457049368278503
991.0, 0.0877793951922034
992.0, 0.09273322583711573
993.0, 0.09808055341903463
994.0, 0.1064940143105614
995.0, 0.11796491642793178
996.0, 0.12879370902659673
997.0, 0.14431326081284598
998.0, 0.1599401573267102
999.0, 0.18639519117490397
1000.0, 0.22438298861194528
1001.0, 0.25821225737095843
1002.0, 0.3038589310189354
1003.0, 0.3498955968994068
1004.0, 0.40451356430892915
1005.0, 0.4760436630146658
1006.0, 0.5732929562528467
1007.0, 0.6973317908662469
1008.0, 0.8247294260321585
1009.0, 0.9328959606644691
1010.0, 0.9995499240234904
1011.0, 0.9972179241452024
1012.0, 0.9222975467677911
1013.0, 0.8077819131063362
1014.0, 0.6767130450960874
1015.0, 0.5500528923188092
1016.0, 0.4467578435548997
1017.0, 0.36500627213577086
1018.0, 0.29713196696934874
1019.0, 0.24442437784191287
1020.0, 0.20560709494565496
1021.0, 0.17419067735119628
1022.0, 0.14795522773313322
1023.0, 0.12916886885595683
1024.0, 0.1127047181335269
1025.0, 0.09630041665643628
1026.0, 0.08469123076211513
1027.0, 0.07459389587802392
1028.0, 0.06753285213931379
1029.0, 0.059797525313553285
1030.0, 0.050373666264639336
1031.0, 0.04395016410452655
1032.0, 0.04162130444853197
1033.0, 0.039530862845672504
1034.0, 0.03514193294971589
1035.0, 0.029120755255361463
1036.0, 0.027446802489871896
1037.0, 0.026422384436159498
1038.0, 0.023469113525653878
1039.0, 0.022880038230902337
1040.0, 0.023815205176037448
1041.0, 0.017307215838967358
1042.0, 0.01813659245705356
1043.0, 0.019844326409871254
1044.0, 0.019078100132712068
1045.0, 0.015822020553120653
1046.0, 0.014091884707020948
1047.0, 0.01475082927283481
1048.0, 0.01671733455660691
1049.0, 0.016809261802535207
1050.0, 0.015000283513523465
1051.0, 0.014505753185108036
1052.0, 0.013569692501328001
1053.0, 0.011970300306900886
1054.0, 0.011094420451598046
1055.0, 0.010985335611901438
1056.0, 0.0105617626010948
1057.0, 0.008764883722288286
1058.0, 0.010196388272743788
1059.0, 0.011636404962116882
1060.0, 0.0123233461076148
1061.0, 0.012926485203289819
1062.0, 0.012271648020006283
1063.0, 0.012097693118704253
1064.0, 0.011375260254266484
1065.0, 0.010134001418881591
1066.0, 0.00914165712341504
1067.0, 0.011300780321733223
1068.0, 0.010333077830986333
1069.0, 0.00919495244686402
1070.0, 0.009583979781725994
1071.0, 0.011901493348085598
1072.0, 0.011670429034831255
1073.0, 0.011935136475049013
1074.0, 0.013673055784237154
1075.0, 0.014593585173726007
1076.0, 0.013294767408869156
1077.0, 0.01428475099673929
1078.0, 0.01782017970233772
1079.0, 0.01770601902975571
1080.0, 0.01662203363395641
1081.0, 0.017232323230950895
1082.0, 0.019162161214796893
1083.0, 0.01981470855128203
1084.0, 0.017520959628952375
1085.0, 0.014701208661037657
1086.0, 0.012719985333104738
1087.0, 0.01082386331427647
1088.0, 0.011391082877471858
1089.0, 0.009637725989581092
1090.0, 0.00856826311642072
1091.0, 0.00912084471405891
1092.0, 0.00995231468608824
1093.0, 0.007141507949117432
1094.0, 0.007072100701928806
1095.0, 0.006230614360452725
1096.0, 0.00560646525239339
1097.0, 0.008049497508465953
1098.0, 0.007964254314664737
1099.0, 0.008788122776463498
1100.0, 0.008888335142182176
1101.0, 0.00941130642318634
1102.0, 0.011690386742514547
1103.0, 0.013231010389044048
1104.0, 0.017158116841396228
1105.0, 0.019709796624492116
1106.0, 0.022769905019270457
1107.0, 0.02678875825867703
1108.0, 0.02555570272506927
1109.0, 0.023610445699399775
1110.0, 0.023530365183735646
1111.0, 0.0212434566465312
1112.0, 0.016434546008298138
1113.0, 0.014890999469405352
1114.0, 0.013205760024963825
1115.0, 0.01069663819815455
1116.0, 0.009166055675262186
1117.0, 0.008695143318194872
1118.0, 0.00785835683677055
1119.0, 0.0038963520270599945
1120.0, 0.0041901744902560455
1121.0, 0.006676578111942611
1122.0, 0.010182283790096705
1123.0, 0.013409224375889822
1124.0, 0.012588198040886902
1125.0, 0.007832647936533224
1126.0, 0.00473529803030701
1127.0, 0.003298927020226451
1128.0, 0.0026845119162591064
1129.0, 0.002840106657368192
1130.0, 0.002903545591555713
1131.0, 0.002906010394619985
1132.0, 0.001836917269850071
1133.0, 0.00041885104911507613
1134.0, 0.001432480013114187
1135.0, 0.003642523835229062
1136.0, 0.0021613063783324496
1137.0, 0.0021858695915896163
1138.0, 0.0030313207243847203
1139.0, 0.0012958070481384268
1140.0, 0.0006908401381832775
1141.0, 0.0014567511378501827
1142.0, 0.0030295757975220237
1143.0, 0.0032739121548564084
1144.0, 0.0012288697977148324
1145.0, 0.0008609051942245652
1146.0, 0.0002616790812386131
1147.0, 0.0007848442683842181
1148.0, 0.0012899373800362261
1149.0, 0.001603065239816346
1150.0, 0.0031356140025234625
1151.0, 0.0023756390470527863
1152.0, 0.0008290896404884797
1153.0, 0.0008963331930038705
1154.0, 0.0020494022928746304
1155.0, 0.0021205998622492042
1156.0, 0.0005659092321670905
1157.0, 0.0007678427701932404
1158.0, 0.0023309116502928722
1159.0, 0.003876565027223645
1160.0, 0.004260853152434576
1161.0, 0.0036883102292734698
1162.0, 0.005260984852629071
1163.0, 0.006271688900965166
1164.0, 0.007533407671982665
1165.0, 0.008663407415600378
1166.0, 0.007975905360491711
1167.0, 0.01081815589799829
1168.0, 0.0089201774278186
1169.0, 0.009175604161499503
1170.0, 0.01038498846225754
1171.0, 0.00920324804883086
1172.0, 0.01026023317327118
1173.0, 0.011931749974131439
1174.0, 0.015291816788380288
1175.0, 0.01821408412452848
1176.0, 0.019609428279309376
1177.0, 0.021096899406108486
1178.0, 0.02690569996243062
1179.0, 0.03055812174857137
1180.0, 0.035000285632621475
1181.0, 0.039872511692836086
1182.0, 0.04294508560559797
1183.0, 0.045984038303616165
1184.0, 0.04313304001808407
1185.0, 0.038368227200300906
1186.0, 0.034517730678569995
1187.0, 0.03143670985006652
1188.0, 0.02269416204729745
1189.0, 0.021480049646293284
1190.0, 0.017981855328809238
1191.0, 0.015328938394486657
1192.0, 0.013607538064044373
1193.0, 0.010112743971744768
1194.0, 0.005798525930929329
1195.0, 0.004890870810721958
1196.0, 0.006601946404173417
1197.0, 0.006438248014204951
1198.0, 0.0029594384772985293
1199.0, 0.00586083517940578
1200.0, 0.004167701511339634
1201.0, 0.005200100668784709
1202.0, 0.004228372432401784
1203.0, 0.0017151123919071619
1204.0, 0.002779923759142711
1205.0, 0.002697685249523625
1206.0, 0.002227357476491223
1207.0, 0.0018734476673169876
1208.0, 0.002142205065883141
1209.0, 0.0025802026718173545
1210.0, 0.00024400669255788057
1211.0, 0.0012420788839642746
1212.0, 0.0019481598870733862
1213.0, 0.0017029819096653453
1214.0, 0.0011187906741827141
1215.0, 0.0014376912180707013
1216.0, 0.000705455341891691
1217.0, 0.0017103904371155631
1218.0, 0.00263388714571338
1219.0, 0.0023885842761267994
1220.0, 0.0009469412712657648
1221.0, 0.000137012595321719
1222.0, 0.0023120277036793825
1223.0, 0.0025979367026387535
1224.0, 0.001759705644777046
1225.0, 0.0010389017781513585
1226.0, 0.0013806419190819774
1227.0, 0.000827393260160786
1228.0, 0.002116412521943798
1229.0, 0.0022628598504269375
1230.0, 0.001392747161156127
1231.0, 0.0006257943388336644
1232.0, 0.0015176023356051691
1233.0, 0.0025862378852419183
1234.0, 0.005168747604396668
1235.0, 0.0056148135277536496
1236.0, 0.006299874327331912
1237.0, 0.010042132828589566
1238.0, 0.008279619014148159
1239.0, 0.007990381495047818
1240.0, 0.009194882127323487
1241.0, 0.008828377533592243
1242.0, 0.006533600045142687
1243.0, 0.005214528174550257
1244.0, 0.004776142906095766
1245.0, 0.005945983183610052
1246.0, 0.007933121622405686
1247.0, 0.007281815175164854
1248.0, 0.004058014443608121
1249.0, 0.00823465898561434
1250.0, 0.0062218233493865965
1251.0, 0.005800363766387194
1252.0, 0.00639439373357273
1253.0, 0.007230693336689764
1254.0, 0.007532411587922521
1255.0, 0.005972165942243065
1256.0, 0.003696092117572447
1257.0, 0.00648505352679974
1258.0, 0.008469655583012025
1259.0, 0.0061192474800423275
1260.0, 0.0017238774658179595
1261.0, 0.004190786043234661
1262.0, 0.007414882033461023
1263.0, 0.00854639272864016
1264.0, 0.008563370850122579
1265.0, 0.00934808438612603
1266.0, 0.011673051768220661
1267.0, 0.009639817369873448
1268.0, 0.011809964717554786
1269.0, 0.013315303536140083
1270.0, 0.014212812343904396
1271.0, 0.016542598223954492
1272.0, 0.01586222520281261
1273.0, 0.01620291899632736
1274.0, 0.015131397726719922
1275.0, 0.014487312744337445
1276.0, 0.014539730298340454
1277.0, 0.013826890697463824
1278.0, 0.015543005682528305
1279.0, 0.014071436356686945
1280.0, 0.014485732876009702
1281.0, 0.013666504060176481
1282.0, 0.010277050575498048
1283.0, 0.00905951502014379
1284.0, 0.009772693053980838
1285.0, 0.009393614397073948
1286.0, 0.008627994927088649
1287.0, 0.008251089925291952
1288.0, 0.008493948589412444
1289.0, 0.008176702900529187
1290.0, 0.008994839672857767
1291.0, 0.008740381329804741
1292.0, 0.00974545544837777
1293.0, 0.011197140553734511
1294.0, 0.011150573403380564
1295.0, 0.01198358644099028
1296.0, 0.0102847899409237
1297.0, 0.010834182366522428
1298.0, 0.010879994593173617
1299.0, 0.009530365518439667
1300.0, 0.00846916281918618
1301.0, 0.009920742575354012
1302.0, 0.009477629360206873
1303.0, 0.008264523613564896
1304.0, 0.007254282626941875
1305.0, 0.007241165350760399
1306.0, 0.00874078854544803
1307.0, 0.012650165950071386
1308.0, 0.011743427325658133
1309.0, 0.013400907498646317
1310.0, 0.01507948926202619
1311.0, 0.015119200925516763
1312.0, 0.017420217300722237
1313.0, 0.015075102302910403
1314.0, 0.017668908568015878
1315.0, 0.017696453339549962
1316.0, 0.017131394053930566
1317.0, 0.018029824820847834
1318.0, 0.015237217349896442
1319.0, 0.017716964646589412
1320.0, 0.01870023596658351
1321.0, 0.016258223245964747
1322.0, 0.014801801565493595
1323.0, 0.017460359600990173
1324.0, 0.016442574436646238
1325.0, 0.01481162325927269
1326.0, 0.014494891477831572
1327.0, 0.01378099519959316
1328.0, 0.011837348552866143
1329.0, 0.00932486137472937
1330.0, 0.009545190943550608
1331.0, 0.007882486780605415
1332.0, 0.004624574768806144
1333.0, 0.002560843832730299
1334.0, 0.0026077691800469216
1335.0, 0.003425195589612271
1336.0, 0.0006575870270150673
1337.0, 0.003115224981348874
1338.0, 0.00212340749671959
1339.0, 0.0014595048990740042
1340.0, 0.0022625566101958016
1341.0, 0.0029398883440676137
1342.0, 0.0017699734515208279
1343.0, 0.0010301292730099934
1344.0, 0.0017348471748441505
1345.0, 0.001996027344493347
1346.0, 0.00193245263524765
1347.0, 0.0025887242264143883
1348.0, 0.0012933784816791184
1349.0, 0.00044779211271526147
1350.0, 0.001980877086745395
1351.0, 0.003300151781633148
1352.0, 0.003456978647441648
1353.0, 0.003360761754934942
1354.0, 0.004416895700820703
1355.0, 0.0017498296015082226
1356.0, 0.0021069454794426386
1357.0, 0.003669587276932823
1358.0, 0.0034960211317642425
1359.0, 0.0006140586977786852
1360.0, 0.0026724855370393293
1361.0, 0.0008080265411644973
1362.0, 0.00022819287697536673
1363.0, 0.0011481645048735667
1364.0, 0.0019686140817475337
1365.0, 0.0014986572542061685
1366.0, 0.00390784138635592
1367.0, 0.002934839430458051
1368.0, 0.0025411887673744437
1369.0, 0.002849192120035161
1370.0, 0.0031216073189285955
1371.0, 0.0029117994201467343
1372.0, 0.004053187812544812
1373.0, 0.005148248678214574
1374.0, 0.00552367749190763
1375.0, 0.005331923301665919
1376.0, 0.005446018331593956
1377.0, 0.006643970298176229
1378.0, 0.00833740954110228
1379.0, 0.008244040826345856
1380.0, 0.009953912137109552
1381.0, 0.013309990037113894
1382.0, 0.018959801939185002
1383.0, 0.025093480465553247
1384.0, 0.0233214431417969
1385.0, 0.01748575433666424
1386.0, 0.010823758117421542
1387.0, 0.009445783469593858
1388.0, 0.01080324732955835
1389.0, 0.009988534933832897
1390.0, 0.005602279739272345
1391.0, 0.003803675668468784
1392.0, 0.0056161144939476096
1393.0, 0.006334616381305351
1394.0, 0.004183182055646894
1395.0, 0.0015093423642725708
1396.0, 0.003996727116744819
1397.0, 0.0020672615439091217
1398.0, 0.0029224465101341094
1399.0, 0.002686054210391166
1400.0, 0.001395781352583111
1401.0, 0.0006736669859868328
1402.0, 0.002327164886929835
1403.0, 0.005203401346993649
1404.0, 0.005587216111173269
1405.0, 0.005460655793427233
1406.0, 0.0031988536373958078
1407.0, 0.0011152876147844074
1408.0, 0.003296770414314203
1409.0, 0.0037741968785208195
1410.0, 0.0017866637645532024
1411.0, 0.0023235132216841417
1412.0, 0.003214697123268994
1413.0, 0.003632092064786008
1414.0, 0.003624709296710967
1415.0, 0.0017225907534775403
1416.0, 0.002093277141511341
1417.0, 0.001489084979557686
1418.0, 0.001285234243239185
1419.0, 0.000933976203777806
1420, 0.0
1421, 0.0
1422, 0.0
1423, 0.0
1424, 0.0
1425, 0.0
1426, 0.0
1427, 0.0
1428, 0.0
1429, 0.0
1430, 0.0
1431, 0.0
1432, 0.0
1433, 0.0
1434, 0.0
1435, 0.0
1436, 0.0
1437, 0.0
1438, 0.0
1439, 0.0
1440, 0.0
1441, 0.0
1442, 0.0
1443, 0.0
1444, 0.0
1445, 0.0
1446, 0.0
1447, 0.0
1448, 0.0
1449, 0.0
1450, 0.0
1451, 0.0
1452, 0.0
1453, 0.0
1454, 0.0
1455, 0.0
1456, 0.0
1457, 0.0
1458, 0.0
1459, 0.0
1460, 0.0
1461, 0.0
1462, 0.0
1463, 0.0
1464, 0.0
1465, 0.0
1466, 0.0
1467, 0.0
1468, 0.0
1469, 0.0
1470, 0.0
1471, 0.0
1472, 0.0
1473, 0.0
1474, 0.0
1475, 0.0
1476, 0.0
1477, 0.0
1478, 0.0
1479, 0.0
1480, 0.0
1481, 0.0
1482, 0.0
1483, 0.0
1484, 0.0
1485, 0.0
1486, 0.0
1487, 0.0
1488, 0.0
1489, 0.0
1490, 0.0
1491, 0.0
1492, 0.0
1493, 0.0
1494, 0.0
1495, 0.0
1496, 0.0
1497, 0.0
1498, 0.0
1499, 0.0
1500, 0.0
1501, 0.0
1502, 0.0
1503, 0.0
1504, 0.0
1505, 0.0
1506, 0.0
1507, 0.0
1508, 0.0
1509, 0.0
1510, 0.0
1511, 0.0
1512, 0.0
1513, 0.0
1514, 0.0
1515, 0.0
1516, 0.0
1517, 0.0
1518, 0.0
1519, 0.0
1520, 0.0
1521, 0.0
1522, 0.0
1523, 0.0
1524, 0.0
1525, 0.0
1526, 0.0
1527, 0.0
1528, 0.0
1529, 0.0
1530, 0.0
1531, 0.0
1532, 0.0
1533, 0.0
1534, 0.0
1535, 0.0
1536, 0.0
1537, 0.0
1538, 0.0
1539, 0.0
1540, 0.0
1541, 0.0
1542, 0.0
1543, 0.0
1544, 0.0
1545, 0.0
1546, 0.0
1547, 0.0
1548, 0.0
1549, 0.0
1550, 0.0
1551, 0.0
1552, 0.0
1553, 0.0
1554, 0.0
1555, 0.0
1556, 0.0
1557, 0.0
1558, 0.0
1559, 0.0
1560, 0.0
1561, 0.0
1562, 0.0
1563, 0.0
1564, 0.0
1565, 0.0
1566, 0.0
1567, 0.0
1568, 0.0
1569, 0.0
1570, 0.0
1571, 0.0
1572, 0.0
1573, 0.0
1574, 0.0
1575, 0.0
1576, 0.0
1577, 0.0
1578, 0.0
1579, 0.0
1580, 0.0
1581, 0.0
1582, 0.0
1583, 0.0
1584, 0.0
1585, 0.0
1586, 0.0
1587, 0.0
1588, 0.0
1589, 0.0
1590, 0.0
1591, 0.0
1592, 0.0
1593, 0.0
1594, 0.0
1595, 0.0
1596, 0.0
1597, 0.0
1598, 0.0
1599, 0.0
