30, 0.0
31, 0.0
32, 0.0
33, 0.0
34, 0.0
35, 0.0
36, 0.0
37, 0.0
38, 0.0
39, 0.0
40, 0.0
41, 0.0
42, 0.0
43, 0.0
44, 0.0
45, 0.0
46, 0.0
47, 0.0
48, 0.0
49, 0.0
50, 0.0
51, 0.0
52, 0.0
53, 0.0
54, 0.0
55, 0.0
56, 0.0
57, 0.0
58, 0.0
59, 0.0
60, 0.0
61, 0.0
62, 0.0
63, 0.0
64, 0.0
65, 0.0
66, 0.0
67, 0.0
68, 0.0
69, 0.0
70, 0.0
71, 0.0
72, 0.0
73, 0.0
74, 0.0
75, 0.0
76, 0.0
77, 0.0
78, 0.0
79, 0.0
80, 0.0
81, 0.0
82, 0.0
83, 0.0
84, 0.0
85, 0.0
86, 0.0
87, 0.0
88, 0.0
89, 0.0
90, 0.0
91, 0.0
92, 0.0
93, 0.0
94, 0.0
95, 0.0
96, 0.0
97, 0.0
98, 0.0
99, 0.0
100, 0.0
101, 0.0
102, 0.0
103, 0.0
104, 0.0
105, 0.0
106, 0.0
107, 0.0
108, 0.0
109, 0.0
110, 0.0
111, 0.0
112, 0.0
113, 0.0
114, 0.0
115, 0.0
116, 0.0
117, 0.0
118, 0.0
119, 0.0
120, 0.0
121, 0.0
122, 0.0
123, 0.0
124, 0.0
125, 0.0
126, 0.0
127, 0.0
128, 0.0
129, 0.0
130, 0.0
131, 0.0
132, 0.0
133, 0.0
134, 0.0
135, 0.0
136, 0.0
137, 0.0
138, 0.0
139, 0.0
140, 0.0
141, 0.0
142, 0.0
143, 0.0
144, 0.0
145, 0.0
146, 0.0
147, 0.0
148, 0.0
149, 0.0
150, 0.0
151, 0.0
152, 0.0
153, 0.0
154, 0.0
155, 0.0
156, 0.0
157, 0.0
158, 0.0
159.0, 0.008799088129868295
160.0, 0.04118967224962879
161.0, 0.04891321147794599
162.0, 0.04748271969408146
163.0, 0.04909162406026365
164.0, 0.0422014040703348
165.0, 0.021929105623549897
166.0, 0.022850096680419943
167.0, 0.011321392286010973
168.0, 0.0032673748359705614
169.0, 0.013876434284746154
170.0, 0.015097718555908957
171.0, 0.004223874510897464
172.0, 0.005660282643661367
173.0, 0.0052274096297457075
174.0, 0.00043412166720826063
175.0, 0.018955087877232234
176.0, 0.045307320100157616
177.0, 0.07032024492994952
178.0, 0.08559942799186503
179.0, 0.0951507943669059
180.0, 0.1211794974739652
181.0, 0.1465566639769982
182.0, 0.16035505328094754
183.0, 0.1851214485779376
184.0, 0.21236236627820304
185.0, 0.23661883042614423
186.0, 0.2630156496146774
187.0, 0.2963349276350801
188.0, 0.31552711628720703
189.0, 0.3332187481450411
190.0, 0.3488747394543332
191.0, 0.36177272954691025
192.0, 0.38534684149466714
193.0, 0.3879612199810132
194.0, 0.3865199362097435
195.0, 0.3774025082444508
196.0, 0.3313958316480423
197.0, 0.2881622336689804
198.0, 0.254531329249801
199.0, 0.2264325234164289
200.0, 0.20062498530672704
201.0, 0.18296712296411216
202.0, 0.16644206005344148
203.0, 0.15402957310378917
204.0, 0.14938283210586487
205.0, 0.15206007498707275
206.0, 0.1393237369018358
207.0, 0.1305655095571763
208.0, 0.14185529362211033
209.0, 0.14605055410394044
210.0, 0.14156328997432013
211.0, 0.14051685268815037
212.0, 0.1423490471530562
213.0, 0.1424531174428815
214.0, 0.13468929010564354
215.0, 0.12578982611997955
216.0, 0.1151720429852103
217.0, 0.10783960625501249
218.0, 0.11097225900833428
219.0, 0.09949290225228852
220.0, 0.09704678379454895
221.0, 0.09522690588800928
222.0, 0.08392006945363008
223.0, 0.08404177294843901
224.0, 0.08107700841854387
225.0, 0.07175787364577162
226.0, 0.060989282879579595
227.0, 0.05639816820705684
228.0, 0.05812442285117403
229.0, 0.04335510112201997
230.0, 0.03183521473715013
231.0, 0.03864521278539734
232.0, 0.02507202343236605
233.0, 0.026723712059304038
234.0, 0.027620757644281714
235.0, 0.023721149409348413
236.0, 0.02725107599207679
237.0, 0.01533310084873064
238.0, 0.012365698465568804
239.0, 0.014797728677354082
240.0, 0.011266647163386283
241.0, 0.008085320902422569
242.0, 0.010559011817899542
243.0, 0.012151420287979057
244.0, 0.010857290512422945
245.0, 0.009873854498761027
246.0, 0.01598097546543922
247.0, 0.01266233205217783
248.0, 0.01669130751122668
249.0, 0.02970821158999201
250.0, 0.028196083607418446
251.0, 0.03963404685945116
252.0, 0.04725109029610491
253.0, 0.05648533906562803
254.0, 0.08012703380477006
255.0, 0.09428919512016525
256.0, 0.1035626629527566
257.0, 0.10857993526616685
258.0, 0.11320468645099922
259.0, 0.12997042464493472
260.0, 0.14463014057415066
261.0, 0.15884422736913043
262.0, 0.17190932511635545
263.0, 0.17857129635412367
264.0, 0.17484338876131184
265.0, 0.1924500759427236
266.0, 0.20863430437327699
267.0, 0.21518489391536844
268.0, 0.226949062175998
269.0, 0.23679009573212628
270.0, 0.24334293773581225
271.0, 0.2472439302288942
272.0, 0.2470620500317358
273.0, 0.2399301176291262
274.0, 0.23260442488920297
275.0, 0.2244924262581378
276.0, 0.2128565863642717
277.0, 0.19853055802884814
278.0, 0.19105993419309203
279.0, 0.17588505802243165
280.0, 0.16363623332729293
281.0, 0.15845177481462086
282.0, 0.15243395827567302
283.0, 0.1520762867329437
284.0, 0.14581085273051783
285.0, 0.14232495897763325
286.0, 0.14476870667779013
287.0, 0.1354826502531137
288.0, 0.13399011100910568
289.0, 0.13549721771886764
290.0, 0.13602769306739784
291.0, 0.13600605937356527
292.0, 0.13385781391060328
293.0, 0.12256854397280319
294.0, 0.12141231685622031
295.0, 0.12557348949363775
296.0, 0.11095731834740095
297.0, 0.08813861003347304
298.0, 0.07170210231647806
299.0, 0.05817508059652978
300.0, 0.04304359891364694
301.0, 0.028809982602546687
302.0, 0.022591411282063937
303.0, 0.011647043340096915
304.0, 0.0019758762143148667
305.0, 0.007758347637495165
306.0, 0.004636265636140873
307.0, 0.0071279602063231565
308.0, 0.006312100928948652
309.0, 0.004102088564975136
310.0, 0.004753821144417392
311.0, 0.003112568113790619
312.0, 0.004035944323181937
313.0, 0.0016951101325857901
314.0, 0.0024969924400538167
315.0, 0.003053065452506263
316.0, 0.006074104090440982
317.0, 0.009810771010694521
318.0, 0.008540461347292399
319.0, 0.010461405073912109
320.0, 0.022073923870634587
321.0, 0.026414333117899924
322.0, 0.025742458279653806
323.0, 0.03172208052884449
324.0, 0.0452453304215183
325.0, 0.04544089289887963
326.0, 0.04262484755566163
327.0, 0.03973411176020002
328.0, 0.03744966907511749
329.0, 0.03428791929980372
330.0, 0.02663810478100642
331.0, 0.019544758869595783
332.0, 0.013128996006382109
333.0, 0.006678434629879122
334.0, 0.0006678450563044407
335.0, 0.011136030208031833
336.0, 0.0007368598940503848
337.0, 0.0030716124238808406
338.0, 0.002457853884255765
339.0, 0.003001639077681127
340.0, 0.011618836452633879
341.0, 0.01851406418502569
342.0, 0.02778561056563109
343.0, 0.0408463560226056
344.0, 0.053880299245694624
345.0, 0.06722509999979942
346.0, 0.08223798575256394
347.0, 0.09624314963698367
348.0, 0.10732548420986264
349.0, 0.11734831111536356
350.0, 0.13695947838146746
351.0, 0.1607571464925487
352.0, 0.17207202164250682
353.0, 0.17438803706380182
354.0, 0.19014505256365707
355.0, 0.20431279663859497
356.0, 0.22088001217950345
357.0, 0.23061886450851696
358.0, 0.23719838831033271
359.0, 0.25720903831819975
360.0, 0.25145536202189017
361.0, 0.24444562260670064
362.0, 0.24332545644412487
363.0, 0.24320505169474857
364.0, 0.2370359946322292
365.0, 0.22558130729100975
366.0, 0.21719950613584127
367.0, 0.20027076134399419
368.0, 0.17364699519016102
369.0, 0.17207147161036987
370.0, 0.15568387490870825
371.0, 0.13004773549051135
372.0, 0.10892743478382477
373.0, 0.09697433671332853
374.0, 0.08748224573849087
375.0, 0.08134360946675319
376.0, 0.06632401912575409
377.0, 0.05142321278898353
378.0, 0.04323287542642497
379.0, 0.03603155410982824
380.0, 0.031072964054354543
381.0, 0.02764620095103343
382.0, 0.024170595604600605
383.0, 0.018629476268011546
384.0, 0.011067717747107166
385.0, 0.015179044372628334
386.0, 0.012442445832805384
387.0, 0.0019392641186133685
388.0, 0.00039311913319791834
389.0, 0.004496357920476436
390.0, 0.0007520916720708366
391.0, 0.0007023190298831913
392.0, 0.007891341302580599
393.0, 0.008201649487873695
394.0, 0.0024873884993110423
395.0, 0.0035335676764867187
396.0, 0.0015960631835528231
397.0, 0.0008382484441577431
398.0, 0.0012338506532553898
399.0, 0.0016830159826570128
400.0, 0.006969091140956128
401.0, 0.0016194536263265803
402.0, 0.0052633298727597835
403.0, 0.0023863032740847182
404.0, 0.001620200315352735
405.0, 0.006969104974323869
406.0, 0.0008351634311949694
407.0, 0.001716498748480289
408.0, 0.0015065918884359128
409.0, 0.001011595329898456
410.0, 0.0023422482931276015
411.0, 0.002693112946435987
412.0, 0.0056683537303884104
413.0, 0.004309177706776018
414.0, 0.004873918872485678
415.0, 0.006900112922397242
416.0, 0.006669136127645827
417.0, 0.009029487269729755
418.0, 0.008038029055143206
419.0, 0.010470523908758684
420.0, 0.015684970495898808
421.0, 0.017159458638666726
422.0, 0.020428231004985996
423.0, 0.02754894455783339
424.0, 0.032748452527405145
425.0, 0.02981807735200709
426.0, 0.03503522264751749
427.0, 0.033788518348227776
428.0, 0.033549718708204515
429.0, 0.034347653995420155
430.0, 0.02735800443326296
431.0, 0.03462375990372481
432.0, 0.025117823472315618
433.0, 0.016793047905044833
434.0, 0.016587959984177933
435.0, 0.017020084076504228
436.0, 0.017940335049249686
437.0, 0.00958395845683838
438.0, 0.0038782717577936394
439.0, 0.004588778351726709
440.0, 0.0030310042262920184
441.0, 0.003376528710947037
442.0, 0.003275976468417075
443.0, 0.0037375737805887023
444.0, 0.003183858314239207
445.0, 0.004823484837433557
446.0, 0.0025463593881425283
447.0, 0.003250587679435418
448.0, 0.004830503217576508
449.0, 0.0034259352685159184
450.0, 0.005499256725374057
451.0, 0.005797225998234831
452.0, 0.009329707687771487
453.0, 0.016603935099587627
454.0, 0.021573900173479144
455.0, 0.019852488331150383
456.0, 0.017486860444970283
457.0, 0.024552729773082406
458.0, 0.022090797351065325
459.0, 0.026802048697650446
460.0, 0.03699121070192573
461.0, 0.04066551459652814
462.0, 0.033601697777125114
463.0, 0.04373386657743511
464.0, 0.0496359899889772
465.0, 0.04663243725385236
466.0, 0.04716472237957629
467.0, 0.06000926250968683
468.0, 0.07148984376314939
469.0, 0.07156384583609243
470.0, 0.07462745460880198
471.0, 0.08371379882871435
472.0, 0.09487524636827781
473.0, 0.10694248452363138
474.0, 0.11668785774889454
475.0, 0.11377340558031772
476.0, 0.12070799700993899
477.0, 0.1339864580724373
478.0, 0.13805892346560986
479.0, 0.1510168872236399
480.0, 0.1587554574785117
481.0, 0.15973638207143562
482.0, 0.16653117326359293
483.0, 0.18528797717746678
484.0, 0.20421571693390475
485.0, 0.2164711852687652
486.0, 0.22747476866293148
487.0, 0.2474586890484954
488.0, 0.2731475021661138
489.0, 0.2953471621912709
490.0, 0.3222819575292319
491.0, 0.3401776595709434
492.0, 0.3696514141813292
493.0, 0.4111924125916979
494.0, 0.45589142062163235
495.0, 0.5015826231485517
496.0, 0.545319708239591
497.0, 0.5943207683001883
498.0, 0.640781416184383
499.0, 0.6837112219059084
500.0, 0.7318072623890576
501.0, 0.774612714019004
502.0, 0.8102789991170498
503.0, 0.8503232532807753
504.0, 0.8884169974394673
505.0, 0.9190943814397433
506.0, 0.9501146545007231
507.0, 0.9730128559004781
508.0, 0.9924655503665675
509.0, 0.9998709789407766
510.0, 0.9932395852898169
511.0, 0.9770991981933692
512.0, 0.9534346801448629
513.0, 0.9095102299834037
514.0, 0.8517964082160197
515.0, 0.778904848318099
516.0, 0.6955421369865773
517.0, 0.6173257336704964
518.0, 0.5389331684598903
519.0, 0.47916054404699004
520.0, 0.4155203179132706
521.0, 0.35124571618216405
522.0, 0.29902339865162225
523.0, 0.2540572528357995
524.0, 0.22728216425914471
525.0, 0.20047425775741975
526.0, 0.17713208225659088
527.0, 0.15467541576353086
528.0, 0.12885851886013722
529.0, 0.1199111993020079
530.0, 0.10526645514892326
531.0, 0.09175630692486003
532.0, 0.08061923999989845
533.0, 0.07236152095703677
534.0, 0.06755021707050621
535.0, 0.05838891895419108
536.0, 0.04945224051906835
537.0, 0.04467765491589152
538.0, 0.04012096005165736
539.0, 0.03462447346713523
540.0, 0.032513592307874796
541.0, 0.031114293470628194
542.0, 0.03386274957128929
543.0, 0.03179255384254452
544.0, 0.024447964162587092
545.0, 0.017476107420377324
546.0, 0.01270270861336488
547.0, 0.009983629148563239
548.0, 0.01355624569871421
549.0, 0.012166744816458042
550.0, 0.010843635433279696
551.0, 0.015272430949910269
552.0, 0.013423461348246549
553.0, 0.008001881696145938
554.0, 0.007157027218928575
555.0, 0.003648311945567158
556.0, 0.00235573306828695
557.0, 0.00730363715645853
558.0, 0.0019866076608294285
559.0, 0.0011774817070108964
560.0, 0.0011610237946669745
561.0, 0.0003091512798816721
562.0, 0.00014319978969719175
563.0, 0.002552247708405295
564.0, 0.003292126840809042
565.0, 0.003425899157415673
566.0, 0.003238004134448925
567.0, 0.00073853809517367
568.0, 0.001747161218180518
569.0, 0.0014089550733572005
570.0, 0.002139285771704051
571.0, 0.0018321058108779365
572.0, 0.0015230088210081412
573.0, 0.0014674190957167151
574.0, 0.0022374623223454133
575.0, 0.0011347969922662268
576.0, 0.0022780562306866296
577.0, 0.002437111153193113
578.0, 0.0015783180734806924
579.0, 0.001841720637926638
580.0, 0.005311861359076265
581.0, 0.001241086163815949
582.0, 0.002900774607871253
583.0, 0.0015313436495234803
584.0, 0.003885439923502368
585.0, 0.003151419436065054
586.0, 0.011175148973279269
587.0, 0.004642788427727505
588.0, 0.007718892493870841
589.0, 0.007499504377645258
590.0, 0.008219899447907261
591.0, 0.015284700522539644
592.0, 0.018110918402033122
593.0, 0.012103660656586038
594.0, 0.014989483360277778
595.0, 0.012213120793306017
596.0, 0.01534912371952911
597.0, 0.01603529644095346
598.0, 0.017230252300047558
599.0, 0.025350818154183042
600.0, 0.026114423086617163
601.0, 0.03647593934332754
602.0, 0.03301573157909639
603.0, 0.024621987858513886
604.0, 0.028455024713806325
605.0, 0.03414697952534371
606.0, 0.021108019952471434
607.0, 0.033277354599201434
608.0, 0.026183233468035617
609.0, 0.02719576259071967
610.0, 0.03518207198534185
611.0, 0.031831919336148144
612.0, 0.02170294833162676
613.0, 0.020169717757523017
614.0, 0.02868273387828545
615.0, 0.03387892809711115
616.0, 0.03699728579032975
617.0, 0.036899101961343106
618.0, 0.030078738954106676
619.0, 0.035593834668870956
620.0, 0.029226020527269088
621.0, 0.025040255289912664
622.0, 0.02565195002704352
623.0, 0.023691971858691742
624.0, 0.01720650838017524
625.0, 0.02382134254381283
626.0, 0.014952194266561723
627.0, 0.011816385723780477
628.0, 0.018013275124727307
629.0, 0.01386097374834703
630.0, 0.0013866703543334417
631.0, 0.0076463805040262005
632.0, 0.0016997713014888082
633.0, 0.007641186261429376
634.0, 0.014357185078804948
635.0, 0.013350850969069046
636.0, 0.00810016689421514
637.0, 0.009430836212461918
638.0, 0.012823496533087198
639.0, 0.011094386457741965
640.0, 0.008676377661160037
641.0, 0.003681407968411886
642.0, 0.0036742208803747403
643.0, 0.011492967360839285
644.0, 0.008797238564323765
645.0, 0.004569992259591235
646.0, 0.004085040138514306
647.0, 0.0063646588989159985
648.0, 0.01009946796109196
649.0, 0.01305713341931991
650.0, 0.00941598706889503
651.0, 0.0037207881777123024
652.0, 0.007237649368367987
653.0, 0.013739187369806605
654.0, 0.009210357535602239
655.0, 0.008271071435194125
656.0, 0.019178588594469765
657.0, 0.010507530696134228
658.0, 0.005195640172800104
659.0, 0.011170020606357373
660.0, 0.01101260231827398
661.0, 0.010842653438893844
662.0, 0.011687068551576689
663.0, 0.00601501239519126
664.0, 0.011309109526431407
665.0, 0.00793122297461852
666.0, 0.01199439045568393
667.0, 0.012609148504809563
668.0, 0.010232307961837269
669.0, 0.0119888835981753
670.0, 0.013192871879467197
671.0, 0.009633117496467725
672.0, 0.010433360436812788
673.0, 0.01771881745133614
674.0, 0.014770230419795763
675.0, 0.0092522067982223
676.0, 0.0162582630746192
677.0, 0.01775905460146259
678.0, 0.013968176267417675
679.0, 0.009526994849749115
680.0, 0.013936763786647098
681.0, 0.013714276295163953
682.0, 0.006778490017197723
683.0, 0.007230969293201746
684.0, 0.009973399020710122
685.0, 0.01970561347974405
686.0, 0.014424566322330044
687.0, 0.009445395054979969
688.0, 0.012640107721664698
689.0, 0.012779794568443938
690.0, 0.004003034055389801
691.0, 0.011023670183913575
692.0, 0.006090810391161876
693.0, 0.008343643827207326
694.0, 0.010945167522276852
695.0, 0.005556263594077227
696.0, 0.0012131111656898577
697.0, 0.002936642088843828
698.0, 0.0017095646455968796
699.0, 0.001141055525138418
700.0, 0.004167533331827527
701.0, 0.0030467722374160565
702.0, 0.0005108532697425246
703.0, 0.0007709922815173169
704.0, 0.0013987805659994598
705.0, 0.005235527412147823
706.0, 0.0017688559752052462
707.0, 0.0006830153300994913
708.0, 0.0007692113979083761
709.0, 0.0007000027675990513
710.0, 0.001186512659392511
711.0, 0.004726011978230787
712.0, 0.0009859160161662796
713.0, 0.00161357300044859
714.0, 0.0005578194402688285
715.0, 0.0036384718265668713
716.0, 0.0010542046870831024
717.0, 0.002370349694663662
718.0, 0.009270447818622959
719.0, 0.0015878283591968054
720.0, 0.0028610224950043057
721.0, 0.001068085748794654
722.0, 0.0016730468725901816
723.0, 0.0011852904035514077
724.0, 0.0033820533369806204
725.0, 0.003859801427123119
726.0, 0.0034653126533219746
727.0, 0.003852292125703318
728.0, 0.002378359584702394
729.0, 0.002370883239185304
730.0, 0.002942677684398699
731.0, 0.0008198877945586004
732.0, 0.0006182290073154541
733.0, 0.0018552763792152322
734.0, 0.0006467676265337032
735.0, 0.004003158713769437
736.0, 0.002436090062712425
737.0, 0.0024928128682680673
738.0, 0.006358181625785055
739.0, 0.013546737044706306
740.0, 0.013803613782310454
741.0, 0.013233157372544473
742.0, 0.0077222097899051845
743.0, 0.008925329769995917
744.0, 0.017108198025064657
745.0, 0.023523988652860713
746.0, 0.025396220501974636
747.0, 0.027001171304779994
748.0, 0.02212270365872286
749.0, 0.026914171450841885
750.0, 0.028723714172059437
751.0, 0.03165246254468002
752.0, 0.03463753522147546
753.0, 0.041676770333912455
754.0, 0.049202687949316794
755.0, 0.057136628328381844
756.0, 0.05411742894703741
757.0, 0.06065063129280014
758.0, 0.0724539263756201
759.0, 0.07990273880270143
760.0, 0.08466149870316055
761.0, 0.09171004626559286
762.0, 0.10194536867649474
763.0, 0.11017387375996286
764.0, 0.11335308545622967
765.0, 0.11677811504097889
766.0, 0.12670700598945092
767.0, 0.13976726280679233
768.0, 0.14787235692638392
769.0, 0.15441077264744543
770.0, 0.15323711282547256
771.0, 0.16080117489222073
772.0, 0.17176523269572933
773.0, 0.1775221589286622
774.0, 0.17920684215056948
775.0, 0.1826366881771955
776.0, 0.1900451867980927
777.0, 0.20192569902523524
778.0, 0.22776216688869586
779.0, 0.2470645605163017
780.0, 0.2729744974343976
781.0, 0.31131348902168293
782.0, 0.3365104102476071
783.0, 0.34096469588760514
784.0, 0.366757392093373
785.0, 0.3804071016022393
786.0, 0.39245251380596935
787.0, 0.4089003943044491
788.0, 0.422510135556559
789.0, 0.4293016618152157
790.0, 0.43528810275099966
791.0, 0.44117102059840957
792.0, 0.4367729505303296
793.0, 0.42365875660690294
794.0, 0.40071685394655465
795.0, 0.36462102687455933
796.0, 0.3224153612971378
797.0, 0.2708794443167479
798.0, 0.21356466162374174
799.0, 0.17123020365052044
800.0, 0.13138954448135104
801.0, 0.10110287483998454
802.0, 0.08325247151367705
803.0, 0.06468262714525405
804.0, 0.05126213358160248
805.0, 0.047987151973788465
806.0, 0.04792634716852644
807.0, 0.044092765782072205
808.0, 0.04007913795867733
809.0, 0.040312799645552816
810.0, 0.042221047252510996
811.0, 0.04280324576003214
812.0, 0.04711593981067123
813.0, 0.05176653125694113
814.0, 0.054681744226565986
815.0, 0.07151858038685038
816.0, 0.07847942492637275
817.0, 0.08841332687778677
818.0, 0.10780594273945349
819.0, 0.12914468829863507
820.0, 0.1519737949986205
821.0, 0.17939952486232275
822.0, 0.21230353614958075
823.0, 0.24958449833255422
824.0, 0.26972696614468994
825.0, 0.3036789970813759
826.0, 0.33653851527929346
827.0, 0.3606467408698024
828.0, 0.3962572753958861
829.0, 0.4304803474903492
830.0, 0.4535385195665763
831.0, 0.4905481829346428
832.0, 0.5252104377641414
833.0, 0.5444095846355094
834.0, 0.5635012573683554
835.0, 0.5601336321692648
836.0, 0.5444890732012521
837.0, 0.5081279331945462
838.0, 0.450574505443315
839.0, 0.390791639329045
840.0, 0.3164383844563389
841.0, 0.2542348468422852
842.0, 0.20797149122347922
843.0, 0.1627230941905184
844.0, 0.12852207438912897
845.0, 0.10668407684480354
846.0, 0.08577486141132497
847.0, 0.0672285305044035
848.0, 0.06393004326863334
849.0, 0.05161123118703645
850.0, 0.048997878707058025
851.0, 0.036441273473311615
852.0, 0.027994555479376952
853.0, 0.017017234388227526
854.0, 0.01028457839434932
855.0, 0.012881789125171893
856.0, 0.005605418605240883
857.0, 0.0004154406187606194
858.0, 0.003811039852656896
859.0, 0.003232214382389683
860.0, 0.0008571001565768888
861.0, 0.0006905296593752847
862.0, 0.000940693418809625
863.0, 0.00030591401085207375
864.0, 0.0018548453235853637
865.0, 0.004513511091592608
866.0, 0.0014562562281572738
867.0, 0.001284445908575354
868.0, 0.003492509362154887
869.0, 0.0032196324322989064
870.0, 0.005153130090772502
871.0, 0.002808497913922059
872.0, 0.007016413891284156
873.0, 0.0011421672362076731
874.0, 0.0019137126982284708
875.0, 0.002866466652062148
876.0, 0.007289874135034549
877.0, 0.000775872494736505
878.0, 0.0017809623544548375
879.0, 0.0036807719558875594
880.0, 0.009500581071218116
881.0, 0.015189842452012367
882.0, 0.019813304241189433
883.0, 0.016077642714116686
884.0, 0.02244379199526956
885.0, 0.0328272355253235
886.0, 0.03204017431198717
887.0, 0.025055637345376035
888.0, 0.024825712779171307
889.0, 0.027260143572122947
890.0, 0.025077563297774726
891.0, 0.02336508190607446
892.0, 0.018691486294242894
893.0, 0.01665024825847894
894.0, 0.008750297933995774
895.0, 0.002608145703175324
896.0, 0.0017598941057148027
897.0, 0.0011346240710702231
898.0, 0.00019526413786726126
899.0, 0.0005230576690582911
900.0, 0.0019443623803642052
901.0, 0.0007702930020353925
902.0, 0.0066083589121628435
903.0, 0.0014299868857076356
904.0, 0.002026616326192976
905.0, 0.002774082856045123
906.0, 0.0046830882491867305
907.0, 0.0021084648299801107
908.0, 0.0004838579915521563
909.0, 0.0017824106350400747
910.0, 0.005347581569438005
911.0, 0.0010012438423130413
912.0, 0.0010047392206395643
913.0, 0.004726695060718792
914.0, 0.0006761472398110189
915.0, 0.0005079147765559607
916.0, 0.003178455701946582
917.0, 0.0022839148436270833
918.0, 0.007810390451029875
919.0, 0.0015537487194689512
920.0, 0.0021374932403975247
921.0, 0.0009637569470031982
922.0, 0.0010141564899353867
923.0, 0.0034157699480450074
924.0, 0.0005216776715390344
925.0, 0.0032632332143137694
926.0, 0.0036085036213340453
927.0, 0.004287002132211109
928.0, 0.00537092084510454
929.0, 0.006026088427959138
930.0, 0.0031792852677805456
931.0, 0.0001327443482685409
932.0, 0.0010391865923467458
933.0, 0.004189199125249809
934.0, 0.006391525118625786
935.0, 0.006242776670592175
936.0, 0.006616099284217618
937.0, 0.010146168640417452
938.0, 0.010517767446366191
939.0, 0.003322955889994662
940.0, 0.008573735939521217
941.0, 0.01911609968330126
942.0, 0.014749462295016436
943.0, 0.013307736744715665
944.0, 0.007641289652132875
945.0, 0.007356118240804663
946.0, 0.009232106434701284
947.0, 0.006603511904830796
948.0, 0.015211384670734879
949.0, 0.010688545787027347
950.0, 0.008826002684208674
951.0, 0.010622549897753818
952.0, 0.01693547336640189
953.0, 0.01435467001201437
954.0, 0.009638614131590057
955.0, 0.012075728075795194
956.0, 0.016833540255948333
957.0, 0.01353343574472068
958.0, 0.003922669658755538
959.0, 0.009043874136304496
960.0, 0.014149048829491345
961.0, 0.017716670402871827
962.0, 0.01796940927076413
963.0, 0.00620824265954538
964.0, 0.006433349112627995
965.0, 0.011529587150865673
966.0, 0.011730437009199164
967.0, 0.016301104313031996
968.0, 0.015841443967663432
969.0, 0.005450138887977238
970.0, 0.008739738484223382
971.0, 0.00863554928484202
972.0, 0.006285617667751825
973.0, 0.009546304997487638
974.0, 0.0056476214746100945
975.0, 0.0021103856660426848
976.0, 0.0055883943471354836
977.0, 0.008319844969044192
978.0, 0.008910011181302142
979.0, 0.012713258799294505
980.0, 0.006735439131822372
981.0, 0.0008189968043129461
982.0, 0.00390340902078727
983.0, 0.00023027001595139285
984.0, 0.0067739563270098994
985.0, 0.013301529647590465
986.0, 0.009298193604233469
987.0, 0.006657016177921568
988.0, 0.007480789447411614
989.0, 0.0022201221744845346
990.0, 0.010816763629057678
991.0, 0.007436726103459946
992.0, 0.004160436977224912
993.0, 0.0032644998711590587
994.0, 0.007602819358530017
995.0, 0.0014785781728378078
996.0, 0.0008747781591294781
997.0, 0.0036765083148311956
998.0, 0.0034680019286722555
999.0, 0.0010861381333099774
1000.0, 0.00117386000748575
1001.0, 0.00867005260820025
1002.0, 0.009182152937785657
1003.0, 0.010497794833257244
1004.0, 0.00338629203655554
1005.0, 0.009696348778134875
1006.0, 0.01273926589953765
1007.0, 0.009394017896556325
1008.0, 0.011058231645793922
1009.0, 0.011486225063364872
1010.0, 0.008346970782022779
1011.0, 0.010816192018535127
1012.0, 0.00956878868083453
1013.0, 0.010967585795729753
1014.0, 0.011183763703840485
1015.0, 0.010172040247902935
1016.0, 0.012357434797089386
1017.0, 0.007439522296606686
1018.0, 0.006629617996147289
1019.0, 0.010442608674201413
1020.0, 0.01028273865686381
1021.0, 0.01080346654938844
1022.0, 0.013325385440111623
1023.0, 0.01083887554289138
1024.0, 0.012026455268983409
1025.0, 0.009797633760812455
1026.0, 0.004891668396907214
1027.0, 0.01009295532219204
1028.0, 0.007986374008350727
1029.0, 0.0031472982716820954
1030.0, 0.008330831458936996
1031.0, 0.006430045050131662
1032.0, 0.007549508464904463
1033.0, 0.008731929402560384
1034.0, 0.0047074809892365815
1035.0, 0.00427827604607402
1036.0, 0.009158287435517649
1037.0, 0.0056667823923390055
1038.0, 0.008616040480216986
1039.0, 0.0027774413084215186
1040.0, 0.0034619070198104443
1041.0, 0.011066521629454497
1042.0, 0.009869740217535691
1043.0, 0.007295722389962638
1044.0, 0.0049563916159246005
1045.0, 0.005378536617522196
1046.0, 0.006346473634419986
1047.0, 0.002350851485720419
1048.0, 0.0037064064642402515
1049.0, 0.0020736265789250384
1050.0, 0.004712566632863561
1051.0, 0.002415815190238205
1052.0, 0.0015111028098767421
1053.0, 0.0010172400725474192
1054.0, 0.0040860216467492
1055.0, 0.004025832661177105
1056.0, 0.006271862508731159
1057.0, 0.005743906841142814
1058.0, 0.003014052890858106
1059.0, 0.0027833642624177676
1060.0, 0.0008006653685623052
1061.0, 0.001374045297008546
1062.0, 0.007885111097913965
1063.0, 0.007213381964605198
1064.0, 0.0017012054119336566
1065.0, 0.0019813952345449247
1066.0, 0.003809018818314216
1067.0, 0.0014680269472603774
1068.0, 0.001151796024559171
1069.0, 0.00011849446689460106
1070.0, 0.003623882895866339
1071.0, 0.0029392051015156035
1072.0, 0.0022611065409390324
1073.0, 0.003119088740027223
1074.0, 0.0023855216756468586
1075.0, 0.004495202295549556
1076.0, 0.0009229028530200712
1077.0, 0.003896101509944807
1078.0, 0.0006071974716021396
1079.0, 0.0006334176387566566
1080.0, 0.0023640063338221393
1081.0, 0.0008640293353034514
1082.0, 0.0007924351892097227
1083.0, 0.0021592775574371414
1084.0, 0.0018664546002630938
1085.0, 0.0003308272638170237
1086.0, 0.0002404518767648052
1087.0, 0.00030134809067329553
1088.0, 0.0010819040088312429
1089.0, 0.000819366518670907
1090.0, 0.006771791297146442
1091.0, 0.00045882271155540943
1092.0, 0.0020115660128272542
1093.0, 0.010342627909296272
1094.0, 0.012295427712012124
1095.0, 0.00976547377634384
1096.0, 0.009855159327863844
1097.0, 0.005947067826659832
1098.0, 0.0023291415531814705
1099.0, 0.006955959045751811
1100.0, 0.002523458663627935
1101.0, 0.0018791185612280136
1102.0, 0.009503532060052309
1103.0, 0.008882883565604285
1104.0, 0.005273928275016596
1105.0, 0.004451538554042451
1106.0, 0.003455928749987935
1107.0, 0.006899071784634576
1108.0, 0.002343219441217193
1109.0, 0.0032970047393664275
1110.0, 0.0051340775729920235
1111.0, 0.004690239676711484
1112.0, 0.007531755409462287
1113.0, 0.007286067209181779
1114.0, 0.0054076257727411784
1115.0, 0.006752126573127279
1116.0, 0.007372405075162175
1117.0, 0.0015881335608707965
1118.0, 0.0030883329329193738
1119.0, 0.003314304155351123
1120.0, 0.0019857494783243994
1121.0, 0.004618726611718815
1122.0, 0.006470207959336953
1123.0, 0.006424689879073291
1124.0, 0.008082056739840778
1125.0, 0.0057729288642933705
1126.0, 0.0037678623673692924
1127.0, 0.0028548039959755234
1128.0, 0.0004255086500491112
1129.0, 0.007725631183007799
1130.0, 0.00987746310980505
1131.0, 0.005614939085751139
1132.0, 0.007891658170721502
1133.0, 0.011894083998863814
1134.0, 0.005587645853779969
1135.0, 0.005619260085946294
1136.0, 0.0030484135464882655
1137.0, 0.005084476211201472
1138.0, 0.006692775667041379
1139.0, 0.006315572412636788
1140.0, 0.012566913686189021
1141.0, 0.010702606072064687
1142.0, 0.001609478515764021
1143.0, 0.0038566472824053807
1144.0, 0.008537298163130508
1145.0, 0.0007560495995456479
1146.0, 0.00468810330837675
1147.0, 0.005160473165789854
1148.0, 0.006149483223912817
1149.0, 0.0031471748876419903
1150.0, 0.005416304698889961
1151.0, 0.005170314910062282
1152.0, 0.004085779621808734
1153.0, 0.010375476564353161
1154.0, 0.002375341397354565
1155.0, 0.0020436993330282148
1156.0, 0.003155160108817798
1157.0, 0.007487816777809287
1158.0, 0.010279347353640972
1159.0, 0.007825558046707039
1160.0, 0.005515508400222804
1161.0, 0.00027293579300110936
1162.0, 0.0018349355556063881
1163.0, 0.007600358999084531
1164.0, 0.0058971876389903475
1165.0, 0.004636424430628948
1166.0, 0.0011003205401274331
1167.0, 0.010672456040259862
1168.0, 0.002522202147691778
1169.0, 0.0073706156076389666
1170.0, 0.009513313865397981
1171.0, 0.008325361620397213
1172.0, 0.009008021110932143
1173.0, 0.008732227138588199
1174.0, 0.0061688726561496335
1175.0, 0.005487366707947239
1176.0, 0.006244212729961851
1177.0, 0.004390983556196437
1178.0, 0.0037884766063151507
1179.0, 0.00599312812267353
1180.0, 0.007117999756776744
1181.0, 0.007977307580176268
1182.0, 0.0022747251765613363
1183.0, 0.012388244817450766
1184.0, 0.017659396941168422
1185.0, 0.0032565625050032794
1186.0, 0.009624815305159422
1187.0, 0.009738408818368629
1188.0, 0.010825537667849236
1189.0, 0.007321389536370721
1190.0, 0.002657715019697998
1191.0, 0.004475128517344564
1192.0, 0.008133809573121127
1193.0, 0.009666204399169587
1194.0, 0.009458056168767003
1195.0, 0.007010476026859364
1196.0, 0.005872300926279723
1197.0, 0.007553486752458856
1198.0, 0.0052108763886179275
1199.0, 0.002283362004481479
1200.0, 0.00925363042923144
1201.0, 0.002812093563122222
1202.0, 0.001138580387235704
1203.0, 0.0005484493855802703
1204.0, 0.00026010051078995843
1205.0, 0.0009371573502577047
1206.0, 0.004931172030507753
1207.0, 0.014499352908519612
1208.0, 0.00922392562281071
1209.0, 0.0055238479422497384
1210.0, 0.005057412189372063
1211.0, 0.0058761735125517
1212.0, 0.006375816942870033
1213.0, 0.0030928474448903348
1214.0, 0.002665739454988397
1215.0, 0.006383249983541577
1216.0, 0.0074828551625189255
1217.0, 0.005504589505584694
1218.0, 0.002803360998180624
1219.0, 0.0021784707095176227
1220.0, 0.00840686610900311
1221.0, 0.005273079502663127
1222.0, 0.01080062836281595
1223.0, 0.012495454459990975
1224.0, 0.009110655121571009
1225.0, 0.006142661340941883
1226.0, 0.006390611398644088
1227.0, 0.0012873733450133738
1228.0, 0.010187979943059904
1229.0, 0.008671538500702862
1230.0, 0.010392260642379008
1231.0, 0.004680792133108947
1232.0, 0.0026939644507322576
1233.0, 0.005728947665283627
1234.0, 0.0074072487472296705
1235.0, 0.006484344949389093
1236.0, 0.0014012081014212973
1237.0, 0.002078539435529939
1238.0, 0.006239602169413832
1239.0, 0.0027237344888463907
1240.0, 0.00010892437061078321
1241.0, 0.003872934372575831
1242.0, 0.008601295328131048
1243.0, 0.00778985826546023
1244.0, 0.009324909603352197
1245.0, 0.010532333169394295
1246.0, 0.004814345755598092
1247.0, 0.010744867722178258
1248.0, 0.007419397280011975
1249.0, 0.004336143797813285
1250.0, 0.008021887288515467
1251.0, 0.008382432137290691
1252.0, 0.005404462722710948
1253.0, 0.009265275075313873
1254.0, 0.0052613081118907164
1255.0, 0.006063378680397188
1256.0, 0.0007286466614823042
1257.0, 0.006083879424382465
1258.0, 0.011957389934477862
1259.0, 0.007106446488017509
1260.0, 0.006060383970216944
1261.0, 0.009281812068645465
1262.0, 0.005039423291472959
1263.0, 0.0013425546126864696
1264.0, 0.0034857752889091743
1265.0, 0.00794236412166651
1266.0, 0.014198870279004884
1267.0, 0.01323378663504798
1268.0, 0.009633645304466067
1269.0, 0.010090007474139937
1270.0, 0.004073138200347076
1271.0, 0.0015988032359742618
1272.0, 0.0065224337959740265
1273.0, 0.012214399846528721
1274.0, 0.0064240953015578675
1275.0, 0.01264120928907606
1276.0, 0.012905364387312043
1277.0, 0.008202542097329967
1278.0, 0.011232850288325786
1279.0, 0.0026311502341177617
1280.0, 0.0025650988527922145
1281.0, 0.00641816926868183
1282.0, 0.008636723731060766
1283.0, 0.001988249757805625
1284.0, 0.0007447407391770965
1285.0, 0.004230292830081658
1286.0, 0.0014851514079444548
1287, 0.0
1288, 0.0
1289, 0.0
1290, 0.0
1291, 0.0
1292, 0.0
1293, 0.0
1294, 0.0
1295, 0.0
1296, 0.0
1297, 0.0
1298, 0.0
1299, 0.0
1300, 0.0
1301, 0.0
1302, 0.0
1303, 0.0
1304, 0.0
1305, 0.0
1306, 0.0
1307, 0.0
1308, 0.0
1309, 0.0
1310, 0.0
1311, 0.0
1312, 0.0
1313, 0.0
1314, 0.0
1315, 0.0
1316, 0.0
1317, 0.0
1318, 0.0
1319, 0.0
1320, 0.0
1321, 0.0
1322, 0.0
1323, 0.0
1324, 0.0
1325, 0.0
1326, 0.0
1327, 0.0
1328, 0.0
1329, 0.0
1330, 0.0
1331, 0.0
1332, 0.0
1333, 0.0
1334, 0.0
1335, 0.0
1336, 0.0
1337, 0.0
1338, 0.0
1339, 0.0
1340, 0.0
1341, 0.0
1342, 0.0
1343, 0.0
1344, 0.0
1345, 0.0
1346, 0.0
1347, 0.0
1348, 0.0
1349, 0.0
1350, 0.0
1351, 0.0
1352, 0.0
1353, 0.0
1354, 0.0
1355, 0.0
1356, 0.0
1357, 0.0
1358, 0.0
1359, 0.0
1360, 0.0
1361, 0.0
1362, 0.0
1363, 0.0
1364, 0.0
1365, 0.0
1366, 0.0
1367, 0.0
1368, 0.0
1369, 0.0
1370, 0.0
1371, 0.0
1372, 0.0
1373, 0.0
1374, 0.0
1375, 0.0
1376, 0.0
1377, 0.0
1378, 0.0
1379, 0.0
1380, 0.0
1381, 0.0
1382, 0.0
1383, 0.0
1384, 0.0
1385, 0.0
1386, 0.0
1387, 0.0
1388, 0.0
1389, 0.0
1390, 0.0
1391, 0.0
1392, 0.0
1393, 0.0
1394, 0.0
1395, 0.0
1396, 0.0
1397, 0.0
1398, 0.0
1399, 0.0
1400, 0.0
1401, 0.0
1402, 0.0
1403, 0.0
1404, 0.0
1405, 0.0
1406, 0.0
1407, 0.0
1408, 0.0
1409, 0.0
1410, 0.0
1411, 0.0
1412, 0.0
1413, 0.0
1414, 0.0
1415, 0.0
1416, 0.0
1417, 0.0
1418, 0.0
1419, 0.0
1420, 0.0
1421, 0.0
1422, 0.0
1423, 0.0
1424, 0.0
1425, 0.0
1426, 0.0
1427, 0.0
1428, 0.0
1429, 0.0
1430, 0.0
1431, 0.0
1432, 0.0
1433, 0.0
1434, 0.0
1435, 0.0
1436, 0.0
1437, 0.0
1438, 0.0
1439, 0.0
1440, 0.0
1441, 0.0
1442, 0.0
1443, 0.0
1444, 0.0
1445, 0.0
1446, 0.0
1447, 0.0
1448, 0.0
1449, 0.0
1450, 0.0
1451, 0.0
1452, 0.0
1453, 0.0
1454, 0.0
1455, 0.0
1456, 0.0
1457, 0.0
1458, 0.0
1459, 0.0
1460, 0.0
1461, 0.0
1462, 0.0
1463, 0.0
1464, 0.0
1465, 0.0
1466, 0.0
1467, 0.0
1468, 0.0
1469, 0.0
1470, 0.0
1471, 0.0
1472, 0.0
1473, 0.0
1474, 0.0
1475, 0.0
1476, 0.0
1477, 0.0
1478, 0.0
1479, 0.0
1480, 0.0
1481, 0.0
1482, 0.0
1483, 0.0
1484, 0.0
1485, 0.0
1486, 0.0
1487, 0.0
1488, 0.0
1489, 0.0
1490, 0.0
1491, 0.0
1492, 0.0
1493, 0.0
1494, 0.0
1495, 0.0
1496, 0.0
1497, 0.0
1498, 0.0
1499, 0.0
1500, 0.0
1501, 0.0
1502, 0.0
1503, 0.0
1504, 0.0
1505, 0.0
1506, 0.0
1507, 0.0
1508, 0.0
1509, 0.0
1510, 0.0
1511, 0.0
1512, 0.0
1513, 0.0
1514, 0.0
1515, 0.0
1516, 0.0
1517, 0.0
1518, 0.0
1519, 0.0
1520, 0.0
1521, 0.0
1522, 0.0
1523, 0.0
1524, 0.0
1525, 0.0
1526, 0.0
1527, 0.0
1528, 0.0
1529, 0.0
1530, 0.0
1531, 0.0
1532, 0.0
1533, 0.0
1534, 0.0
1535, 0.0
1536, 0.0
1537, 0.0
1538, 0.0
1539, 0.0
1540, 0.0
1541, 0.0
1542, 0.0
1543, 0.0
1544, 0.0
1545, 0.0
1546, 0.0
1547, 0.0
1548, 0.0
1549, 0.0
1550, 0.0
1551, 0.0
1552, 0.0
1553, 0.0
1554, 0.0
1555, 0.0
1556, 0.0
1557, 0.0
1558, 0.0
1559, 0.0
1560, 0.0
1561, 0.0
1562, 0.0
1563, 0.0
1564, 0.0
1565, 0.0
1566, 0.0
1567, 0.0
1568, 0.0
1569, 0.0
1570, 0.0
1571, 0.0
1572, 0.0
1573, 0.0
1574, 0.0
1575, 0.0
1576, 0.0
1577, 0.0
1578, 0.0
1579, 0.0
1580, 0.0
1581, 0.0
1582, 0.0
1583, 0.0
1584, 0.0
1585, 0.0
1586, 0.0
1587, 0.0
1588, 0.0
1589, 0.0
1590, 0.0
1591, 0.0
1592, 0.0
1593, 0.0
1594, 0.0
1595, 0.0
1596, 0.0
1597, 0.0
1598, 0.0
1599, 0.0
