30, 0.0
31, 0.0
32, 0.0
33, 0.0
34, 0.0
35, 0.0
36, 0.0
37, 0.0
38, 0.0
39, 0.0
40, 0.0
41, 0.0
42, 0.0
43, 0.0
44, 0.0
45, 0.0
46, 0.0
47, 0.0
48, 0.0
49, 0.0
50, 0.0
51, 0.0
52, 0.0
53, 0.0
54, 0.0
55, 0.0
56, 0.0
57, 0.0
58, 0.0
59, 0.0
60, 0.0
61, 0.0
62, 0.0
63, 0.0
64, 0.0
65, 0.0
66, 0.0
67, 0.0
68, 0.0
69, 0.0
70, 0.0
71, 0.0
72, 0.0
73, 0.0
74, 0.0
75, 0.0
76, 0.0
77, 0.0
78, 0.0
79, 0.0
80, 0.0
81, 0.0
82, 0.0
83, 0.0
84, 0.0
85, 0.0
86, 0.0
87, 0.0
88, 0.0
89, 0.0
90, 0.0
91, 0.0
92, 0.0
93, 0.0
94, 0.0
95, 0.0
96, 0.0
97, 0.0
98, 0.0
99, 0.0
100, 0.0
101, 0.0
102, 0.0
103, 0.0
104, 0.0
105, 0.0
106, 0.0
107, 0.0
108, 0.0
109, 0.0
110.0, 0.0006294825866554738
111.0, 0.006436920362339198
112.0, 0.0019253182953087513
113.0, 0.0010343336822968634
114.0, 0.007021740841168914
115.0, 0.012569314156281758
116.0, 0.027541496748332013
117.0, 0.009710762077820251
118.0, 0.0012651681700074394
119.0, 0.014057510425749379
120.0, 0.0004283024881735592
121.0, 0.007909501351565769
122.0, 0.020978045618286704
123.0, 0.027413843387195498
124.0, 0.028342169434025226
125.0, 0.029155514559387356
126.0, 0.042785585739218
127.0, 0.0711884140206504
128.0, 0.10848954994066583
129.0, 0.1618061995109672
130.0, 0.20771662902212898
131.0, 0.23161786044938426
132.0, 0.2322683572919881
133.0, 0.23114538140695334
134.0, 0.23465306474076703
135.0, 0.24227424228660552
136.0, 0.2518414853319508
137.0, 0.2624162715998123
138.0, 0.27834543485497054
139.0, 0.2956031721100008
140.0, 0.3070323254123849
141.0, 0.31041602526333256
142.0, 0.3168883116761969
143.0, 0.32087218634234455
144.0, 0.31479197227163264
145.0, 0.3041678950182614
146.0, 0.28790418747003194
147.0, 0.27000090138896005
148.0, 0.2550577834088216
149.0, 0.24292508978546545
150.0, 0.21826781177472115
151.0, 0.1732487481667199
152.0, 0.12319991792827169
153.0, 0.08408617527573739
154.0, 0.0607664363652803
155.0, 0.04264537899221716
156.0, 0.03273089298143663
157.0, 0.02922267679162262
158.0, 0.023825478653644445
159.0, 0.013667508756250443
160.0, 0.01006114995851246
161.0, 0.010525566988605076
162.0, 0.008884970334665494
163.0, 0.009723286736520165
164.0, 0.008727409684788797
165.0, 0.0077143559883261
166.0, 0.006903530181563648
167.0, 0.0012139155658678477
168.0, 0.0002638751486757846
169.0, 0.0006818201739263109
170.0, 0.0034064920693771786
171.0, 0.005312428832451462
172.0, 0.002480110043938084
173.0, 0.0014983532949307795
174.0, 0.004073424174048655
175.0, 0.008037436621544231
176.0, 0.009706449260938646
177.0, 0.005796245859754896
178.0, 0.004091840956735536
179.0, 0.007513793817539003
180.0, 0.005817970771027484
181.0, 0.003891558114054199
182.0, 0.0040172334977085075
183.0, 0.0037882161954439554
184.0, 0.0014220461499190144
185.0, 0.0004086831104553586
186.0, 0.003128019729965888
187.0, 0.005565654027271619
188.0, 0.0013593476543300276
189.0, 0.0010678424444132352
190.0, 0.0008829691794415412
191.0, 0.0024427791728900148
192.0, 0.004178165995560368
193.0, 0.009173800242797599
194.0, 0.013178245042902135
195.0, 0.017979134168288315
196.0, 0.022116626994427253
197.0, 0.022068672849516212
198.0, 0.024278405795508284
199.0, 0.03151149776051615
200.0, 0.03895580116622966
201.0, 0.04332918808715696
202.0, 0.0491840204041377
203.0, 0.05559989327241207
204.0, 0.06179072625380686
205.0, 0.06721752595161601
206.0, 0.07183899536196185
207.0, 0.07842679122928921
208.0, 0.08389184586878323
209.0, 0.08771580753646431
210.0, 0.0927228228564281
211.0, 0.10341270196671054
212.0, 0.1143783801253378
213.0, 0.12363602474016484
214.0, 0.12942232836065987
215.0, 0.13045440066250827
216.0, 0.14561554665047627
217.0, 0.16035974669462136
218.0, 0.1681935230725169
219.0, 0.1712898502282995
220.0, 0.17171879170198917
221.0, 0.17445030264545608
222.0, 0.17948034731712872
223.0, 0.18378476984908407
224.0, 0.1822609520180987
225.0, 0.17870773360123648
226.0, 0.17800794849687956
227.0, 0.17673965600387623
228.0, 0.1663085769083491
229.0, 0.16415664730830126
230.0, 0.15816359781088207
231.0, 0.15077343334204757
232.0, 0.14653216283980675
233.0, 0.14267303975789944
234.0, 0.1394380513407811
235.0, 0.13512103780162663
236.0, 0.123534029606682
237.0, 0.10496062595638339
238.0, 0.10072254308843272
239.0, 0.09265957004588327
240.0, 0.08141689260315157
241.0, 0.07454015567258292
242.0, 0.07545941366751031
243.0, 0.07971012560451814
244.0, 0.0773766168041491
245.0, 0.07724034948323934
246.0, 0.08801700519531351
247.0, 0.08928695731351782
248.0, 0.09885020174908167
249.0, 0.11766722743392692
250.0, 0.14042210994552357
251.0, 0.16336042914102417
252.0, 0.18771550247472057
253.0, 0.2220686737420061
254.0, 0.2589154256642585
255.0, 0.2896344132228615
256.0, 0.3266248443424188
257.0, 0.3567704330708569
258.0, 0.3920821427331416
259.0, 0.42676477769796545
260.0, 0.442236391297917
261.0, 0.46798747565005866
262.0, 0.49547872667172393
263.0, 0.5206524289460307
264.0, 0.5422852779399221
265.0, 0.5553910992488988
266.0, 0.5599973754420413
267.0, 0.5637343077059279
268.0, 0.567965781953297
269.0, 0.5690655650327398
270.0, 0.5557625187374976
271.0, 0.5404021163587464
272.0, 0.5223587752071849
273.0, 0.49888067274073605
274.0, 0.4697422816537785
275.0, 0.4341178160823756
276.0, 0.4022541842670546
277.0, 0.3735141664936364
278.0, 0.34103805866288456
279.0, 0.30589147670694167
280.0, 0.27392466787222824
281.0, 0.24229176131561722
282.0, 0.2148284132090442
283.0, 0.19791814459173482
284.0, 0.19198157678524225
285.0, 0.17213877137856032
286.0, 0.15095416127580402
287.0, 0.13914482146787951
288.0, 0.13313635431820003
289.0, 0.12336810530502533
290.0, 0.11816129657087031
291.0, 0.11438379229097839
292.0, 0.10865505871195552
293.0, 0.11080816683899784
294.0, 0.11660484836468947
295.0, 0.11987502414337944
296.0, 0.12158657219449234
297.0, 0.12657456031892583
298.0, 0.12976246762397478
299.0, 0.14255362458527396
300.0, 0.15816202506781454
301.0, 0.16369711694284067
302.0, 0.15738362108299858
303.0, 0.16737300959496357
304.0, 0.17914797874235394
305.0, 0.1841867846939731
306.0, 0.18299082597154806
307.0, 0.17842554446356948
308.0, 0.1813001888500705
309.0, 0.18421837415114786
310.0, 0.18481117829349067
311.0, 0.18238597150227845
312.0, 0.1730053973839539
313.0, 0.16845637056137705
314.0, 0.16184033287430913
315.0, 0.1522715793159254
316.0, 0.14341920332102687
317.0, 0.13616592067082123
318.0, 0.11915479678675686
319.0, 0.10217353416444619
320.0, 0.08866975991965549
321.0, 0.07341701811556911
322.0, 0.06669473044033793
323.0, 0.056648329235324785
324.0, 0.04636333073390002
325.0, 0.03864592675893664
326.0, 0.029025007951251937
327.0, 0.02388101011462146
328.0, 0.0163474139747691
329.0, 0.011550870783012323
330.0, 0.01089628604446836
331.0, 0.002399339315744235
332.0, 0.002813575331486992
333.0, 0.0032905842496057974
334.0, 0.010066718849853908
335.0, 0.009463734463933157
336.0, 0.002713334393348951
337.0, 0.0024322048974077153
338.0, 0.005422945189356483
339.0, 0.004724001379071498
340.0, 0.001255007567628623
341.0, 0.009147585188619653
342.0, 0.011677819215297836
343.0, 0.009422594215521371
344.0, 0.007925088716269048
345.0, 0.00910877842454516
346.0, 0.0033676705121566835
347.0, 0.00122282588684921
348.0, 0.0028326015376866263
349.0, 0.0021014963174739373
350.0, 0.008740641367023239
351.0, 0.010640709215295738
352.0, 0.020211322381399267
353.0, 0.031090963378029052
354.0, 0.03874643018080239
355.0, 0.04629443335281683
356.0, 0.05062809971333649
357.0, 0.05617223496553849
358.0, 0.06466091103368321
359.0, 0.07324125276171246
360.0, 0.07768671205815976
361.0, 0.07743329244737418
362.0, 0.08136932297639468
363.0, 0.08916726063430112
364.0, 0.09624273759292368
365.0, 0.0996175912721612
366.0, 0.10395090643478581
367.0, 0.098322213823998
368.0, 0.09159188830641088
369.0, 0.09163368802538285
370.0, 0.09497342339647487
371.0, 0.0907574573631739
372.0, 0.0881633323380044
373.0, 0.0814156767060801
374.0, 0.07274445481995866
375.0, 0.074089801474587
376.0, 0.06986726883208834
377.0, 0.06634591794371597
378.0, 0.06195118434042185
379.0, 0.05802101705496099
380.0, 0.06002962427680338
381.0, 0.06613049506181873
382.0, 0.0675830710740028
383.0, 0.06664764126915913
384.0, 0.07019040873298646
385.0, 0.08167887138059439
386.0, 0.08854909882596214
387.0, 0.09389303398467236
388.0, 0.09731173057604858
389.0, 0.10170027175521706
390.0, 0.1147389644527041
391.0, 0.1265915389476582
392.0, 0.12770706578555038
393.0, 0.13223969363101518
394.0, 0.1433834034581827
395.0, 0.14665648516002608
396.0, 0.14812255426214913
397.0, 0.15274826128602834
398.0, 0.15341964939341723
399.0, 0.1506275777347799
400.0, 0.1506586037133438
401.0, 0.14574539861646632
402.0, 0.13939981256729814
403.0, 0.1361098915631354
404.0, 0.13057404028691721
405.0, 0.11763128484988886
406.0, 0.1028861989491907
407.0, 0.09764887537671486
408.0, 0.08319694534000696
409.0, 0.06884234833934058
410.0, 0.06400943025447532
411.0, 0.05113352423386076
412.0, 0.040699497317849005
413.0, 0.037578245790523365
414.0, 0.0329858576156328
415.0, 0.025105410292510663
416.0, 0.027419010267405005
417.0, 0.01925966019836052
418.0, 0.015817589714658388
419.0, 0.016390244671168726
420.0, 0.015477323805847744
421.0, 0.01273493160478338
422.0, 0.01578647498332862
423.0, 0.01861982827350226
424.0, 0.021795639916759552
425.0, 0.024595776874131264
426.0, 0.025351581143526297
427.0, 0.03383159490852977
428.0, 0.030181807316499627
429.0, 0.029708897823410105
430.0, 0.03467779469837915
431.0, 0.034412878413710435
432.0, 0.03517093270539305
433.0, 0.03909394765946384
434.0, 0.038407607366598304
435.0, 0.03396915098668475
436.0, 0.03096325214754276
437.0, 0.027617356106002293
438.0, 0.02949895251420436
439.0, 0.029915966302026156
440.0, 0.029265847735817137
441.0, 0.026413460648442532
442.0, 0.01758285553957671
443.0, 0.018490255718965044
444.0, 0.010294492477916566
445.0, 0.007566477422017914
446.0, 0.010189396105792878
447.0, 0.002785036335690944
448.0, 0.003986165848503213
449.0, 0.0015056232546436703
450.0, 0.0009172969030583704
451.0, 0.0022257844571434908
452.0, 0.001262726559618575
453.0, 0.0006519634728758051
454.0, 0.0042089739115945945
455.0, 0.00461133860404737
456.0, 0.003052479166725555
457.0, 0.006031473199012974
458.0, 0.01144655333836309
459.0, 0.006348057968824087
460.0, 0.006211138673983477
461.0, 0.005464960542690047
462.0, 0.0018621908133423168
463.0, 0.0001879902815825171
464.0, 0.0010311578504885296
465.0, 0.004398137970421663
466.0, 0.008427085982926352
467.0, 0.007401516781122518
468.0, 0.005870015310542814
469.0, 0.01394860785640735
470.0, 0.016143711874309064
471.0, 0.017501043618206934
472.0, 0.021378883739224353
473.0, 0.026420041294807458
474.0, 0.030228181426563853
475.0, 0.03786279041580394
476.0, 0.041520496441016005
477.0, 0.050062647483178735
478.0, 0.061819072141433
479.0, 0.07140196279633222
480.0, 0.08228797683566867
481.0, 0.10324592392202428
482.0, 0.12405319250999106
483.0, 0.14746437415879016
484.0, 0.17854018771719551
485.0, 0.21682703067487635
486.0, 0.24555525665531575
487.0, 0.28812100411228303
488.0, 0.33414048712532113
489.0, 0.3802792489121401
490.0, 0.4284624447958016
491.0, 0.46586525205466683
492.0, 0.49484529746416184
493.0, 0.5203928777514213
494.0, 0.5433650380353889
495.0, 0.5629990355612382
496.0, 0.5788274570804095
497.0, 0.5923038712056528
498.0, 0.6001880318196318
499.0, 0.6031183555865415
500.0, 0.596079732502508
501.0, 0.5740050019326107
502.0, 0.5468851949559534
503.0, 0.5230038356330933
504.0, 0.49780173304542874
505.0, 0.45974322357814806
506.0, 0.4143139775084961
507.0, 0.37867125038938165
508.0, 0.34653922600397075
509.0, 0.30308940338821055
510.0, 0.27168707851911916
511.0, 0.25448297766346656
512.0, 0.2447282418786405
513.0, 0.24460131428251197
514.0, 0.24690940230233796
515.0, 0.24978928128509542
516.0, 0.2700015567222672
517.0, 0.29968654588054605
518.0, 0.3230617794845059
519.0, 0.36327497253047536
520.0, 0.4116186654551245
521.0, 0.46283074256110035
522.0, 0.5172740715141648
523.0, 0.5728664137097664
524.0, 0.6278562739313353
525.0, 0.6909316253985555
526.0, 0.7532684751305689
527.0, 0.8122262699793252
528.0, 0.86550244514535
529.0, 0.906130318108325
530.0, 0.9294507797399284
531.0, 0.9620045455335475
532.0, 0.988494127611475
533.0, 0.999261337286126
534.0, 0.9999423245306671
535.0, 0.998668970349939
536.0, 0.9910191584745256
537.0, 0.9622493812079738
538.0, 0.9171801705356379
539.0, 0.8715457955593132
540.0, 0.8202292814285289
541.0, 0.7603931991007421
542.0, 0.7112222932071307
543.0, 0.6429580154429809
544.0, 0.5732788837309537
545.0, 0.5087454454288171
546.0, 0.45173946792263037
547.0, 0.4021470506939015
548.0, 0.34849056590382005
549.0, 0.3095791270804102
550.0, 0.26946729283631193
551.0, 0.2340654305712176
552.0, 0.20748136993480584
553.0, 0.18262531936866308
554.0, 0.15939917480276508
555.0, 0.1412294538512397
556.0, 0.12741896055416574
557.0, 0.11371018497656799
558.0, 0.09791580712867304
559.0, 0.0820198954697618
560.0, 0.07234302475061731
561.0, 0.06852154613566583
562.0, 0.06279523390268049
563.0, 0.05572377209094202
564.0, 0.0481252071318583
565.0, 0.03911858197815377
566.0, 0.039289041048746955
567.0, 0.038895240710153406
568.0, 0.03623064347872234
569.0, 0.03248896169258751
570.0, 0.030343942229957697
571.0, 0.03134094899445328
572.0, 0.026739410728099322
573.0, 0.02075597048363852
574.0, 0.025290712797195723
575.0, 0.027668693109014035
576.0, 0.021465821017349344
577.0, 0.02144736730745588
578.0, 0.021914352377379293
579.0, 0.015023120460868334
580.0, 0.012838246714534743
581.0, 0.013997625407851036
582.0, 0.013159534372651388
583.0, 0.010630824391893837
584.0, 0.00804482965884324
585.0, 0.006360527569557783
586.0, 0.004272922585388027
587.0, 0.0012145677614153348
588.0, 0.002950282581876797
589.0, 0.0005581980637750401
590.0, 0.003233466562898763
591.0, 0.004296208303139161
592.0, 0.0037371270825817694
593.0, 0.004860251740862883
594.0, 0.006585872506472781
595.0, 0.004729111195055877
596.0, 0.0007738383539648465
597.0, 0.003249645559052317
598.0, 0.005279550169183051
599.0, 0.008708870804647285
600.0, 0.0029310975908923764
601.0, 0.00039915745093788276
602.0, 0.0014972237594599311
603.0, 0.0012150614022968871
604.0, 0.002424627837077197
605.0, 0.006387316449638232
606.0, 0.008878931122351079
607.0, 0.012850791092945022
608.0, 0.016111150496552214
609.0, 0.021338321726915983
610.0, 0.024238996353433385
611.0, 0.028063491585889132
612.0, 0.033039487287011
613.0, 0.036716537078854014
614.0, 0.04159047330108634
615.0, 0.052373244932311026
616.0, 0.058654727004963644
617.0, 0.05969260203292884
618.0, 0.0655254689775476
619.0, 0.08013857979730987
620.0, 0.09558129722267232
621.0, 0.10340229106358778
622.0, 0.11084595447538349
623.0, 0.11812075345703578
624.0, 0.1229787072612313
625.0, 0.12786261102158508
626.0, 0.13339440367874236
627.0, 0.1301177029422963
628.0, 0.14223961653384554
629.0, 0.1440680328445649
630.0, 0.14555566398692213
631.0, 0.14894269103344657
632.0, 0.14204905734528353
633.0, 0.13252552972755172
634.0, 0.129657665710033
635.0, 0.1234731548359733
636.0, 0.11780896040956396
637.0, 0.11151907832573715
638.0, 0.10145864158766481
639.0, 0.09526886703119453
640.0, 0.09017500885857188
641.0, 0.08232757360411956
642.0, 0.07760819939485128
643.0, 0.0680889711422813
644.0, 0.05544185497321365
645.0, 0.050850483310082226
646.0, 0.049687853758132734
647.0, 0.04380011324216729
648.0, 0.03793048113129129
649.0, 0.03406481714020412
650.0, 0.03255496617453302
651.0, 0.031627406673763424
652.0, 0.026518463989440307
653.0, 0.024176752929459613
654.0, 0.026038627909210254
655.0, 0.024784432212101835
656.0, 0.02045383990018204
657.0, 0.015089157407397401
658.0, 0.009668780054025456
659.0, 0.007570636492898722
660.0, 0.012756424393903119
661.0, 0.010849566520011563
662.0, 0.012162799772772796
663.0, 0.013600278231764724
664.0, 0.008921317549902356
665.0, 0.010823281097076108
666.0, 0.006477099646682647
667.0, 0.009744281892232736
668.0, 0.007966563339708518
669.0, 0.006024672283230032
670.0, 0.006236204389351428
671.0, 0.004694622414460319
672.0, 0.009206116956682884
673.0, 0.005358092494849612
674.0, 0.008338765399611488
675.0, 0.0076165490931669865
676.0, 0.007002384609979299
677.0, 0.010581547869174056
678.0, 0.009194077269049288
679.0, 0.0021087063168906887
680.0, 0.001719610981518524
681.0, 0.0045938293202530366
682.0, 0.003583569856727629
683.0, 0.005224775349828396
684.0, 0.01105451326484696
685.0, 0.008099413821902863
686.0, 0.0024554028032984076
687.0, 0.0030265904509765877
688.0, 0.0047835130670395186
689.0, 0.0014644801113383656
690.0, 0.0033732021551745525
691.0, 0.0016905438459098056
692.0, 0.006029364493789304
693.0, 0.002145448140452158
694.0, 0.003748554531751613
695.0, 0.003821751446927512
696.0, 0.0021368909051481693
697.0, 0.002213347265142885
698.0, 0.005670583997231907
699.0, 0.0028385943718562574
700.0, 0.003713884924454473
701.0, 0.0017836379328638526
702.0, 0.0011961297436613911
703.0, 0.002583377540317433
704.0, 0.004834889370971485
705.0, 0.006046466793037233
706.0, 0.0031179357700731264
707.0, 0.0033442034004599456
708.0, 0.0020992247341421063
709.0, 0.002730150843506972
710.0, 0.004812007991519577
711.0, 0.0019664641738180375
712.0, 0.002618360010515966
713.0, 0.008862899290598922
714.0, 0.007077604882837339
715.0, 0.007228061323911119
716.0, 0.004843043904368415
717.0, 0.0009560466833251824
718.0, 0.0014142591449222476
719.0, 0.00041195465460048554
720.0, 0.0028330952797589962
721.0, 0.008827702850052799
722.0, 0.006105558386782036
723.0, 0.0030833753604640616
724.0, 0.005537851839989793
725.0, 0.010595634979526137
726.0, 0.012242643980286091
727.0, 0.0022863311681423013
728.0, 0.0053035727127138926
729.0, 0.011169006267402191
730.0, 0.012877694474565778
731.0, 0.007283049518578463
732.0, 0.0015988207226701196
733.0, 0.0029085472148894552
734.0, 0.00578628441047637
735.0, 0.006616021320840845
736.0, 0.011824423802353016
737.0, 0.009667911316322523
738.0, 0.009927331397500197
739.0, 0.010060635098453305
740.0, 0.005851456823590208
741.0, 0.00937701908774408
742.0, 0.01060625159652559
743.0, 0.010703003449720503
744.0, 0.006959362461787031
745.0, 0.0035450534641323843
746.0, 0.003985784378318229
747.0, 0.008077670775688798
748.0, 0.010976310417588838
749.0, 0.00711872020529441
750.0, 0.008845261750912846
751.0, 0.009549414457487066
752.0, 0.007251392728393329
753.0, 0.004566678750642479
754.0, 0.0028350936566326496
755.0, 0.005570957999742927
756.0, 0.016687128138276063
757.0, 0.007905886392483864
758.0, 0.009639244114231062
759.0, 0.011070820685822581
760.0, 0.005723211038423069
761.0, 0.00611100525981828
762.0, 0.013727423463915435
763.0, 0.010134951358074285
764.0, 0.003370443050170105
765.0, 0.0055576848064651215
766.0, 0.007659445213343239
767.0, 0.009498681586459664
768.0, 0.009837723061977131
769.0, 0.00833495568719468
770.0, 0.007629819903722077
771.0, 0.0041815875099712255
772.0, 9.345866408786928e-05
773.0, 0.006416148693331305
774.0, 0.0100935194088239
775.0, 0.007258943836983227
776.0, 0.004757859741938432
777.0, 0.006038392975809892
778.0, 0.005638638889495185
779.0, 0.0010554896062683764
780.0, 0.0019213825786994257
781.0, 0.00534255524659862
782.0, 0.009734065020019892
783.0, 0.0060463170428286745
784.0, 0.0025902295512983424
785.0, 0.0059279347322609265
786.0, 0.0008773082611129713
787.0, 0.0048443087262322925
788.0, 0.009121977322552103
789.0, 0.007901828730087877
790.0, 0.008288816678795583
791.0, 0.0033768640225801507
792.0, 0.0029357312678655813
793.0, 0.0011859400918194738
794.0, 0.00137139937156735
795.0, 0.0008644663994159078
796.0, 0.003913749720955149
797.0, 0.004580483574798857
798.0, 0.002213377736193223
799.0, 0.0004896490113915035
800.0, 0.0007652412329206031
801.0, 0.0041713281626065265
802.0, 0.008968717430288684
803.0, 0.007003972067563682
804.0, 0.007686656792793596
805.0, 0.005557196913402686
806.0, 0.002757392836568659
807.0, 0.002040603566414869
808.0, 0.0014052748984434552
809.0, 0.0006618990525516184
810.0, 0.003333220245825925
811.0, 0.0016262759645328446
812.0, 0.008237870525736444
813.0, 0.005344389440629072
814.0, 0.0004735791486926315
815.0, 0.000775194571025722
816.0, 0.001161173176865442
817.0, 0.000684093553014813
818.0, 0.005964138459455085
819.0, 0.0030956609505511322
820.0, 0.0037670513339786117
821.0, 0.007202379769016026
822.0, 0.008558435830292905
823.0, 0.006286874416555885
824.0, 0.004560405498513052
825.0, 0.008453343536508793
826.0, 0.008798049905239635
827.0, 0.01015427870381903
828.0, 0.012749248469108942
829.0, 0.011331647947232777
830.0, 0.008451980290692124
831.0, 0.008335336479985146
832.0, 0.0112752198758548
833.0, 0.013936749466337316
834.0, 0.010187659459150289
835.0, 0.007802256178901679
836.0, 0.01197569463257711
837.0, 0.012352451549878074
838.0, 0.006856402755150767
839.0, 0.005854099257509268
840.0, 0.0104773175859434
841.0, 0.012742945896663936
842.0, 0.010625055093684267
843.0, 0.004946547495332648
844.0, 0.007665322660446476
845.0, 0.011743694857236834
846.0, 0.005846522269666484
847.0, 0.006691542914757447
848.0, 0.013332007715533906
849.0, 0.012391071754453968
850.0, 0.007595637720298108
851.0, 0.009833394680908688
852.0, 0.01051037883429965
853.0, 0.005929949268759648
854.0, 0.008921540064002002
855.0, 0.0122903209121097
856.0, 0.00986839955592688
857.0, 0.005474005107397068
858.0, 0.004782601018731239
859.0, 0.012177631104858637
860.0, 0.011664561871515088
861.0, 0.010690412008272924
862.0, 0.004730284928624219
863.0, 0.006658166319131086
864.0, 0.011791622786433077
865.0, 0.01147880446163406
866.0, 0.010987142942836294
867.0, 0.014510892548307145
868.0, 0.010113810052018422
869.0, 0.010449891049942968
870.0, 0.008446324092382431
871.0, 0.005649377251035187
872.0, 0.008321017491562735
873.0, 0.014426327454318766
874.0, 0.015101116230261145
875.0, 0.01014401205982678
876.0, 0.008384526596159285
877.0, 0.010758800973745333
878.0, 0.00981296235148515
879.0, 0.01020417857377771
880.0, 0.006721931489228701
881.0, 0.009511632997921246
882.0, 0.010838070671888658
883.0, 0.005036668453778293
884.0, 0.002453236917605029
885.0, 0.007030540314758804
886.0, 0.010374039046381622
887.0, 0.010996247661022522
888.0, 0.005443457643743368
889.0, 0.008197388766293293
890.0, 0.009800629675621763
891.0, 0.010130408979680153
892.0, 0.010690119754305645
893.0, 0.008767669754713867
894.0, 0.006134782452985422
895.0, 0.005073154074147127
896.0, 0.0006637217809657329
897.0, 0.004626754984311151
898.0, 0.011878882798774672
899.0, 0.01098570085581153
900.0, 0.008498387851506868
901.0, 0.008713809946455627
902.0, 0.007572338474129543
903.0, 0.00531697614542885
904.0, 0.004626588945688675
905.0, 0.0048283287565899675
906.0, 0.006617335898818782
907.0, 0.010683721042000863
908.0, 0.00896276316412043
909.0, 0.003745587382714455
910.0, 0.00040765689735907924
911.0, 0.0011270596633007597
912.0, 0.006190361022995484
913.0, 0.010956957799170372
914.0, 0.010300588056214678
915.0, 0.0013988402005944576
916.0, 0.004315732786836845
917.0, 0.004588259156915134
918.0, 0.003696925763678216
919.0, 0.0029862024973087704
920.0, 0.0023848181852383675
921.0, 0.0024887524720699056
922.0, 0.0014869661557589868
923.0, 0.009282800329179663
924.0, 0.0030570852819042926
925.0, 0.002267575173823318
926.0, 0.0017277203435681937
927.0, 0.00040237704160305866
928.0, 0.002085015363047903
929.0, 0.0015452710844322372
930.0, 0.0044005385332116865
931.0, 0.0010262166264587008
932.0, 0.006554483830754189
933.0, 0.0038142527360666085
934.0, 0.0016149223856855432
935.0, 0.003759689844871127
936.0, 0.007119383042628061
937.0, 0.008106047314307838
938.0, 0.009373252986867255
939.0, 0.006577831588880772
940.0, 0.006226168915454342
941.0, 0.004218741608447485
942.0, 0.000894132485684565
943.0, 0.004089387196723836
944.0, 0.0007129599699078261
945.0, 0.002498179322344577
946.0, 0.00285682583358979
947.0, 0.0009845256405265782
948.0, 0.0039336404173423555
949.0, 0.006588418215696777
950.0, 0.0072823944211055005
951.0, 0.010445148575029735
952.0, 0.0040044728271932594
953.0, 0.0015663286482611174
954.0, 0.008983744746021217
955.0, 0.005563265664274895
956.0, 0.006003329067940908
957.0, 0.008419710494283226
958.0, 0.009672957843577754
959.0, 0.008554971328084589
960.0, 0.005649134263740287
961.0, 0.0060224505258605
962.0, 0.005204527657923291
963.0, 0.0037581882478374953
964.0, 0.008759396213116433
965.0, 0.002140175098287158
966.0, 0.004390231248982428
967.0, 0.004268476338490679
968.0, 0.0016090605144570046
969.0, 0.004387760816604641
970.0, 0.009046822002639704
971.0, 0.008335528603318307
972.0, 0.005054830735122004
973.0, 0.008096539551195577
974.0, 0.007232283894266004
975.0, 0.005182621282665375
976.0, 0.006522028498511954
977.0, 0.00453350452958823
978.0, 0.003514807510500137
979.0, 0.004631582201292275
980.0, 0.0020631166247873866
981.0, 0.0011225306049362177
982.0, 0.007926780750203416
983.0, 0.0070887169560822465
984.0, 0.008191840721144218
985.0, 0.0020432765456683075
986.0, 0.00993222640820679
987.0, 0.00501653192000869
988.0, 0.0028749898995757282
989.0, 0.0039286697931668856
990.0, 0.0016692442481441882
991.0, 0.0028291901783411566
992.0, 0.010108707731308909
993.0, 0.011751984939434057
994.0, 0.01075710082445617
995.0, 0.007758367583230764
996.0, 0.005282592734822185
997.0, 0.010293680080457085
998.0, 0.011791357523714465
999.0, 0.003475162769129141
1000.0, 0.0049654583815438615
1001.0, 0.011587465237071751
1002.0, 0.012123301543344244
1003.0, 0.008793638013715209
1004.0, 0.00736192098892396
1005.0, 0.011254774416749248
1006.0, 0.007268458383709888
1007.0, 0.007249955425296041
1008.0, 0.014224557815498348
1009.0, 0.011042817870361592
1010.0, 0.007286110123745352
1011.0, 0.005693222873866197
1012.0, 0.0030982073789632206
1013.0, 0.0025108824067273175
1014.0, 0.004883750548809797
1015.0, 0.0061886581095000875
1016.0, 0.008138803688470066
1017.0, 0.00932569006860471
1018.0, 0.00904074829866746
1019.0, 0.007490265772804933
1020.0, 0.009409454678025696
1021.0, 0.009723741242588202
1022.0, 0.011130171266452578
1023.0, 0.010024930926920757
1024.0, 0.006751771195283688
1025.0, 0.01031980666104017
1026.0, 0.01596161286002077
1027.0, 0.0067190806086685675
1028.0, 0.006081402544501471
1029.0, 0.012979906041798647
1030.0, 0.014739848654135211
1031.0, 0.0145432532603147
1032.0, 0.014072339762184579
1033.0, 0.017903161382598183
1034.0, 0.014099341713356254
1035.0, 0.015793176216873962
1036.0, 0.016361605459960467
1037.0, 0.014033805250740878
1038.0, 0.01676214551337125
1039.0, 0.015669434739654726
1040.0, 0.01682733396548669
1041.0, 0.02144619087395899
1042.0, 0.01953339798435245
1043.0, 0.017954147618594946
1044.0, 0.016073726388926086
1045.0, 0.014746656393649912
1046.0, 0.01646270115126148
1047.0, 0.015489478418635294
1048.0, 0.012995561269721859
1049.0, 0.009615766319265754
1050.0, 0.007644507155240625
1051.0, 0.009080344698942805
1052.0, 0.008161185953941035
1053.0, 0.009422810451970654
1054.0, 0.007970229442733526
1055.0, 0.004768672329712827
1056.0, 0.0006334550836534379
1057.0, 0.00905592202280249
1058.0, 0.003074860186310115
1059.0, 0.0012894371827631725
1060.0, 0.0019429671942608482
1061.0, 0.002789757838409132
1062.0, 0.004685424713445772
1063.0, 0.00449386522939901
1064.0, 0.003165850281681589
1065.0, 0.0012052636014054613
1066.0, 0.006049402207293313
1067.0, 0.005897217972185448
1068.0, 0.0007068813387377438
1069.0, 0.004554609887287773
1070.0, 0.0012989603159306393
1071.0, 0.0019007105639181371
1072.0, 0.0027642701114156585
1073.0, 0.0015351721612087872
1074.0, 0.0025579870186637804
1075.0, 0.0027877415021188455
1076.0, 0.000804093447130776
1077.0, 0.005100913133214604
1078.0, 0.007926634939741264
1079.0, 0.005556006026288886
1080.0, 0.005987093982263013
1081.0, 0.004553183851420707
1082.0, 0.0035685770171062616
1083.0, 0.007953296910458908
1084.0, 0.004685968907827868
1085.0, 0.003535628047018939
1086.0, 0.0009830275751243115
1087.0, 0.001803736344125951
1088.0, 0.0021259327720732977
1089.0, 0.000878839169171626
1090.0, 3.7124285131067065e-05
1091.0, 0.002808741997353972
1092.0, 0.005451376437913691
1093.0, 0.0015035099056834832
1094.0, 0.006430669245933235
1095.0, 0.0025992625028043656
1096.0, 0.0033570344952392264
1097.0, 0.005190142139031797
1098.0, 0.001844438809173474
1099.0, 0.0023768932028470826
1100.0, 0.002169664647411536
1101.0, 0.0033836262779862454
1102.0, 0.006808602677721599
1103.0, 0.0030442148692462804
1104.0, 0.0016277989138729265
1105.0, 0.002918425471979112
1106.0, 0.004831321338566534
1107.0, 0.00463775515428622
1108.0, 0.0009706086870536549
1109.0, 0.00770410922117165
1110.0, 0.005561028954154135
1111.0, 0.0037320454080187184
1112.0, 0.006835256978072308
1113.0, 0.003395961566173005
1114.0, 0.007145656188801041
1115.0, 0.005156349269619129
1116.0, 0.0027785001315699075
1117.0, 0.0025569507720174735
1118.0, 0.0034633744087547856
1119.0, 0.00635826541234291
1120.0, 0.00851543653713667
1121.0, 0.010368507876950558
1122.0, 0.006327835727118868
1123.0, 0.004211685149221211
1124.0, 0.011729685129784916
1125.0, 0.009213763167863267
1126.0, 0.012294379206237733
1127.0, 0.005271037897266101
1128.0, 0.004195439763074643
1129.0, 0.005924485048723558
1130.0, 0.006846050255467061
1131.0, 0.011050830986759979
1132.0, 0.009130418419570874
1133.0, 0.006270475809074523
1134.0, 0.004096252094446871
1135.0, 0.0017094367822305082
1136.0, 0.008489658900374425
1137.0, 0.009506547106792348
1138.0, 0.005333419112073693
1139.0, 0.007009433026009305
1140.0, 0.011112858695502638
1141.0, 0.012104836326148703
1142.0, 0.007544953783358012
1143.0, 0.013904683442764389
1144.0, 0.00834913153232864
1145.0, 0.004287564972422962
1146.0, 0.004249665234952933
1147.0, 0.011130432619370136
1148.0, 0.014916040946351338
1149.0, 0.012492018489362555
1150.0, 0.013140551391132314
1151.0, 0.012150821867471333
1152.0, 0.009164760778367828
1153.0, 0.009365078851517543
1154.0, 0.007308880076802321
1155.0, 0.008154264965677999
1156.0, 0.013055982417115836
1157.0, 0.009373416306509064
1158.0, 0.010877831386757568
1159.0, 0.008138918501404429
1160.0, 0.010759747416964558
1161.0, 0.01583534449052205
1162.0, 0.01571370454445654
1163.0, 0.016907481005539987
1164.0, 0.014404714499805217
1165.0, 0.01325490438305055
1166.0, 0.012989266850924334
1167.0, 0.011751438090556362
1168.0, 0.013134406242667667
1169.0, 0.012028356382447198
1170.0, 0.014137208777380743
1171.0, 0.011095172225516264
1172.0, 0.010952135543249196
1173.0, 0.007393271544813949
1174.0, 0.011313656881781424
1175.0, 0.01694910903249588
1176.0, 0.011503833115052077
1177.0, 0.013096118931183863
1178.0, 0.015442922044488433
1179.0, 0.011749216301819706
1180.0, 0.011460747658449693
1181.0, 0.011944996361895444
1182.0, 0.011893908069027462
1183.0, 0.010047982270119113
1184.0, 0.010696830664979335
1185.0, 0.010601388628230365
1186.0, 0.007946607354825405
1187.0, 0.009282445231461997
1188.0, 0.009641753013267852
1189.0, 0.010189352534530481
1190.0, 0.010149972107884656
1191.0, 0.010691510056601773
1192.0, 0.009657255988165064
1193.0, 0.010946556743784234
1194.0, 0.0015542049881241869
1195.0, 0.0039608212630264485
1196.0, 0.0074863725804587755
1197.0, 0.01045426531314489
1198.0, 0.010150968494445824
1199.0, 0.009067137095217807
1200.0, 0.007929464778285458
1201.0, 0.002080630395313981
1202.0, 0.000513685548712539
1203.0, 0.005377715441122462
1204.0, 0.008168756700853014
1205.0, 0.006659160912579348
1206.0, 0.00642695197852074
1207.0, 0.007241510325859184
1208.0, 0.009828861949141825
1209.0, 0.011627508410214656
1210.0, 0.0059774332509047266
1211.0, 0.00010445394035734788
1212.0, 0.008125099920753187
1213.0, 0.004928969521826506
1214.0, 0.0037700790285883543
1215.0, 0.006221914136851703
1216.0, 0.012190773081048534
1217.0, 0.004796210144649324
1218.0, 0.004589542412673285
1219.0, 0.00223843745294213
1220.0, 0.003373734666063723
1221.0, 0.0027656537698335128
1222.0, 0.0034035913405592675
1223.0, 0.005568716611098207
1224.0, 0.0025309953308945616
1225.0, 0.0058238299560315395
1226.0, 0.010023580682981216
1227.0, 0.009366692439156303
1228.0, 0.006442442222188937
1229.0, 0.003224185172830162
1230.0, 0.004881427849520454
1231.0, 0.005616535194536771
1232.0, 0.0031817541901045998
1233.0, 0.0017659456204588597
1234.0, 0.0004354185265460685
1235.0, 0.0005125862678634311
1236.0, 0.0019638201058916074
1237.0, 0.00379164788719373
1238.0, 0.007225211038026
1239.0, 0.002163081355331182
1240.0, 0.00021788655512958288
1241.0, 0.0030722179831845
1242.0, 0.006950264641137178
1243.0, 0.004721215015080511
1244.0, 0.00340701288478339
1245.0, 0.005465652389265225
1246.0, 0.008586228456014953
1247.0, 0.009849270800937279
1248.0, 0.008722372171535613
1249.0, 0.005391909167139805
1250.0, 0.008252548927863713
1251.0, 0.01034011798590652
1252.0, 0.003046261427251974
1253.0, 0.001301492143325265
1254.0, 0.004831453508111331
1255.0, 0.004337786739636421
1256.0, 0.007406050108985201
1257.0, 0.006733802206779695
1258.0, 0.004387440698922736
1259.0, 0.0037130209399134123
1260.0, 0.007717121693902997
1261.0, 0.006899050761689008
1262.0, 0.006202005541759808
1263.0, 0.007144073140433091
1264.0, 0.006540111116536711
1265.0, 0.003117737003905156
1266.0, 0.0037888984042893535
1267.0, 0.0065550114364506026
1268.0, 0.0019609506839532694
1269.0, 0.001616694447086201
1270.0, 0.00038146541424466233
1271.0, 0.001785483128520758
1272.0, 0.008185194220164086
1273.0, 0.008251995699488701
1274.0, 0.00584946625102349
1275.0, 0.005424825816290064
1276.0, 0.004459662401023025
1277.0, 0.006954595897608908
1278.0, 0.005958141398982313
1279.0, 0.00401884568414013
1280.0, 0.005309663340621951
1281.0, 0.006036919240841096
1282.0, 0.004252073000866427
1283.0, 0.0006023720579772105
1284.0, 0.004772860124750436
1285.0, 0.00415835896606371
1286, 0.0
1287, 0.0
1288, 0.0
1289, 0.0
1290, 0.0
1291, 0.0
1292, 0.0
1293, 0.0
1294, 0.0
1295, 0.0
1296, 0.0
1297, 0.0
1298, 0.0
1299, 0.0
1300, 0.0
1301, 0.0
1302, 0.0
1303, 0.0
1304, 0.0
1305, 0.0
1306, 0.0
1307, 0.0
1308, 0.0
1309, 0.0
1310, 0.0
1311, 0.0
1312, 0.0
1313, 0.0
1314, 0.0
1315, 0.0
1316, 0.0
1317, 0.0
1318, 0.0
1319, 0.0
1320, 0.0
1321, 0.0
1322, 0.0
1323, 0.0
1324, 0.0
1325, 0.0
1326, 0.0
1327, 0.0
1328, 0.0
1329, 0.0
1330, 0.0
1331, 0.0
1332, 0.0
1333, 0.0
1334, 0.0
1335, 0.0
1336, 0.0
1337, 0.0
1338, 0.0
1339, 0.0
1340, 0.0
1341, 0.0
1342, 0.0
1343, 0.0
1344, 0.0
1345, 0.0
1346, 0.0
1347, 0.0
1348, 0.0
1349, 0.0
1350, 0.0
1351, 0.0
1352, 0.0
1353, 0.0
1354, 0.0
1355, 0.0
1356, 0.0
1357, 0.0
1358, 0.0
1359, 0.0
1360, 0.0
1361, 0.0
1362, 0.0
1363, 0.0
1364, 0.0
1365, 0.0
1366, 0.0
1367, 0.0
1368, 0.0
1369, 0.0
1370, 0.0
1371, 0.0
1372, 0.0
1373, 0.0
1374, 0.0
1375, 0.0
1376, 0.0
1377, 0.0
1378, 0.0
1379, 0.0
1380, 0.0
1381, 0.0
1382, 0.0
1383, 0.0
1384, 0.0
1385, 0.0
1386, 0.0
1387, 0.0
1388, 0.0
1389, 0.0
1390, 0.0
1391, 0.0
1392, 0.0
1393, 0.0
1394, 0.0
1395, 0.0
1396, 0.0
1397, 0.0
1398, 0.0
1399, 0.0
1400, 0.0
1401, 0.0
1402, 0.0
1403, 0.0
1404, 0.0
1405, 0.0
1406, 0.0
1407, 0.0
1408, 0.0
1409, 0.0
1410, 0.0
1411, 0.0
1412, 0.0
1413, 0.0
1414, 0.0
1415, 0.0
1416, 0.0
1417, 0.0
1418, 0.0
1419, 0.0
1420, 0.0
1421, 0.0
1422, 0.0
1423, 0.0
1424, 0.0
1425, 0.0
1426, 0.0
1427, 0.0
1428, 0.0
1429, 0.0
1430, 0.0
1431, 0.0
1432, 0.0
1433, 0.0
1434, 0.0
1435, 0.0
1436, 0.0
1437, 0.0
1438, 0.0
1439, 0.0
1440, 0.0
1441, 0.0
1442, 0.0
1443, 0.0
1444, 0.0
1445, 0.0
1446, 0.0
1447, 0.0
1448, 0.0
1449, 0.0
1450, 0.0
1451, 0.0
1452, 0.0
1453, 0.0
1454, 0.0
1455, 0.0
1456, 0.0
1457, 0.0
1458, 0.0
1459, 0.0
1460, 0.0
1461, 0.0
1462, 0.0
1463, 0.0
1464, 0.0
1465, 0.0
1466, 0.0
1467, 0.0
1468, 0.0
1469, 0.0
1470, 0.0
1471, 0.0
1472, 0.0
1473, 0.0
1474, 0.0
1475, 0.0
1476, 0.0
1477, 0.0
1478, 0.0
1479, 0.0
1480, 0.0
1481, 0.0
1482, 0.0
1483, 0.0
1484, 0.0
1485, 0.0
1486, 0.0
1487, 0.0
1488, 0.0
1489, 0.0
1490, 0.0
1491, 0.0
1492, 0.0
1493, 0.0
1494, 0.0
1495, 0.0
1496, 0.0
1497, 0.0
1498, 0.0
1499, 0.0
1500, 0.0
1501, 0.0
1502, 0.0
1503, 0.0
1504, 0.0
1505, 0.0
1506, 0.0
1507, 0.0
1508, 0.0
1509, 0.0
1510, 0.0
1511, 0.0
1512, 0.0
1513, 0.0
1514, 0.0
1515, 0.0
1516, 0.0
1517, 0.0
1518, 0.0
1519, 0.0
1520, 0.0
1521, 0.0
1522, 0.0
1523, 0.0
1524, 0.0
1525, 0.0
1526, 0.0
1527, 0.0
1528, 0.0
1529, 0.0
1530, 0.0
1531, 0.0
1532, 0.0
1533, 0.0
1534, 0.0
1535, 0.0
1536, 0.0
1537, 0.0
1538, 0.0
1539, 0.0
1540, 0.0
1541, 0.0
1542, 0.0
1543, 0.0
1544, 0.0
1545, 0.0
1546, 0.0
1547, 0.0
1548, 0.0
1549, 0.0
1550, 0.0
1551, 0.0
1552, 0.0
1553, 0.0
1554, 0.0
1555, 0.0
1556, 0.0
1557, 0.0
1558, 0.0
1559, 0.0
1560, 0.0
1561, 0.0
1562, 0.0
1563, 0.0
1564, 0.0
1565, 0.0
1566, 0.0
1567, 0.0
1568, 0.0
1569, 0.0
1570, 0.0
1571, 0.0
1572, 0.0
1573, 0.0
1574, 0.0
1575, 0.0
1576, 0.0
1577, 0.0
1578, 0.0
1579, 0.0
1580, 0.0
1581, 0.0
1582, 0.0
1583, 0.0
1584, 0.0
1585, 0.0
1586, 0.0
1587, 0.0
1588, 0.0
1589, 0.0
1590, 0.0
1591, 0.0
1592, 0.0
1593, 0.0
1594, 0.0
1595, 0.0
1596, 0.0
1597, 0.0
1598, 0.0
1599, 0.0
