30, 0.0
31, 0.0
32, 0.0
33, 0.0
34, 0.0
35, 0.0
36, 0.0
37, 0.0
38, 0.0
39, 0.0
40, 0.0
41, 0.0
42, 0.0
43, 0.0
44, 0.0
45, 0.0
46, 0.0
47, 0.0
48, 0.0
49, 0.0
50, 0.0
51, 0.0
52, 0.0
53, 0.0
54, 0.0
55, 0.0
56, 0.0
57, 0.0
58, 0.0
59, 0.0
60, 0.0
61, 0.0
62, 0.0
63, 0.0
64, 0.0
65, 0.0
66, 0.0
67, 0.0
68, 0.0
69, 0.0
70, 0.0
71, 0.0
72, 0.0
73, 0.0
74, 0.0
75, 0.0
76, 0.0
77, 0.0
78, 0.0
79, 0.0
80, 0.0
81, 0.0
82, 0.0
83, 0.0
84, 0.0
85, 0.0
86, 0.0
87, 0.0
88, 0.0
89, 0.0
90, 0.0
91, 0.0
92, 0.0
93, 0.0
94, 0.0
95, 0.0
96, 0.0
97, 0.0
98, 0.0
99, 0.0
100, 0.0
101, 0.0
102, 0.0
103, 0.0
104, 0.0
105, 0.0
106, 0.0
107, 0.0
108, 0.0
109, 0.0
110, 0.0
111, 0.0
112, 0.0
113, 0.0
114, 0.0
115, 0.0
116, 0.0
117, 0.0
118, 0.0
119, 0.0
120, 0.0
121, 0.0
122, 0.0
123, 0.0
124, 0.0
125, 0.0
126, 0.0
127, 0.0
128, 0.0
129, 0.0
130, 0.0
131, 0.0
132, 0.0
133, 0.0
134, 0.0
135, 0.0
136, 0.0
137, 0.0
138, 0.0
139, 0.0
140, 0.0
141, 0.0
142, 0.0
143, 0.0
144, 0.0
145, 0.0
146, 0.0
147, 0.0
148, 0.0
149, 0.0
150, 0.0
151, 0.0
152, 0.0
153, 0.0
154, 0.0
155, 0.0
156, 0.0
157, 0.0
158, 0.0
159, 0.0
160, 0.0
161, 0.0
162, 0.0
163, 0.0
164, 0.0
165, 0.0
166, 0.0
167, 0.0
168, 0.0
169, 0.0
170, 0.0
171, 0.0
172, 0.0
173, 0.0
174, 0.0
175, 0.0
176, 0.0
177, 0.0
178, 0.0
179, 0.0
180, 0.0
181, 0.0
182, 0.0
183, 0.0
184, 0.0
185, 0.0
186, 0.0
187, 0.0
188, 0.0
189.0, 0.0018926571219001892
190.0, 0.004973056639425799
191.0, 0.0037933894192863594
192.0, 0.00722797010182604
193.0, 0.009262241898867015
194.0, 0.002985073392138479
195.0, 0.006431478539972734
196.0, 0.014029752125347007
197.0, 0.012123076691155765
198.0, 0.007335772364595426
199.0, 0.0013208570035499047
200.0, 0.0016828523728169705
201.0, 0.0022533364821367857
202.0, 0.0012153798879610074
203.0, 0.006897485957659022
204.0, 0.0023126248688679248
205.0, 0.0054832922985834694
206.0, 0.005843428146068242
207.0, 0.0014502116467576284
208.0, 0.0007830260855411029
209.0, 0.0036861176533990107
210.0, 0.012432756978468948
211.0, 0.030836882533224343
212.0, 0.030949573726833463
213.0, 0.028421546192194044
214.0, 0.03435118678464078
215.0, 0.04824775659074076
216.0, 0.05241856299706
217.0, 0.06404595957125339
218.0, 0.07386560591016063
219.0, 0.08124075580199878
220.0, 0.10696346458558886
221.0, 0.12018180946037796
222.0, 0.12301257647679491
223.0, 0.13060006425980336
224.0, 0.15607308578453907
225.0, 0.16304590700910887
226.0, 0.18132158643811316
227.0, 0.21081533702523866
228.0, 0.2356781711563979
229.0, 0.23518316087680483
230.0, 0.2531976555272469
231.0, 0.28053441131857176
232.0, 0.3031423943130312
233.0, 0.31461903069624864
234.0, 0.32242808414287916
235.0, 0.317989069796051
236.0, 0.3099900923667549
237.0, 0.304688862900329
238.0, 0.28643053977212757
239.0, 0.27260124089981796
240.0, 0.2565069897934167
241.0, 0.23403959453122186
242.0, 0.21036102422557712
243.0, 0.20078456855617485
244.0, 0.18280076866456466
245.0, 0.1555515891675847
246.0, 0.1327920834546829
247.0, 0.13284177618274137
248.0, 0.12333922847044103
249.0, 0.11829363933917611
250.0, 0.11931357544400091
251.0, 0.1138806330698019
252.0, 0.12718217689757172
253.0, 0.13946152280511667
254.0, 0.15188875995584591
255.0, 0.16988659728707226
256.0, 0.1860574026954548
257.0, 0.19325280854101962
258.0, 0.21053288762541303
259.0, 0.24096912860887948
260.0, 0.27017582982664406
261.0, 0.2786494026951761
262.0, 0.32109346345273726
263.0, 0.3752234456482832
264.0, 0.4114458829136688
265.0, 0.44856731079363654
266.0, 0.5035871900614909
267.0, 0.5590051870866265
268.0, 0.6028295133417466
269.0, 0.6376964075884646
270.0, 0.6812966955538153
271.0, 0.7123835657276535
272.0, 0.7355401721031306
273.0, 0.746521232958883
274.0, 0.7159076741721332
275.0, 0.6938549133453602
276.0, 0.667996151332207
277.0, 0.6227093440987379
278.0, 0.5559898188741335
279.0, 0.4984082797378593
280.0, 0.4417685466400741
281.0, 0.3956901659980756
282.0, 0.35996873900216675
283.0, 0.3176654646644235
284.0, 0.2818299619755613
285.0, 0.25448931587956664
286.0, 0.22975688341531586
287.0, 0.20423280810010758
288.0, 0.19021565787677747
289.0, 0.18127582546438334
290.0, 0.16170547282397568
291.0, 0.14455044467388903
292.0, 0.15424488528363597
293.0, 0.14278742383248755
294.0, 0.14239439009765856
295.0, 0.1495484361803443
296.0, 0.15114762036713883
297.0, 0.15130795858602952
298.0, 0.15356462962115328
299.0, 0.16883735002120198
300.0, 0.1938340344911581
301.0, 0.21830824652066325
302.0, 0.2340227745602417
303.0, 0.2560167477079602
304.0, 0.29018934935968443
305.0, 0.3290192253365189
306.0, 0.358959951284186
307.0, 0.3947134250145422
308.0, 0.43434684624246633
309.0, 0.4785210150100165
310.0, 0.5248960923975089
311.0, 0.5654552129299893
312.0, 0.6099489659972285
313.0, 0.6470466656741327
314.0, 0.6712717931720449
315.0, 0.6822748110229381
316.0, 0.6750193325156313
317.0, 0.6469835104264512
318.0, 0.6039448239519535
319.0, 0.5512046233588183
320.0, 0.4919387668545959
321.0, 0.42994323484342006
322.0, 0.3784308543823807
323.0, 0.33439215147460016
324.0, 0.2911754428156791
325.0, 0.24650970513526646
326.0, 0.21301032854878021
327.0, 0.18112433387014545
328.0, 0.1472208225668979
329.0, 0.11540129675285574
330.0, 0.10626659371053793
331.0, 0.0924511639236824
332.0, 0.07338365202489718
333.0, 0.057454391667487476
334.0, 0.0538447914439229
335.0, 0.049303635149721484
336.0, 0.03634695023872138
337.0, 0.023831822747081934
338.0, 0.018169438584979096
339.0, 0.01558131762769293
340.0, 0.014208522268822398
341.0, 0.013559285459774483
342.0, 0.0074369516018238675
343.0, 0.00400624643706114
344.0, 0.0015337833563803915
345.0, 0.011063830635777953
346.0, 0.007841394780593269
347.0, 0.0014158514284937128
348.0, 0.008230814023126934
349.0, 0.01142788012337855
350.0, 0.013429842369988764
351.0, 0.012572153538636872
352.0, 0.012052333238891015
353.0, 0.015168246778998395
354.0, 0.008960097435016754
355.0, 0.010813824185065388
356.0, 0.007917475644675024
357.0, 0.0037893240469553924
358.0, 0.011070801569393572
359.0, 0.006138450349986292
360.0, 0.010300442722602117
361.0, 0.024912436140443067
362.0, 0.03815709890263113
363.0, 0.03729318385178437
364.0, 0.051520455236840026
365.0, 0.06896654771416481
366.0, 0.08046987184215848
367.0, 0.08733009362106035
368.0, 0.10157226787255538
369.0, 0.11454782227568039
370.0, 0.11905785567411689
371.0, 0.11941435738393293
372.0, 0.12237562363792875
373.0, 0.12409840074074867
374.0, 0.11555982331217923
375.0, 0.10979184356476264
376.0, 0.11254235445689151
377.0, 0.11622796287870173
378.0, 0.10817791421092234
379.0, 0.09607621793227904
380.0, 0.08773107758428322
381.0, 0.08619113486923574
382.0, 0.08921847822110983
383.0, 0.08780446304983716
384.0, 0.10323464750484006
385.0, 0.10599742871814596
386.0, 0.10101439713945051
387.0, 0.12364957541189309
388.0, 0.1339095882285834
389.0, 0.14622120179813658
390.0, 0.15974053237052338
391.0, 0.17608601046899144
392.0, 0.20233746012102116
393.0, 0.21748501583214105
394.0, 0.2541973266898595
395.0, 0.28889198210268763
396.0, 0.3105929755300126
397.0, 0.34324088046660295
398.0, 0.37077125713614534
399.0, 0.4023628292864117
400.0, 0.43141341777933095
401.0, 0.4486567589063192
402.0, 0.4516503451013276
403.0, 0.45404321186595104
404.0, 0.4453255492954613
405.0, 0.43095445148854883
406.0, 0.40968875679629274
407.0, 0.3677168127690385
408.0, 0.3331150080323169
409.0, 0.29099610988760105
410.0, 0.24724295456617817
411.0, 0.21395231777264548
412.0, 0.19074276358685516
413.0, 0.15392388899283857
414.0, 0.11483546610920793
415.0, 0.09405632609717574
416.0, 0.08841444652177309
417.0, 0.06809131760384783
418.0, 0.0620349805758647
419.0, 0.052210651944962286
420.0, 0.04640909325735628
421.0, 0.04994555103391886
422.0, 0.043284090659038724
423.0, 0.030512026057139298
424.0, 0.028657609470383982
425.0, 0.032448358958742485
426.0, 0.035388712676395616
427.0, 0.04245340898130133
428.0, 0.04158356581556613
429.0, 0.04826688365590939
430.0, 0.05586364400494691
431.0, 0.055284350726467354
432.0, 0.05508377798921619
433.0, 0.06011395705422313
434.0, 0.07304673909036441
435.0, 0.08437875499657477
436.0, 0.08639097743488867
437.0, 0.08286916469834006
438.0, 0.0900431848385728
439.0, 0.09206075991663507
440.0, 0.09070289202003218
441.0, 0.09061149972439853
442.0, 0.0887984759488364
443.0, 0.0802788836438137
444.0, 0.06546220931233047
445.0, 0.054231497792810966
446.0, 0.04800770079108601
447.0, 0.03716930064444391
448.0, 0.03175740973582358
449.0, 0.029159916048219416
450.0, 0.017455015931260018
451.0, 0.005763728992506526
452.0, 0.018886389733065143
453.0, 0.009224504971709242
454.0, 0.0009243339219394903
455.0, 0.0038182643347546385
456.0, 0.003621440751736178
457.0, 0.006457097743351129
458.0, 0.007286645361971712
459.0, 0.006748731343927401
460.0, 0.004747248471827844
461.0, 0.004652970122082931
462.0, 0.009004816621216705
463.0, 0.011883616730675173
464.0, 0.009285705209769683
465.0, 0.003526037389441957
466.0, 0.0008452520872771774
467.0, 0.0014583838584732167
468.0, 0.007079287786066511
469.0, 0.009819760998525464
470.0, 0.004449692294649158
471.0, 0.0019612719334613344
472.0, 0.009221239584096205
473.0, 0.008544295457887716
474.0, 0.002866365381831371
475.0, 0.008238929374626643
476.0, 0.014845039159916286
477.0, 0.013768607425745703
478.0, 0.016665454678411188
479.0, 0.028532430676343697
480.0, 0.03429705125521923
481.0, 0.03932691967662787
482.0, 0.04427629408569103
483.0, 0.04127299488830632
484.0, 0.052632961764781445
485.0, 0.06307294392765239
486.0, 0.07860487705629696
487.0, 0.09567525046470905
488.0, 0.10396276224941994
489.0, 0.12040190519211669
490.0, 0.16440775118825363
491.0, 0.19267448602841766
492.0, 0.20797438542762886
493.0, 0.23847344747670365
494.0, 0.2745397747333179
495.0, 0.3155053834341553
496.0, 0.35437888616626706
497.0, 0.3954299832065404
498.0, 0.4401299227715392
499.0, 0.47782599331980474
500.0, 0.5134247899819278
501.0, 0.5398616770775672
502.0, 0.565832995995581
503.0, 0.5880173474354101
504.0, 0.5882828230543119
505.0, 0.5568416311377032
506.0, 0.5214726569314574
507.0, 0.4613315709736163
508.0, 0.3941342516186249
509.0, 0.3526657040141611
510.0, 0.2897211563669678
511.0, 0.2479023408594755
512.0, 0.21293441786010997
513.0, 0.1860897766141696
514.0, 0.17414966901975099
515.0, 0.16283144411746112
516.0, 0.1632143378175754
517.0, 0.16509007694128802
518.0, 0.16744715839777302
519.0, 0.17460011006433654
520.0, 0.18998205086175793
521.0, 0.2015651965135372
522.0, 0.23056512410780308
523.0, 0.26038381974183
524.0, 0.28718053336298743
525.0, 0.3241251619423789
526.0, 0.3684320817150747
527.0, 0.4148122173292414
528.0, 0.46208260436788434
529.0, 0.5121879674505754
530.0, 0.5691957482427215
531.0, 0.6361322916252424
532.0, 0.7047131412092418
533.0, 0.7633846694691377
534.0, 0.8191869729324338
535.0, 0.8782776580005215
536.0, 0.9388605990865353
537.0, 0.9851906494121536
538.0, 0.9933451449077954
539.0, 0.9974219186960064
540.0, 0.9944078735137356
541.0, 0.9640868470782714
542.0, 0.9173504195626889
543.0, 0.8443231285081637
544.0, 0.7822921964090118
545.0, 0.7165701379962048
546.0, 0.6392519789329663
547.0, 0.5695631787575616
548.0, 0.5050429075774729
549.0, 0.4365635418575017
550.0, 0.3932248788613084
551.0, 0.3611700717853794
552.0, 0.3117597972275873
553.0, 0.2683156355216005
554.0, 0.23331220388612844
555.0, 0.204914235881969
556.0, 0.18483757873433915
557.0, 0.1664826660665744
558.0, 0.1401894384650799
559.0, 0.12782122436305252
560.0, 0.11371436905034626
561.0, 0.10488535492451719
562.0, 0.09849518354666427
563.0, 0.08866288545985282
564.0, 0.08126144695073285
565.0, 0.07272389482027318
566.0, 0.06892617083580321
567.0, 0.06018177387170145
568.0, 0.0566758905101033
569.0, 0.04905368381803084
570.0, 0.037362867756075016
571.0, 0.03251215455238498
572.0, 0.02799600149042409
573.0, 0.025774568703071737
574.0, 0.021054454201655366
575.0, 0.02586365891458983
576.0, 0.017046819493873794
577.0, 0.012637688544185729
578.0, 0.009603144890286715
579.0, 0.012090772036494654
580.0, 0.025019352849898664
581.0, 0.021607597193084995
582.0, 0.022531409224643483
583.0, 0.022637948084669013
584.0, 0.020748659936731414
585.0, 0.020296076898698095
586.0, 0.02242689988148602
587.0, 0.021310536839470328
588.0, 0.018272300092487738
589.0, 0.017043904180624552
590.0, 0.014304776706878613
591.0, 0.00837078104333363
592.0, 0.01033372979065643
593.0, 0.011060291757941246
594.0, 0.006128806913939112
595.0, 0.0010039613459418674
596.0, 0.0007953395523049404
597.0, 0.001854397751818902
598.0, 0.007286522495244548
599.0, 0.0006709596820705897
600.0, 0.0013881338352742002
601.0, 0.00715155781141851
602.0, 0.009711969342452685
603.0, 0.007309793895132983
604.0, 0.0012947640000754948
605.0, 0.006045579923224433
606.0, 0.005122808127322834
607.0, 0.0006037175332173124
608.0, 0.002940278199223852
609.0, 0.010417977720750647
610.0, 0.001344833469488801
611.0, 0.0033181475101059987
612.0, 0.0160603243783657
613.0, 0.026136649962814236
614.0, 0.024599198314757563
615.0, 0.025691412933836772
616.0, 0.02992670480364013
617.0, 0.03701040046226754
618.0, 0.046103363724632744
619.0, 0.05388205991092011
620.0, 0.060689694197785644
621.0, 0.07911428429527814
622.0, 0.08186029802857747
623.0, 0.08955698437382262
624.0, 0.10530732282504632
625.0, 0.11984639298201508
626.0, 0.13013591628725057
627.0, 0.14677877492093827
628.0, 0.17014142520478123
629.0, 0.17936282161454
630.0, 0.1795732351960761
631.0, 0.1885737259914598
632.0, 0.20444195578755062
633.0, 0.20865217297174887
634.0, 0.19035988548326574
635.0, 0.19076800954959686
636.0, 0.20001213237036522
637.0, 0.19340087495289998
638.0, 0.193243919010956
639.0, 0.17755782167686848
640.0, 0.15773268032984777
641.0, 0.1533022444692405
642.0, 0.14514539369170637
643.0, 0.11629332814480085
644.0, 0.1085285002459985
645.0, 0.0874479485185647
646.0, 0.07861905668114719
647.0, 0.07860850511529234
648.0, 0.07426770274094284
649.0, 0.06376373735478597
650.0, 0.06309623170096602
651.0, 0.06466978079763937
652.0, 0.056254773279558044
653.0, 0.04827266566127594
654.0, 0.045150960798665395
655.0, 0.04071641185252357
656.0, 0.0336395449708124
657.0, 0.029521790064655256
658.0, 0.03288809946183607
659.0, 0.02912654388456867
660.0, 0.020077377772002403
661.0, 0.02195481303209856
662.0, 0.026346889388440223
663.0, 0.017067989901310764
664.0, 0.008759549165710208
665.0, 0.005725958681218609
666.0, 0.007775887435813424
667.0, 0.012683548999387013
668.0, 0.0013279733532646995
669.0, 0.002227747107889295
670.0, 0.0006100366564953408
671.0, 0.0037593750463228498
672.0, 0.00564037542312221
673.0, 0.006116273315673634
674.0, 0.0028401306318901675
675.0, 0.004918919388213059
676.0, 0.00530056859265328
677.0, 0.0020658318613947903
678.0, 0.0026466080112536503
679.0, 0.01251593822551469
680.0, 0.017584761836051243
681.0, 0.0014507807578827863
682.0, 0.004276837328297296
683.0, 0.006419435098930456
684.0, 0.002596176169391265
685.0, 0.004087582958355877
686.0, 0.005120952572014688
687.0, 0.006908138209280698
688.0, 0.001969677691895673
689.0, 0.00942555452360715
690.0, 0.009571213492353691
691.0, 0.0015951634959936694
692.0, 0.010044042915028539
693.0, 0.0060200235598097005
694.0, 0.00042721274238567263
695.0, 0.010885166373849509
696.0, 0.015037550693672918
697.0, 0.0003099090108764525
698.0, 0.0019356841245376343
699.0, 0.00554362602122627
700.0, 0.010576884105163619
701.0, 0.012057354921211457
702.0, 0.010457929878095554
703.0, 0.00807750088499018
704.0, 0.004073432639953247
705.0, 0.004133378443568984
706.0, 0.007190434203244318
707.0, 0.008110658553253705
708.0, 0.0015466817696641565
709.0, 0.0008541962187060856
710.0, 0.006412382267482425
711.0, 0.003575645177021817
712.0, 0.005847368407255285
713.0, 0.00818669242005208
714.0, 0.00964411036881008
715.0, 0.007303092581817366
716.0, 0.002678230069956068
717.0, 0.008085465579879755
718.0, 0.009696291717667154
719.0, 0.0008289825492467325
720.0, 0.0023943811999597555
721.0, 0.009681524604937175
722.0, 0.00906834250141589
723.0, 0.011346316463182996
724.0, 0.02123055003695426
725.0, 0.011484509052120333
726.0, 0.01351983196933615
727.0, 0.016279238481802513
728.0, 0.009228441123251272
729.0, 0.009717851149694574
730.0, 0.012325250942118112
731.0, 0.016724502072714777
732.0, 0.011818633104405228
733.0, 0.006893354408861817
734.0, 0.005490916956911549
735.0, 0.005708718947629122
736.0, 0.013457111187079292
737.0, 0.016580009523360268
738.0, 0.013770160127585059
739.0, 0.011038711929404256
740.0, 0.011719775984080383
741.0, 0.015146557568520637
742.0, 0.017759236494628308
743.0, 0.014956051393030424
744.0, 0.006334963333362753
745.0, 0.013042365791249587
746.0, 0.018552541133539758
747.0, 0.016067737833919637
748.0, 0.01601061747481215
749.0, 0.015485027035239792
750.0, 0.014068912072757728
751.0, 0.01454872980439811
752.0, 0.014615287264671165
753.0, 0.011883625883108383
754.0, 0.010030662249877292
755.0, 0.012357278325166412
756.0, 0.004025811614191865
757.0, 0.013931784842404173
758.0, 0.015666668037783868
759.0, 0.018415656813883526
760.0, 0.02399402406790858
761.0, 0.020232846238748395
762.0, 0.01723211559951935
763.0, 0.020194751028267868
764.0, 0.018003173041882776
765.0, 0.023363165802764988
766.0, 0.018539626217854547
767.0, 0.004394175845354449
768.0, 0.012969976366418133
769.0, 0.010479589257106901
770.0, 0.017792164114405047
771.0, 0.010769912653684831
772.0, 0.007260986960208475
773.0, 0.014848079578631417
774.0, 0.02009785452076839
775.0, 0.01568576577407024
776.0, 0.011234905814753861
777.0, 0.015988502358060413
778.0, 0.01714865132024691
779.0, 0.020408881376041764
780.0, 0.02386452348591599
781.0, 0.015516089651095098
782.0, 0.007831431731330768
783.0, 0.010023640267403227
784.0, 0.01030838409419829
785.0, 0.0020435692382223015
786.0, 0.0038689073033861205
787.0, 0.0196086381184369
788.0, 0.027161015513765915
789.0, 0.008887658152144663
790.0, 0.010387914494413585
791.0, 0.007544236985058306
792.0, 0.007302667231467488
793.0, 0.009748819301446505
794.0, 0.005218835549954512
795.0, 0.0003346884000886645
796.0, 0.0036232428840243195
797.0, 0.003989224868411548
798.0, 0.0023968898536880123
799.0, 0.009637234606913722
800.0, 0.010975341619913153
801.0, 0.0016353041299435335
802.0, 0.009513129094263368
803.0, 0.00711601461065442
804.0, 0.005203387099826143
805.0, 0.003384585153049238
806.0, 0.004409336316493157
807.0, 0.006411836931393471
808.0, 0.010118297451288826
809.0, 0.010731264648096737
810.0, 0.0038791715334314833
811.0, 0.00037834382227478527
812.0, 0.00042905769943392803
813.0, 0.0035932744394760246
814.0, 0.010796151079903955
815.0, 0.01941310673906698
816.0, 0.015106300482067252
817.0, 0.006927662478499118
818.0, 0.014266954351331951
819.0, 0.011749042587554652
820.0, 0.00803005256579878
821.0, 0.016500049364988972
822.0, 0.021649409470264152
823.0, 0.013824377064311909
824.0, 0.021220065181613477
825.0, 0.016909449263806473
826.0, 0.010477405332042888
827.0, 0.012873120013748917
828.0, 0.020066876727768433
829.0, 0.022901321865255828
830.0, 0.022618707489504994
831.0, 0.024998320967036313
832.0, 0.016177688772884554
833.0, 0.01781917372022848
834.0, 0.01810255019238613
835.0, 0.010704522729495854
836.0, 0.014472292958335131
837.0, 0.017277478098704908
838.0, 0.019556263947854622
839.0, 0.017833684277400168
840.0, 0.011539006383861362
841.0, 0.011991908931431304
842.0, 0.016115592117165695
843.0, 0.01304493443255076
844.0, 0.01738241921726675
845.0, 0.0067717771274831435
846.0, 0.007114513513361826
847.0, 0.008141985893252499
848.0, 0.010266346490387471
849.0, 0.012744311101124402
850.0, 0.010147321538239806
851.0, 0.012350332022489138
852.0, 0.01716285799249145
853.0, 0.007036065059743113
854.0, 0.006399740894842691
855.0, 0.008559116560692435
856.0, 0.009211590253144712
857.0, 0.012129153856398147
858.0, 0.009954610077870312
859.0, 0.008284850281855162
860.0, 0.009742157119270744
861.0, 0.009130111049541631
862.0, 0.007981414026758777
863.0, 0.005228376969366573
864.0, 0.002574434376743901
865.0, 0.0072339392760904855
866.0, 0.009646569419232058
867.0, 0.004444659901426701
868.0, 0.007806476004147337
869.0, 0.005375278261265455
870.0, 0.0007344700170090033
871.0, 0.0020778434489830545
872.0, 0.003112610431357476
873.0, 0.003793234612781826
874.0, 0.005164651007194012
875.0, 0.011100685664039775
876.0, 0.010900015738456573
877.0, 0.009569357398841027
878.0, 0.00621430999538646
879.0, 0.0005708839823614207
880.0, 0.0008953522304226148
881.0, 0.0006171803407496381
882.0, 0.002515491525366786
883.0, 0.007289995088392146
884.0, 0.010325275710161334
885.0, 0.008206341759700536
886.0, 0.0036826530142150043
887.0, 0.004156891286132313
888.0, 0.006563318843027178
889.0, 0.004974792996637909
890.0, 0.0035466793919486125
891.0, 0.011358055610642402
892.0, 0.012990542490954268
893.0, 0.00815047960269183
894.0, 0.010812272933487414
895.0, 0.01557477508949643
896.0, 0.008853382422722067
897.0, 0.007867852388148674
898.0, 0.005214621601255532
899.0, 0.004452876218818852
900.0, 0.009924063512187366
901.0, 0.012421556878857374
902.0, 0.005142450045851446
903.0, 0.015394018730351877
904.0, 0.01676176305443878
905.0, 0.015590408886191627
906.0, 0.010055920289351629
907.0, 0.004616544522569899
908.0, 0.004218064782374418
909.0, 0.00901709314213796
910.0, 0.013859095484031572
911.0, 0.010280050460207538
912.0, 0.015908374498495616
913.0, 0.008981871165952298
914.0, 0.007122794155839977
915.0, 0.005402878452378864
916.0, 0.0015854248311631134
917.0, 0.0025910532994360387
918.0, 0.0031486712880363353
919.0, 0.007427582401859279
920.0, 0.015023802499050224
921.0, 0.008457657524099896
922.0, 0.0029608498394752287
923.0, 0.004161348983898568
924.0, 0.004933554626581663
925.0, 0.0015404223724463113
926.0, 0.001015035778455987
927.0, 0.0045526603750865105
928.0, 0.009947194927287495
929.0, 0.005993283533442048
930.0, 0.012051977990818578
931.0, 0.01683370267759314
932.0, 0.0036968126127561165
933.0, 0.0049775567719221505
934.0, 0.008297904757997679
935.0, 0.0031839625827013813
936.0, 0.004415960787252542
937.0, 0.006173797939667243
938.0, 0.009102462863494485
939.0, 0.00961542875878654
940.0, 0.0036585597589503006
941.0, 0.011662120579762503
942.0, 0.010347924085773069
943.0, 0.00823337628892324
944.0, 0.009581003247641214
945.0, 0.007677721857304635
946.0, 0.012260149060001878
947.0, 0.009233748011317273
948.0, 0.015325668045129323
949.0, 0.015024913230086107
950.0, 0.008227208944777095
951.0, 0.011338656533405296
952.0, 0.0031677570316802845
953.0, 0.008057808335881605
954.0, 0.001972529173036149
955.0, 0.000949139488211604
956.0, 0.004357700599108218
957.0, 0.003666226867420072
958.0, 0.0049704734210660574
959.0, 0.006372045603265719
960.0, 0.006504090791754373
961.0, 0.0012633711759066656
962.0, 0.007720782719866875
963.0, 0.008150379181714199
964.0, 0.002172097276752575
965.0, 0.008460298457548032
966.0, 0.015451514354770945
967.0, 0.0027696180011591892
968.0, 0.006452433043414293
969.0, 0.002708954919207856
970.0, 0.003005929755568812
971.0, 0.013222440322199073
972.0, 0.01414148009792487
973.0, 0.004698347161784694
974.0, 0.011550832738216306
975.0, 0.02051040311098252
976.0, 0.01571751588529997
977.0, 0.008373233602529197
978.0, 0.01114951251748788
979.0, 0.006935812405563702
980.0, 0.003919613166977071
981.0, 0.015003517392511745
982.0, 0.015147085884007325
983.0, 0.01695418027000134
984.0, 0.0038404428980035286
985.0, 0.0070817802189845685
986.0, 0.01035146334890382
987.0, 0.01037219941837203
988.0, 0.01078459206535524
989.0, 0.0053757006461042645
990.0, 0.0019298208523246263
991.0, 0.016582398305212243
992.0, 0.015126609014518998
993.0, 0.010818982677354943
994.0, 0.010948086245153026
995.0, 0.005375156015244879
996.0, 0.0070569727783748966
997.0, 0.013072659072075023
998.0, 0.013708777017176932
999.0, 0.021451133021908052
1000.0, 0.009579616110139988
1001.0, 0.00760372291349088
1002.0, 0.002420447539936099
1003.0, 0.013651808629438066
1004.0, 0.010354508092647069
1005.0, 0.006052484191800372
1006.0, 0.016184121266366026
1007.0, 0.017029819582006726
1008.0, 0.011087929482086816
1009.0, 0.01563587861404625
1010.0, 0.011301372747211859
1011.0, 0.009783802076585137
1012.0, 0.0042641845371775376
1013.0, 0.003782405719968896
1014.0, 0.013249738098812504
1015.0, 0.01613942597327955
1016.0, 0.00551520238849534
1017.0, 0.014510140702960644
1018.0, 0.02306414780755287
1019.0, 0.019142065940217314
1020.0, 0.01162517971507695
1021.0, 0.017911434031761632
1022.0, 0.025319466473332032
1023.0, 0.02590519063649889
1024.0, 0.02072059093273002
1025.0, 0.011263401603963061
1026.0, 0.02566612098401462
1027.0, 0.023598649008458435
1028.0, 0.016226321411019075
1029.0, 0.018226515128802703
1030.0, 0.02144854502165255
1031.0, 0.02838002374553842
1032.0, 0.037770612846554835
1033.0, 0.039041310710484584
1034.0, 0.03170780942590011
1035.0, 0.03356420003508856
1036.0, 0.023768129274506826
1037.0, 0.04298868214805581
1038.0, 0.05101686183230503
1039.0, 0.04058535564330387
1040.0, 0.03592235545907396
1041.0, 0.03942130214412228
1042.0, 0.03702786408703969
1043.0, 0.03252409646659299
1044.0, 0.040945071307065296
1045.0, 0.03215654749790923
1046.0, 0.023455859529897646
1047.0, 0.042588213310301645
1048.0, 0.03826140665669611
1049.0, 0.02184455657320924
1050.0, 0.02200199734152542
1051.0, 0.032058729260924734
1052.0, 0.03525912872075462
1053.0, 0.023021233574032973
1054.0, 0.020631465989819
1055.0, 0.013246713959280884
1056.0, 0.017401280692153916
1057.0, 0.021688588348201723
1058.0, 0.021119022788576348
1059.0, 0.01389050464512646
1060.0, 0.0058458126903555615
1061.0, 0.007555951253314884
1062.0, 0.011057895762236186
1063.0, 0.015429745089836175
1064.0, 0.01359527730198807
1065.0, 0.010721447717174922
1066.0, 0.010082998304843618
1067.0, 0.01099074432526232
1068.0, 0.01262794378619384
1069.0, 0.010132741499401198
1070.0, 0.0066522513872134545
1071.0, 0.013787630771819064
1072.0, 0.011165689912722397
1073.0, 0.004659685688910889
1074.0, 0.0022937932506692
1075.0, 0.007119089891386138
1076.0, 0.003719579580160272
1077.0, 0.001163939833336296
1078.0, 0.0005846464712705857
1079.0, 0.0025548551796557217
1080.0, 0.008741376700917078
1081.0, 0.006501238181393442
1082.0, 0.0006378839795167402
1083.0, 0.003595614724352595
1084.0, 0.005159665712741724
1085.0, 0.005758504815055084
1086.0, 0.016070634781566836
1087.0, 0.013388295353431504
1088.0, 0.004064854936522484
1089.0, 0.0022835977827468015
1090.0, 0.007518433673787957
1091.0, 0.010222309025285594
1092.0, 0.00902782459236441
1093.0, 0.003912827188308263
1094.0, 0.011646064516587881
1095.0, 0.014363631754736495
1096.0, 0.012069641884569875
1097.0, 0.008887122800223347
1098.0, 0.0042596876752992
1099.0, 0.0017639534445912772
1100.0, 0.008957986246148892
1101.0, 0.01570223927289898
1102.0, 0.0005243100715554134
1103.0, 0.008759399616304082
1104.0, 0.013697189256727797
1105.0, 0.012614315395544926
1106.0, 0.006588518416776488
1107.0, 0.0020815431675852525
1108.0, 0.0019812887722930254
1109.0, 0.0016514147706909207
1110.0, 0.004551825638210296
1111.0, 0.008400118049671345
1112.0, 0.0009109003260536418
1113.0, 0.0020592633375764555
1114.0, 0.0018863072552291497
1115.0, 0.004539053263465227
1116.0, 0.013135561067529828
1117.0, 0.006769531233274368
1118.0, 0.0037507336681632383
1119.0, 0.009527509318275297
1120.0, 0.00599655173765451
1121.0, 0.007041814813194296
1122.0, 0.004588243869049253
1123.0, 0.008493989223928387
1124.0, 0.008178805851780314
1125.0, 0.009574793349511975
1126.0, 0.009728225657194963
1127.0, 0.008819569839628099
1128.0, 0.01102313983837936
1129.0, 0.013336200806059954
1130.0, 0.013668858034968074
1131.0, 0.018832856953526083
1132.0, 0.015239707499972601
1133.0, 0.006706388401532678
1134.0, 0.013900236868606565
1135.0, 0.02625611864484609
1136.0, 0.023276731793331135
1137.0, 0.018238467734767467
1138.0, 0.017688973384211683
1139.0, 0.020168076860368638
1140.0, 0.01901279788525584
1141.0, 0.011241487038108032
1142.0, 0.020357417404826102
1143.0, 0.018468133776984447
1144.0, 0.02087806453735137
1145.0, 0.01408635981768432
1146.0, 0.014367143575519116
1147.0, 0.016216019815987436
1148.0, 0.009828367644156195
1149.0, 0.008474796781989523
1150.0, 0.013504094076571879
1151.0, 0.016966939126353893
1152.0, 0.025879895769228223
1153.0, 0.02537900398728826
1154.0, 0.02467429149803992
1155.0, 0.028175220650545674
1156.0, 0.032592882038153664
1157.0, 0.01780550193251771
1158.0, 0.02252975825296207
1159.0, 0.01724775320001525
1160.0, 0.015611184472659398
1161.0, 0.02303650856895716
1162.0, 0.01810586570094007
1163.0, 0.027450707251811257
1164.0, 0.020826242919589198
1165.0, 0.021887571169607073
1166.0, 0.035377401608412254
1167.0, 0.03061792623305933
1168.0, 0.01822805976472509
1169.0, 0.012230372809398963
1170.0, 0.02489287239225787
1171.0, 0.03266130231427705
1172.0, 0.021506378972814027
1173.0, 0.017772228240240807
1174.0, 0.02968003634188116
1175.0, 0.029447219875649647
1176.0, 0.01657596937022572
1177.0, 0.023808589382181947
1178.0, 0.020478557405056035
1179.0, 0.019558692551896326
1180.0, 0.014366055661007552
1181.0, 0.023019229605919782
1182.0, 0.025964229614926046
1183.0, 0.015820606357689004
1184.0, 0.010901211855140706
1185.0, 0.011562016308080389
1186.0, 0.01570483484540675
1187.0, 0.019185251106364695
1188.0, 0.014498078903963676
1189.0, 0.014389387702218197
1190.0, 0.014318453972017049
1191.0, 0.01932191959803512
1192.0, 0.011908270855715754
1193.0, 0.004563014814635109
1194.0, 0.010276733700262958
1195.0, 0.010403489420290915
1196.0, 0.0031831252542266946
1197.0, 0.012426204187685624
1198.0, 0.008476353452770431
1199.0, 0.006554246752945474
1200.0, 0.006951593360299819
1201.0, 0.013997860586760528
1202.0, 0.012653155818467503
1203.0, 0.01779225798413798
1204.0, 0.01788908221264729
1205.0, 0.02031371462151543
1206.0, 0.02043427591205115
1207.0, 0.015957822578432368
1208.0, 0.01461581846719812
1209.0, 0.011254073931956649
1210.0, 0.012847253488546368
1211.0, 0.017129869792580178
1212.0, 0.018944898279492205
1213.0, 0.012025580472679662
1214.0, 0.017404237467247615
1215.0, 0.0179041265473826
1216.0, 0.011579298391069059
1217.0, 0.00461796906045551
1218.0, 0.014338413101174004
1219.0, 0.018340512495330703
1220.0, 0.0059976176489501135
1221.0, 0.008270964389425773
1222.0, 0.006067543661055528
1223.0, 0.01603625340029811
1224.0, 0.0021393520595445635
1225.0, 0.002279001439448538
1226.0, 0.008644584107185677
1227.0, 0.0050677880112609385
1228.0, 0.005461773306705988
1229.0, 0.0037397196418735663
1230.0, 0.0015564963815441531
1231.0, 0.008956783332399522
1232.0, 0.0104213358756266
1233.0, 0.008625707061167295
1234.0, 0.003895344332021351
1235.0, 0.003578367559404369
1236.0, 0.006662429836830285
1237.0, 0.005140387831244111
1238.0, 0.011568641682965248
1239.0, 0.0050388296545263896
1240.0, 0.004352352915438827
1241.0, 0.011336535822266982
1242.0, 0.005735607665525277
1243.0, 0.0058146642369877235
1244.0, 0.012543708237532048
1245.0, 0.006961057931845076
1246.0, 0.0002329050579977284
1247.0, 0.009832970140520578
1248.0, 0.014011367654644629
1249.0, 0.015133429848799233
1250.0, 0.002525945213108548
1251.0, 0.013064377041939922
1252.0, 0.012993793837580333
1253.0, 0.021262940454890137
1254.0, 0.0112590860160777
1255.0, 0.008797057328831806
1256.0, 0.015898423465346888
1257.0, 0.021833691183205113
1258.0, 0.020901321185895317
1259.0, 0.015886553853289315
1260.0, 0.021113676567632716
1261.0, 0.022500116211600477
1262.0, 0.01725185452822624
1263.0, 0.012434684450995194
1264.0, 0.02100773187734119
1265.0, 0.020981977407731705
1266.0, 0.0031490490256687615
1267.0, 0.012952684228941778
1268.0, 0.009261555392077566
1269.0, 0.008743307824236969
1270.0, 0.0148310403754459
1271.0, 0.010257563860761642
1272.0, 0.003018918733665829
1273.0, 0.006257370455504615
1274.0, 0.0168097169200778
1275.0, 0.01573011825519554
1276.0, 0.008164033608825377
1277.0, 0.01709049094170285
1278.0, 0.016793128397847936
1279.0, 0.015006218271436202
1280.0, 0.012937919105199862
1281.0, 0.00906875763501073
1282.0, 0.010925915319304574
1283.0, 0.014056142899958159
1284.0, 0.014167193956255262
1285.0, 0.004718866367201169
1286.0, 0.000891895274591242
1287.0, 0.009787662183223262
1288.0, 0.009092029120542775
1289.0, 0.01439725396527916
1290.0, 0.010776420470828245
1291.0, 0.01798000316656603
1292.0, 0.015461015343702806
1293.0, 0.009886615076393062
1294.0, 0.007215720030421908
1295.0, 0.013170899758696071
1296.0, 0.00665898182344387
1297.0, 0.0017432387742370194
1298.0, 0.0009523179423105881
1299.0, 0.007601893446023805
1300.0, 0.01607368330333978
1301.0, 0.014784647159885141
1302.0, 0.013355987172493538
1303.0, 0.013555357462003134
1304.0, 0.0057087543423750935
1305.0, 0.007489566010933319
1306.0, 0.0005506475876730425
1307.0, 0.004777039227811469
1308.0, 0.0006796938511094182
1309.0, 0.009166590407052259
1310.0, 0.016451190036663017
1311.0, 0.01081108722973261
1312.0, 0.008221760761213219
1313.0, 0.0024736491692609803
1314.0, 0.0026034575427468848
1315, 0.0
1316, 0.0
1317, 0.0
1318, 0.0
1319, 0.0
1320, 0.0
1321, 0.0
1322, 0.0
1323, 0.0
1324, 0.0
1325, 0.0
1326, 0.0
1327, 0.0
1328, 0.0
1329, 0.0
1330, 0.0
1331, 0.0
1332, 0.0
1333, 0.0
1334, 0.0
1335, 0.0
1336, 0.0
1337, 0.0
1338, 0.0
1339, 0.0
1340, 0.0
1341, 0.0
1342, 0.0
1343, 0.0
1344, 0.0
1345, 0.0
1346, 0.0
1347, 0.0
1348, 0.0
1349, 0.0
1350, 0.0
1351, 0.0
1352, 0.0
1353, 0.0
1354, 0.0
1355, 0.0
1356, 0.0
1357, 0.0
1358, 0.0
1359, 0.0
1360, 0.0
1361, 0.0
1362, 0.0
1363, 0.0
1364, 0.0
1365, 0.0
1366, 0.0
1367, 0.0
1368, 0.0
1369, 0.0
1370, 0.0
1371, 0.0
1372, 0.0
1373, 0.0
1374, 0.0
1375, 0.0
1376, 0.0
1377, 0.0
1378, 0.0
1379, 0.0
1380, 0.0
1381, 0.0
1382, 0.0
1383, 0.0
1384, 0.0
1385, 0.0
1386, 0.0
1387, 0.0
1388, 0.0
1389, 0.0
1390, 0.0
1391, 0.0
1392, 0.0
1393, 0.0
1394, 0.0
1395, 0.0
1396, 0.0
1397, 0.0
1398, 0.0
1399, 0.0
1400, 0.0
1401, 0.0
1402, 0.0
1403, 0.0
1404, 0.0
1405, 0.0
1406, 0.0
1407, 0.0
1408, 0.0
1409, 0.0
1410, 0.0
1411, 0.0
1412, 0.0
1413, 0.0
1414, 0.0
1415, 0.0
1416, 0.0
1417, 0.0
1418, 0.0
1419, 0.0
1420, 0.0
1421, 0.0
1422, 0.0
1423, 0.0
1424, 0.0
1425, 0.0
1426, 0.0
1427, 0.0
1428, 0.0
1429, 0.0
1430, 0.0
1431, 0.0
1432, 0.0
1433, 0.0
1434, 0.0
1435, 0.0
1436, 0.0
1437, 0.0
1438, 0.0
1439, 0.0
1440, 0.0
1441, 0.0
1442, 0.0
1443, 0.0
1444, 0.0
1445, 0.0
1446, 0.0
1447, 0.0
1448, 0.0
1449, 0.0
1450, 0.0
1451, 0.0
1452, 0.0
1453, 0.0
1454, 0.0
1455, 0.0
1456, 0.0
1457, 0.0
1458, 0.0
1459, 0.0
1460, 0.0
1461, 0.0
1462, 0.0
1463, 0.0
1464, 0.0
1465, 0.0
1466, 0.0
1467, 0.0
1468, 0.0
1469, 0.0
1470, 0.0
1471, 0.0
1472, 0.0
1473, 0.0
1474, 0.0
1475, 0.0
1476, 0.0
1477, 0.0
1478, 0.0
1479, 0.0
1480, 0.0
1481, 0.0
1482, 0.0
1483, 0.0
1484, 0.0
1485, 0.0
1486, 0.0
1487, 0.0
1488, 0.0
1489, 0.0
1490, 0.0
1491, 0.0
1492, 0.0
1493, 0.0
1494, 0.0
1495, 0.0
1496, 0.0
1497, 0.0
1498, 0.0
1499, 0.0
1500, 0.0
1501, 0.0
1502, 0.0
1503, 0.0
1504, 0.0
1505, 0.0
1506, 0.0
1507, 0.0
1508, 0.0
1509, 0.0
1510, 0.0
1511, 0.0
1512, 0.0
1513, 0.0
1514, 0.0
1515, 0.0
1516, 0.0
1517, 0.0
1518, 0.0
1519, 0.0
1520, 0.0
1521, 0.0
1522, 0.0
1523, 0.0
1524, 0.0
1525, 0.0
1526, 0.0
1527, 0.0
1528, 0.0
1529, 0.0
1530, 0.0
1531, 0.0
1532, 0.0
1533, 0.0
1534, 0.0
1535, 0.0
1536, 0.0
1537, 0.0
1538, 0.0
1539, 0.0
1540, 0.0
1541, 0.0
1542, 0.0
1543, 0.0
1544, 0.0
1545, 0.0
1546, 0.0
1547, 0.0
1548, 0.0
1549, 0.0
1550, 0.0
1551, 0.0
1552, 0.0
1553, 0.0
1554, 0.0
1555, 0.0
1556, 0.0
1557, 0.0
1558, 0.0
1559, 0.0
1560, 0.0
1561, 0.0
1562, 0.0
1563, 0.0
1564, 0.0
1565, 0.0
1566, 0.0
1567, 0.0
1568, 0.0
1569, 0.0
1570, 0.0
1571, 0.0
1572, 0.0
1573, 0.0
1574, 0.0
1575, 0.0
1576, 0.0
1577, 0.0
1578, 0.0
1579, 0.0
1580, 0.0
1581, 0.0
1582, 0.0
1583, 0.0
1584, 0.0
1585, 0.0
1586, 0.0
1587, 0.0
1588, 0.0
1589, 0.0
1590, 0.0
1591, 0.0
1592, 0.0
1593, 0.0
1594, 0.0
1595, 0.0
1596, 0.0
1597, 0.0
1598, 0.0
1599, 0.0
