30, 0.0
31, 0.0
32, 0.0
33, 0.0
34, 0.0
35, 0.0
36, 0.0
37, 0.0
38, 0.0
39, 0.0
40, 0.0
41, 0.0
42, 0.0
43, 0.0
44, 0.0
45, 0.0
46, 0.0
47, 0.0
48, 0.0
49, 0.0
50, 0.0
51, 0.0
52, 0.0
53, 0.0
54, 0.0
55, 0.0
56, 0.0
57, 0.0
58, 0.0
59, 0.0
60, 0.0
61, 0.0
62, 0.0
63, 0.0
64, 0.0
65, 0.0
66, 0.0
67, 0.0
68, 0.0
69, 0.0
70, 0.0
71, 0.0
72, 0.0
73, 0.0
74, 0.0
75, 0.0
76, 0.0
77, 0.0
78, 0.0
79, 0.0
80, 0.0
81, 0.0
82, 0.0
83, 0.0
84, 0.0
85, 0.0
86, 0.0
87, 0.0
88, 0.0
89, 0.0
90, 0.0
91, 0.0
92, 0.0
93, 0.0
94, 0.0
95, 0.0
96, 0.0
97, 0.0
98, 0.0
99, 0.0
100, 0.0
101, 0.0
102, 0.0
103, 0.0
104, 0.0
105, 0.0
106, 0.0
107, 0.0
108, 0.0
109, 0.0
110, 0.0
111, 0.0
112, 0.0
113, 0.0
114, 0.0
115, 0.0
116, 0.0
117, 0.0
118, 0.0
119, 0.0
120, 0.0
121, 0.0
122, 0.0
123, 0.0
124, 0.0
125, 0.0
126, 0.0
127, 0.0
128, 0.0
129, 0.0
130, 0.0
131, 0.0
132, 0.0
133, 0.0
134, 0.0
135, 0.0
136, 0.0
137, 0.0
138, 0.0
139, 0.0
140.0, 0.0002007199761791329
141.0, 0.006072236033213789
142.0, 0.01809764975521662
143.0, 0.03380438852764616
144.0, 0.049087874050543046
145.0, 0.05403608600987554
146.0, 0.04683703336671478
147.0, 0.037599754340929166
148.0, 0.033765810036723756
149.0, 0.03833883938713064
150.0, 0.04874371292410915
151.0, 0.06249689963997435
152.0, 0.07667016144571737
153.0, 0.08966570038296369
154.0, 0.10968574869758567
155.0, 0.12512244872114858
156.0, 0.13565522702190932
157.0, 0.1366618335844484
158.0, 0.11634070228339258
159.0, 0.08728731261977747
160.0, 0.0628713412716073
161.0, 0.04677527471789252
162.0, 0.03500283334031228
163.0, 0.03314552946239711
164.0, 0.033715732826499034
165.0, 0.036291064332376256
166.0, 0.043032662241631214
167.0, 0.04105396008033952
168.0, 0.03274050502201806
169.0, 0.020598480522063343
170.0, 0.007582819520607189
171.0, 0.0005159219701156948
172.0, 0.004284951801991438
173.0, 0.006147289108963527
174.0, 0.006955875927553177
175.0, 0.0058279148284312845
176.0, 0.002754871846524375
177.0, 0.0023100653186984414
178.0, 0.007976331574300033
179.0, 0.012800165526816162
180.0, 0.02058885042439232
181.0, 0.02764539040500472
182.0, 0.03271073819752312
183.0, 0.03755245528932177
184.0, 0.04851708146659765
185.0, 0.058858738978215815
186.0, 0.07167910301807713
187.0, 0.08669885685128291
188.0, 0.09406497468784004
189.0, 0.0916594118728076
190.0, 0.08410853982413338
191.0, 0.08012435389071824
192.0, 0.08674886391517483
193.0, 0.09650706374625669
194.0, 0.11297769589540804
195.0, 0.13427360645761463
196.0, 0.1547699872943894
197.0, 0.16358945567836833
198.0, 0.15962197250813537
199.0, 0.14765910840882648
200.0, 0.13353205228619958
201.0, 0.12363333808217561
202.0, 0.12353162968378548
203.0, 0.12711312180809545
204.0, 0.1255593513744365
205.0, 0.11189645645767299
206.0, 0.08650490787908525
207.0, 0.060990214879631126
208.0, 0.04170707698825403
209.0, 0.03016068890381867
210.0, 0.024502687743366468
211.0, 0.025672172036496833
212.0, 0.030548780898731556
213.0, 0.0364929428596274
214.0, 0.04191902267939273
215.0, 0.0474479720118775
216.0, 0.05064162730418834
217.0, 0.051959342583554335
218.0, 0.053699610517948776
219.0, 0.05690110253084893
220.0, 0.06260127002011401
221.0, 0.06548049610517297
222.0, 0.06464758923466259
223.0, 0.06799462456328693
224.0, 0.06865110852997022
225.0, 0.06545075431670654
226.0, 0.061912276152579535
227.0, 0.06309462004236129
228.0, 0.06606373972788301
229.0, 0.06793963707605997
230.0, 0.06646780415661493
231.0, 0.06127775525506607
232.0, 0.0541500350624012
233.0, 0.05005515224504214
234.0, 0.04693409524501229
235.0, 0.04506825204033522
236.0, 0.04728070564511861
237.0, 0.049969458193889135
238.0, 0.052328705539154766
239.0, 0.05173139551340717
240.0, 0.04714231890687707
241.0, 0.04468063971741753
242.0, 0.04672467696835738
243.0, 0.04698522494382328
244.0, 0.0453703038444366
245.0, 0.0478197296705676
246.0, 0.04925358572603455
247.0, 0.05064297303639298
248.0, 0.051562004140870386
249.0, 0.05070291816399493
250.0, 0.046189665554759916
251.0, 0.037106074964450474
252.0, 0.029369172238564042
253.0, 0.024680633364894955
254.0, 0.020569483454986697
255.0, 0.01819195571959926
256.0, 0.01354208699063885
257.0, 0.009789052964562958
258.0, 0.00924430834315347
259.0, 0.0053309750615579965
260.0, 0.006340074443277615
261.0, 0.006909430720509302
262.0, 0.005767491317389178
263.0, 0.006841405335394291
264.0, 0.007363118012744437
265.0, 0.008850725279741381
266.0, 0.01222141050061931
267.0, 0.017444482170657093
268.0, 0.022971195448919745
269.0, 0.02978350988039529
270.0, 0.03943006191080177
271.0, 0.04919344512624711
272.0, 0.05512019667470668
273.0, 0.06322995743583743
274.0, 0.0630122076214533
275.0, 0.05839267378821641
276.0, 0.05431477090148338
277.0, 0.048036974730004886
278.0, 0.037581270590323144
279.0, 0.026816566605846626
280.0, 0.01742459447240001
281.0, 0.009666606837474266
282.0, 0.0051218879037789045
283.0, 0.003213807947093165
284.0, 0.0013770513285864749
285.0, 0.0014625693339993132
286.0, 0.003961651671966406
287.0, 0.006104723639194333
288.0, 0.006572996381880667
289.0, 0.006939022220903352
290.0, 0.00842108770700594
291.0, 0.007234706458589392
292.0, 0.003933101227905489
293.0, 0.0020596914859047763
294.0, 0.00167648074494743
295.0, 0.0005642664942747005
296.0, 0.003780007956441974
297.0, 0.007140582577379813
298.0, 0.010815855574589037
299.0, 0.014993185873517416
300.0, 0.019024447199074444
301.0, 0.025885621979308694
302.0, 0.031995569487421105
303.0, 0.03700349334043595
304.0, 0.04201285258190942
305.0, 0.04455219812742253
306.0, 0.04923669940450183
307.0, 0.053925884826030716
308.0, 0.05780976355876349
309.0, 0.06296470750332547
310.0, 0.07053538245441256
311.0, 0.08351816040046792
312.0, 0.09481287964649361
313.0, 0.1025134479378851
314.0, 0.11716854805722841
315.0, 0.1299232413047696
316.0, 0.14124941719792208
317.0, 0.15153626709265136
318.0, 0.1606784731766683
319.0, 0.17118904261500467
320.0, 0.1830724932125112
321.0, 0.1980099345775433
322.0, 0.2137756581832068
323.0, 0.22537325085597365
324.0, 0.23522240234664685
325.0, 0.24424425555262574
326.0, 0.2534509988616394
327.0, 0.26072038815769916
328.0, 0.2601028090419678
329.0, 0.2471245796847266
330.0, 0.2271819724857791
331.0, 0.20062612413932157
332.0, 0.16658189800953532
333.0, 0.13549384452528
334.0, 0.11120561646807704
335.0, 0.08814313649027293
336.0, 0.06749772525976391
337.0, 0.055703773190475106
338.0, 0.04513001339802048
339.0, 0.038186375439588104
340.0, 0.03379323470399456
341.0, 0.030261927477343277
342.0, 0.027884193412037003
343.0, 0.030313583460395793
344.0, 0.030611571319218094
345.0, 0.0307238502161483
346.0, 0.033465040542903626
347.0, 0.03607416994680605
348.0, 0.042733301656189236
349.0, 0.04901475059972617
350.0, 0.05562659391282016
351.0, 0.06375620747036721
352.0, 0.06796206889658425
353.0, 0.07399269298540458
354.0, 0.083387332351961
355.0, 0.09207610900265803
356.0, 0.09614027867518127
357.0, 0.10076485358627346
358.0, 0.10232319976155403
359.0, 0.10429624680659613
360.0, 0.10749453900726678
361.0, 0.10909094341283838
362.0, 0.11158312528658945
363.0, 0.11617895027933958
364.0, 0.1191767526608577
365.0, 0.12019056722693648
366.0, 0.12488243051753321
367.0, 0.1288760131746054
368.0, 0.1322363012657865
369.0, 0.1338412310608955
370.0, 0.13213050207993682
371.0, 0.1261516514847033
372.0, 0.11628359153999517
373.0, 0.09893621708105295
374.0, 0.07792288741404518
375.0, 0.05978683985596001
376.0, 0.04651770740319472
377.0, 0.032850594153759204
378.0, 0.02270905905140114
379.0, 0.017933975581190448
380.0, 0.017173343805056796
381.0, 0.019358066511184886
382.0, 0.021418181447520765
383.0, 0.022472660142493352
384.0, 0.024290065660812453
385.0, 0.02888500562586435
386.0, 0.034221402111656314
387.0, 0.033272863423431845
388.0, 0.031903619493356294
389.0, 0.03177810044286751
390.0, 0.028394671671775836
391.0, 0.02250827221743428
392.0, 0.01997428980524208
393.0, 0.018979866725904085
394.0, 0.01609223694061743
395.0, 0.010415874467798018
396.0, 0.007649708093434223
397.0, 0.005519929823742268
398.0, 0.0022859679729280435
399.0, 0.0018890625602072458
400.0, 0.005261645126787264
401.0, 0.004461929875510703
402.0, 0.0046449438062511565
403.0, 0.005256749002361459
404.0, 0.00501430676685358
405.0, 0.004061035562343245
406.0, 0.002331058911745455
407.0, 0.009654164429310923
408.0, 0.0159621353599329
409.0, 0.021385741247321132
410.0, 0.026547496159224977
411.0, 0.03451965471667374
412.0, 0.04478672558816583
413.0, 0.057622287243983536
414.0, 0.07241994635269744
415.0, 0.08632530805040858
416.0, 0.10686205276365593
417.0, 0.12844631973185788
418.0, 0.14660512763469682
419.0, 0.16423559450470285
420.0, 0.19001097266149589
421.0, 0.21466602535729842
422.0, 0.23976488719309666
423.0, 0.26417293248085383
424.0, 0.28486801878293816
425.0, 0.29856994083159183
426.0, 0.3140249743257833
427.0, 0.3196180868021118
428.0, 0.3110757458541067
429.0, 0.2904604755029918
430.0, 0.26646316738060905
431.0, 0.23996790346126468
432.0, 0.2150720707708499
433.0, 0.1937672684060473
434.0, 0.17545691471947109
435.0, 0.15904032056094394
436.0, 0.15051645450350556
437.0, 0.14374623732652736
438.0, 0.14517258980565007
439.0, 0.15344030512611948
440.0, 0.1522663707604693
441.0, 0.14645452457983357
442.0, 0.14437829712719533
443.0, 0.14230247381406919
444.0, 0.13764123099392625
445.0, 0.13361163832408593
446.0, 0.12674191413373798
447.0, 0.11334370313431412
448.0, 0.09860240690837076
449.0, 0.08607164763978495
450.0, 0.07501375815405822
451.0, 0.06822273952619
452.0, 0.06514198544640357
453.0, 0.06276041582190191
454.0, 0.05976750994108887
455.0, 0.05757245892498295
456.0, 0.058409921680682694
457.0, 0.05964239507428056
458.0, 0.05849759196118006
459.0, 0.05724112988971288
460.0, 0.05801466689148638
461.0, 0.05378446979091512
462.0, 0.04910051118603093
463.0, 0.043421195030057716
464.0, 0.03507803886464145
465.0, 0.02392756194852286
466.0, 0.01481636960370538
467.0, 0.006868542225303391
468.0, 0.0010056856461988673
469.0, 0.003871083356582776
470.0, 0.004748527352307453
471.0, 0.006532068315570985
472.0, 0.006238128805617175
473.0, 0.005425883300647863
474.0, 0.005606048112957407
475.0, 0.005587867348968924
476.0, 0.0025918175532680726
477.0, 0.002340686140025457
478.0, 0.0009752076669192509
479.0, 0.004690758047274892
480.0, 0.007850964377946176
481.0, 0.014205970298797254
482.0, 0.019441325158339445
483.0, 0.027085373435831776
484.0, 0.03262919981281788
485.0, 0.03510593859664328
486.0, 0.03931378918556556
487.0, 0.04537715999956502
488.0, 0.05013632891654898
489.0, 0.0550886271387182
490.0, 0.05930309463450456
491.0, 0.061611457384845275
492.0, 0.07011180853950305
493.0, 0.07593333864245663
494.0, 0.07647698288836599
495.0, 0.07702272846875557
496.0, 0.08131834831677062
497.0, 0.0829657995301604
498.0, 0.08111818421688134
499.0, 0.08261164351020038
500.0, 0.08393791706044801
501.0, 0.08213656251909317
502.0, 0.08141358024551773
503.0, 0.08176687849252
504.0, 0.08149687367812998
505.0, 0.0796095013602538
506.0, 0.07872101785557283
507.0, 0.08210826568484031
508.0, 0.08002562782876187
509.0, 0.0810569922659158
510.0, 0.08455759331328211
511.0, 0.0878851524841806
512.0, 0.09193465985617098
513.0, 0.10123243746628817
514.0, 0.10712419928367292
515.0, 0.11606286439116388
516.0, 0.12443426515596066
517.0, 0.13097537659617367
518.0, 0.14440053067333464
519.0, 0.15118710982577183
520.0, 0.1641306123715591
521.0, 0.1748689547021823
522.0, 0.18048412879716955
523.0, 0.18625296610716324
524.0, 0.18418118134336203
525.0, 0.18121444190510266
526.0, 0.17525693927835304
527.0, 0.1624730433609703
528.0, 0.14349043458498298
529.0, 0.12333549235370532
530.0, 0.10430599606924773
531.0, 0.0897840132226592
532.0, 0.07670682021998909
533.0, 0.06599626133190022
534.0, 0.06536629592031597
535.0, 0.05667627367717913
536.0, 0.053733151118178696
537.0, 0.05314293017154562
538.0, 0.05184743906720629
539.0, 0.05001592979547013
540.0, 0.04415005435810683
541.0, 0.042238583111017886
542.0, 0.03770105705013813
543.0, 0.031167100559613928
544.0, 0.025392943038611594
545.0, 0.018119915216695096
546.0, 0.012216634254013266
547.0, 0.00392592331925074
548.0, 0.0003780649139963632
549.0, 0.0019504780734257564
550.0, 0.0024036702774352476
551.0, 0.00373948443316421
552.0, 0.010756417451575032
553.0, 0.015782298061148767
554.0, 0.021370555008302008
555.0, 0.03255208976700209
556.0, 0.04466486418678692
557.0, 0.0549178628710168
558.0, 0.06648091790744942
559.0, 0.08197076642203477
560.0, 0.09853255962914556
561.0, 0.11100511082729111
562.0, 0.12197245708466097
563.0, 0.13717409642348005
564.0, 0.14947187451422303
565.0, 0.15639472803791743
566.0, 0.15961968941675703
567.0, 0.15901868058746424
568.0, 0.14443502671059041
569.0, 0.12276955931139817
570.0, 0.10774402284500229
571.0, 0.0959696488365852
572.0, 0.07927770109442932
573.0, 0.0720153425032443
574.0, 0.0698183770095246
575.0, 0.06940362744651442
576.0, 0.07205303846111163
577.0, 0.07720247894393234
578.0, 0.08085664679742903
579.0, 0.09120770751580501
580.0, 0.10085089144681166
581.0, 0.11020258355286322
582.0, 0.11632106076652561
583.0, 0.11365246604728962
584.0, 0.1012024424685793
585.0, 0.08211829086140393
586.0, 0.05623876185808474
587.0, 0.03287757629313298
588.0, 0.01652896029515359
589.0, 0.0037451684860675557
590.0, 0.004587365166295548
591.0, 0.010185860486188391
592.0, 0.010437858638336064
593.0, 0.009913196342979144
594.0, 0.012088119844461984
595.0, 0.010783283472012005
596.0, 0.004131420524534286
597.0, 0.000928399341213331
598.0, 0.003256994544864543
599.0, 0.010249559490295145
600.0, 0.01739510632915689
601.0, 0.023894180114384718
602.0, 0.030956294600400423
603.0, 0.04496939704783344
604.0, 0.05725664454122194
605.0, 0.06576313337058204
606.0, 0.07962004380748253
607.0, 0.09512527946715892
608.0, 0.11314710367663475
609.0, 0.13542685857791692
610.0, 0.16205907817299706
611.0, 0.19179085942818583
612.0, 0.22441307358880125
613.0, 0.26983115587737805
614.0, 0.31180688410666024
615.0, 0.35947942757034207
616.0, 0.412322017781329
617.0, 0.4635800120590481
618.0, 0.5134420271606482
619.0, 0.5700848575875141
620.0, 0.636541850777275
621.0, 0.7034007583299788
622.0, 0.7659305131508558
623.0, 0.8271549285294685
624.0, 0.8916674606579065
625.0, 0.9402770511667848
626.0, 0.9806694005087749
627.0, 0.9999761270419953
628.0, 0.9844571872146307
629.0, 0.9338530661277475
630.0, 0.860353995394583
631.0, 0.7637332892393057
632.0, 0.6642410237910636
633.0, 0.5727118954353141
634.0, 0.4939539028430468
635.0, 0.4296183612480494
636.0, 0.3598668666012757
637.0, 0.3021737684236687
638.0, 0.25616078704713796
639.0, 0.21741369714292824
640.0, 0.1849979376593225
641.0, 0.16128440289743967
642.0, 0.13957053697483612
643.0, 0.12579023583925805
644.0, 0.10973418223556963
645.0, 0.0946951468476377
646.0, 0.08650202357093356
647.0, 0.07984260825482357
648.0, 0.07424470896093104
649.0, 0.067888276398573
650.0, 0.06342528594056086
651.0, 0.059609282675634985
652.0, 0.05542784686165966
653.0, 0.05497790737318949
654.0, 0.05526415133785145
655.0, 0.05308649210830757
656.0, 0.05548460939069695
657.0, 0.05860310375029831
658.0, 0.05733399157949978
659.0, 0.05827482007648876
660.0, 0.05907955568434874
661.0, 0.0597034812441109
662.0, 0.05955036787890759
663.0, 0.06111657812259359
664.0, 0.06471890123682114
665.0, 0.06517342003750194
666.0, 0.06365368485735527
667.0, 0.06149271823456123
668.0, 0.06000938829322699
669.0, 0.05834774201141585
670.0, 0.056913257090721536
671.0, 0.058606692327465036
672.0, 0.05470907280142622
673.0, 0.04942257954007082
674.0, 0.04662548038695313
675.0, 0.0425727588962729
676.0, 0.03629618464060907
677.0, 0.03508439016277373
678.0, 0.031786436236991164
679.0, 0.0331995611923894
680.0, 0.032886346891077875
681.0, 0.028684004124046383
682.0, 0.02363790194227082
683.0, 0.020522354445234068
684.0, 0.020296101153106153
685.0, 0.021204140083991352
686.0, 0.018450052623940047
687.0, 0.015378103200188599
688.0, 0.01453024608437015
689.0, 0.01197750317757705
690.0, 0.009836690226108887
691.0, 0.015905282987610975
692.0, 0.013371643265439615
693.0, 0.005617478078871591
694.0, 0.0015478147781370056
695.0, 0.0011621211525520618
696.0, 0.0033432612517719537
697.0, 0.002047779447042061
698.0, 0.0013467191236055732
699.0, 0.0038272499132204645
700.0, 0.004276913034323213
701.0, 0.004678981814078582
702.0, 0.00683770748578299
703.0, 0.004330622835170344
704.0, 0.0032979566477330056
705.0, 0.0027210241558096294
706.0, 0.0006786059351464328
707.0, 0.002626396552058537
708.0, 0.006625394058107457
709.0, 0.0074353345708333424
710.0, 0.013286191834506104
711.0, 0.014676884029327318
712.0, 0.016235072183163293
713.0, 0.023049231156872997
714.0, 0.02170578700753559
715.0, 0.024522430052431037
716.0, 0.029357067202411675
717.0, 0.030897122797270454
718.0, 0.032328000924575974
719.0, 0.037052217858083686
720.0, 0.04165900447842603
721.0, 0.04184673890765729
722.0, 0.043396753376568814
723.0, 0.047860500847403765
724.0, 0.051072916309867364
725.0, 0.05088988874141071
726.0, 0.04982057214967392
727.0, 0.05073968581084693
728.0, 0.04815127706645102
729.0, 0.05095089092421312
730.0, 0.053152123082840334
731.0, 0.052215098814532415
732.0, 0.052477760140484365
733.0, 0.05633587932475937
734.0, 0.06619420442377974
735.0, 0.07397622388044936
736.0, 0.08643634251129596
737.0, 0.10249643258340936
738.0, 0.11941369646657321
739.0, 0.13954950435122485
740.0, 0.16241800877895535
741.0, 0.1836570535972262
742.0, 0.20363592427217234
743.0, 0.2260593330323706
744.0, 0.24842915865647522
745.0, 0.26447225649199
746.0, 0.27156447233618675
747.0, 0.2633782179392284
748.0, 0.23522729238626403
749.0, 0.19663191425808993
750.0, 0.15435009488485035
751.0, 0.11193299645578718
752.0, 0.07710837390172635
753.0, 0.05540954934587464
754.0, 0.035034322958358316
755.0, 0.02122063872132653
756.0, 0.014189187065843182
757.0, 0.00767171133837459
758.0, 0.000793936974947208
759.0, 0.00018365106200062437
760.0, 0.0010647111518439008
761.0, 0.0029199902264233865
762.0, 0.001932917309742617
763.0, 0.0021080004353817563
764.0, 0.006320394348635907
765.0, 0.00784965189263922
766.0, 0.012950124856971097
767.0, 0.018826807781223948
768.0, 0.03206467637590491
769.0, 0.0437006137739415
770.0, 0.053365198767255054
771.0, 0.06707088725523448
772.0, 0.08161621371919642
773.0, 0.10080442328818832
774.0, 0.11317493413003922
775.0, 0.13462790750617634
776.0, 0.1567410581742789
777.0, 0.17429330464522325
778.0, 0.19655604776260127
779.0, 0.2201069838736704
780.0, 0.24030798510254725
781.0, 0.26009243621648764
782.0, 0.2820178707680658
783.0, 0.30316810222746715
784.0, 0.32144461665558177
785.0, 0.33871970582370686
786.0, 0.3485922649288089
787.0, 0.3578980268790996
788.0, 0.3534332642976591
789.0, 0.34395603415676335
790.0, 0.3296006078287549
791.0, 0.3053463524465881
792.0, 0.2812087779082396
793.0, 0.2517901286706159
794.0, 0.22079975382529013
795.0, 0.1937031904938739
796.0, 0.17197143225164793
797.0, 0.1533216711589074
798.0, 0.13520900187326135
799.0, 0.1185920875823958
800.0, 0.11039727873419179
801.0, 0.0969357096969668
802.0, 0.08739690327857985
803.0, 0.07774808305148083
804.0, 0.06663181410962803
805.0, 0.062164840715510365
806.0, 0.054707484300129804
807.0, 0.05116183322343542
808.0, 0.04388773257719112
809.0, 0.036553278036565655
810.0, 0.03354923758116316
811.0, 0.031864132239398185
812.0, 0.026629020431346483
813.0, 0.02145246129562004
814.0, 0.022360093923861502
815.0, 0.019804160321368537
816.0, 0.01608053675109577
817.0, 0.016019281290128234
818.0, 0.016400693403170467
819.0, 0.0097948764928912
820.0, 0.0046717382442416884
821.0, 0.0014808939647899765
822.0, 0.0037051127444655777
823.0, 0.004532787282805732
824.0, 0.00338987266265284
825.0, 0.0036517602636593253
826.0, 0.0032638930594217326
827.0, 0.0008856824933164741
828.0, 0.0010569111534893079
829.0, 0.0022878466582960956
830.0, 0.003884810597224636
831.0, 0.0028355985863238622
832.0, 0.002491188784612812
833.0, 0.001821599355829411
834.0, 0.0034965793479931747
835.0, 0.002754509166256668
836.0, 0.0016653630216092357
837.0, 0.001463254574036966
838.0, 0.0013166353396716966
839.0, 0.0009590063320970319
840.0, 0.0010514534357336435
841.0, 7.734717550191261e-05
842.0, 0.00040814979915999524
843.0, 0.00011793411142534791
844.0, 0.0005970292726325711
845.0, 0.0007451336545187424
846.0, 0.0008469515949177941
847.0, 0.0024941219156464347
848.0, 0.001109951152494411
849.0, 0.0006381951296712551
850.0, 0.002737945689860039
851.0, 0.0036151592908182035
852.0, 0.0024156477645695023
853.0, 0.002562966608710183
854.0, 0.003172519254374029
855.0, 0.004535194445517001
856.0, 0.00461153968154632
857.0, 0.004453110202969312
858.0, 0.0035315475123762216
859.0, 0.004632969708723628
860.0, 0.00836838980939008
861.0, 0.010637874522687149
862.0, 0.0090606323265696
863.0, 0.014820123872753903
864.0, 0.016562786366702862
865.0, 0.015278190526821764
866.0, 0.021015621561882032
867.0, 0.027319503974423894
868.0, 0.028364273328031896
869.0, 0.034192519480420396
870.0, 0.0369276357745781
871.0, 0.041185916748750453
872.0, 0.043614919764471176
873.0, 0.0455175597152016
874.0, 0.04669717981143199
875.0, 0.04676707735234701
876.0, 0.048305667381119834
877.0, 0.05258416765267781
878.0, 0.051058216355122414
879.0, 0.050939845743702694
880.0, 0.04937203244171713
881.0, 0.04610418362296375
882.0, 0.043317818970540836
883.0, 0.040801352456831384
884.0, 0.03653520028316111
885.0, 0.03598032845273005
886.0, 0.03414020516446901
887.0, 0.03268029487178664
888.0, 0.03065285894895939
889.0, 0.029191995483215123
890.0, 0.03000932566183492
891.0, 0.03276500840862164
892.0, 0.035409328435327514
893.0, 0.033588455720649696
894.0, 0.03179222175067267
895.0, 0.03360823984305698
896.0, 0.03594399240552345
897.0, 0.03884989069942381
898.0, 0.04352261762751522
899.0, 0.04572576689246117
900.0, 0.051079351304278146
901.0, 0.054957557359644735
902.0, 0.059615696222398686
903.0, 0.06546598026497208
904.0, 0.07643298871084053
905.0, 0.09401384398210758
906.0, 0.11435649250137657
907.0, 0.13728465498657802
908.0, 0.16329670956209133
909.0, 0.18840026820606726
910.0, 0.21896639445553068
911.0, 0.2509538372822298
912.0, 0.2813690056202275
913.0, 0.3105396626649168
914.0, 0.3360819505679447
915.0, 0.3554369438544311
916.0, 0.3482777793711643
917.0, 0.31336603575396343
918.0, 0.26485713824910306
919.0, 0.21265937867919238
920.0, 0.16427556001596522
921.0, 0.1287519366657731
922.0, 0.10809823917513983
923.0, 0.08820797770787883
924.0, 0.0782800489038883
925.0, 0.07003055188188666
926.0, 0.061816472087879416
927.0, 0.055555868648780864
928.0, 0.049929231220071854
929.0, 0.04278267548167128
930.0, 0.03783374923036498
931.0, 0.032743124219687544
932.0, 0.029419589732825626
933.0, 0.027822026625059566
934.0, 0.020247454386985622
935.0, 0.016535624659285878
936.0, 0.017653887872753567
937.0, 0.01110644803089127
938.0, 0.007722846463218849
939.0, 0.006104688543736486
940.0, 0.0038380233518049305
941.0, 0.0021598012500346243
942.0, 0.002083663839357017
943.0, 0.0013723279946220516
944.0, 0.0018438410096446815
945.0, 0.004836968362750216
946.0, 0.002388016053670464
947.0, 0.0023028000864551874
948.0, 0.0016059994291690077
949.0, 0.005220164045445251
950.0, 0.007156107633549052
951.0, 0.0067234773760854166
952.0, 0.007977012012974547
953.0, 0.009688311723687169
954.0, 0.005947314802011258
955.0, 0.007337820680437252
956.0, 0.007251431832698739
957.0, 0.004388413238176372
958.0, 0.0051213980843846695
959.0, 0.007832892901920154
960.0, 0.007930870377369639
961.0, 0.00575153743550239
962.0, 0.002814358353751399
963.0, 0.0067160584263991924
964.0, 0.007011226577541505
965.0, 0.008554888133643966
966.0, 0.010574175804566956
967.0, 0.012647876002883519
968.0, 0.014092601641958982
969.0, 0.01471231329689444
970.0, 0.017725735332102685
971.0, 0.01962890205871272
972.0, 0.023980436339049165
973.0, 0.026276383885507206
974.0, 0.03129590432059801
975.0, 0.034289650512264944
976.0, 0.03745086057738024
977.0, 0.04327986198075913
978.0, 0.043792243676770405
979.0, 0.04885216125212723
980.0, 0.05348880718923209
981.0, 0.05447986748163894
982.0, 0.05912301360415409
983.0, 0.0650397310497498
984.0, 0.069161543751967
985.0, 0.0735592982141965
986.0, 0.08003580718564006
987.0, 0.0866777519707185
988.0, 0.0873709269962326
989.0, 0.09124283739091067
990.0, 0.0889413181066259
991.0, 0.08936582510944825
992.0, 0.09191049346642953
993.0, 0.09159848447254497
994.0, 0.09016613538395983
995.0, 0.09128316696922807
996.0, 0.09221896677371487
997.0, 0.09012380274795113
998.0, 0.0886146541955754
999.0, 0.08679135915923208
1000.0, 0.08417791669121058
1001.0, 0.08501982731040315
1002.0, 0.08957248172000548
1003.0, 0.09223192883803066
1004.0, 0.0916179355452152
1005.0, 0.09543717685359196
1006.0, 0.09917544432726266
1007.0, 0.10712308739830474
1008.0, 0.11246440826972899
1009.0, 0.11395969098365456
1010.0, 0.1121095842815599
1011.0, 0.11048727061026199
1012.0, 0.11297474456082109
1013.0, 0.11039713874012011
1014.0, 0.10494042599247796
1015.0, 0.10124720222196923
1016.0, 0.09668792241292974
1017.0, 0.09141891590299514
1018.0, 0.08213110104300246
1019.0, 0.07261860190450775
1020.0, 0.06823737700065478
1021.0, 0.06169002520567005
1022.0, 0.05082965414024169
1023.0, 0.044001620566483164
1024.0, 0.04054746990985605
1025.0, 0.036232040525103336
1026.0, 0.033200253681594696
1027.0, 0.03018441855594652
1028.0, 0.026130771303594
1029.0, 0.022746559181118727
1030.0, 0.02007662346606211
1031.0, 0.019191206932233966
1032.0, 0.011194663509221858
1033.0, 0.011188120771955442
1034.0, 0.012550359275854487
1035.0, 0.011275364782612587
1036.0, 0.007968843950808546
1037.0, 0.004156767531836282
1038.0, 0.00340598881550047
1039.0, 0.006783663895563533
1040.0, 0.004381456801628603
1041.0, 0.002623496268266243
1042.0, 0.0014534343423577558
1043.0, 0.0015573220276369239
1044.0, 0.001170275520447161
1045.0, 0.002317032288385777
1046.0, 0.003188525392609027
1047.0, 0.00166255258156173
1048.0, 0.001043909877178858
1049.0, 0.0007872381275847763
1050.0, 0.00022826691387553875
1051.0, 0.0022118859756012515
1052.0, 0.003266954687133067
1053.0, 0.0023557645016565143
1054.0, 0.0020102287804567593
1055.0, 0.002554331344101968
1056.0, 0.0017185370881564205
1057.0, 0.001083748130500693
1058.0, 0.002491894093986671
1059.0, 0.0009555206989677001
1060.0, 0.00045906380086796147
1061.0, 0.00392247464097627
1062.0, 0.0038606949209039837
1063.0, 0.0035106127299205626
1064.0, 0.007013146568126252
1065.0, 0.009918566789804914
1066.0, 0.009452240284540694
1067.0, 0.01049603972583777
1068.0, 0.010344822444958778
1069.0, 0.014713272605032785
1070.0, 0.01967631082926755
1071.0, 0.02179159340136821
1072.0, 0.021661652545377667
1073.0, 0.021381009545421777
1074.0, 0.022246495555705164
1075.0, 0.025101509856087292
1076.0, 0.029894389055520904
1077.0, 0.03018658081941525
1078.0, 0.030090409211689633
1079.0, 0.03300376732057769
1080.0, 0.038129338198244975
1081.0, 0.04190274167020461
1082.0, 0.04373018295667226
1083.0, 0.04322401699061756
1084.0, 0.0417278979124686
1085.0, 0.0431919080176198
1086.0, 0.049400128133970336
1087.0, 0.04991741345138262
1088.0, 0.048813661109423624
1089.0, 0.04946672086319301
1090.0, 0.05003858077608475
1091.0, 0.0503442055280544
1092.0, 0.04931311333267633
1093.0, 0.04715450032163626
1094.0, 0.04557440762673157
1095.0, 0.044293949477636554
1096.0, 0.041500435785143015
1097.0, 0.03859727773282786
1098.0, 0.040944556063843736
1099.0, 0.04162371972615806
1100.0, 0.03946220964732689
1101.0, 0.036236270853800226
1102.0, 0.033871823547433046
1103.0, 0.03269159811291159
1104.0, 0.03040086597124914
1105.0, 0.025882891271852147
1106.0, 0.023023322042305894
1107.0, 0.02096222699476876
1108.0, 0.018753406765689307
1109.0, 0.017399959763455347
1110.0, 0.01868586255918681
1111.0, 0.013056999539460452
1112.0, 0.010833025857629422
1113.0, 0.010995457297711219
1114.0, 0.00661746694349772
1115.0, 0.0037445920823533335
1116.0, 0.003365716833496339
1117.0, 0.005276134819620041
1118.0, 0.006078475455033691
1119.0, 0.0022444337399066404
1120.0, 0.0013424115350069122
1121.0, 0.0004677799396400334
1122.0, 0.0011332244099239615
1123.0, 0.0008198351825527517
1124.0, 8.159811802335487e-05
1125.0, 0.0012483312587460557
1126.0, 0.0007978335448666582
1127.0, 0.002721340718638046
1128.0, 0.001964740500975879
1129.0, 0.0018300483144203146
1130.0, 0.0030675036798327835
1131.0, 0.004931883097339961
1132.0, 0.003993255963887242
1133.0, 0.0010217518247333983
1134.0, 0.00029622597165633715
1135.0, 0.0018535758896530141
1136.0, 0.00411138755694883
1137.0, 0.006776999319327576
1138.0, 0.005504189769142161
1139.0, 0.004187321532345287
1140.0, 0.008812745088357095
1141.0, 0.009355223883583917
1142.0, 0.010091760441463466
1143.0, 0.012932783589454941
1144.0, 0.013462880607226306
1145.0, 0.012903041938653536
1146.0, 0.014348198963564832
1147.0, 0.01391158923537177
1148.0, 0.01470980063688926
1149.0, 0.017973450245883517
1150.0, 0.01850668735728871
1151.0, 0.017057514046098704
1152.0, 0.019550333575537773
1153.0, 0.022140161392333824
1154.0, 0.022239635573169214
1155.0, 0.019826389259281867
1156.0, 0.021571605378608208
1157.0, 0.028795281260873398
1158.0, 0.026091399092617033
1159.0, 0.02402875100854454
1160.0, 0.03213720349578317
1161.0, 0.033497210009284815
1162.0, 0.031907037897428284
1163.0, 0.03625557018696101
1164.0, 0.040617453286329666
1165.0, 0.04302722733758457
1166.0, 0.042383123366566994
1167.0, 0.045778466227718445
1168.0, 0.05407589230673271
1169.0, 0.05306903372638541
1170.0, 0.05941683381842404
1171.0, 0.06425465753256598
1172.0, 0.06305493020172452
1173.0, 0.06939502367909539
1174.0, 0.0746883886077579
1175.0, 0.07337001510652248
1176.0, 0.07489291636188108
1177.0, 0.0742087780622875
1178.0, 0.06857451664915062
1179.0, 0.06694350428680848
1180.0, 0.06832861443033929
1181.0, 0.06258351395700107
1182.0, 0.0597146195713603
1183.0, 0.055056724063654805
1184.0, 0.05279629865843213
1185.0, 0.044810843188783735
1186.0, 0.03964589918654315
1187.0, 0.03445988135959368
1188.0, 0.032769327823713244
1189.0, 0.03138547601685175
1190.0, 0.02580944847620492
1191.0, 0.02201539318461081
1192.0, 0.020751774990365394
1193.0, 0.01613798779592778
1194.0, 0.01351568461075909
1195.0, 0.014273900903058698
1196.0, 0.01575511315578664
1197.0, 0.011155742842912958
1198.0, 0.009367342066931076
1199.0, 0.009488786309011706
1200.0, 0.006247684915899946
1201.0, 0.005369150196784463
1202.0, 0.008257080236062595
1203.0, 0.006980187285375803
1204.0, 0.005008616105983788
1205.0, 0.007518457080014196
1206.0, 0.0021947457665501147
1207.0, 0.005945693088056978
1208.0, 0.006533462919058773
1209.0, 0.0032949886252988466
1210.0, 0.002079456308765401
1211.0, 0.004038169344792776
1212.0, 0.0034373144112168036
1213.0, 0.002730132757852031
1214.0, 0.003615838035015736
1215.0, 0.0019087843051917152
1216.0, 0.0011717110131089974
1217.0, 0.00044080129411264043
1218.0, 0.0005640542231221244
1219.0, 0.0017486504342753243
1220.0, 0.0005632168126142685
1221.0, 0.004622343633530223
1222.0, 0.0028462239219547037
1223.0, 0.001533117077983361
1224.0, 0.0006085205119415961
1225.0, 0.0008516508369536431
1226.0, 0.0011589682707348326
1227.0, 0.0002737021216041427
1228.0, 0.0003304043718077061
1229.0, 0.0026736514366202105
1230.0, 0.012062062567121857
1231.0, 0.0067293462552887005
1232.0, 0.0012703659838217566
1233.0, 0.00012645655814216305
1234.0, 0.001960980952486989
1235.0, 0.003169927477469204
1236.0, 0.0024363269050709955
1237.0, 0.002808888585059759
1238.0, 0.0028581363352753
1239.0, 0.003614135510298823
1240.0, 0.006280881187403002
1241.0, 0.004452795324103701
1242.0, 0.0036294674002521512
1243.0, 0.005816095319875449
1244.0, 0.006081418995081296
1245.0, 0.00587134214776253
1246.0, 0.007226365181685196
1247.0, 0.008466651516929935
1248.0, 0.007898297745010925
1249.0, 0.008797707705762072
1250.0, 0.009590865095937583
1251.0, 0.009649503974097714
1252.0, 0.011395535531955096
1253.0, 0.0140532598442765
1254.0, 0.013744481501384234
1255.0, 0.010818892467090327
1256.0, 0.012910638628183127
1257.0, 0.013949532158524649
1258.0, 0.015773934010026396
1259.0, 0.012948577635925707
1260.0, 0.014024906467378917
1261.0, 0.009078291343750657
1262.0, 0.012864066434851322
1263.0, 0.01612489152138812
1264.0, 0.01273759372947987
1265.0, 0.009614265500825777
1266.0, 0.009291192488234777
1267.0, 0.008869562767895616
1268.0, 0.007650218014384247
1269.0, 0.004922565108701739
1270.0, 0.0004868557156926162
1271.0, 0.00410333579670609
1272.0, 0.004370240463387923
1273.0, 0.004413782648103207
1274.0, 0.0003006230549498485
1275.0, 0.0009019232516105733
1276.0, 0.0007223292409177963
1277.0, 0.0010736357788953606
1278.0, 0.0019301353692129947
1279.0, 0.001356856125928798
1280.0, 0.0009465834958155058
1281.0, 0.0020766347968237354
1282.0, 0.004687154286691048
1283.0, 0.0027392541896409926
1284.0, 0.0022642401572463768
1285.0, 0.003091594549888334
1286.0, 0.0017918508330557084
1287.0, 0.0016319339693931765
1288.0, 0.0034157800760702883
1289.0, 0.0029100799916105995
1290.0, 0.0036490722022502905
1291.0, 0.0040395652929000455
1292.0, 0.0033915177926240594
1293.0, 0.005055673977375406
1294.0, 0.007103750580024445
1295.0, 0.004087366347965722
1296.0, 0.001704273391682186
1297.0, 0.006217007862752624
1298.0, 0.003895357972458192
1299.0, 0.001120668607381032
1300.0, 0.003026560380104603
1301.0, 0.005960093335545964
1302.0, 0.00886437541508792
1303.0, 0.006319559994628814
1304.0, 0.004101025851582092
1305.0, 0.005279804030897149
1306.0, 0.004345941588259262
1307.0, 0.0020662828810700906
1308.0, 0.0010060289876080892
1309.0, 0.001827278914411455
1310.0, 0.0020379948284393623
1311.0, 0.0007254538858662491
1312, 0.0
1313, 0.0
1314, 0.0
1315, 0.0
1316, 0.0
1317, 0.0
1318, 0.0
1319, 0.0
1320, 0.0
1321, 0.0
1322, 0.0
1323, 0.0
1324, 0.0
1325, 0.0
1326, 0.0
1327, 0.0
1328, 0.0
1329, 0.0
1330, 0.0
1331, 0.0
1332, 0.0
1333, 0.0
1334, 0.0
1335, 0.0
1336, 0.0
1337, 0.0
1338, 0.0
1339, 0.0
1340, 0.0
1341, 0.0
1342, 0.0
1343, 0.0
1344, 0.0
1345, 0.0
1346, 0.0
1347, 0.0
1348, 0.0
1349, 0.0
1350, 0.0
1351, 0.0
1352, 0.0
1353, 0.0
1354, 0.0
1355, 0.0
1356, 0.0
1357, 0.0
1358, 0.0
1359, 0.0
1360, 0.0
1361, 0.0
1362, 0.0
1363, 0.0
1364, 0.0
1365, 0.0
1366, 0.0
1367, 0.0
1368, 0.0
1369, 0.0
1370, 0.0
1371, 0.0
1372, 0.0
1373, 0.0
1374, 0.0
1375, 0.0
1376, 0.0
1377, 0.0
1378, 0.0
1379, 0.0
1380, 0.0
1381, 0.0
1382, 0.0
1383, 0.0
1384, 0.0
1385, 0.0
1386, 0.0
1387, 0.0
1388, 0.0
1389, 0.0
1390, 0.0
1391, 0.0
1392, 0.0
1393, 0.0
1394, 0.0
1395, 0.0
1396, 0.0
1397, 0.0
1398, 0.0
1399, 0.0
1400, 0.0
1401, 0.0
1402, 0.0
1403, 0.0
1404, 0.0
1405, 0.0
1406, 0.0
1407, 0.0
1408, 0.0
1409, 0.0
1410, 0.0
1411, 0.0
1412, 0.0
1413, 0.0
1414, 0.0
1415, 0.0
1416, 0.0
1417, 0.0
1418, 0.0
1419, 0.0
1420, 0.0
1421, 0.0
1422, 0.0
1423, 0.0
1424, 0.0
1425, 0.0
1426, 0.0
1427, 0.0
1428, 0.0
1429, 0.0
1430, 0.0
1431, 0.0
1432, 0.0
1433, 0.0
1434, 0.0
1435, 0.0
1436, 0.0
1437, 0.0
1438, 0.0
1439, 0.0
1440, 0.0
1441, 0.0
1442, 0.0
1443, 0.0
1444, 0.0
1445, 0.0
1446, 0.0
1447, 0.0
1448, 0.0
1449, 0.0
1450, 0.0
1451, 0.0
1452, 0.0
1453, 0.0
1454, 0.0
1455, 0.0
1456, 0.0
1457, 0.0
1458, 0.0
1459, 0.0
1460, 0.0
1461, 0.0
1462, 0.0
1463, 0.0
1464, 0.0
1465, 0.0
1466, 0.0
1467, 0.0
1468, 0.0
1469, 0.0
1470, 0.0
1471, 0.0
1472, 0.0
1473, 0.0
1474, 0.0
1475, 0.0
1476, 0.0
1477, 0.0
1478, 0.0
1479, 0.0
1480, 0.0
1481, 0.0
1482, 0.0
1483, 0.0
1484, 0.0
1485, 0.0
1486, 0.0
1487, 0.0
1488, 0.0
1489, 0.0
1490, 0.0
1491, 0.0
1492, 0.0
1493, 0.0
1494, 0.0
1495, 0.0
1496, 0.0
1497, 0.0
1498, 0.0
1499, 0.0
1500, 0.0
1501, 0.0
1502, 0.0
1503, 0.0
1504, 0.0
1505, 0.0
1506, 0.0
1507, 0.0
1508, 0.0
1509, 0.0
1510, 0.0
1511, 0.0
1512, 0.0
1513, 0.0
1514, 0.0
1515, 0.0
1516, 0.0
1517, 0.0
1518, 0.0
1519, 0.0
1520, 0.0
1521, 0.0
1522, 0.0
1523, 0.0
1524, 0.0
1525, 0.0
1526, 0.0
1527, 0.0
1528, 0.0
1529, 0.0
1530, 0.0
1531, 0.0
1532, 0.0
1533, 0.0
1534, 0.0
1535, 0.0
1536, 0.0
1537, 0.0
1538, 0.0
1539, 0.0
1540, 0.0
1541, 0.0
1542, 0.0
1543, 0.0
1544, 0.0
1545, 0.0
1546, 0.0
1547, 0.0
1548, 0.0
1549, 0.0
1550, 0.0
1551, 0.0
1552, 0.0
1553, 0.0
1554, 0.0
1555, 0.0
1556, 0.0
1557, 0.0
1558, 0.0
1559, 0.0
1560, 0.0
1561, 0.0
1562, 0.0
1563, 0.0
1564, 0.0
1565, 0.0
1566, 0.0
1567, 0.0
1568, 0.0
1569, 0.0
1570, 0.0
1571, 0.0
1572, 0.0
1573, 0.0
1574, 0.0
1575, 0.0
1576, 0.0
1577, 0.0
1578, 0.0
1579, 0.0
1580, 0.0
1581, 0.0
1582, 0.0
1583, 0.0
1584, 0.0
1585, 0.0
1586, 0.0
1587, 0.0
1588, 0.0
1589, 0.0
1590, 0.0
1591, 0.0
1592, 0.0
1593, 0.0
1594, 0.0
1595, 0.0
1596, 0.0
1597, 0.0
1598, 0.0
1599, 0.0
