30, 0.0
31, 0.0
32, 0.0
33, 0.0
34, 0.0
35, 0.0
36, 0.0
37, 0.0
38, 0.0
39, 0.0
40, 0.0
41, 0.0
42, 0.0
43, 0.0
44, 0.0
45, 0.0
46, 0.0
47, 0.0
48, 0.0
49, 0.0
50, 0.0
51, 0.0
52, 0.0
53, 0.0
54, 0.0
55, 0.0
56, 0.0
57, 0.0
58, 0.0
59, 0.0
60, 0.0
61, 0.0
62, 0.0
63, 0.0
64, 0.0
65, 0.0
66, 0.0
67, 0.0
68, 0.0
69, 0.0
70, 0.0
71, 0.0
72, 0.0
73, 0.0
74, 0.0
75, 0.0
76, 0.0
77, 0.0
78, 0.0
79, 0.0
80, 0.0
81, 0.0
82, 0.0
83, 0.0
84, 0.0
85, 0.0
86, 0.0
87, 0.0
88, 0.0
89, 0.0
90, 0.0
91, 0.0
92, 0.0
93, 0.0
94, 0.0
95, 0.0
96, 0.0
97, 0.0
98, 0.0
99, 0.0
100, 0.0
101, 0.0
102, 0.0
103, 0.0
104, 0.0
105, 0.0
106, 0.0
107, 0.0
108, 0.0
109, 0.0
110, 0.0
111, 0.0
112, 0.0
113, 0.0
114, 0.0
115, 0.0
116, 0.0
117, 0.0
118, 0.0
119, 0.0
120, 0.0
121.0, 7.915804581297321e-06
122.0, 0.0001308623065962467
123.0, 0.0011844024889692503
124.0, 0.0008469790825164597
125.0, 0.0007604317251180823
126.0, 0.0023521228191939166
127.0, 0.007661969976654594
128.0, 0.01245565769699824
129.0, 0.01650373019177971
130.0, 0.019954988306171696
131.0, 0.024984403098413956
132.0, 0.029200979284142815
133.0, 0.031374595228405314
134.0, 0.027572005857053782
135.0, 0.024212919218855464
136.0, 0.020315674593427976
137.0, 0.013515286318118018
138.0, 0.01480071520124844
139.0, 0.01599881690997451
140.0, 0.015506279818023907
141.0, 0.020290675540044174
142.0, 0.02498422699576222
143.0, 0.030219435601350528
144.0, 0.0368799520042798
145.0, 0.0455307011700597
146.0, 0.054563186083850024
147.0, 0.06362738322264808
148.0, 0.07185828995062432
149.0, 0.0779219745869004
150.0, 0.08262310589269105
151.0, 0.08621055859907985
152.0, 0.08785965356967303
153.0, 0.08812110472480146
154.0, 0.0869992283614732
155.0, 0.08412311412408179
156.0, 0.07970736665883547
157.0, 0.0749001884933224
158.0, 0.06988263868509807
159.0, 0.0630444922324343
160.0, 0.05976928413057127
161.0, 0.058967922037408124
162.0, 0.060034721629576675
163.0, 0.06037337127564502
164.0, 0.06186204136272681
165.0, 0.06387500318938695
166.0, 0.06265095292333486
167.0, 0.06423882412159151
168.0, 0.06489794106440813
169.0, 0.06266325161455052
170.0, 0.057397725858236666
171.0, 0.05262939238603241
172.0, 0.047240883545431864
173.0, 0.03890738073104575
174.0, 0.03749342875179121
175.0, 0.03388205778354786
176.0, 0.02688220079794543
177.0, 0.022485817630863422
178.0, 0.020642862575119145
179.0, 0.018991076275425192
180.0, 0.015715565893332714
181.0, 0.020079495725765586
182.0, 0.022756552013670796
183.0, 0.02430411965522173
184.0, 0.027364175794134145
185.0, 0.03057909014244369
186.0, 0.03459361915935856
187.0, 0.039318761584840795
188.0, 0.03980028213935097
189.0, 0.04169570790852857
190.0, 0.04274205614215438
191.0, 0.04029518841705952
192.0, 0.03342789596672514
193.0, 0.029119334758164427
194.0, 0.02607882019009479
195.0, 0.017325232586543282
196.0, 0.013373386201920563
197.0, 0.009868073779853158
198.0, 0.00529363494613206
199.0, 0.003182800133641439
200.0, 0.0014880904273122735
201.0, 0.0008504685540571974
202.0, 0.002347936765325652
203.0, 0.0020336229404323033
204.0, 0.00294341307472043
205.0, 0.004638482631440733
206.0, 0.003779135111786914
207.0, 0.0023056782057227173
208.0, 0.0012002287162720022
209.0, 0.0008925898814702902
210.0, 0.00039607409002241135
211.0, 0.0006669038664696724
212.0, 0.0014731898923338975
213.0, 0.0026111122044066163
214.0, 0.0017886745075893153
215.0, 0.00235097352595057
216.0, 0.004161593884793082
217.0, 0.004995489191750213
218.0, 0.006639217321450314
219.0, 0.009691842167757335
220.0, 0.014393461343752318
221.0, 0.016806065893074162
222.0, 0.0216874180021129
223.0, 0.027353292198907364
224.0, 0.03178855738071208
225.0, 0.03897279057077013
226.0, 0.047178853938354595
227.0, 0.05555024857942223
228.0, 0.0615347234358471
229.0, 0.06669222248151604
230.0, 0.06860385481458174
231.0, 0.06638119989714224
232.0, 0.06423496153963133
233.0, 0.05994947303745203
234.0, 0.05431679159192118
235.0, 0.04791911988957143
236.0, 0.04153948899208199
237.0, 0.03577010137596669
238.0, 0.03113641393066045
239.0, 0.02926327876934376
240.0, 0.027388627822741644
241.0, 0.028230214093518606
242.0, 0.03205067110106991
243.0, 0.03287199905839722
244.0, 0.03753800351376948
245.0, 0.04273176052418686
246.0, 0.046003667938692996
247.0, 0.051940987266856115
248.0, 0.058923681792871385
249.0, 0.06587028076849982
250.0, 0.07065560297137709
251.0, 0.07815905821436007
252.0, 0.08460886225612542
253.0, 0.08954574084080653
254.0, 0.09421702498203074
255.0, 0.0955420689407193
256.0, 0.09523932467232803
257.0, 0.09395013955914701
258.0, 0.08958944405318044
259.0, 0.0813754140935831
260.0, 0.07135606110028164
261.0, 0.061772487073816225
262.0, 0.05233562922599267
263.0, 0.04407728506185573
264.0, 0.03674383860977749
265.0, 0.029413769878840233
266.0, 0.024184017503199606
267.0, 0.020680735749032255
268.0, 0.018647796968690164
269.0, 0.016230148254366708
270.0, 0.013560985094216467
271.0, 0.011953949167075477
272.0, 0.012394146902378037
273.0, 0.010973207598473405
274.0, 0.01084237179411453
275.0, 0.011613269344842312
276.0, 0.012778561841642996
277.0, 0.01279150328325163
278.0, 0.015405776000192427
279.0, 0.019471009186521514
280.0, 0.019198532229420546
281.0, 0.020605284993074128
282.0, 0.022100901189076552
283.0, 0.023084445311271056
284.0, 0.022664850053657624
285.0, 0.02230244334177131
286.0, 0.021674242667794406
287.0, 0.020519814245975373
288.0, 0.01830348034069605
289.0, 0.01652101048239124
290.0, 0.01494209124074804
291.0, 0.013199914095378809
292.0, 0.01114459570639261
293.0, 0.009576401364884527
294.0, 0.008234298355583682
295.0, 0.005902693962559854
296.0, 0.004726009139605693
297.0, 0.004027859609276149
298.0, 0.003419276175995257
299.0, 0.0011654534696156802
300.0, 0.002688134018644609
301.0, 0.0036175301523349536
302.0, 0.001291525116737885
303.0, 0.002460763800359528
304.0, 0.0025067527943682653
305.0, 0.0016895723169590583
306.0, 0.0002300437759873308
307.0, 0.003136260921628144
308.0, 0.003600240764608367
309.0, 0.0021886672461691064
310.0, 0.0014980430577524757
311.0, 0.002837909857251256
312.0, 0.0035189597991968956
313.0, 0.0034298800369230885
314.0, 0.005053201211142123
315.0, 0.004875676521205219
316.0, 0.005938452341458437
317.0, 0.00934880009738694
318.0, 0.010953121001252909
319.0, 0.01172050925585566
320.0, 0.013297026733836065
321.0, 0.017107170011487476
322.0, 0.01653395913779415
323.0, 0.016956921353717038
324.0, 0.017768646150421494
325.0, 0.017932427247718243
326.0, 0.017354937840700968
327.0, 0.016208967212833714
328.0, 0.015008195998566511
329.0, 0.01517485809321978
330.0, 0.013936009237352666
331.0, 0.01268037478869314
332.0, 0.011519768629022209
333.0, 0.00930754521649677
334.0, 0.009136566794505682
335.0, 0.00884075677888817
336.0, 0.007770682145133937
337.0, 0.00968938108006258
338.0, 0.008384660473649564
339.0, 0.007219961873903688
340.0, 0.008698018276185139
341.0, 0.006381797371129871
342.0, 0.0060167157275585964
343.0, 0.0065978465224518935
344.0, 0.006880774229700638
345.0, 0.007526814899899072
346.0, 0.008480092036721516
347.0, 0.009220243822760597
348.0, 0.008579251396304922
349.0, 0.007667598499962045
350.0, 0.008023021174043111
351.0, 0.009314837099016898
352.0, 0.009399040455261982
353.0, 0.009843938634051488
354.0, 0.010635769622468552
355.0, 0.011645906289960473
356.0, 0.011970859193424943
357.0, 0.012825034552900167
358.0, 0.013772525365519147
359.0, 0.014585492259962073
360.0, 0.014924287069188904
361.0, 0.016898251072746128
362.0, 0.0188050950629058
363.0, 0.0193587220390055
364.0, 0.021387487076644673
365.0, 0.024187591377946724
366.0, 0.026927261826331598
367.0, 0.028579904571445637
368.0, 0.03131783599624513
369.0, 0.03566465173504566
370.0, 0.04012304919196656
371.0, 0.04186275761426676
372.0, 0.046612190337198586
373.0, 0.05119031392564663
374.0, 0.05568327675498102
375.0, 0.06142970122962895
376.0, 0.06751770137340313
377.0, 0.07316436507453994
378.0, 0.07766266542470314
379.0, 0.07859816716799821
380.0, 0.08202546417130685
381.0, 0.08321426242394268
382.0, 0.0809949751305316
383.0, 0.07809334198354229
384.0, 0.07485794923189354
385.0, 0.07091128641949972
386.0, 0.06596139218587732
387.0, 0.058963124529601174
388.0, 0.054131904153653564
389.0, 0.05090478273606977
390.0, 0.04878684169074677
391.0, 0.04046454838115141
392.0, 0.03791142119253863
393.0, 0.03641488505209901
394.0, 0.031636499502404894
395.0, 0.032882384235136494
396.0, 0.030985593386220225
397.0, 0.028537380135695085
398.0, 0.02904272486919921
399.0, 0.02821668195275222
400.0, 0.024434811642959003
401.0, 0.020467191326452472
402.0, 0.021313625791126042
403.0, 0.014899594179732589
404.0, 0.011573596464486836
405.0, 0.011019896507732526
406.0, 0.010301761013942442
407.0, 0.006451969099851225
408.0, 0.003225102922001155
409.0, 0.0016208585506508
410.0, 0.003040794952321328
411.0, 0.0031050161465065373
412.0, 0.004037815571463812
413.0, 0.005390590284934557
414.0, 0.00339296218486733
415.0, 0.006173083018261039
416.0, 0.007627596603281235
417.0, 0.006400157066156906
418.0, 0.00455273972643228
419.0, 0.006508864208108597
420.0, 0.007090176616918767
421.0, 0.004961936249196476
422.0, 0.004244540918719578
423.0, 0.0043286840596397135
424.0, 0.005246581542946155
425.0, 0.006779488040595235
426.0, 0.006310487034208685
427.0, 0.005284755015928943
428.0, 0.005222406707017801
429.0, 0.00660792386589466
430.0, 0.003811223022361898
431.0, 0.0045385486436817675
432.0, 0.005846981039942258
433.0, 0.005876829045961561
434.0, 0.005738689508571617
435.0, 0.00460677198306518
436.0, 0.003754161424993712
437.0, 0.004077873590074514
438.0, 0.00136196240622375
439.0, 0.00230198166850538
440.0, 0.003206200858386791
441.0, 0.0007867915877011156
442.0, 0.0008974422328812107
443.0, 0.0009120707281221683
444.0, 0.0009073204367237162
445.0, 0.0009617951038511137
446.0, 0.002925579976352963
447.0, 0.005464281717422598
448.0, 0.00719359784957723
449.0, 0.00649490018304176
450.0, 0.010861065453727671
451.0, 0.011502722009503075
452.0, 0.011561091757419999
453.0, 0.015314682447835707
454.0, 0.018201931125743125
455.0, 0.022368305840337326
456.0, 0.026205792007354
457.0, 0.027349195272510004
458.0, 0.03157296774466732
459.0, 0.03645166788122074
460.0, 0.042213976499033926
461.0, 0.04942000070773536
462.0, 0.05428845854398697
463.0, 0.060394209601900485
464.0, 0.0670211752761395
465.0, 0.07274011305625018
466.0, 0.07681812456495088
467.0, 0.07688261305075111
468.0, 0.07576533014552479
469.0, 0.07829015827149612
470.0, 0.07305179988632807
471.0, 0.06708445681744869
472.0, 0.0628527337145434
473.0, 0.063707892397703
474.0, 0.05403705690439792
475.0, 0.05039822819996816
476.0, 0.04948107666686418
477.0, 0.04378395197629353
478.0, 0.0417857341767305
479.0, 0.04189466045537017
480.0, 0.04264345823099811
481.0, 0.041807375327625046
482.0, 0.039264118907909616
483.0, 0.0390266321471751
484.0, 0.039996221189229436
485.0, 0.0399489943365507
486.0, 0.04103023765459876
487.0, 0.041232314499547264
488.0, 0.04080086875783535
489.0, 0.04030986013020585
490.0, 0.04201243443766232
491.0, 0.04358748628267505
492.0, 0.04435986268635653
493.0, 0.04350747973385071
494.0, 0.043891174843098305
495.0, 0.04608886764059526
496.0, 0.048822809406673266
497.0, 0.050284830359938644
498.0, 0.050723722177599975
499.0, 0.05278245948650974
500.0, 0.05590401965053588
501.0, 0.059246616442413
502.0, 0.06379777175879997
503.0, 0.06628628152336243
504.0, 0.06967614941345104
505.0, 0.07754595467467809
506.0, 0.08100452819292697
507.0, 0.08669920142188371
508.0, 0.0939423640781988
509.0, 0.10190290789621477
510.0, 0.10585877183693394
511.0, 0.11184847309540567
512.0, 0.11832184643372799
513.0, 0.12389006915037691
514.0, 0.13233548232421932
515.0, 0.1383962893730721
516.0, 0.14419935079805238
517.0, 0.1513126176504772
518.0, 0.15527908304477997
519.0, 0.16336775377039567
520.0, 0.17181290300907312
521.0, 0.1781616400416447
522.0, 0.18543612163999748
523.0, 0.1930231552417712
524.0, 0.20053552685273376
525.0, 0.20780475946195012
526.0, 0.2155117192717619
527.0, 0.22259028689272123
528.0, 0.22988082028773843
529.0, 0.2380400081789825
530.0, 0.24889800209470997
531.0, 0.25725110572925913
532.0, 0.2645034769116839
533.0, 0.2708272746504075
534.0, 0.2740282116466182
535.0, 0.27637029394312784
536.0, 0.277022027244533
537.0, 0.2760887712400997
538.0, 0.27526048424729666
539.0, 0.2731124986751582
540.0, 0.26957979974715623
541.0, 0.26568074811072834
542.0, 0.26490717289432
543.0, 0.26000879236412233
544.0, 0.25733319160736545
545.0, 0.2568992231731776
546.0, 0.2557087930709293
547.0, 0.2541921531661435
548.0, 0.25469253843942524
549.0, 0.2565419197502879
550.0, 0.2578463761684497
551.0, 0.2602593723398562
552.0, 0.2641168120526083
553.0, 0.26640494477443166
554.0, 0.26257750727986257
555.0, 0.26776865794028265
556.0, 0.26588262016421493
557.0, 0.25965218347774865
558.0, 0.25288888871555393
559.0, 0.24310965328235107
560.0, 0.2300629068244088
561.0, 0.21360200120357342
562.0, 0.19385643638919467
563.0, 0.17519180922429897
564.0, 0.16579148542306996
565.0, 0.15413989927711835
566.0, 0.13471896147979212
567.0, 0.12468867287272456
568.0, 0.11723492156731555
569.0, 0.108241299176507
570.0, 0.09805102370647714
571.0, 0.09976720717632855
572.0, 0.09667445237434046
573.0, 0.09500245051589243
574.0, 0.09465595041454924
575.0, 0.08774871923495024
576.0, 0.091065786684005
577.0, 0.09284294396230347
578.0, 0.09173559276854065
579.0, 0.09053442745766031
580.0, 0.09160994922170983
581.0, 0.09366307229911837
582.0, 0.09622074708075562
583.0, 0.09874101041754532
584.0, 0.10150950379206303
585.0, 0.10450550660036986
586.0, 0.10784709264105398
587.0, 0.11166449485266781
588.0, 0.11344339539627826
589.0, 0.11573677994242071
590.0, 0.11858620488459286
591.0, 0.12178660455379618
592.0, 0.12160665673799363
593.0, 0.1231336832834595
594.0, 0.12491261300215788
595.0, 0.1262871907241938
596.0, 0.12825385007377596
597.0, 0.13149215670386227
598.0, 0.13430501639425352
599.0, 0.13687743905658664
600.0, 0.1423531918562
601.0, 0.14696709299773067
602.0, 0.15403859974769638
603.0, 0.16232795779072318
604.0, 0.1670797751213922
605.0, 0.1758119051756873
606.0, 0.18812360535743713
607.0, 0.2027325703674295
608.0, 0.2177237131990055
609.0, 0.2286326836661896
610.0, 0.24464141239248618
611.0, 0.2636223390650724
612.0, 0.2832912315289252
613.0, 0.3077908820290389
614.0, 0.33229141303812837
615.0, 0.36072852827711066
616.0, 0.3954423932448427
617.0, 0.435942258018671
618.0, 0.47929813333834553
619.0, 0.5291890283784564
620.0, 0.5842915708464924
621.0, 0.6338117538779546
622.0, 0.6959236053383704
623.0, 0.7553538463549335
624.0, 0.8125568024805266
625.0, 0.8756865287979388
626.0, 0.9250317249882236
627.0, 0.9657240358306319
628.0, 0.9882599713528201
629.0, 0.9800496750237804
630.0, 0.9951872652195786
631.0, 0.9578012443086766
632.0, 0.9060497263750391
633.0, 0.8691648301634898
634.0, 0.8116098901921346
635.0, 0.7385803162065576
636.0, 0.6663844967792335
637.0, 0.6002153555000149
638.0, 0.5275929821274213
639.0, 0.48223715388121763
640.0, 0.43029483643473393
641.0, 0.3738587076450577
642.0, 0.3405560275076807
643.0, 0.3029527666840013
644.0, 0.26927271564834937
645.0, 0.23968327269054193
646.0, 0.21299904731425756
647.0, 0.18977303999007167
648.0, 0.16987002097166218
649.0, 0.1523356121837031
650.0, 0.1365832969982774
651.0, 0.126014215996025
652.0, 0.1149665987674181
653.0, 0.10547122669680072
654.0, 0.09845758411466103
655.0, 0.09403459527472119
656.0, 0.08507444154059877
657.0, 0.07889647543910704
658.0, 0.07450099575535668
659.0, 0.06588503269637494
660.0, 0.06338474931235506
661.0, 0.06305456501472945
662.0, 0.06095619486320791
663.0, 0.05303110595520458
664.0, 0.050237815331634905
665.0, 0.05077970186219195
666.0, 0.05006047827575161
667.0, 0.045973899082449414
668.0, 0.04546689936917628
669.0, 0.04457031164318683
670.0, 0.042623829496246574
671.0, 0.04133497396739334
672.0, 0.04672715390043634
673.0, 0.0427591922146591
674.0, 0.04116937738009155
675.0, 0.042370001862374204
676.0, 0.044415750561636214
677.0, 0.043372154417449564
678.0, 0.0453670143174142
679.0, 0.04634385557741158
680.0, 0.04385159220019873
681.0, 0.047673909468974617
682.0, 0.050427291341676186
683.0, 0.04997921932426642
684.0, 0.04846366156807598
685.0, 0.05693806000477261
686.0, 0.05742591633229306
687.0, 0.057901499053540154
688.0, 0.059332690133262554
689.0, 0.06104814893308089
690.0, 0.06241610875255731
691.0, 0.06427575111424076
692.0, 0.06652112016023506
693.0, 0.06896015525488695
694.0, 0.07083895549280372
695.0, 0.07308783214421112
696.0, 0.07540686523891639
697.0, 0.07768858931992717
698.0, 0.0799959471529934
699.0, 0.08207400043321353
700.0, 0.08469215444995397
701.0, 0.08750113757420387
702.0, 0.0897185506439288
703.0, 0.09176701081724803
704.0, 0.09422723647447337
705.0, 0.09471905815442484
706.0, 0.09235331077526888
707.0, 0.09639589980135604
708.0, 0.10418798216684
709.0, 0.10702506849500522
710.0, 0.10392500240644756
711.0, 0.10170963782719887
712.0, 0.10620940250768478
713.0, 0.10565773011031404
714.0, 0.10324430390396079
715.0, 0.10533869495014686
716.0, 0.10178423935457814
717.0, 0.1004098258978999
718.0, 0.0983023728715804
719.0, 0.09426730646660668
720.0, 0.09269775307515359
721.0, 0.0938166969202561
722.0, 0.09247140397830354
723.0, 0.08978484861682864
724.0, 0.0914920972284219
725.0, 0.09054164573340294
726.0, 0.08784401629888182
727.0, 0.08531175726254493
728.0, 0.08493893836201467
729.0, 0.08875107354992517
730.0, 0.08340007074460958
731.0, 0.0815548245934613
732.0, 0.08542921264187449
733.0, 0.08214306651995856
734.0, 0.07661903623363576
735.0, 0.0722872272355003
736.0, 0.06872678361206043
737.0, 0.06450670416730592
738.0, 0.06002903835086206
739.0, 0.056508737287297085
740.0, 0.05295134163272916
741.0, 0.04889552104701312
742.0, 0.04558341646368092
743.0, 0.04083570067634512
744.0, 0.03763753001048892
745.0, 0.03526624709908699
746.0, 0.030650994598551327
747.0, 0.02902231289000387
748.0, 0.02644755226720138
749.0, 0.024592440030872725
750.0, 0.024783248541305602
751.0, 0.0242606996287872
752.0, 0.02312080716531423
753.0, 0.023071612764105097
754.0, 0.023149468550931144
755.0, 0.01908355685336321
756.0, 0.020759413805624793
757.0, 0.019082456921002272
758.0, 0.015999956399608745
759.0, 0.014712347226498456
760.0, 0.016977299113511552
761.0, 0.01372456878261229
762.0, 0.014150856656174928
763.0, 0.01867372278057815
764.0, 0.014879420183308272
765.0, 0.01289503447459182
766.0, 0.012236764526544942
767.0, 0.011368968978049678
768.0, 0.008717535744339368
769.0, 0.012025362676820826
770.0, 0.01102641802720027
771.0, 0.009662456649516628
772.0, 0.010011699056574622
773.0, 0.012200688074097698
774.0, 0.009954942231768519
775.0, 0.00888833237944784
776.0, 0.008233134552834358
777.0, 0.005885255181303577
778.0, 0.009521081397572217
779.0, 0.008954824660519327
780.0, 0.008531815793317202
781.0, 0.00974945579305051
782.0, 0.008725382424838604
783.0, 0.009280144148376713
784.0, 0.008446582433077342
785.0, 0.007905792391953024
786.0, 0.010536089344622192
787.0, 0.008098377188191527
788.0, 0.009206695583154428
789.0, 0.010752098358557649
790.0, 0.011355627806387861
791.0, 0.012529609186454868
792.0, 0.013120828395196734
793.0, 0.013985574606304422
794.0, 0.014733331740240095
795.0, 0.014771792297401717
796.0, 0.018197488941854367
797.0, 0.01828404681926342
798.0, 0.01764679105470642
799.0, 0.017768808232870227
800.0, 0.019030960485085006
801.0, 0.017112751854431632
802.0, 0.01881991949457434
803.0, 0.02103305978662398
804.0, 0.019107518908523698
805.0, 0.020268608337237922
806.0, 0.02174068435583915
807.0, 0.020266964994302243
808.0, 0.017749569405785464
809.0, 0.024584577619778034
810.0, 0.021338481442665105
811.0, 0.01934982852000564
812.0, 0.019262719865886666
813.0, 0.020159037506960967
814.0, 0.01865590639453374
815.0, 0.017597660809999353
816.0, 0.016145503941441312
817.0, 0.014718986122779266
818.0, 0.015061197873466369
819.0, 0.01402721328081731
820.0, 0.01185544293838216
821.0, 0.0103982138465077
822.0, 0.01030236094273158
823.0, 0.005121432549693384
824.0, 0.004381081303585335
825.0, 0.0050287144548961825
826.0, 0.004586798771789052
827.0, 0.00013475166620687462
828.0, 0.0004919824542078386
829.0, 0.001158535299074001
830.0, 0.001937062763702925
831.0, 0.0026106727054203685
832.0, 0.002649019556317333
833.0, 0.0033898617905594947
834.0, 0.003476499195591356
835.0, 0.0036062010732798937
836.0, 0.004898473867082213
837.0, 0.0057991050179053245
838.0, 0.004450761417273918
839.0, 0.0038812140588910505
840.0, 0.004713365241521637
841.0, 0.004952453716596957
842.0, 0.005752971432010496
843.0, 0.004866508130722059
844.0, 0.004188553852058061
845.0, 0.005396383596634464
846.0, 0.007069547713170203
847.0, 0.0038574059728771776
848.0, 0.004258680610749842
849.0, 0.00656936044641608
850.0, 0.003874816504686204
851.0, 0.0032752759654420503
852.0, 0.00415587499972539
853.0, 0.0046580064220084205
854.0, 0.004029157169701821
855.0, 0.0035584359994531387
856.0, 0.005357277955530807
857.0, 0.004244122189337758
858.0, 0.0018083346973182448
859.0, 0.0006293306907168035
860.0, 0.0014378129647588196
861.0, 0.002096073397769386
862.0, 0.0018574014221607225
863.0, 0.001194637756398509
864.0, 0.0015523024251266038
865.0, 0.003612631375116777
866.0, 0.0028809446493217182
867.0, 0.0012866014395933223
868.0, 0.0003576676890227001
869.0, 0.0007974397803855408
870.0, 0.0030315348765216836
871.0, 0.002464059615401197
872.0, 0.0013372573557802934
873.0, 0.0027520058715793175
874.0, 0.004279349112404261
875.0, 0.002053984543329917
876.0, 0.0014794190781879457
877.0, 0.002514127258156582
878.0, 0.0014995977544991139
879.0, 0.0003361180400519576
880.0, 0.0027784567104055355
881.0, 0.004340961717602051
882.0, 0.0034216059243353174
883.0, 0.004627894313428808
884.0, 0.0044038935103684574
885.0, 0.004633332658986998
886.0, 0.004621414925410587
887.0, 0.0037701475411498807
888.0, 0.005097399781625937
889.0, 0.004128714074733996
890.0, 0.0063089711488243504
891.0, 0.008642896025507817
892.0, 0.003953155220441005
893.0, 0.005660713954097783
894.0, 0.005995555987177784
895.0, 0.004947100823757589
896.0, 0.004171067304178004
897.0, 0.008280404852583485
898.0, 0.006247861713202317
899.0, 0.005480983703310505
900.0, 0.0067283711703070405
901.0, 0.009071690777147022
902.0, 0.007053159675359889
903.0, 0.006845052995775938
904.0, 0.007131669571498173
905.0, 0.008360629792788
906.0, 0.01089124053783948
907.0, 0.009076262474193476
908.0, 0.008280655687725055
909.0, 0.010399517647839347
910.0, 0.01344946216150489
911.0, 0.012600359152827104
912.0, 0.010403483766297274
913.0, 0.011816623590307877
914.0, 0.012889762199609038
915.0, 0.012323638799805808
916.0, 0.012751951868845405
917.0, 0.017014644622536972
918.0, 0.015374115933963855
919.0, 0.013142306544303338
920.0, 0.014510476970070688
921.0, 0.015923743438160845
922.0, 0.017911445427216045
923.0, 0.018044872869487603
924.0, 0.017036139205540913
925.0, 0.01655619578477162
926.0, 0.020096842670489633
927.0, 0.01903205775613864
928.0, 0.01966297540605673
929.0, 0.02155771624588485
930.0, 0.021198881693655334
931.0, 0.020200084960092807
932.0, 0.021199473229955093
933.0, 0.022964140288166356
934.0, 0.023976940333321546
935.0, 0.022126232906394365
936.0, 0.022744906226246652
937.0, 0.026120925176276136
938.0, 0.02690200992213307
939.0, 0.024864680013542355
940.0, 0.02993007414599466
941.0, 0.02780613319582909
942.0, 0.02873248857757567
943.0, 0.030217871695825203
944.0, 0.030152609241977765
945.0, 0.03188667499497731
946.0, 0.03152276252786397
947.0, 0.029476484798970994
948.0, 0.029675517179034126
949.0, 0.03457589666522686
950.0, 0.032176146985045596
951.0, 0.03003655993750858
952.0, 0.030973992505254344
953.0, 0.03271548247897844
954.0, 0.03153827622470781
955.0, 0.031357404750074466
956.0, 0.02907573871830871
957.0, 0.030066484977066547
958.0, 0.033034234315441675
959.0, 0.03276889685533939
960.0, 0.03039272442129209
961.0, 0.028429174848323857
962.0, 0.02761124197984978
963.0, 0.026528611993426553
964.0, 0.02159655798162584
965.0, 0.02439558280022581
966.0, 0.025395664764965502
967.0, 0.024156239656912607
968.0, 0.02193469964230411
969.0, 0.02238963290412074
970.0, 0.01899481100703074
971.0, 0.017498635154614743
972.0, 0.017391409386849663
973.0, 0.01728578275046876
974.0, 0.014429770595622463
975.0, 0.017221138440116943
976.0, 0.014755426234423262
977.0, 0.013266616135069187
978.0, 0.01597838994065271
979.0, 0.013284960148867712
980.0, 0.010469872000917507
981.0, 0.012702422463295298
982.0, 0.013847866482583383
983.0, 0.009526679660635543
984.0, 0.007951108517234058
985.0, 0.012838757682501674
986.0, 0.009331326506234808
987.0, 0.005612864842429025
988.0, 0.00991485625452486
989.0, 0.007962179614331466
990.0, 0.005455723097014872
991.0, 0.007144104346539467
992.0, 0.008779689214713084
993.0, 0.005984631795725406
994.0, 0.008624162863016292
995.0, 0.009212092985830247
996.0, 0.008399728732412867
997.0, 0.009550930496421878
998.0, 0.015119281902054678
999.0, 0.013062070105413576
1000.0, 0.015462601011798692
1001.0, 0.01641730709932182
1002.0, 0.01712123118887904
1003.0, 0.020364233640019245
1004.0, 0.01969935882694691
1005.0, 0.017406592185936206
1006.0, 0.016161503460813843
1007.0, 0.015516967338027916
1008.0, 0.014081266868703549
1009.0, 0.014205141510895978
1010.0, 0.013825546828475399
1011.0, 0.014415140435483167
1012.0, 0.014743317290910328
1013.0, 0.013022445792590235
1014.0, 0.015330870745548454
1015.0, 0.015883956462628163
1016.0, 0.015285842868447643
1017.0, 0.014395359004448813
1018.0, 0.014177183779734408
1019.0, 0.01464670806158083
1020.0, 0.016162038933796148
1021.0, 0.015784050741505653
1022.0, 0.014804546877067774
1023.0, 0.016192090966995115
1024.0, 0.019252295441361138
1025.0, 0.01634417937037973
1026.0, 0.017006139408726285
1027.0, 0.01909531754534732
1028.0, 0.016671819239726673
1029.0, 0.019286350172966545
1030.0, 0.02228495984639492
1031.0, 0.02557799965038219
1032.0, 0.027684606272717103
1033.0, 0.027078636788738945
1034.0, 0.027072603552621078
1035.0, 0.028580507817664233
1036.0, 0.03216630685689958
1037.0, 0.03575798981276686
1038.0, 0.036798849583210516
1039.0, 0.037001375245901275
1040.0, 0.03862105997799353
1041.0, 0.04044692554896597
1042.0, 0.042151184479056844
1043.0, 0.043596954002678094
1044.0, 0.04412527036189602
1045.0, 0.047088849059971835
1046.0, 0.05050790040562231
1047.0, 0.05303272445859062
1048.0, 0.05388288793909849
1049.0, 0.05420894031490006
1050.0, 0.05732975927782986
1051.0, 0.060893608406216666
1052.0, 0.06182459915468394
1053.0, 0.05956445563235326
1054.0, 0.06379023225573059
1055.0, 0.05949125999962571
1056.0, 0.057027038401416784
1057.0, 0.055323381261598054
1058.0, 0.05317942641254896
1059.0, 0.05445463227617372
1060.0, 0.05139290188227549
1061.0, 0.048779144614568296
1062.0, 0.04689999666580005
1063.0, 0.04567959815810601
1064.0, 0.04540274905024195
1065.0, 0.04186277528347665
1066.0, 0.04051822600054185
1067.0, 0.037731872501946005
1068.0, 0.033149300300710394
1069.0, 0.03248178620169418
1070.0, 0.03580036593211356
1071.0, 0.03201275766762651
1072.0, 0.02978732025819201
1073.0, 0.03242978345738946
1074.0, 0.0366034846972725
1075.0, 0.03273195087342966
1076.0, 0.03773744978819937
1077.0, 0.03644919698327308
1078.0, 0.029186915396732377
1079.0, 0.027468082973264984
1080.0, 0.027149886552577038
1081.0, 0.028473424132397254
1082.0, 0.02899203512494878
1083.0, 0.029077170215093196
1084.0, 0.029931681758190352
1085.0, 0.027282031099523454
1086.0, 0.029800550873453853
1087.0, 0.029830155027461034
1088.0, 0.029211032808863547
1089.0, 0.03127852157652976
1090.0, 0.03185842159668061
1091.0, 0.031704105583458674
1092.0, 0.033310563959880725
1093.0, 0.03489906737669532
1094.0, 0.035083930140456646
1095.0, 0.035857719362791515
1096.0, 0.039883367003343745
1097.0, 0.04206825517849873
1098.0, 0.042637974121619
1099.0, 0.043217935738452756
1100.0, 0.0468371851634974
1101.0, 0.04674228056717478
1102.0, 0.04867891615285701
1103.0, 0.05128162804652804
1104.0, 0.05398452187890366
1105.0, 0.057113704674995484
1106.0, 0.05790417030780417
1107.0, 0.06162290056369765
1108.0, 0.06482505228460263
1109.0, 0.06687721373842391
1110.0, 0.0684383590057253
1111.0, 0.06735082903189088
1112.0, 0.07145019194321152
1113.0, 0.07196833773592698
1114.0, 0.07070780668445047
1115.0, 0.07116810762036474
1116.0, 0.07091202133508469
1117.0, 0.07052738193274498
1118.0, 0.06969027259247026
1119.0, 0.0686817750572632
1120.0, 0.06824345673358141
1121.0, 0.06984732572468677
1122.0, 0.06903758146815099
1123.0, 0.06618411737669867
1124.0, 0.06615391485433839
1125.0, 0.0685619900330802
1126.0, 0.06776287604018291
1127.0, 0.06725634753926733
1128.0, 0.0639833159729867
1129.0, 0.06086486789452659
1130.0, 0.05821851157146482
1131.0, 0.055617234964630245
1132.0, 0.05736527645592389
1133.0, 0.05434924652093139
1134.0, 0.051985697138412466
1135.0, 0.04877409732999302
1136.0, 0.04386008851893686
1137.0, 0.04312499217894166
1138.0, 0.0463237754504928
1139.0, 0.04216671177095756
1140.0, 0.03959692540134164
1141.0, 0.04105446078351616
1142.0, 0.03798504422159965
1143.0, 0.036241150503371324
1144.0, 0.03765763117204745
1145.0, 0.03745778226415247
1146.0, 0.035850886708436336
1147.0, 0.03583226041020464
1148.0, 0.03636887278836556
1149.0, 0.03435675206165671
1150.0, 0.03352459837423174
1151.0, 0.03319702368164221
1152.0, 0.03208338186111878
1153.0, 0.030702621534597088
1154.0, 0.02792600143764448
1155.0, 0.026404403115559815
1156.0, 0.02443995274083775
1157.0, 0.02266526553797495
1158.0, 0.024831845635541902
1159.0, 0.02044448208450799
1160.0, 0.01768191312843618
1161.0, 0.017461172893937407
1162.0, 0.017528819782968778
1163.0, 0.014769567432657612
1164.0, 0.011610099563297144
1165.0, 0.010398913817859887
1166.0, 0.009214542958270592
1167.0, 0.009041656271681556
1168.0, 0.009916393717204675
1169.0, 0.00847008976508918
1170.0, 0.007175750888838983
1171.0, 0.0068348076503290415
1172.0, 0.005103914135794732
1173.0, 0.0023383410139771344
1174.0, 0.0013085654466716131
1175.0, 0.002769514927663199
1176.0, 0.0014603995049819437
1177.0, 0.0019670806600482374
1178.0, 0.0031590256065940256
1179.0, 0.002929253499905244
1180.0, 0.002820688923659719
1181.0, 0.0033061993814918296
1182.0, 0.0024824816087501687
1183.0, 0.001110487663884042
1184.0, 0.000342697610821635
1185.0, 0.0012584915922529418
1186.0, 0.0014065082067391047
1187.0, 0.0027585208520941678
1188.0, 0.00385314161730898
1189.0, 0.003558746895163971
1190.0, 0.002049030913934882
1191.0, 0.004563291966427255
1192.0, 0.004994219572927264
1193.0, 0.002637819732423878
1194.0, 0.000767234145586324
1195.0, 0.0017926056305097092
1196.0, 0.005642314152002474
1197.0, 0.0010435034683230467
1198.0, 0.0022337827509538092
1199.0, 0.002375022865020603
1200.0, 0.0013666797997242278
1201.0, 0.0017805213498509214
1202.0, 0.00023876720462891134
1203.0, 0.0009265249841137196
1204.0, 0.0014625781982728224
1205.0, 0.00239734966385771
1206.0, 0.0035055438855908067
1207.0, 0.0027600913193302884
1208.0, 0.00091067906111657
1209.0, 0.0032078275451558292
1210.0, 0.0026194604818711464
1211.0, 0.000621639219051464
1212.0, 0.001626726213810466
1213.0, 0.0015325359663737504
1214.0, 0.002102836054060875
1215.0, 0.004361598033445927
1216.0, 0.0069227863558930305
1217.0, 0.008244472627250973
1218.0, 0.00736777269682524
1219.0, 0.008296703828545571
1220.0, 0.009643513455631718
1221.0, 0.010224696107261998
1222.0, 0.010315674494857008
1223.0, 0.01069239065123822
1224.0, 0.011406884554550394
1225.0, 0.009278262206210208
1226.0, 0.009136327019117572
1227.0, 0.010255601829059527
1228.0, 0.010809587270331853
1229.0, 0.009020668572287002
1230.0, 0.010455034691183546
1231.0, 0.01054223032474098
1232.0, 0.010027856297896591
1233.0, 0.009062993475570394
1234.0, 0.007842513688844392
1235.0, 0.007138772532938491
1236.0, 0.011521304253570574
1237.0, 0.010021740217181193
1238.0, 0.0071997874062610006
1239.0, 0.007165698605568415
1240.0, 0.010935714286816726
1241.0, 0.006343190215416005
1242.0, 0.007961659454234046
1243.0, 0.008834494027562886
1244.0, 0.008613656320247525
1245.0, 0.00783443255966603
1246.0, 0.006336916741854147
1247.0, 0.00611852254824156
1248.0, 0.009062697359846284
1249.0, 0.009573471981150923
1250.0, 0.006415242007054702
1251.0, 0.0027259343689728624
1252.0, 0.00912069488255079
1253.0, 0.01039991381806186
1254.0, 0.008430141273378489
1255.0, 0.00876244285196006
1256.0, 0.011633655073705998
1257.0, 0.012501968308992474
1258.0, 0.011562315996557423
1259.0, 0.009311128981877971
1260.0, 0.011688484418076829
1261.0, 0.014014536400140394
1262.0, 0.012779187772570425
1263.0, 0.010932654547767972
1264.0, 0.011724665221877952
1265.0, 0.011608425872371817
1266.0, 0.012764188578715831
1267.0, 0.014476851542094686
1268.0, 0.016171280367831553
1269.0, 0.022178359777364855
1270.0, 0.01992103455338633
1271.0, 0.0231917345650328
1272.0, 0.02694240561287989
1273.0, 0.02828409236945077
1274.0, 0.027879780812206482
1275.0, 0.029521635099439152
1276.0, 0.03293224814786896
1277.0, 0.03539955169281122
1278.0, 0.03636863247355336
1279.0, 0.036221765056256315
1280.0, 0.0361447797580042
1281.0, 0.03983361650925289
1282.0, 0.04202593070535592
1283.0, 0.04227549789621094
1284.0, 0.042708407247983936
1285.0, 0.04462478142013303
1286.0, 0.04583565921427121
1287.0, 0.045571892613800985
1288.0, 0.047061219600361734
1289.0, 0.04608741204650574
1290.0, 0.04474531911564074
1291.0, 0.0456414929308686
1292.0, 0.04173025412845775
1293.0, 0.04312247938620856
1294.0, 0.043561402063806626
1295.0, 0.043916656135370095
1296.0, 0.04443250490271267
1297.0, 0.04475447806677346
1298.0, 0.04608370414583176
1299.0, 0.04464335157758109
1300.0, 0.04529057371050677
1301.0, 0.04590289576980506
1302.0, 0.045357291131920406
1303.0, 0.0449744313367696
1304.0, 0.04831151105409029
1305.0, 0.04890661743199544
1306.0, 0.049448606755062414
1307.0, 0.05160199752508117
1308.0, 0.05486289978018341
1309.0, 0.05640793354440621
1310.0, 0.06047418670149262
1311.0, 0.06264390185342392
1312.0, 0.06465887280990128
1313.0, 0.0661474055014674
1314.0, 0.06739693381729234
1315.0, 0.07091104061268283
1316.0, 0.06946033317733621
1317.0, 0.0745465139645649
1318.0, 0.07474445438996281
1319.0, 0.0739523778503418
1320.0, 0.0774228506726984
1321.0, 0.07791494057616982
1322.0, 0.07966472284411721
1323.0, 0.0794351004518872
1324.0, 0.07798195522360546
1325.0, 0.07675571711325517
1326.0, 0.07657148905017049
1327.0, 0.0756458969278615
1328.0, 0.07418023716804012
1329.0, 0.07322656308924896
1330.0, 0.07210141565610347
1331.0, 0.07123173375928057
1332.0, 0.07093969363364573
1333.0, 0.06873528078660389
1334.0, 0.06755553771914255
1335.0, 0.06528201743847606
1336.0, 0.0631189944600975
1337.0, 0.06131026929849495
1338.0, 0.058953082132815644
1339.0, 0.05391683460647712
1340.0, 0.053310955375613006
1341.0, 0.05006436828746415
1342.0, 0.045416560005506604
1343.0, 0.04154858131488583
1344.0, 0.0396168302320637
1345.0, 0.03617875272616008
1346.0, 0.03294257471267501
1347.0, 0.029943802832394516
1348.0, 0.027981311786106564
1349.0, 0.027637674383492142
1350.0, 0.02812193559520296
1351.0, 0.023658202357978633
1352.0, 0.017007563375921114
1353.0, 0.01780827203265167
1354.0, 0.018465944896829036
1355.0, 0.016383714986701856
1356.0, 0.014802486992911125
1357.0, 0.018355246612923794
1358.0, 0.009781624653215993
1359.0, 0.011485922304666909
1360.0, 0.013394782136040336
1361.0, 0.010918495506650543
1362.0, 0.007731661924866563
1363.0, 0.013083784688022583
1364.0, 0.009170132258594012
1365.0, 0.008608105746318364
1366.0, 0.008733942399846113
1367.0, 0.008244304085949273
1368.0, 0.007779120123519656
1369.0, 0.00779766464747242
1370.0, 0.009502122526754739
1371.0, 0.008652419757469528
1372.0, 0.006244241713980874
1373.0, 0.0056200465274713115
1374.0, 0.008003122907563904
1375.0, 0.004364500253251967
1376.0, 0.004184714483699338
1377.0, 0.005073316261329298
1378.0, 0.006455001695462859
1379.0, 0.006620265575485624
1380.0, 0.005076613574325983
1381.0, 0.006065289554493737
1382.0, 0.00419251035201533
1383.0, 0.00546520846537169
1384.0, 0.005469153913662727
1385.0, 0.005236144517710756
1386.0, 0.0061317325231359035
1387.0, 0.004308278418967224
1388.0, 0.0033007512544093644
1389.0, 0.004010594729663458
1390.0, 0.005599518805979287
1391.0, 0.005809314298743015
1392.0, 0.004347946934456086
1393.0, 0.004687411490436062
1394.0, 0.0010765848923521342
1395.0, 0.00032876219441164723
1396.0, 0.0036268775097263017
1397.0, 0.004391941120683437
1398.0, 0.001452070196470907
1399.0, 0.002950964462295109
1400.0, 0.0058133596503496515
1401.0, 0.0059050259417336385
1402.0, 0.0049070665133660344
1403.0, 0.003657961451153546
1404.0, 0.0023182319689494446
1405.0, 0.000984813679937283
1406.0, 0.0028943964735070275
1407.0, 0.0025668703943676125
1408.0, 0.004082834413380582
1409.0, 0.003129362819368818
1410.0, 0.001288356609448747
1411.0, 0.00328274111203556
1412.0, 0.005542591820746104
1413.0, 0.0029732626382180144
1414.0, 0.002695570677618282
1415.0, 0.001730281161066157
1416.0, 0.0013612316714152553
1417.0, 0.003164554910125363
1418.0, 0.0030895459551572237
1419.0, 0.0029960712369951556
1420.0, 0.001341487942180921
1421.0, 0.002685407551350995
1422.0, 0.0044269765150372975
1423.0, 0.004134423166243235
1424.0, 0.0037986574100450487
1425.0, 0.0006850360256788882
1426.0, 0.0036289641793854346
1427.0, 0.002557651645609636
1428.0, 0.001824291135830559
1429.0, 0.003833620437575589
1430.0, 0.005028565903782444
1431.0, 0.0005209051803426578
1432.0, 0.002078904258522093
1433.0, 0.0015467549925749188
1434.0, 0.002128562297211976
1435.0, 0.003591514272462818
1436.0, 0.0034249906421866456
1437.0, 0.0021610358906527316
1438.0, 0.005917009214726609
1439.0, 0.008390246631152438
1440.0, 0.006607221722154222
1441.0, 0.004802700657526404
1442.0, 0.005779186238827411
1443.0, 0.005033263340833781
1444.0, 0.004917031682985083
1445.0, 0.006205555762498533
1446.0, 0.0077761003281185325
1447.0, 0.007311061672880857
1448.0, 0.006784485663122323
1449.0, 0.01015838806424719
1450.0, 0.008047773453888043
1451.0, 0.009652930297896501
1452.0, 0.009116831089920924
1453.0, 0.009775566918870928
1454.0, 0.0106918178820389
1455.0, 0.009960504548644493
1456.0, 0.011031648796209808
1457.0, 0.012267278286566714
1458.0, 0.010328480551297904
1459.0, 0.008516880210344576
1460.0, 0.008747991740204504
1461.0, 0.010345867440009256
1462.0, 0.010670063654813027
1463.0, 0.012191086731053232
1464.0, 0.00754180089055847
1465.0, 0.0056019258990520175
1466.0, 0.007960668050328757
1467.0, 0.00857782220140283
1468.0, 0.003632989835117343
1469.0, 0.009158299321793687
1470.0, 0.0031289423903825223
1471.0, 0.004142209694682225
1472.0, 0.006320884262724488
1473.0, 0.0073767731856449106
1474.0, 0.00694526060073796
1475.0, 0.005589760451113359
1476.0, 0.008781874387610683
1477.0, 0.005633726371268171
1478.0, 0.006673488369206574
1479.0, 0.005448322848095643
1480.0, 0.0026218888008418535
1481.0, 0.0032683659656503675
1482.0, 0.0028601849839727947
1483.0, 0.006340016812358623
1484.0, 0.00466331455513077
1485.0, 0.0053931428365484825
1486.0, 0.005352252454860739
1487.0, 0.003441483711581775
1488.0, 0.0053698332830293535
1489.0, 0.002787065542486116
1490.0, 0.007870621561499189
1491.0, 0.008848558493655123
1492.0, 0.006678922308226979
1493.0, 0.004136459653896469
1494.0, 0.003918858117474985
1495.0, 0.008061072853847365
1496.0, 0.0034755235061870657
1497.0, 0.0034318075863935763
1498.0, 0.005082730862990978
1499.0, 0.004016764607684092
1500.0, 0.0020407756435270926
1501.0, 0.004844038726375915
1502.0, 0.0007960000409024635
1503.0, 0.002123136655897523
1504.0, 0.0014212207324822176
1505.0, 0.0008694385288784542
1506.0, 0.002316349343173869
1507.0, 0.004821718991407899
1508.0, 0.004274760260124638
1509.0, 0.0029324314439442265
1510.0, 0.003520285958962859
1511.0, 0.005357791937424284
1512.0, 0.004667758160813637
1513.0, 0.0031193154905850428
1514.0, 0.004292175443664413
1515.0, 0.0032043568626074193
1516.0, 0.0023890979951767233
1517.0, 0.0024633206980885047
1518.0, 0.004803165792834854
1519.0, 0.005735823943181386
1520.0, 0.005509458456319788
1521.0, 0.00777231365778794
1522.0, 0.0003853585881940869
1523.0, 1.6587206807156644e-06
1524, 0.0
1525, 0.0
1526, 0.0
1527, 0.0
1528, 0.0
1529, 0.0
1530, 0.0
1531, 0.0
1532, 0.0
1533, 0.0
1534, 0.0
1535, 0.0
1536, 0.0
1537, 0.0
1538, 0.0
1539, 0.0
1540, 0.0
1541, 0.0
1542, 0.0
1543, 0.0
1544, 0.0
1545, 0.0
1546, 0.0
1547, 0.0
1548, 0.0
1549, 0.0
1550, 0.0
1551, 0.0
1552, 0.0
1553, 0.0
1554, 0.0
1555, 0.0
1556, 0.0
1557, 0.0
1558, 0.0
1559, 0.0
1560, 0.0
1561, 0.0
1562, 0.0
1563, 0.0
1564, 0.0
1565, 0.0
1566, 0.0
1567, 0.0
1568, 0.0
1569, 0.0
1570, 0.0
1571, 0.0
1572, 0.0
1573, 0.0
1574, 0.0
1575, 0.0
1576, 0.0
1577, 0.0
1578, 0.0
1579, 0.0
1580, 0.0
1581, 0.0
1582, 0.0
1583, 0.0
1584, 0.0
1585, 0.0
1586, 0.0
1587, 0.0
1588, 0.0
1589, 0.0
1590, 0.0
1591, 0.0
1592, 0.0
1593, 0.0
1594, 0.0
1595, 0.0
1596, 0.0
1597, 0.0
1598, 0.0
1599, 0.0
