30, 0.0
31, 0.0
32, 0.0
33, 0.0
34, 0.0
35, 0.0
36, 0.0
37, 0.0
38, 0.0
39, 0.0
40, 0.0
41, 0.0
42, 0.0
43, 0.0
44, 0.0
45, 0.0
46, 0.0
47, 0.0
48, 0.0
49, 0.0
50, 0.0
51, 0.0
52, 0.0
53, 0.0
54, 0.0
55, 0.0
56, 0.0
57, 0.0
58, 0.0
59, 0.0
60, 0.0
61, 0.0
62, 0.0
63, 0.0
64, 0.0
65, 0.0
66, 0.0
67, 0.0
68, 0.0
69, 0.0
70, 0.0
71, 0.0
72, 0.0
73, 0.0
74, 0.0
75, 0.0
76, 0.0
77, 0.0
78, 0.0
79.0, 0.0004827758964157724
80.0, 0.0026397448819470448
81.0, 0.007586520053518827
82.0, 0.01975758845805288
83.0, 0.026030806975708694
84.0, 0.031000881335970884
85.0, 0.03651339683352622
86.0, 0.04182342479280889
87.0, 0.04730652672588453
88.0, 0.05422882829472504
89.0, 0.06636828994741607
90.0, 0.0781666258605263
91.0, 0.09178563522938832
92.0, 0.10814695683384071
93.0, 0.12650235363727008
94.0, 0.14913080428009923
95.0, 0.176445872939747
96.0, 0.2107880943050902
97.0, 0.24254337227691078
98.0, 0.2738495603043623
99.0, 0.30483496625885864
100.0, 0.3290381467471991
101.0, 0.3427827661601021
102.0, 0.34728517703209405
103.0, 0.3412597209330884
104.0, 0.3244884056497599
105.0, 0.29956275589896997
106.0, 0.2668247042256283
107.0, 0.22677715311413588
108.0, 0.19563121189173865
109.0, 0.16813060568358376
110.0, 0.14025064125249584
111.0, 0.12390302327335413
112.0, 0.11102455388456348
113.0, 0.10037520247707538
114.0, 0.08998003877668284
115.0, 0.08832032208341101
116.0, 0.08861685403286064
117.0, 0.08707180134474513
118.0, 0.08291469264720171
119.0, 0.07245894182476732
120.0, 0.060032704009690296
121.0, 0.05890298622822354
122.0, 0.05332980780172663
123.0, 0.04652970676274429
124.0, 0.03968062430768457
125.0, 0.03743087483949529
126.0, 0.035966204304342206
127.0, 0.03382649898097634
128.0, 0.028134410998177883
129.0, 0.029779348165050845
130.0, 0.029035295600336224
131.0, 0.02482666927981631
132.0, 0.029015332125888388
133.0, 0.029434159771274258
134.0, 0.03150180225997871
135.0, 0.04120392877777249
136.0, 0.040832994779027035
137.0, 0.04340909328577278
138.0, 0.04882769824711818
139.0, 0.05077382086542681
140.0, 0.05364348575933211
141.0, 0.056827973543499555
142.0, 0.06004372662676313
143.0, 0.06515144695028718
144.0, 0.06737734383076252
145.0, 0.0686243802569601
146.0, 0.07345898511717909
147.0, 0.07548173110544468
148.0, 0.0754439365772872
149.0, 0.07382889360428997
150.0, 0.07674724828319211
151.0, 0.07652626938543898
152.0, 0.07568887747778642
153.0, 0.07708766486387995
154.0, 0.08046627641740116
155.0, 0.08127252130558824
156.0, 0.07994656978852285
157.0, 0.08136943001988073
158.0, 0.08187807389999423
159.0, 0.08218522250955052
160.0, 0.0826598951312295
161.0, 0.08297083577605667
162.0, 0.08242385705323058
163.0, 0.08131635030298118
164.0, 0.08021072940739941
165.0, 0.07620980947478485
166.0, 0.07242834582124345
167.0, 0.06946068239347143
168.0, 0.06510626081800774
169.0, 0.061453468648434435
170.0, 0.05756278952979774
171.0, 0.05245323868396722
172.0, 0.04681137384057474
173.0, 0.0413672787811494
174.0, 0.03577372862537981
175.0, 0.028456183965040086
176.0, 0.021994020142808848
177.0, 0.015775847431809195
178.0, 0.009649560865325325
179.0, 0.006281245839642892
180.0, 0.004117981068523909
181.0, 0.0035909235262850375
182.0, 0.0057566377346104395
183.0, 0.006544651134150449
184.0, 0.007511473677924837
185.0, 0.008823381649169237
186.0, 0.010127404122344221
187.0, 0.010898181544476443
188.0, 0.011411997453798766
189.0, 0.011792553199558095
190.0, 0.01242952416922272
191.0, 0.013608132175100133
192.0, 0.014680983182038558
193.0, 0.014300664448690246
194.0, 0.013122359388325601
195.0, 0.011736779482091146
196.0, 0.010241833421110935
197.0, 0.008490980320616839
198.0, 0.0037987721743774406
199.0, 0.0004299710760247382
200.0, 0.0016309657415964217
201.0, 0.005660676533475743
202.0, 0.01275195457725158
203.0, 0.02272815686409209
204.0, 0.0357839518896535
205.0, 0.04868071722730408
206.0, 0.059523479131288616
207.0, 0.06891500105252871
208.0, 0.08697991148436562
209.0, 0.09767888222641656
210.0, 0.1037034265899187
211.0, 0.10635352195141154
212.0, 0.104069430442761
213.0, 0.09920794481563197
214.0, 0.09143027200426783
215.0, 0.07911745380933963
216.0, 0.06913758242042832
217.0, 0.06051415345108948
218.0, 0.05323428331574725
219.0, 0.0488686841920845
220.0, 0.04342511330837399
221.0, 0.038024658198998106
222.0, 0.033502017251605766
223.0, 0.034537212480718386
224.0, 0.033639444281295124
225.0, 0.03193012301370867
226.0, 0.03219554885483967
227.0, 0.034330259773739186
228.0, 0.03489842500217628
229.0, 0.03394457881858566
230.0, 0.03711859311885996
231.0, 0.041269940250172284
232.0, 0.04458174395568497
233.0, 0.04583511474023911
234.0, 0.048943334348375084
235.0, 0.0514302560211814
236.0, 0.05373153955283789
237.0, 0.05661788716101265
238.0, 0.06614609999582084
239.0, 0.07236544224224807
240.0, 0.07521086307166629
241.0, 0.08215448704203983
242.0, 0.08843726540349203
243.0, 0.09229360038256779
244.0, 0.0928921748046789
245.0, 0.09666254430195807
246.0, 0.09847392481273347
247.0, 0.1016064054428577
248.0, 0.11041643202182463
249.0, 0.11094669268580078
250.0, 0.11528303270405886
251.0, 0.12159087847528167
252.0, 0.12038670439663811
253.0, 0.12234240017021923
254.0, 0.12458441630455383
255.0, 0.1259563676342539
256.0, 0.12340042922745754
257.0, 0.11938526273384197
258.0, 0.1148903433566558
259.0, 0.11061259639824877
260.0, 0.10608735479124236
261.0, 0.09813380603048716
262.0, 0.09002382572151368
263.0, 0.08830597202927012
264.0, 0.08729557829747778
265.0, 0.08687407093440024
266.0, 0.08734536925310277
267.0, 0.0903565255278924
268.0, 0.09089128118180863
269.0, 0.09439310590845117
270.0, 0.10325205157356532
271.0, 0.11338786291117504
272.0, 0.12022829784735095
273.0, 0.12692836061192417
274.0, 0.13673974402599184
275.0, 0.15435910931254873
276.0, 0.16828381158435207
277.0, 0.17756170478562025
278.0, 0.18074168573461874
279.0, 0.19201110177528444
280.0, 0.20190157515672308
281.0, 0.20943148428462233
282.0, 0.22052731985056886
283.0, 0.22524015616109658
284.0, 0.23026634692623618
285.0, 0.23891191082333987
286.0, 0.25186770454912344
287.0, 0.26022482797857244
288.0, 0.26500205959525924
289.0, 0.2667845331132525
290.0, 0.2712982674115236
291.0, 0.2665424144032531
292.0, 0.2568013358743376
293.0, 0.25311132248916796
294.0, 0.23747539799402698
295.0, 0.22415915030660094
296.0, 0.21482360641913759
297.0, 0.20348547355550872
298.0, 0.19699138548177567
299.0, 0.19558571539851125
300.0, 0.1997292208397006
301.0, 0.20990027541252854
302.0, 0.22270602429779326
303.0, 0.2414674325881869
304.0, 0.2698524512769342
305.0, 0.30099110951249836
306.0, 0.33641651210989837
307.0, 0.3789840958467712
308.0, 0.4348765287383033
309.0, 0.481659983793744
310.0, 0.5263716093292581
311.0, 0.5682771230715344
312.0, 0.6008431381064318
313.0, 0.6238793326753572
314.0, 0.6328873070158246
315.0, 0.6266627126319743
316.0, 0.6107765708148878
317.0, 0.5718576979952674
318.0, 0.5219211825216671
319.0, 0.4675122618083136
320.0, 0.4203244977765407
321.0, 0.3756918715064362
322.0, 0.33338400693357345
323.0, 0.293405255361477
324.0, 0.2600794285560087
325.0, 0.23288013048769401
326.0, 0.2083231969555585
327.0, 0.17942508469637963
328.0, 0.16380779704765747
329.0, 0.1511740420245373
330.0, 0.1397467163968053
331.0, 0.1290653322856105
332.0, 0.11969720203870149
333.0, 0.11415045609457165
334.0, 0.11247165849674295
335.0, 0.10750385110662718
336.0, 0.1075164378708709
337.0, 0.10937781953090632
338.0, 0.11166581535648891
339.0, 0.12062646345189952
340.0, 0.13092243327261488
341.0, 0.14268359237228737
342.0, 0.1561865277123634
343.0, 0.17765747732571316
344.0, 0.1983488648269153
345.0, 0.218429920203344
346.0, 0.2386164873938514
347.0, 0.2675970712274542
348.0, 0.29813168481144414
349.0, 0.3288758578468139
350.0, 0.3583654821857585
351.0, 0.37940138852826505
352.0, 0.39549586064495357
353.0, 0.4062541470435513
354.0, 0.4058171462948798
355.0, 0.400425611098136
356.0, 0.3893988516672166
357.0, 0.3720007694078645
358.0, 0.34590412301045587
359.0, 0.31483177078807595
360.0, 0.28491425828363365
361.0, 0.25969857891565995
362.0, 0.23140010669471608
363.0, 0.2076632819992331
364.0, 0.18768670907732243
365.0, 0.17099579498945544
366.0, 0.15857366136020945
367.0, 0.14962089412930493
368.0, 0.14418599186295752
369.0, 0.14269516416634007
370.0, 0.14338658121858566
371.0, 0.14361577950932625
372.0, 0.1460082732128773
373.0, 0.15735030822277035
374.0, 0.17116645058666077
375.0, 0.18338985259402374
376.0, 0.19537439352423852
377.0, 0.21417158266544836
378.0, 0.22761704274931435
379.0, 0.24566940336668916
380.0, 0.26983419302532774
381.0, 0.29394583928498264
382.0, 0.31976661762820546
383.0, 0.34664231173247095
384.0, 0.37454182799416774
385.0, 0.40514928311036236
386.0, 0.4374588041625179
387.0, 0.4665208806081912
388.0, 0.49035328845848997
389.0, 0.5270918281755732
390.0, 0.5461849642701125
391.0, 0.5599571332770772
392.0, 0.5776731416014738
393.0, 0.5853842988203096
394.0, 0.589148361295389
395.0, 0.5893598383482979
396.0, 0.5862479103417444
397.0, 0.568224773131918
398.0, 0.5517988060738722
399.0, 0.5344103835136463
400.0, 0.5112763539780925
401.0, 0.4875670109474367
402.0, 0.47165726146108605
403.0, 0.45726720455380515
404.0, 0.430496376247208
405.0, 0.4053316680294058
406.0, 0.3844258478481871
407.0, 0.36593158465182796
408.0, 0.344157646843339
409.0, 0.3275894908035376
410.0, 0.3071013653965831
411.0, 0.2820680860504184
412.0, 0.2560349866399826
413.0, 0.2394020643043465
414.0, 0.22104842546014022
415.0, 0.19883630730090815
416.0, 0.17568821839030793
417.0, 0.15844214922542968
418.0, 0.14297195271326577
419.0, 0.12833034585516748
420.0, 0.11662276847584611
421.0, 0.09991131784148165
422.0, 0.08870782586755524
423.0, 0.08589565225724936
424.0, 0.07849869311874202
425.0, 0.06653852603510177
426.0, 0.058331766825757456
427.0, 0.056901837887682244
428.0, 0.04744710871785374
429.0, 0.03914342001350359
430.0, 0.03314774573657414
431.0, 0.030283811922858603
432.0, 0.031016475300285205
433.0, 0.02557476124689483
434.0, 0.020772028481540087
435.0, 0.02116134017724977
436.0, 0.016978161554159082
437.0, 0.015505016229096754
438.0, 0.014565028153229497
439.0, 0.0123545625683306
440.0, 0.008547127420180104
441.0, 0.006369530715603959
442.0, 0.005508120934502835
443.0, 0.005694567412705676
444.0, 0.0046210717282203825
445.0, 0.0028723308445727258
446.0, 0.001330416250762702
447.0, 0.0009696172399200472
448.0, 0.0007030455228372984
449.0, 0.0010413217993487218
450.0, 0.0016660034911873973
451.0, 0.0021878755865099853
452.0, 0.002445459882879898
453.0, 0.0024502322588440257
454.0, 0.0019632814457495283
455.0, 0.0006441664473596677
456.0, 0.0003050884563690758
457.0, 0.0003265506094199529
458.0, 0.0006238088364156881
459.0, 0.0011272034248744262
460.0, 0.000800099283645054
461.0, 0.0026349722252179265
462.0, 0.004123485401006625
463.0, 0.0011501183352819304
464.0, 0.0014737408424027691
465.0, 0.0032391111217070965
466.0, 0.004476179809951747
467.0, 0.0021935165881144204
468.0, 0.0011008356768207098
469.0, 0.0016472351459794533
470.0, 0.002433409052706676
471.0, 0.001110971412597807
472.0, 0.00390713662144353
473.0, 0.0031799945719330966
474.0, 0.0012732747254650266
475.0, 0.0029970108483253917
476.0, 0.004576131310894581
477.0, 0.005595821211190205
478.0, 0.006092431262777465
479.0, 0.006154597890257523
480.0, 0.002951421135696174
481.0, 0.0028071406248983736
482.0, 0.003929958332325219
483.0, 0.0026484259381779037
484.0, 0.0010939903045380642
485.0, 0.0006965953410256831
486.0, 0.0007687726127526631
487.0, 6.47436484104528e-05
488.0, 0.000810387937810614
489.0, 0.0006624333168168141
490.0, 0.0008838283268737157
491.0, 0.003661371218986944
492.0, 0.0048564539531779
493.0, 0.00464396669987897
494.0, 0.005047564818276837
495.0, 0.00899526632922737
496.0, 0.004767333487383859
497.0, 0.0029867085983199663
498.0, 0.002436515577118211
499.0, 0.0008353806745047361
500.0, 0.0014408670709703877
501.0, 0.002141789598824982
502.0, 0.0027383848449218603
503.0, 0.0030731424128846935
504.0, 0.001283835956101361
505.0, 0.002264658338297269
506.0, 0.002998680256692486
507.0, 3.717942570041679e-05
508.0, 0.0002704098178775677
509.0, 0.0011062341753709521
510.0, 0.0016393674816656718
511.0, 0.0010274646302800671
512.0, 0.0032082244880947755
513.0, 0.00545201203487822
514.0, 0.005793235330363581
515.0, 0.0028618404759404737
516.0, 0.009053941741338235
517.0, 0.011175121157239643
518.0, 0.00908182769909274
519.0, 0.0033743953626112406
520.0, 0.008814152971673116
521.0, 0.010723500598479036
522.0, 0.011339119294619678
523.0, 0.01188051389235406
524.0, 0.009684686850340653
525.0, 0.009180974884815812
526.0, 0.009799429174974202
527.0, 0.010927027338296962
528.0, 0.009669286073780021
529.0, 0.01233675702588926
530.0, 0.011930668476064804
531.0, 0.007101402634984875
532.0, 0.010146790434091432
533.0, 0.014483883422302207
534.0, 0.015788237373982623
535.0, 0.013789762498882212
536.0, 0.015196438741874093
537.0, 0.015593757291365487
538.0, 0.015721941235124104
539.0, 0.015597148081592687
540.0, 0.014467199644728469
541.0, 0.020031364010773572
542.0, 0.022399621676108414
543.0, 0.02234085240512395
544.0, 0.02850752414376624
545.0, 0.03215769344561574
546.0, 0.03416194281301923
547.0, 0.03686483381653519
548.0, 0.04525176431545065
549.0, 0.05128373722664084
550.0, 0.054070591954031674
551.0, 0.0562046960737638
552.0, 0.06228401802835705
553.0, 0.06631478336269583
554.0, 0.07281318522903789
555.0, 0.08110179450634293
556.0, 0.08994179037551993
557.0, 0.09596060123884656
558.0, 0.10097984281255643
559.0, 0.10497123796770891
560.0, 0.10816574313701299
561.0, 0.12251160446240225
562.0, 0.12914380203146741
563.0, 0.13450804745050715
564.0, 0.14326031210014603
565.0, 0.15415918526039166
566.0, 0.15735250224197098
567.0, 0.16346542155553812
568.0, 0.17653379786147144
569.0, 0.18421854893403972
570.0, 0.1871182914158046
571.0, 0.1886333107631276
572.0, 0.19128131743211035
573.0, 0.20093437612560636
574.0, 0.20296554421202706
575.0, 0.20304904283473388
576.0, 0.20180632185009928
577.0, 0.1966096875793855
578.0, 0.2002231713198658
579.0, 0.2010536744847272
580.0, 0.19846966018454834
581.0, 0.19508053583991852
582.0, 0.19689463007352723
583.0, 0.19541225928627579
584.0, 0.19188800881020698
585.0, 0.1892013170004868
586.0, 0.18526521148464803
587.0, 0.17983399404065517
588.0, 0.17315154949810324
589.0, 0.1654221497565673
590.0, 0.15416156246701093
591.0, 0.14664584426217758
592.0, 0.1405115858996567
593.0, 0.13460703527745405
594.0, 0.13354106506892166
595.0, 0.13051156497922098
596.0, 0.1251404274208561
597.0, 0.11815688596727823
598.0, 0.11434441500818641
599.0, 0.11129243085427884
600.0, 0.10629323401026296
601.0, 0.10033304565700939
602.0, 0.09881122523760091
603.0, 0.09525633217328876
604.0, 0.09320612879759126
605.0, 0.09164257164527698
606.0, 0.08753372235459024
607.0, 0.08409309950631819
608.0, 0.08426851135491491
609.0, 0.08506547267558302
610.0, 0.08261480301546166
611.0, 0.08173857342004752
612.0, 0.08093965642753459
613.0, 0.08297613286256363
614.0, 0.08947428456002673
615.0, 0.09419649651686154
616.0, 0.10028734938791165
617.0, 0.10610820642705442
618.0, 0.11134099798559226
619.0, 0.11861114997884699
620.0, 0.12111918883187163
621.0, 0.1292204305569071
622.0, 0.14256781620985304
623.0, 0.15138585065874421
624.0, 0.16132085672523103
625.0, 0.163111019303027
626.0, 0.16318162724469112
627.0, 0.17494849560302173
628.0, 0.1642793159748739
629.0, 0.16017006292903496
630.0, 0.16131758647851177
631.0, 0.1643793877447605
632.0, 0.15463430331636616
633.0, 0.1550136192612484
634.0, 0.156460395398077
635.0, 0.1544845011408123
636.0, 0.1580675859992484
637.0, 0.15546852458933771
638.0, 0.1560433812567398
639.0, 0.16093204323023153
640.0, 0.16256968947835768
641.0, 0.16598199930805702
642.0, 0.16810311843254383
643.0, 0.1692264904416214
644.0, 0.1709557808333864
645.0, 0.17083296018856947
646.0, 0.16711746436786326
647.0, 0.1631133346399446
648.0, 0.16213402848851372
649.0, 0.15181931778533886
650.0, 0.1462123846015009
651.0, 0.14370195392453036
652.0, 0.1418871417046946
653.0, 0.13111846951270542
654.0, 0.12606257719106367
655.0, 0.11861134711370493
656.0, 0.10828203109766445
657.0, 0.10188462519482626
658.0, 0.09340064516567113
659.0, 0.08700487501798293
660.0, 0.0809435987904615
661.0, 0.07136010136253254
662.0, 0.06808606880989763
663.0, 0.06856759132479108
664.0, 0.06596930879243491
665.0, 0.055669941436068994
666.0, 0.05751817254498688
667.0, 0.05408921420603344
668.0, 0.051837606475928846
669.0, 0.05227602673575676
670.0, 0.04821227566674908
671.0, 0.04511410236781066
672.0, 0.04501608356544719
673.0, 0.045443583440660656
674.0, 0.040007860643879865
675.0, 0.03910610169272351
676.0, 0.0383792735662993
677.0, 0.03798685362200125
678.0, 0.038200716193097915
679.0, 0.03193874820672016
680.0, 0.029016332009004036
681.0, 0.028018600265875368
682.0, 0.02832774022606918
683.0, 0.03136824599951389
684.0, 0.026932979977133332
685.0, 0.023817210845430436
686.0, 0.02257111936149135
687.0, 0.018644002547604694
688.0, 0.0194579510316322
689.0, 0.0188204642167943
690.0, 0.017442519698261025
691.0, 0.016871323897940216
692.0, 0.016410539451052225
693.0, 0.017202781854680976
694.0, 0.01583902871855102
695.0, 0.011958004278156426
696.0, 0.015790065061014887
697.0, 0.011748402662951525
698.0, 0.011712244666399307
699.0, 0.015126650913907467
700.0, 0.01273584666580126
701.0, 0.007885141375323158
702.0, 0.004135132744642421
703.0, 0.0029406808530782697
704.0, 0.005509034192318936
705.0, 0.012101736723470879
706.0, 0.008584927621732236
707.0, 0.003318570615843175
708.0, 0.001678974453986383
709.0, 0.007378813246231781
710.0, 0.0035408602432754925
711.0, 0.00420400033767116
712.0, 0.006994747439145944
713.0, 0.0004596154690246629
714.0, 0.002740637727938553
715.0, 0.002380832513895899
716.0, 0.0012549773694236095
717.0, 0.0018533608058372499
718.0, 0.0056525503171823924
719.0, 0.00558735410221707
720.0, 0.004083660149130979
721.0, 0.002707521376674311
722.0, 0.0033290875476463962
723.0, 0.0032967313944289554
724.0, 0.003235756417955848
725.0, 0.00401125284560884
726.0, 0.006714482064204386
727.0, 0.0036443584738667825
728.0, 0.00537090553034623
729.0, 0.0071184601582580335
730.0, 0.005934550413931051
731.0, 0.004546498701459326
732.0, 0.004231129413506546
733.0, 0.0028041630690546823
734.0, 0.0006688423713402862
735.0, 0.00015199060811529013
736.0, 0.0021532943917637213
737.0, 0.003391752413706631
738.0, 0.003265054477757339
739.0, 0.0017331962085374163
740.0, 0.0026772291229653004
741.0, 0.002547884392880638
742.0, 0.0018338782123610074
743.0, 0.0009574365809700044
744.0, 0.0006320284800912975
745.0, 0.0013990342757201329
746.0, 0.0036305869142070615
747.0, 0.004440002138020489
748.0, 0.0002564374130791092
749.0, 0.001213708093335894
750.0, 0.0024797745668453464
751.0, 0.0029683530292094655
752.0, 0.0023032853822921033
753.0, 0.0015874054461894218
754.0, 0.002767164694116611
755.0, 0.003760847567061935
756.0, 0.0033988840513337294
757.0, 0.0004999190089903871
758.0, 0.003102177147397378
759.0, 0.003583217803309697
760.0, 0.0032340001944462485
761.0, 0.0029374964046233183
762.0, 0.0017059223814267321
763.0, 0.0005452013528599628
764.0, 0.0019196892370619777
765.0, 0.005156092213708521
766.0, 0.007571129439685969
767.0, 0.002330635408132233
768.0, 0.0012663414499891766
769.0, 0.0013681943379369897
770.0, 0.00012669916434533874
771.0, 0.0008195628341731091
772.0, 0.0014539440654543938
773.0, 0.0014020586944186281
774.0, 0.0010027079288878699
775.0, 0.0014521130595190473
776.0, 0.0032248628838364313
777.0, 0.0019897236826097193
778.0, 0.000372864656362533
779.0, 0.0007215165850346806
780.0, 0.0010998137596763872
781.0, 0.003261157466427353
782.0, 0.0041363083262900705
783.0, 0.0029821961197466712
784.0, 0.0004112760533516947
785.0, 0.0011246125761821951
786.0, 0.0030532425455939978
787.0, 0.004797352935253154
788.0, 0.005175122855745593
789.0, 0.0037302362762569484
790.0, 0.0021436972932977103
791.0, 0.0008851422830489982
792.0, 0.0003091875076095135
793.0, 0.0008646948942176674
794.0, 0.0012876117808032204
795.0, 0.0019042659093839835
796.0, 0.00255816083878122
797.0, 0.0028695483492912066
798.0, 0.0009988413143646889
799.0, 0.0011229904052953872
800.0, 0.0008334410611168552
801.0, 0.0005407583510931726
802.0, 0.002500585243403802
803.0, 0.004647763412863513
804.0, 0.004523592530445077
805.0, 0.002829010643066913
806.0, 0.0007474848545308726
807.0, 0.0014804384050553007
808.0, 0.0018914015741004777
809.0, 0.0013135347491319152
810.0, 0.0008821124576641182
811.0, 0.0028062498669433815
812.0, 0.0021074893915234726
813.0, 0.0029054680131363232
814.0, 0.0038812056172721344
815.0, 0.00397780916412653
816.0, 0.0023786105514127113
817.0, 0.0017450655242882516
818.0, 0.003627175095011075
819.0, 0.005224714597507782
820.0, 0.0025392397714886477
821.0, 0.004232356749169932
822.0, 0.007779404945774421
823.0, 0.00840121733197007
824.0, 0.005696477132584199
825.0, 0.006160021858457127
826.0, 0.01164013925809644
827.0, 0.012254918932942144
828.0, 0.011772009932575815
829.0, 0.014866422134147158
830.0, 0.014423747135265404
831.0, 0.012140651523165813
832.0, 0.011440025744740227
833.0, 0.01264878210743707
834.0, 0.013715434663734535
835.0, 0.0132684260681375
836.0, 0.013971370361515812
837.0, 0.015162931200314282
838.0, 0.0160845555381554
839.0, 0.015988878755476534
840.0, 0.018160456110233772
841.0, 0.019689584027691363
842.0, 0.020389645954641235
843.0, 0.021073801892746647
844.0, 0.026538958921293005
845.0, 0.025660678822474893
846.0, 0.022801531071077005
847.0, 0.021129692791033803
848.0, 0.02340683961384844
849.0, 0.026683776943277834
850.0, 0.029670091089708476
851.0, 0.03062076433435998
852.0, 0.028356644181486843
853.0, 0.026071260804347116
854.0, 0.032530136836983116
855.0, 0.039945051618726385
856.0, 0.04472865776056649
857.0, 0.04471343927720317
858.0, 0.04756166145624973
859.0, 0.05074701519451145
860.0, 0.0533871464473518
861.0, 0.054601110276008655
862.0, 0.052903398730703315
863.0, 0.047393112020930814
864.0, 0.04411173610909568
865.0, 0.04149458440986918
866.0, 0.03666490530272021
867.0, 0.02807645421511379
868.0, 0.026971997800871693
869.0, 0.02313166442279186
870.0, 0.018995874514872783
871.0, 0.02644971733096259
872.0, 0.02240836154047384
873.0, 0.019776042493727972
874.0, 0.019130420334194743
875.0, 0.01945316386183313
876.0, 0.016081766456956935
877.0, 0.019455768463904292
878.0, 0.020747976710372554
879.0, 0.02001335111279951
880.0, 0.01881030440624613
881.0, 0.017730947782721482
882.0, 0.01837468448948051
883.0, 0.016565168424715775
884.0, 0.014337144403528165
885.0, 0.01773621345521765
886.0, 0.015922559777573765
887.0, 0.018063167383032576
888.0, 0.018263082545671758
889.0, 0.015949972204848662
890.0, 0.020558208719741358
891.0, 0.019924910890137947
892.0, 0.02042028536771085
893.0, 0.020686551921987872
894.0, 0.019448473940929037
895.0, 0.02062074955082235
896.0, 0.0216341542842808
897.0, 0.0215961895303527
898.0, 0.022156639678177912
899.0, 0.025576577991522697
900.0, 0.02261218886369117
901.0, 0.02246957691814269
902.0, 0.02472231353072625
903.0, 0.02726958540422732
904.0, 0.02572758850822034
905.0, 0.02683379225517425
906.0, 0.027248789033117275
907.0, 0.027023238528829912
908.0, 0.02593759184245427
909.0, 0.022513871769663216
910.0, 0.025995213126409015
911.0, 0.02996543608712111
912.0, 0.03098697535491674
913.0, 0.02812436928630909
914.0, 0.033593012945899114
915.0, 0.027254445482739396
916.0, 0.021370275605602906
917.0, 0.022231796263505115
918.0, 0.03301682265018218
919.0, 0.026405333732427236
920.0, 0.028055366028774214
921.0, 0.028180386269555234
922.0, 0.026195000377222992
923.0, 0.029556118380187797
924.0, 0.02712982527477797
925.0, 0.028912863659371103
926.0, 0.02916178886561212
927.0, 0.027967275820439622
928.0, 0.037827687507363365
929.0, 0.03549349487951376
930.0, 0.03510568266313059
931.0, 0.03435971271424943
932.0, 0.03171711341360017
933.0, 0.03551984269027509
934.0, 0.040327969297755034
935.0, 0.03989367132643714
936.0, 0.0385225796363329
937.0, 0.04146273980011639
938.0, 0.038369797598123326
939.0, 0.03695821061399586
940.0, 0.03725476583970859
941.0, 0.03833153541650637
942.0, 0.03865670484156507
943.0, 0.03656365246035336
944.0, 0.040948915104234054
945.0, 0.04423938987562595
946.0, 0.04442953960788614
947.0, 0.04386196656864347
948.0, 0.044439457692081866
949.0, 0.04939800428981078
950.0, 0.05239218003821955
951.0, 0.051641027255660873
952.0, 0.05199774570903858
953.0, 0.047725865001706995
954.0, 0.05112397126916961
955.0, 0.05491902236848049
956.0, 0.054057963037709725
957.0, 0.05102814088628694
958.0, 0.05433406805085084
959.0, 0.05276890249988405
960.0, 0.050262604038235285
961.0, 0.05038093881528562
962.0, 0.04760618135530588
963.0, 0.05124232677161344
964.0, 0.051284999285329966
965.0, 0.051315870783909354
966.0, 0.055558579313231014
967.0, 0.0530745816671477
968.0, 0.05427860669158705
969.0, 0.05561238660154655
970.0, 0.05470715748013918
971.0, 0.050768886143079374
972.0, 0.056345161112143924
973.0, 0.056936639755724425
974.0, 0.061946313260235406
975.0, 0.06630267591211332
976.0, 0.05938644365582996
977.0, 0.06208886211687343
978.0, 0.06911443885340585
979.0, 0.07434608653273407
980.0, 0.07782055572491453
981.0, 0.08363888360485851
982.0, 0.09675888865096995
983.0, 0.09636358113475442
984.0, 0.10246839216175335
985.0, 0.11743420274393486
986.0, 0.12845297047451543
987.0, 0.12698048628305847
988.0, 0.14270018363503667
989.0, 0.15409876209629192
990.0, 0.15748073182302888
991.0, 0.16901152135895955
992.0, 0.17830936197046865
993.0, 0.187690480808945
994.0, 0.20094149840333533
995.0, 0.2174542875764409
996.0, 0.23056414511044943
997.0, 0.25138255110315466
998.0, 0.2668828062698078
999.0, 0.29339793556189253
1000.0, 0.33072126068324276
1001.0, 0.35061431134508
1002.0, 0.3763052024104747
1003.0, 0.38947544111524157
1004.0, 0.3953831846846902
1005.0, 0.40189324869003035
1006.0, 0.41995853614914425
1007.0, 0.43672151873314236
1008.0, 0.46236035080500154
1009.0, 0.4920029289309004
1010.0, 0.5228783447641262
1011.0, 0.5584094205606003
1012.0, 0.6046288294546012
1013.0, 0.6514188947436304
1014.0, 0.695275754926481
1015.0, 0.7381063467801107
1016.0, 0.7922011554445821
1017.0, 0.8452031981094579
1018.0, 0.8899587494937303
1019.0, 0.9310519803386142
1020.0, 0.9697680653009071
1021.0, 0.9982887584132604
1022.0, 0.9898514985750115
1023.0, 0.9813889893063739
1024.0, 0.9551839219459054
1025.0, 0.9069327615665596
1026.0, 0.8656660471372711
1027.0, 0.7979208975286297
1028.0, 0.7377287145950192
1029.0, 0.6767450133684505
1030.0, 0.6107285467828724
1031.0, 0.5483341502131794
1032.0, 0.5016441719055885
1033.0, 0.46536474606806516
1034.0, 0.43133461024507047
1035.0, 0.39745078891748326
1036.0, 0.37241949571218913
1037.0, 0.35808720298552493
1038.0, 0.3458316608126052
1039.0, 0.3376288982980906
1040.0, 0.3316268173175218
1041.0, 0.31959359234793266
1042.0, 0.3224446669147169
1043.0, 0.32636940344269466
1044.0, 0.32408201886077037
1045.0, 0.31785638410780853
1046.0, 0.32165309155725186
1047.0, 0.31883386963989324
1048.0, 0.32201081831966744
1049.0, 0.3194224345443193
1050.0, 0.3116177241943181
1051.0, 0.31186972473290786
1052.0, 0.2988459043429668
1053.0, 0.2826288591640341
1054.0, 0.2649238143086776
1055.0, 0.247764550100834
1056.0, 0.23294705230807217
1057.0, 0.2070031756828733
1058.0, 0.185056643770808
1059.0, 0.16904924469193275
1060.0, 0.155683955995205
1061.0, 0.13904064748259784
1062.0, 0.12567748555823255
1063.0, 0.11481574175317084
1064.0, 0.1048948928288175
1065.0, 0.09506076043200376
1066.0, 0.08557985840319644
1067.0, 0.08445584497632945
1068.0, 0.07375945684177694
1069.0, 0.06634692351079641
1070.0, 0.0638622075275153
1071.0, 0.06275718152657586
1072.0, 0.05164825344475507
1073.0, 0.048214247973534186
1074.0, 0.049537119590313594
1075.0, 0.04800173384679738
1076.0, 0.03932717476721835
1077.0, 0.03522531637681558
1078.0, 0.04282813914714273
1079.0, 0.040955796796284465
1080.0, 0.037945797251787816
1081.0, 0.04004429715843922
1082.0, 0.03856868563237265
1083.0, 0.04296432276878973
1084.0, 0.041785653596303846
1085.0, 0.03923033549035589
1086.0, 0.037792230896372556
1087.0, 0.03551974045697049
1088.0, 0.03256783984860384
1089.0, 0.02793257466190439
1090.0, 0.025284129687524724
1091.0, 0.02431929432624862
1092.0, 0.02098976004171069
1093.0, 0.0182434447785714
1094.0, 0.018096718708909363
1095.0, 0.016138953297485978
1096.0, 0.014588414782133328
1097.0, 0.01839167505236584
1098.0, 0.020014809489347547
1099.0, 0.019558657916155995
1100.0, 0.017388605982679238
1101.0, 0.016656870457397725
1102.0, 0.019231046514570596
1103.0, 0.01560334461941577
1104.0, 0.020824811471927464
1105.0, 0.0195830817183204
1106.0, 0.0196833376135414
1107.0, 0.025561883242597026
1108.0, 0.02121543877863241
1109.0, 0.030375287747506436
1110.0, 0.031210870920267086
1111.0, 0.029215627725823784
1112.0, 0.028362085949874206
1113.0, 0.027046689312622507
1114.0, 0.0342242873165672
1115.0, 0.03313162272438524
1116.0, 0.03195060446120859
1117.0, 0.034165650983408624
1118.0, 0.038310439521093795
1119.0, 0.0310603555187332
1120.0, 0.036421055888234403
1121.0, 0.04344852570970062
1122.0, 0.04973672510202474
1123.0, 0.05541361111661304
1124.0, 0.05499446966652872
1125.0, 0.053348020454609575
1126.0, 0.05478324018077657
1127.0, 0.055242201503064
1128.0, 0.05376592293507962
1129.0, 0.06145851595636455
1130.0, 0.06920317673006339
1131.0, 0.07271651567812351
1132.0, 0.07433345005821025
1133.0, 0.07738024331800111
1134.0, 0.08544198744379383
1135.0, 0.0968139305447476
1136.0, 0.0976701118052381
1137.0, 0.10729930851209359
1138.0, 0.12139340701340197
1139.0, 0.12537485331235743
1140.0, 0.1383878613228009
1141.0, 0.14943354928615527
1142.0, 0.15956766577650827
1143.0, 0.17232793262529403
1144.0, 0.1889876855324858
1145.0, 0.201798988291033
1146.0, 0.2119298733296621
1147.0, 0.22569509489356568
1148.0, 0.23813748380478655
1149.0, 0.2475475739354411
1150.0, 0.2580404260094133
1151.0, 0.2635536456961592
1152.0, 0.27485194340899827
1153.0, 0.27769528522875225
1154.0, 0.2760971914520399
1155.0, 0.28126999461115604
1156.0, 0.2702675359905704
1157.0, 0.26308877950686643
1158.0, 0.2563807757229917
1159.0, 0.24796258339248162
1160.0, 0.23680450408649695
1161.0, 0.224079193233385
1162.0, 0.20349098592507048
1163.0, 0.18911497458927148
1164.0, 0.1750252225532216
1165.0, 0.1588992304411827
1166.0, 0.14417773006443652
1167.0, 0.13399029069770996
1168.0, 0.11895257732877129
1169.0, 0.10565446112616313
1170.0, 0.09497255515207954
1171.0, 0.08505070885321439
1172.0, 0.07408206600055818
1173.0, 0.06744147909985562
1174.0, 0.06288554101663345
1175.0, 0.05947389164003985
1176.0, 0.05401596408423677
1177.0, 0.039530755646458575
1178.0, 0.03771674246393682
1179.0, 0.03592515358983982
1180.0, 0.03116454760140732
1181.0, 0.026430018607291758
1182.0, 0.026884191151726165
1183.0, 0.023577731632590162
1184.0, 0.018009020543794073
1185.0, 0.015451546212920799
1186.0, 0.015056552082070625
1187.0, 0.014323351094080523
1188.0, 0.0106133337527105
1189.0, 0.009004017204381006
1190.0, 0.009077822131235947
1191.0, 0.008217248475366484
1192.0, 0.005905355230903658
1193.0, 0.003492883037231136
1194.0, 0.0012321525312735957
1195.0, 0.00037757850761951613
1196.0, 0.0005914613836972647
1197.0, 0.0021620563599766295
1198.0, 0.0039006381756249682
1199.0, 0.00026924999884499375
1200.0, 0.00011738457324502233
1201.0, 0.0027922331367890144
1202.0, 0.004544440124490504
1203.0, 0.003580991388884039
1204.0, 0.0006679100260982107
1205.0, 0.0012566557316291607
1206.0, 0.0007615318528557081
1207.0, 0.005126318219802185
1208.0, 0.008592383698481693
1209.0, 0.006464665013413628
1210.0, 0.006480276597936552
1211.0, 0.0028601723081864224
1212.0, 0.004330045424375687
1213.0, 0.005861834352272162
1214.0, 0.004436600173985869
1215.0, 0.000463849270481918
1216.0, 0.001625650976992642
1217.0, 0.0008920898711098719
1218.0, 0.0009747256154647396
1219.0, 0.0017596323065865215
1220.0, 0.002449760286294496
1221.0, 0.0025077554571565986
1222.0, 0.005469135332050583
1223.0, 0.006116445679775594
1224.0, 0.006674884251924524
1225.0, 0.0071112987754388506
1226.0, 0.006152478695567603
1227.0, 0.006790571157716821
1228.0, 0.005261873402735902
1229.0, 0.0026976563548906612
1230.0, 0.0018767229050749797
1231.0, 0.003206986165540701
1232.0, 0.002723704597753533
1233.0, 0.005437645230241186
1234.0, 0.004255194495558168
1235.0, 0.0035010612961712457
1236.0, 0.00533184947076446
1237.0, 0.009095876517675206
1238.0, 0.00803536182003426
1239.0, 0.00863298404372574
1240.0, 0.009392479977220338
1241.0, 0.008651450670499397
1242.0, 0.006619790295278715
1243.0, 0.005340935454449054
1244.0, 0.002857423586238724
1245.0, 0.006342846684583004
1246.0, 0.007524229775849454
1247.0, 0.0066680291947763
1248.0, 0.0068364156954431625
1249.0, 0.010942182028403576
1250.0, 0.005992419150510058
1251.0, 0.008963670163881969
1252.0, 0.011029860237983134
1253.0, 0.009238774445090952
1254.0, 0.006062483655729963
1255.0, 0.007103118327223875
1256.0, 0.0029079437394199078
1257.0, 0.005927431145108559
1258.0, 0.008803508850339346
1259.0, 0.007698141439062431
1260.0, 0.007115423923107237
1261.0, 0.009569659107102071
1262.0, 0.008989004835925666
1263.0, 0.009276414657650426
1264.0, 0.009804425127878888
1265.0, 0.009871878031158784
1266.0, 0.012172957582118605
1267.0, 0.015101186645013817
1268.0, 0.019182350173976938
1269.0, 0.01775545409545035
1270.0, 0.01639437863522175
1271.0, 0.023638917805357422
1272.0, 0.026944071628015345
1273.0, 0.025096440053435518
1274.0, 0.01928645504133719
1275.0, 0.016738462445977285
1276.0, 0.017791902335339352
1277.0, 0.016220259439331308
1278.0, 0.020272163088343356
1279.0, 0.01574666091091675
1280.0, 0.017117009269737273
1281.0, 0.018859069932669146
1282.0, 0.015594160581051422
1283.0, 0.010693833022286244
1284.0, 0.009935210819945714
1285.0, 0.010914477956117748
1286.0, 0.010869315195341936
1287.0, 0.011299640405837565
1288.0, 0.012460216908389367
1289.0, 0.006715695900516586
1290.0, 0.0125795613531046
1291.0, 0.012439980311005582
1292.0, 0.011512792392771865
1293.0, 0.013567228926756604
1294.0, 0.01843188282807237
1295.0, 0.016837628084723846
1296.0, 0.017475884990836427
1297.0, 0.017266891110350457
1298.0, 0.01569088637223581
1299.0, 0.01467212477853698
1300.0, 0.016495171354882085
1301.0, 0.012636817057596741
1302.0, 0.014756972596799927
1303.0, 0.015715096982403174
1304.0, 0.014432755637942066
1305.0, 0.013234346596588046
1306.0, 0.01636731957796354
1307.0, 0.018783926492129968
1308.0, 0.017594302991175627
1309.0, 0.022272068995318375
1310.0, 0.025584661617010267
1311.0, 0.024369035883815195
1312.0, 0.0288017673434237
1313.0, 0.025184045884122173
1314.0, 0.026652978270288664
1315.0, 0.026210882960556608
1316.0, 0.026212704968285493
1317.0, 0.028323615231739548
1318.0, 0.02563011907681892
1319.0, 0.030745701867783807
1320.0, 0.029381331144390725
1321.0, 0.02673745545298306
1322.0, 0.025623992194810225
1323.0, 0.025411131992598972
1324.0, 0.020215913359390627
1325.0, 0.025025881710195833
1326.0, 0.02444952141278523
1327.0, 0.018124734223100687
1328.0, 0.01283267361560047
1329.0, 0.013390138852893462
1330.0, 0.007141093337841893
1331.0, 0.005022649927741337
1332.0, 0.0022053305468685857
1333.0, 0.0014795384377203234
1334.0, 0.002076060351839309
1335.0, 0.0014987531796745667
1336.0, 0.000543427381761113
1337.0, 0.0008434090619729226
1338.0, 0.0006260099382395702
1339.0, 0.0029345979649439565
1340.0, 0.004608867009313231
1341.0, 0.0013071870482465348
1342.0, 0.0028621211498698175
1343.0, 0.0026818761957705228
1344.0, 0.0015275093846380675
1345.0, 0.0011994205360440207
1346.0, 0.0014325998481889703
1347.0, 0.0008263634499299211
1348.0, 0.00035016622959747873
1349.0, 0.0002703204458709766
1350.0, 0.002631501172074508
1351.0, 0.0032821364908213967
1352.0, 0.003382074343199261
1353.0, 0.006643964163365793
1354.0, 0.0074968188857828634
1355.0, 0.0023555331402818278
1356.0, 0.0009387719242353187
1357.0, 0.003603969970356316
1358.0, 0.005629980242393827
1359.0, 0.00257191939626498
1360.0, 0.004034167223422713
1361.0, 0.002572473821126386
1362.0, 0.00234702519013486
1363.0, 0.0024169121785617056
1364.0, 0.0029379777124324147
1365.0, 0.004944196279419124
1366.0, 0.008432836884752683
1367.0, 0.005433585228225378
1368.0, 0.005834806492724882
1369.0, 0.005206330115334145
1370.0, 0.005481436347464893
1371.0, 0.009561320928193208
1372.0, 0.006017948878526351
1373.0, 0.006503497038127371
1374.0, 0.0084519643741055
1375.0, 0.00957145842357721
1376.0, 0.00879294560956487
1377.0, 0.007503991148747416
1378.0, 0.01163585801942746
1379.0, 0.014475189885139558
1380.0, 0.013082207172528768
1381.0, 0.010597594130111535
1382.0, 0.011004058939003395
1383.0, 0.015076422808428814
1384.0, 0.0157796195374919
1385.0, 0.013915855186395739
1386.0, 0.010911024922749117
1387.0, 0.0118931478924664
1388.0, 0.01408189742889139
1389.0, 0.014360572921763163
1390.0, 0.015583294119339768
1391.0, 0.009075377923166551
1392.0, 0.010245647741727724
1393.0, 0.01194835126429799
1394.0, 0.010181867606678033
1395.0, 0.007073427583116281
1396.0, 0.010546894169013646
1397.0, 0.007053031743974555
1398.0, 0.0066584946555213395
1399.0, 0.004181243374128038
1400.0, 0.0029288047218364918
1401.0, 0.004391700100759501
1402.0, 0.00592775671196274
1403.0, 0.010235642423843165
1404.0, 0.010545267312839548
1405.0, 0.008441641041323977
1406.0, 0.006282896361434623
1407.0, 0.005365386745528298
1408.0, 0.0056707737430095086
1409.0, 0.0068857442641566124
1410.0, 0.0039290667813311805
1411.0, 0.006181121990755279
1412.0, 0.004476109104754497
1413.0, 0.0020950340790972946
1414.0, 0.0053846100876070255
1415.0, 0.0019945996279319956
1416.0, 0.002266691020653021
1417.0, 0.006571058458006691
1418.0, 0.008221323229564972
1419.0, 0.005199835667390767
1420.0, 0.0008117444405715221
1421.0, 0.0027592068075337753
1422.0, 0.0037027629208011923
1423.0, 0.0027307843004970777
1424.0, 0.0031749308580626716
1425.0, 0.002757462597356131
1426.0, 0.0007199813939404763
1427.0, 1.8360692978643022e-05
1428.0, 1.7296304979887402e-06
1429, 0.0
1430, 0.0
1431, 0.0
1432, 0.0
1433, 0.0
1434, 0.0
1435, 0.0
1436, 0.0
1437, 0.0
1438, 0.0
1439, 0.0
1440, 0.0
1441, 0.0
1442, 0.0
1443, 0.0
1444, 0.0
1445, 0.0
1446, 0.0
1447, 0.0
1448, 0.0
1449, 0.0
1450, 0.0
1451, 0.0
1452, 0.0
1453, 0.0
1454, 0.0
1455, 0.0
1456, 0.0
1457, 0.0
1458, 0.0
1459, 0.0
1460, 0.0
1461, 0.0
1462, 0.0
1463, 0.0
1464, 0.0
1465, 0.0
1466, 0.0
1467, 0.0
1468, 0.0
1469, 0.0
1470, 0.0
1471, 0.0
1472, 0.0
1473, 0.0
1474, 0.0
1475, 0.0
1476, 0.0
1477, 0.0
1478, 0.0
1479, 0.0
1480, 0.0
1481, 0.0
1482, 0.0
1483, 0.0
1484, 0.0
1485, 0.0
1486, 0.0
1487, 0.0
1488, 0.0
1489, 0.0
1490, 0.0
1491, 0.0
1492, 0.0
1493, 0.0
1494, 0.0
1495, 0.0
1496, 0.0
1497, 0.0
1498, 0.0
1499, 0.0
1500, 0.0
1501, 0.0
1502, 0.0
1503, 0.0
1504, 0.0
1505, 0.0
1506, 0.0
1507, 0.0
1508, 0.0
1509, 0.0
1510, 0.0
1511, 0.0
1512, 0.0
1513, 0.0
1514, 0.0
1515, 0.0
1516, 0.0
1517, 0.0
1518, 0.0
1519, 0.0
1520, 0.0
1521, 0.0
1522, 0.0
1523, 0.0
1524, 0.0
1525, 0.0
1526, 0.0
1527, 0.0
1528, 0.0
1529, 0.0
1530, 0.0
1531, 0.0
1532, 0.0
1533, 0.0
1534, 0.0
1535, 0.0
1536, 0.0
1537, 0.0
1538, 0.0
1539, 0.0
1540, 0.0
1541, 0.0
1542, 0.0
1543, 0.0
1544, 0.0
1545, 0.0
1546, 0.0
1547, 0.0
1548, 0.0
1549, 0.0
1550, 0.0
1551, 0.0
1552, 0.0
1553, 0.0
1554, 0.0
1555, 0.0
1556, 0.0
1557, 0.0
1558, 0.0
1559, 0.0
1560, 0.0
1561, 0.0
1562, 0.0
1563, 0.0
1564, 0.0
1565, 0.0
1566, 0.0
1567, 0.0
1568, 0.0
1569, 0.0
1570, 0.0
1571, 0.0
1572, 0.0
1573, 0.0
1574, 0.0
1575, 0.0
1576, 0.0
1577, 0.0
1578, 0.0
1579, 0.0
1580, 0.0
1581, 0.0
1582, 0.0
1583, 0.0
1584, 0.0
1585, 0.0
1586, 0.0
1587, 0.0
1588, 0.0
1589, 0.0
1590, 0.0
1591, 0.0
1592, 0.0
1593, 0.0
1594, 0.0
1595, 0.0
1596, 0.0
1597, 0.0
1598, 0.0
1599, 0.0
