30, 0.0
31, 0.0
32, 0.0
33, 0.0
34, 0.0
35, 0.0
36, 0.0
37, 0.0
38, 0.0
39, 0.0
40, 0.0
41, 0.0
42, 0.0
43, 0.0
44, 0.0
45, 0.0
46, 0.0
47, 0.0
48, 0.0
49, 0.0
50, 0.0
51, 0.0
52, 0.0
53, 0.0
54, 0.0
55, 0.0
56, 0.0
57, 0.0
58, 0.0
59, 0.0
60, 0.0
61, 0.0
62, 0.0
63, 0.0
64, 0.0
65, 0.0
66, 0.0
67, 0.0
68, 0.0
69, 0.0
70, 0.0
71, 0.0
72, 0.0
73, 0.0
74, 0.0
75, 0.0
76, 0.0
77, 0.0
78, 0.0
79, 0.0
80, 0.0
81, 0.0
82, 0.0
83, 0.0
84, 0.0
85, 0.0
86, 0.0
87, 0.0
88, 0.0
89, 0.0
90, 0.0
91, 0.0
92, 0.0
93, 0.0
94, 0.0
95, 0.0
96, 0.0
97, 0.0
98, 0.0
99, 0.0
100, 0.0
101, 0.0
102, 0.0
103, 0.0
104, 0.0
105, 0.0
106, 0.0
107, 0.0
108, 0.0
109, 0.0
110, 0.0
111, 0.0
112, 0.0
113, 0.0
114, 0.0
115, 0.0
116, 0.0
117, 0.0
118, 0.0
119, 0.0
120, 0.0
121, 0.0
122, 0.0
123, 0.0
124.0, 0.0012234126552863726
125.0, 0.0014046419665386049
126.0, 0.0006062643373077976
127.0, 0.0026370532506060636
128.0, 0.009452927129114367
129.0, 0.021451482938150423
130.0, 0.03662701342182682
131.0, 0.05077691340697192
132.0, 0.06796756870178468
133.0, 0.08708835009261764
134.0, 0.10401203170270765
135.0, 0.12847502710184464
136.0, 0.14981873402529292
137.0, 0.16927791957278648
138.0, 0.19033350333571328
139.0, 0.20088732480991545
140.0, 0.21583813803661162
141.0, 0.23129417822042844
142.0, 0.24284204487328848
143.0, 0.2581024351063952
144.0, 0.2722647064293027
145.0, 0.28752970604834843
146.0, 0.3038870421207543
147.0, 0.3173873916820422
148.0, 0.3254554001601525
149.0, 0.33022162113480247
150.0, 0.33423225356004654
151.0, 0.33792779060996564
152.0, 0.3286817607918707
153.0, 0.3201958150814726
154.0, 0.3087355167702336
155.0, 0.28682619817453897
156.0, 0.2631404088838425
157.0, 0.23084171502384312
158.0, 0.19662575239547245
159.0, 0.16478098902642124
160.0, 0.13254086657481925
161.0, 0.10435210806387354
162.0, 0.08492909466391034
163.0, 0.07192329436950093
164.0, 0.06251240536166186
165.0, 0.05744587268148569
166.0, 0.05653825952828877
167.0, 0.05546886655788242
168.0, 0.05305873738624597
169.0, 0.05571473815701898
170.0, 0.05637732927414172
171.0, 0.05677204666328781
172.0, 0.059788768405868935
173.0, 0.06471439371870014
174.0, 0.0677070585282072
175.0, 0.06670366810699865
176.0, 0.06716876900280744
177.0, 0.07384543179720925
178.0, 0.07709901691217044
179.0, 0.0796091140557003
180.0, 0.08461324128092942
181.0, 0.09136709341535879
182.0, 0.09157237910973552
183.0, 0.08974534507717187
184.0, 0.09309319436448188
185.0, 0.09971060491225463
186.0, 0.097879177448906
187.0, 0.09673781788127432
188.0, 0.09722194908510977
189.0, 0.09470872473651544
190.0, 0.08345463124871805
191.0, 0.07609979215883005
192.0, 0.06743472037884725
193.0, 0.05635108388016312
194.0, 0.04447970174077564
195.0, 0.03236360687937041
196.0, 0.019196807721788917
197.0, 0.007702733512004555
198.0, 0.0010426873455109354
199.0, 0.0038503560134696886
200.0, 0.00962161002250876
201.0, 0.007507464947452087
202.0, 0.0036180131261911814
203.0, 0.005367098080318756
204.0, 0.0008336744866023264
205.0, 0.007265180467250791
206.0, 0.013548484108436969
207.0, 0.022322196229394946
208.0, 0.036064306033717
209.0, 0.03990316888208033
210.0, 0.04725880731283256
211.0, 0.05640721367426552
212.0, 0.060507556381136404
213.0, 0.07040561178979991
214.0, 0.07495480566144617
215.0, 0.07762635082170712
216.0, 0.08032107216475262
217.0, 0.07924648774839657
218.0, 0.08091604821569655
219.0, 0.07959704145708106
220.0, 0.07482293060372737
221.0, 0.07005978021353074
222.0, 0.06919675268136305
223.0, 0.06677782843573213
224.0, 0.06066914837938628
225.0, 0.053571206425672036
226.0, 0.05149082129547452
227.0, 0.04470344332053742
228.0, 0.04074465820011926
229.0, 0.03783041374222922
230.0, 0.030619648572395946
231.0, 0.0267833904934427
232.0, 0.01983809252441551
233.0, 0.013063730546392531
234.0, 0.00957928676528192
235.0, 0.007895895887557892
236.0, 0.0039696018363282355
237.0, 0.0005744383443091433
238.0, 0.0010088726491352497
239.0, 0.0012362497936882623
240.0, 0.0015077658575137717
241.0, 0.0020811200579127164
242.0, 0.00251636472386661
243.0, 0.0029636104204974183
244.0, 0.004405987168061489
245.0, 0.002385115000807923
246.0, 0.0024008640638754773
247.0, 0.002804240074705267
248.0, 0.00044544085040518
249.0, 0.001758836262498202
250.0, 0.0017851193605408252
251.0, 0.004674261767745077
252.0, 0.006074548815058328
253.0, 0.009613449524079302
254.0, 0.011108970049713798
255.0, 0.020157664451398424
256.0, 0.027101850998978605
257.0, 0.02678467933650389
258.0, 0.028472166557821126
259.0, 0.03141589725104851
260.0, 0.0326135028811708
261.0, 0.03561533852576553
262.0, 0.04343614115922863
263.0, 0.04149110914380799
264.0, 0.04671216741183266
265.0, 0.05156595922449112
266.0, 0.05257438445128599
267.0, 0.059265658789918324
268.0, 0.06655288334815312
269.0, 0.07050390070174685
270.0, 0.07347189300555283
271.0, 0.0788482766625884
272.0, 0.08236617330790981
273.0, 0.09025397859983011
274.0, 0.09651648177099596
275.0, 0.09847797245030736
276.0, 0.10131104020932541
277.0, 0.10902524607850332
278.0, 0.1117264709357022
279.0, 0.11054181348344513
280.0, 0.10923600076215617
281.0, 0.10730759992054556
282.0, 0.10358693523227619
283.0, 0.10185385260988274
284.0, 0.09685640122786612
285.0, 0.08490458095724591
286.0, 0.07573633722845911
287.0, 0.06881739174519717
288.0, 0.060970165217720015
289.0, 0.05394326108301922
290.0, 0.050862199350491376
291.0, 0.04552456384148272
292.0, 0.04118440704498025
293.0, 0.03736292510456574
294.0, 0.03420654264902992
295.0, 0.033742651550314945
296.0, 0.03282700076457838
297.0, 0.032925358986903776
298.0, 0.03202326986772021
299.0, 0.028657745321999446
300.0, 0.02528989431261284
301.0, 0.02182707297669133
302.0, 0.019835075328342538
303.0, 0.0171520462089723
304.0, 0.011202609794904615
305.0, 0.006098806190022247
306.0, 0.002339735615213231
307.0, 0.0005623241571632354
308.0, 0.001936710394002734
309.0, 0.002333384963313608
310.0, 0.0006897390260563433
311.0, 0.0008633825688034008
312.0, 0.00126309841187635
313.0, 0.0014826947359007242
314.0, 0.0034176308259232066
315.0, 0.002417880530438314
316.0, 0.002078828437050168
317.0, 0.0019426437777623267
318.0, 0.0012429209226596076
319.0, 0.0020787693453440293
320.0, 0.0019925745841691076
321.0, 0.0032546957202819744
322.0, 0.004175380710927136
323.0, 0.0027708969852225
324.0, 0.0017840970705421373
325.0, 0.0027068123332180793
326.0, 0.0025471750043534044
327.0, 0.0016938609133471637
328.0, 0.002218745902642395
329.0, 0.0026780989809925037
330.0, 0.002169505863997818
331.0, 0.0007563205651145919
332.0, 0.0020833661223551357
333.0, 0.0014645968831701246
334.0, 0.001279327934442421
335.0, 0.0011395588048829885
336.0, 0.0031975089203196885
337.0, 0.004183959197749504
338.0, 0.005535969802342841
339.0, 0.005765819731865487
340.0, 0.007074955917485786
341.0, 0.008618248484696783
342.0, 0.010447783484001688
343.0, 0.013657411405683877
344.0, 0.01338557922481092
345.0, 0.0127860737500248
346.0, 0.014845684695813849
347.0, 0.01871591787401776
348.0, 0.020247109533145395
349.0, 0.02022164914290523
350.0, 0.020914286954784252
351.0, 0.0226820874542461
352.0, 0.025076491635042823
353.0, 0.02754474997798326
354.0, 0.029084986338270304
355.0, 0.030455734973970684
356.0, 0.030248858136009447
357.0, 0.02889766063502903
358.0, 0.03128944504275601
359.0, 0.03030317180158331
360.0, 0.030356816519818794
361.0, 0.029406647716837864
362.0, 0.026743771320864133
363.0, 0.028834451065725464
364.0, 0.030202760735363966
365.0, 0.02955106550122271
366.0, 0.029074598909457804
367.0, 0.030135352812102698
368.0, 0.03150505448540212
369.0, 0.03260851010285265
370.0, 0.038744361527151466
371.0, 0.04353334917074766
372.0, 0.04321179524624833
373.0, 0.04568863140708037
374.0, 0.04862822835570125
375.0, 0.05261860217263423
376.0, 0.05643143517529494
377.0, 0.059051851874665676
378.0, 0.062031622582372256
379.0, 0.06664098030876485
380.0, 0.068893097925303
381.0, 0.07075910309957992
382.0, 0.07532057785165774
383.0, 0.07834253327660481
384.0, 0.07778913333270134
385.0, 0.07705484354785928
386.0, 0.07384174140946728
387.0, 0.06707824771099884
388.0, 0.06201639629972685
389.0, 0.058938366194400384
390.0, 0.05249513507706045
391.0, 0.04514100524507987
392.0, 0.038377451623729776
393.0, 0.030750970575661934
394.0, 0.02725110110479971
395.0, 0.02194546815477369
396.0, 0.017514188257684693
397.0, 0.014497497946654484
398.0, 0.009088037678259095
399.0, 0.0073996341435467955
400.0, 0.008210429033008155
401.0, 0.00607737034001906
402.0, 0.0024089016564610146
403.0, 0.004013088816910301
404.0, 0.005302219419407052
405.0, 0.0039438719390451965
406.0, 0.0012022806796828539
407.0, 0.0007259787026948493
408.0, 0.000501839446212129
409.0, 0.00022837139294924004
410.0, 0.002454112906684014
411.0, 0.0019801107134726085
412.0, 0.0008017454070269826
413.0, 0.003195736194085724
414.0, 0.003583529366319241
415.0, 0.003280429046435354
416.0, 0.0005636566600429269
417.0, 0.0017611438203808513
418.0, 0.0006367512401284297
419.0, 0.002165187275813307
420.0, 0.0020550498786735543
421.0, 0.006651608611002587
422.0, 0.01149814431970076
423.0, 0.011258854653203613
424.0, 0.014005090349273434
425.0, 0.018791883250472336
426.0, 0.021755690426730426
427.0, 0.022345204706243856
428.0, 0.023774267902485408
429.0, 0.027924261188029174
430.0, 0.029398031797389083
431.0, 0.03207097528754566
432.0, 0.03385572090840477
433.0, 0.035958012248753814
434.0, 0.04034987514245782
435.0, 0.04150850382980308
436.0, 0.04490189565765637
437.0, 0.04711984757201288
438.0, 0.048384265210783
439.0, 0.050283869724322625
440.0, 0.04956190664932702
441.0, 0.045613270591360486
442.0, 0.042322103368491966
443.0, 0.0390186268948051
444.0, 0.03516744193058689
445.0, 0.032967427107030545
446.0, 0.03152012658529525
447.0, 0.031749299335776075
448.0, 0.035374206089240356
449.0, 0.04062252349693782
450.0, 0.044087312169137284
451.0, 0.04644079985194332
452.0, 0.04881330570131559
453.0, 0.05305901537222965
454.0, 0.058993914664337586
455.0, 0.06549921286498496
456.0, 0.0722641002559601
457.0, 0.07753718161548241
458.0, 0.08366109409534785
459.0, 0.09314100361046689
460.0, 0.10422540098551233
461.0, 0.10984407769493675
462.0, 0.11472981122216408
463.0, 0.12112228710205336
464.0, 0.12314453188323012
465.0, 0.11893332920542056
466.0, 0.11267771314555305
467.0, 0.10554139998059366
468.0, 0.09392176029704778
469.0, 0.0860581533499996
470.0, 0.08249303990229187
471.0, 0.07942725160730947
472.0, 0.07660419626467642
473.0, 0.07802124929510411
474.0, 0.08445278389729113
475.0, 0.09315980564811162
476.0, 0.10577504641725029
477.0, 0.1262167256617895
478.0, 0.14364625052884994
479.0, 0.16448755976018212
480.0, 0.1804919694427788
481.0, 0.19095621441706748
482.0, 0.20116707176533535
483.0, 0.21158978144680557
484.0, 0.2289832916977631
485.0, 0.2484699758426243
486.0, 0.2739909297703268
487.0, 0.3038983471593319
488.0, 0.33084407076084005
489.0, 0.35662058958543336
490.0, 0.3846313949461052
491.0, 0.4188616351884785
492.0, 0.4522254742950992
493.0, 0.47231504398870816
494.0, 0.4697984258768289
495.0, 0.4394921117508434
496.0, 0.3829271833527482
497.0, 0.306626436660194
498.0, 0.22961283108596373
499.0, 0.16854647297366046
500.0, 0.12155037614645664
501.0, 0.08833437203600511
502.0, 0.06368553089259146
503.0, 0.04634616209047723
504.0, 0.03511930559238866
505.0, 0.02665929712029544
506.0, 0.02052490346679323
507.0, 0.013124542459071471
508.0, 0.009714848364228961
509.0, 0.007121990575162462
510.0, 0.0016730186478321521
511.0, 0.002529374379086224
512.0, 0.002023171218352887
513.0, 0.00032183608158191954
514.0, 0.0003093967252668574
515.0, 0.0008033787746675853
516.0, 0.0036360217702558627
517.0, 0.0025930697230901792
518.0, 0.0023337680718107465
519.0, 0.0012366043920513839
520.0, 0.0011198857082716392
521.0, 0.001325910740851917
522.0, 0.0036473436074655223
523.0, 0.00619381552387366
524.0, 0.010180061047707236
525.0, 0.013833242756700918
526.0, 0.02004836973880737
527.0, 0.03075340960078578
528.0, 0.03778839273062428
529.0, 0.04745109766908221
530.0, 0.05696597810292765
531.0, 0.06758646732832402
532.0, 0.0782223260417897
533.0, 0.08646901214414143
534.0, 0.09529120735610001
535.0, 0.10748551648335057
536.0, 0.11931438927089572
537.0, 0.12955956916291678
538.0, 0.14089099977076625
539.0, 0.15659092256566076
540.0, 0.16639193983440456
541.0, 0.18139174348091597
542.0, 0.1955936434643097
543.0, 0.2066486922132813
544.0, 0.21401376708333725
545.0, 0.21405691674133337
546.0, 0.20600097110281984
547.0, 0.19001158400572155
548.0, 0.168941061074453
549.0, 0.14490185027664795
550.0, 0.1208894524508406
551.0, 0.10338745822690558
552.0, 0.08319487313572065
553.0, 0.06891583883212624
554.0, 0.05733682494364148
555.0, 0.04622483464495584
556.0, 0.037682268612800225
557.0, 0.032648619227523525
558.0, 0.02671488310113738
559.0, 0.023471664314071702
560.0, 0.021887253865124953
561.0, 0.018972786080819017
562.0, 0.014710517932515339
563.0, 0.01288477475188224
564.0, 0.012441195162953363
565.0, 0.008522203691573877
566.0, 0.006180569171684547
567.0, 0.006739114767765646
568.0, 0.0065476820385486105
569.0, 0.007424753266724367
570.0, 0.00702767467105389
571.0, 0.005120967369024832
572.0, 0.003651009434691227
573.0, 0.0031942846936821316
574.0, 0.0026912155999030893
575.0, 0.002915653554012567
576.0, 0.0024324502805612986
577.0, 0.0017615125321675882
578.0, 0.001798665887922694
579.0, 0.0019145380780451506
580.0, 0.0011576533351293306
581.0, 0.0030645313498780186
582.0, 0.0012183634101576237
583.0, 0.001144495782030291
584.0, 0.001719111226673608
585.0, 0.000932813537928524
586.0, 0.0025203490832236006
587.0, 0.0008400707402644511
588.0, 0.0011496132237081625
589.0, 0.0005284247490606146
590.0, 8.209113682814519e-05
591.0, 0.0004696813691239326
592.0, 0.0011424211674397635
593.0, 0.0010836938787873818
594.0, 0.0010803271412422515
595.0, 0.0005592573917952682
596.0, 0.0002811696747372944
597.0, 0.0015152789749317086
598.0, 0.002997678214619349
599.0, 0.0038295955952790455
600.0, 0.00448474807126403
601.0, 0.002054343821409162
602.0, 0.00016899135299988297
603.0, 0.0006646301840232383
604.0, 0.0018782326983932947
605.0, 0.0008681718682503272
606.0, 0.00089130469647747
607.0, 0.002538351307157613
608.0, 0.0022921472371709344
609.0, 0.0010849024322119156
610.0, 0.0004983448132810665
611.0, 0.0005526387346868217
612.0, 0.001087150562761338
613.0, 0.002747753504148051
614.0, 0.0008078201821767545
615.0, 0.0005727381506327067
616.0, 0.0019854792432126866
617.0, 0.00013673415020123443
618.0, 0.0019373408646387355
619.0, 0.0004686155425265493
620.0, 0.0005958955840013068
621.0, 0.0010919719505593875
622.0, 0.0011856082053677858
623.0, 0.0020000605744482014
624.0, 0.0025323802701487765
625.0, 0.0007562212287659434
626.0, 0.0009108008445818958
627.0, 0.003523461339430388
628.0, 0.004661555930731312
629.0, 0.004481823876939542
630.0, 0.0030949107071056533
631.0, 0.001870793401860529
632.0, 0.0022619890330262014
633.0, 0.0023420163626623534
634.0, 0.002654819701858265
635.0, 0.003798603758022316
636.0, 0.004766315791193855
637.0, 0.004441792203986124
638.0, 0.0029778686984653683
639.0, 0.004459957712438006
640.0, 0.0052566274329282694
641.0, 0.005759128417715873
642.0, 0.0072688690868809285
643.0, 0.006767064191018357
644.0, 0.009078756430666725
645.0, 0.011721157591222307
646.0, 0.011225997782364888
647.0, 0.010287920336042389
648.0, 0.012002150064340269
649.0, 0.015616403595020072
650.0, 0.01805913367199335
651.0, 0.018086352647845434
652.0, 0.017736854763333396
653.0, 0.018398040448904654
654.0, 0.02112217105107564
655.0, 0.024915814833885625
656.0, 0.025759911594525564
657.0, 0.023360419311039746
658.0, 0.024281897609816427
659.0, 0.02794889062661262
660.0, 0.03003947936670674
661.0, 0.029286138943215148
662.0, 0.027789224097264222
663.0, 0.02699004903231157
664.0, 0.02295111095037167
665.0, 0.02223446849502851
666.0, 0.02020108224196137
667.0, 0.015423516556692028
668.0, 0.011509507968719003
669.0, 0.009362421583163411
670.0, 0.005907442804681879
671.0, 0.005579823537306722
672.0, 0.004810749967666878
673.0, 0.002877401803372729
674.0, 0.001856144060209288
675.0, 0.0019607648527943076
676.0, 0.0015643033543318152
677.0, 0.0002195074071173641
678.0, 0.0003557282370725749
679.0, 0.0004026240876458297
680.0, 0.001731032748040865
681.0, 0.004824316551166467
682.0, 0.005375354453245246
683.0, 0.00945944638826288
684.0, 0.01194368131156024
685.0, 0.011308935462986967
686.0, 0.011176737329165059
687.0, 0.012270938972442675
688.0, 0.01428375040940643
689.0, 0.01694286040955967
690.0, 0.019730464512508393
691.0, 0.022114662309555107
692.0, 0.027289323020616985
693.0, 0.03078501334555532
694.0, 0.0346321031689199
695.0, 0.04037296793318399
696.0, 0.040544242320836865
697.0, 0.045790889255689075
698.0, 0.04819964897335209
699.0, 0.04211104977610686
700.0, 0.03495191684579728
701.0, 0.030175986509491735
702.0, 0.026941031515538554
703.0, 0.030617815367064094
704.0, 0.032037392033418766
705.0, 0.032540748906670795
706.0, 0.03014490824219218
707.0, 0.025665032900950367
708.0, 0.020977950013540605
709.0, 0.016233704261597332
710.0, 0.010824566432543153
711.0, 0.010172202549713613
712.0, 0.008214731295182374
713.0, 0.009608496838917173
714.0, 0.011920611960911745
715.0, 0.01320612291410943
716.0, 0.015544979742822406
717.0, 0.019677585871107208
718.0, 0.021357520217747818
719.0, 0.025014279348604698
720.0, 0.030462298001954123
721.0, 0.03319265274455724
722.0, 0.034746894434854285
723.0, 0.03851947931625602
724.0, 0.04191992749792584
725.0, 0.04382939123101684
726.0, 0.04822705097422842
727.0, 0.05165351311631187
728.0, 0.055659102874488914
729.0, 0.06045181756706574
730.0, 0.0640643214391149
731.0, 0.06506942418568766
732.0, 0.061954208428432335
733.0, 0.05730206157633782
734.0, 0.04466232058721478
735.0, 0.028648503529062022
736.0, 0.015970872519455018
737.0, 0.00861873992152433
738.0, 0.0051563626885553
739.0, 0.0016048381189376056
740.0, 0.0005246702360612406
741.0, 0.0006201422547038228
742.0, 0.0006020730364135142
743.0, 0.0018329142877694365
744.0, 0.0017659858454999954
745.0, 0.0020177679820994865
746.0, 0.0014428318646987736
747.0, 0.0003798690123358959
748.0, 0.0006411695194009923
749.0, 0.0009188313068272542
750.0, 0.00040275393947459013
751.0, 2.593000462898561e-05
752.0, 0.00026314009358290155
753.0, 0.0023882285849587278
754.0, 0.0019492058500305666
755.0, 0.0009573400833822435
756.0, 0.0009519824348066417
757.0, 0.0022254124457979025
758.0, 0.0047172274916240185
759.0, 0.0062297179329324544
760.0, 0.004981798884602361
761.0, 0.005737450286798554
762.0, 0.007604602597137545
763.0, 0.011328113701948679
764.0, 0.01216598899192044
765.0, 0.011468210222658648
766.0, 0.011799195900332142
767.0, 0.014110573970777127
768.0, 0.019242104303427005
769.0, 0.01961351342228706
770.0, 0.02205602286928338
771.0, 0.024175705906252787
772.0, 0.025826537382829674
773.0, 0.02900245714852426
774.0, 0.03136440704994195
775.0, 0.029601047647216144
776.0, 0.032145472857994364
777.0, 0.03154831797888944
778.0, 0.03374453356620944
779.0, 0.0332734370362519
780.0, 0.030043930916532093
781.0, 0.026326799341555712
782.0, 0.022209950099125575
783.0, 0.02096239466684451
784.0, 0.020568879592732056
785.0, 0.018763223476465748
786.0, 0.0159969209366317
787.0, 0.013115344496404273
788.0, 0.010854654089743065
789.0, 0.009367166978180512
790.0, 0.008350017153913418
791.0, 0.007655182780825872
792.0, 0.004715486719772069
793.0, 0.0031069362940699674
794.0, 0.0032988092105783687
795.0, 0.002312674493539699
796.0, 0.0012846672659116189
797.0, 0.002414706377818059
798.0, 0.003340664726112604
799.0, 0.0015023553372463497
800.0, 0.0022857415250121535
801.0, 0.0016051307152466477
802.0, 0.00030296894165164373
803.0, 0.001630280167024838
804.0, 0.0026593869456649124
805.0, 0.0011478839750336469
806.0, 0.0007952080042865607
807.0, 0.00040861614951789204
808.0, 0.0030998383358456934
809.0, 0.003542031444996854
810.0, 0.0030155518915825747
811.0, 0.00276125395323007
812.0, 0.002374105400860622
813.0, 0.0022753855817513953
814.0, 0.0034327111428601943
815.0, 0.0015232312217299253
816.0, 0.0020805466498528585
817.0, 0.0032876417923390945
818.0, 0.004517508005014842
819.0, 0.0047970253692663925
820.0, 0.0036302385209528703
821.0, 0.002444833811523473
822.0, 0.003562685517010402
823.0, 0.003997506884899532
824.0, 0.003407451353711334
825.0, 0.0030809779297961614
826.0, 0.006412220799103786
827.0, 0.00738427828695582
828.0, 0.006094235034737503
829.0, 0.006366198474880958
830.0, 0.007489088071232814
831.0, 0.008735777869214034
832.0, 0.009386191801279423
833.0, 0.007523255008555693
834.0, 0.009242063142610649
835.0, 0.010766616665691594
836.0, 0.011605215306173235
837.0, 0.013197139375270303
838.0, 0.01381833691031034
839.0, 0.014271577066789142
840.0, 0.012417639817358913
841.0, 0.010797103662543724
842.0, 0.009985824312708062
843.0, 0.009471179705780892
844.0, 0.007401679954074309
845.0, 0.005476874741918797
846.0, 0.005682167460176493
847.0, 0.00525509657181064
848.0, 0.008934911706837832
849.0, 0.007561404014473938
850.0, 0.006996241093237131
851.0, 0.007534323855413101
852.0, 0.006513858585152478
853.0, 0.006131070491185325
854.0, 0.006169419332118643
855.0, 0.004595572320947296
856.0, 0.006116033523344298
857.0, 0.005563311907954627
858.0, 0.006804562947760743
859.0, 0.007558551566581115
860.0, 0.006468864699267391
861.0, 0.007060170074456692
862.0, 0.008460105743186357
863.0, 0.007491465212088141
864.0, 0.006698107607942539
865.0, 0.0055795493908808195
866.0, 0.007023998903934729
867.0, 0.007033960284928516
868.0, 0.007413361343853059
869.0, 0.0066636244647611375
870.0, 0.00673269707271911
871.0, 0.007849411417206216
872.0, 0.0069006523395536345
873.0, 0.0069711026419446475
874.0, 0.005875985122487806
875.0, 0.005295778900003319
876.0, 0.007103630422871425
877.0, 0.007507719205561089
878.0, 0.005823109429821798
879.0, 0.005432906632103333
880.0, 0.005977428532490618
881.0, 0.004921877521326082
882.0, 0.005846472511478656
883.0, 0.005307589332180097
884.0, 0.004105715932382054
885.0, 0.002337181083523212
886.0, 0.0009303046522664542
887.0, 0.0008855881774852986
888.0, 0.0024472604203938497
889.0, 0.004055254406463721
890.0, 0.0035497563917644397
891.0, 0.003314952506928822
892.0, 0.0026709833340054067
893.0, 0.0031532865243124727
894.0, 0.00140221407532189
895.0, 0.0017688864042179227
896.0, 0.00173170417215731
897.0, 0.002059586430220645
898.0, 0.002862238483283469
899.0, 0.0004049448125240957
900.0, 0.00033597340549372843
901.0, 2.6841194924058444e-05
902.0, 0.0019342643961626144
903.0, 0.0010374214164145035
904.0, 0.0003426182676338268
905.0, 0.0005126221244455301
906.0, 0.0013422542445411484
907.0, 0.0017056152875610678
908.0, 0.003758462482804905
909.0, 0.000596898231220804
910.0, 0.001107379577014007
911.0, 0.0022508845031836196
912.0, 0.002230331746542258
913.0, 0.0005222888299866854
914.0, 0.001880692185499569
915.0, 0.002295177390458891
916.0, 0.0005889860980951758
917.0, 0.00152332327837611
918.0, 0.001725545835662354
919.0, 0.00037567735099191304
920.0, 0.000904035977382173
921.0, 0.0006565938601380551
922.0, 0.001001433876285946
923.0, 0.0007125277036580442
924.0, 0.00086280216423849
925.0, 0.0006780768116741664
926.0, 0.0018505444855579304
927.0, 0.0013219763733883904
928.0, 0.0011577850248487135
929.0, 0.00020276155600479516
930.0, 0.0011238568307916411
931.0, 0.0022018753290658
932.0, 0.0013147332449703927
933.0, 0.002315392198857691
934.0, 0.0034533719823583798
935.0, 0.0024751193722313152
936.0, 0.0023983216092594638
937.0, 0.0030342175194578275
938.0, 0.0013922574688391039
939.0, 0.0029803312571543483
940.0, 0.003274831803496309
941.0, 0.0017960289762499761
942.0, 0.002780399747702762
943.0, 0.0006183979625757226
944.0, 0.00042900592891960377
945.0, 0.0032734456973903905
946.0, 0.0029476250416058765
947.0, 0.0015453754489099492
948.0, 0.002756992203695192
949.0, 0.0012282076345453605
950.0, 0.002821029399843713
951.0, 0.002417250726662897
952.0, 0.001630395928838156
953.0, 0.002290511575852339
954.0, 0.00215304187499577
955.0, 0.0018775730123678073
956.0, 0.0030001215559400966
957.0, 0.0023334135147169356
958.0, 0.0009082580613632007
959.0, 0.0004595279360782851
960.0, 0.0004211022414816174
961.0, 0.0009666161793950642
962.0, 0.0010196414687101555
963.0, 0.00026187094271999184
964.0, 0.0005841475883657686
965.0, 0.0017260243593294293
966.0, 0.002010274784552775
967.0, 0.001644626386362306
968.0, 0.0017763313322728437
969.0, 0.00011599828507712849
970.0, 0.0010199560924098008
971.0, 0.0020085735733392143
972.0, 0.0020252016358998743
973.0, 0.0015519937062046902
974.0, 0.0018440668806606786
975.0, 0.0012820308819785535
976.0, 0.0003888067624501816
977.0, 0.0004476473125196622
978.0, 0.0016518911180680611
979.0, 0.0009852792418324464
980.0, 0.0006737900370486759
981.0, 0.0025288729640706173
982.0, 0.00024093873837898003
983.0, 0.0001783444685202243
984.0, 0.001503368304419931
985.0, 0.0006706745135408203
986.0, 0.0025333269959392966
987.0, 0.0008326519542918667
988.0, 0.00044435187090470626
989.0, 0.0008386212303820023
990.0, 0.0008454149248685408
991.0, 0.0028500336281134446
992.0, 0.0025189280923209752
993.0, 0.00383407377098007
994.0, 0.002361851620548358
995.0, 0.003559359833845534
996.0, 0.005001389791516347
997.0, 0.003115524629804047
998.0, 0.0016982620154612368
999.0, 0.0028887022377911222
1000.0, 0.002077379139393421
1001.0, 0.0020274143484733187
1002.0, 0.0004392505440530222
1003.0, 0.00020827878305530677
1004.0, 0.00019117754707944075
1005.0, 0.0016829195538617082
1006.0, 0.00205082768807862
1007.0, 0.0031978004704607994
1008.0, 0.004183247770496877
1009.0, 0.0036666930340139613
1010.0, 0.004468281642031026
1011.0, 0.005297004115143279
1012.0, 0.007005455604045602
1013.0, 0.008884139478019023
1014.0, 0.007859009853126516
1015.0, 0.011008571725627527
1016.0, 0.014265159375549391
1017.0, 0.01670230380337123
1018.0, 0.01835937318897765
1019.0, 0.018720446720015774
1020.0, 0.021034739094973897
1021.0, 0.0242570335007218
1022.0, 0.024515860805225505
1023.0, 0.02445621213058885
1024.0, 0.027032375264751232
1025.0, 0.027867810822818386
1026.0, 0.031199353520997546
1027.0, 0.03395037512451901
1028.0, 0.036407980618342196
1029.0, 0.037698136192558476
1030.0, 0.03751423085949302
1031.0, 0.03749404120596364
1032.0, 0.03747360700534571
1033.0, 0.037208122994542424
1034.0, 0.03738704581724137
1035.0, 0.034222423728205095
1036.0, 0.028668765212652752
1037.0, 0.024476176499497345
1038.0, 0.022600201388466027
1039.0, 0.019669836046882532
1040.0, 0.0173281106416543
1041.0, 0.014852574839428824
1042.0, 0.014252573497726243
1043.0, 0.014228431832721433
1044.0, 0.013151925236399391
1045.0, 0.014094536813384925
1046.0, 0.016622411281546304
1047.0, 0.017876354739192333
1048.0, 0.022337873901399644
1049.0, 0.027623653094882513
1050.0, 0.03486313324766305
1051.0, 0.0491533637770289
1052.0, 0.07598963366674459
1053.0, 0.10685408650498318
1054.0, 0.12469125718760772
1055.0, 0.1319960733017072
1056.0, 0.14318899958567394
1057.0, 0.16381492063160885
1058.0, 0.19656098730889734
1059.0, 0.24886383713043347
1060.0, 0.31604933458578843
1061.0, 0.40481949331084016
1062.0, 0.5155467022290131
1063.0, 0.6195863429245199
1064.0, 0.6868597435319651
1065.0, 0.7064947367196178
1066.0, 0.6621383810025078
1067.0, 0.602976448796905
1068.0, 0.5765823110332086
1069.0, 0.6034790704012072
1070.0, 0.6736684645772848
1071.0, 0.7563029049386362
1072.0, 0.8516112508752017
1073.0, 0.9488233418460751
1074.0, 0.9992552578030842
1075.0, 0.9082316770070865
1076.0, 0.7053878653070002
1077.0, 0.5204384754196749
1078.0, 0.4038509637904664
1079.0, 0.3486013238521266
1080.0, 0.33335859227416664
1081.0, 0.3376556716761504
1082.0, 0.3535584267364304
1083.0, 0.3688866163956019
1084.0, 0.3718306525545396
1085.0, 0.3668938035915158
1086.0, 0.34381433960658586
1087.0, 0.2989810888918972
1088.0, 0.24318494629809226
1089.0, 0.18371682940765555
1090.0, 0.13605838393781083
1091.0, 0.10194832703804575
1092.0, 0.07753274111909847
1093.0, 0.06061834803133249
1094.0, 0.046408390931903
1095.0, 0.03503682010042278
1096.0, 0.027778957142321082
1097.0, 0.0225139284186265
1098.0, 0.018587920871929203
1099.0, 0.01580677256641966
1100.0, 0.012384520749239828
1101.0, 0.01016697160868285
1102.0, 0.009082571494642285
1103.0, 0.009769312492649052
1104.0, 0.007870763379600087
1105.0, 0.007760600878957177
1106.0, 0.002339850938703915
1107.0, 0.003835946796607133
1108.0, 0.004214155391617786
1109.0, 0.0028856643271533275
1110.0, 0.001926434849104968
1111.0, 0.0009848129122283992
1112.0, 0.0016774442635743099
1113.0, 0.0006803630052382173
1114.0, 0.0010356719414399637
1115.0, 0.0003370371698193899
1116.0, 0.0003254638072577432
1117.0, 0.001302476354485911
1118.0, 0.001764068539179526
1119.0, 0.0016232646634855102
1120.0, 0.0004437762320632373
1121.0, 0.0012297284198896617
1122.0, 0.0003110601294363572
1123.0, 0.0006019255644650834
1124.0, 0.0015673504810652173
1125.0, 0.001052537597776553
1126.0, 0.0009840293897967463
1127.0, 0.0004360963839851
1128.0, 0.0008203600666825556
1129.0, 0.0012775954505997846
1130.0, 0.0009533257640671263
1131.0, 0.0019176406564257707
1132.0, 0.0008984701720064764
1133.0, 0.00078405865851253
1134.0, 0.0002888599140126936
1135.0, 0.0027682784827710145
1136.0, 0.00236451414377775
1137.0, 0.0004981067233980814
1138.0, 0.000498276727612025
1139.0, 0.0009197334402295069
1140.0, 0.0012892770820695993
1141.0, 0.0019280947397110149
1142.0, 0.0021290665558108294
1143.0, 0.0035669106825717807
1144.0, 0.005657648349832327
1145.0, 0.0024295095906677355
1146.0, 0.0012279610453633182
1147.0, 0.002717652624655156
1148.0, 0.003086395460158309
1149.0, 0.005762648719036337
1150.0, 0.004073679936728092
1151.0, 0.0032268575261951964
1152.0, 0.0024266385917484693
1153.0, 0.0013861843686408936
1154.0, 0.0019564677823462042
1155.0, 0.001332259826622842
1156.0, 0.0021319704791745893
1157.0, 0.0032614754953228776
1158.0, 0.0015979645364297681
1159.0, 9.701291682915616e-05
1160.0, 0.00016211888185375584
1161.0, 0.0006511061287151057
1162.0, 0.0014050283519343395
1163.0, 0.0005575900168130149
1164.0, 0.0021659308069684417
1165.0, 0.0032457948174568025
1166.0, 0.002963173860362645
1167.0, 0.0011856594130392028
1168.0, 0.0019467047712732328
1169.0, 0.0016365464108878541
1170.0, 0.0038551081937410825
1171.0, 0.0015464475182362192
1172.0, 0.002468510765920639
1173.0, 0.002777494730031541
1174.0, 0.0010457130808842982
1175.0, 0.0008516610043914797
1176.0, 0.0012411047124983887
1177.0, 0.002541300919820593
1178.0, 0.0026797524586155003
1179.0, 0.0019748273864546796
1180.0, 0.0003524384579958473
1181.0, 0.0009717359478563171
1182.0, 0.0028087577753044277
1183.0, 0.004055761155627718
1184.0, 0.0019963923284203513
1185.0, 0.003682075672631525
1186.0, 0.0024483685526861527
1187.0, 0.0005834200831020121
1188.0, 0.0009404801313215938
1189.0, 0.0023062781986390077
1190.0, 0.003081759245833942
1191.0, 0.0035537338818261736
1192.0, 0.004254099387033717
1193.0, 0.00444502220091673
1194.0, 0.0046268486192301075
1195.0, 0.005616223924531997
1196.0, 0.005313316791695954
1197.0, 0.005689079187983017
1198.0, 0.01061820979869051
1199.0, 0.009123634484175712
1200.0, 0.010412788760827092
1201.0, 0.012472880703942616
1202.0, 0.014076113568383187
1203.0, 0.015197623421358743
1204.0, 0.013941974625832035
1205.0, 0.014343956657717044
1206.0, 0.016649163255284184
1207.0, 0.017313644758494163
1208.0, 0.017857117945309718
1209.0, 0.017038176521990165
1210.0, 0.018961608948171036
1211.0, 0.02064028757366809
1212.0, 0.01980355087904043
1213.0, 0.019648765079360062
1214.0, 0.020289383834089993
1215.0, 0.019794527217973455
1216.0, 0.018367804083542064
1217.0, 0.017777528806069812
1218.0, 0.017917249072884885
1219.0, 0.015846680316771874
1220.0, 0.015042647727117033
1221.0, 0.013026087014381486
1222.0, 0.012688623581064169
1223.0, 0.012790986918455184
1224.0, 0.011349429369608732
1225.0, 0.007075597114027586
1226.0, 0.006953309936534495
1227.0, 0.008813552493286827
1228.0, 0.005678281160866
1229.0, 0.00710384861624177
1230.0, 0.006522293743751544
1231.0, 0.003099187345759605
1232.0, 0.0021722577633883325
1233.0, 0.002820832855612145
1234.0, 0.0037071566266691064
1235.0, 0.002801499694766784
1236.0, 0.0029810005984927785
1237.0, 0.002880471838640063
1238.0, 0.0008540913384272314
1239.0, 0.001588963418199919
1240.0, 0.0011791797403166479
1241.0, 0.0014977219794704755
1242.0, 0.0011857703276737586
1243.0, 0.00044828577693362744
1244.0, 0.001248760036867605
1245.0, 0.0019178259958640077
1246.0, 0.0032471210906417735
1247.0, 0.004302561432492694
1248.0, 0.001230104874631088
1249.0, 0.00019670177840951135
1250.0, 0.0012780526007056005
1251.0, 0.0007001624701741004
1252.0, 0.00245435272286772
1253.0, 0.002480977926568689
1254.0, 0.00013566475998386015
1255.0, 0.0005214501086210164
1256.0, 2.4405307405281546e-05
1257.0, 0.00011188807652628055
1258.0, 0.0030601664969155144
1259.0, 0.0034510293486342725
1260.0, 0.0011928577454274245
1261.0, 0.002478602921814723
1262.0, 0.00433572452756833
1263.0, 0.0044696454774862514
1264.0, 0.004001474102594725
1265.0, 0.0029689411150338736
1266.0, 0.0027547400173181208
1267.0, 0.0019115621042485214
1268.0, 0.003994235666898998
1269.0, 0.005316264012486903
1270.0, 0.002524977824285722
1271.0, 0.0002980726737679836
1272.0, 0.002636770878435343
1273.0, 0.0029561482548088477
1274.0, 0.0022465566974998823
1275.0, 0.002160222123335688
1276.0, 0.002002806132128487
1277.0, 0.0038809658657337548
1278.0, 0.0014565622894747187
1279.0, 0.003471936991955769
1280.0, 0.004615080505030774
1281.0, 0.005205909810041245
1282.0, 0.004169688384811444
1283.0, 0.0009322318094499992
1284.0, 0.00010203946631093118
1285.0, 0.0005346409486765005
1286.0, 0.00015488181989967696
1287, 0.0
1288, 0.0
1289, 0.0
1290, 0.0
1291, 0.0
1292, 0.0
1293, 0.0
1294, 0.0
1295, 0.0
1296, 0.0
1297, 0.0
1298, 0.0
1299, 0.0
1300, 0.0
1301, 0.0
1302, 0.0
1303, 0.0
1304, 0.0
1305, 0.0
1306, 0.0
1307, 0.0
1308, 0.0
1309, 0.0
1310, 0.0
1311, 0.0
1312, 0.0
1313, 0.0
1314, 0.0
1315, 0.0
1316, 0.0
1317, 0.0
1318, 0.0
1319, 0.0
1320, 0.0
1321, 0.0
1322, 0.0
1323, 0.0
1324, 0.0
1325, 0.0
1326, 0.0
1327, 0.0
1328, 0.0
1329, 0.0
1330, 0.0
1331, 0.0
1332, 0.0
1333, 0.0
1334, 0.0
1335, 0.0
1336, 0.0
1337, 0.0
1338, 0.0
1339, 0.0
1340, 0.0
1341, 0.0
1342, 0.0
1343, 0.0
1344, 0.0
1345, 0.0
1346, 0.0
1347, 0.0
1348, 0.0
1349, 0.0
1350, 0.0
1351, 0.0
1352, 0.0
1353, 0.0
1354, 0.0
1355, 0.0
1356, 0.0
1357, 0.0
1358, 0.0
1359, 0.0
1360, 0.0
1361, 0.0
1362, 0.0
1363, 0.0
1364, 0.0
1365, 0.0
1366, 0.0
1367, 0.0
1368, 0.0
1369, 0.0
1370, 0.0
1371, 0.0
1372, 0.0
1373, 0.0
1374, 0.0
1375, 0.0
1376, 0.0
1377, 0.0
1378, 0.0
1379, 0.0
1380, 0.0
1381, 0.0
1382, 0.0
1383, 0.0
1384, 0.0
1385, 0.0
1386, 0.0
1387, 0.0
1388, 0.0
1389, 0.0
1390, 0.0
1391, 0.0
1392, 0.0
1393, 0.0
1394, 0.0
1395, 0.0
1396, 0.0
1397, 0.0
1398, 0.0
1399, 0.0
1400, 0.0
1401, 0.0
1402, 0.0
1403, 0.0
1404, 0.0
1405, 0.0
1406, 0.0
1407, 0.0
1408, 0.0
1409, 0.0
1410, 0.0
1411, 0.0
1412, 0.0
1413, 0.0
1414, 0.0
1415, 0.0
1416, 0.0
1417, 0.0
1418, 0.0
1419, 0.0
1420, 0.0
1421, 0.0
1422, 0.0
1423, 0.0
1424, 0.0
1425, 0.0
1426, 0.0
1427, 0.0
1428, 0.0
1429, 0.0
1430, 0.0
1431, 0.0
1432, 0.0
1433, 0.0
1434, 0.0
1435, 0.0
1436, 0.0
1437, 0.0
1438, 0.0
1439, 0.0
1440, 0.0
1441, 0.0
1442, 0.0
1443, 0.0
1444, 0.0
1445, 0.0
1446, 0.0
1447, 0.0
1448, 0.0
1449, 0.0
1450, 0.0
1451, 0.0
1452, 0.0
1453, 0.0
1454, 0.0
1455, 0.0
1456, 0.0
1457, 0.0
1458, 0.0
1459, 0.0
1460, 0.0
1461, 0.0
1462, 0.0
1463, 0.0
1464, 0.0
1465, 0.0
1466, 0.0
1467, 0.0
1468, 0.0
1469, 0.0
1470, 0.0
1471, 0.0
1472, 0.0
1473, 0.0
1474, 0.0
1475, 0.0
1476, 0.0
1477, 0.0
1478, 0.0
1479, 0.0
1480, 0.0
1481, 0.0
1482, 0.0
1483, 0.0
1484, 0.0
1485, 0.0
1486, 0.0
1487, 0.0
1488, 0.0
1489, 0.0
1490, 0.0
1491, 0.0
1492, 0.0
1493, 0.0
1494, 0.0
1495, 0.0
1496, 0.0
1497, 0.0
1498, 0.0
1499, 0.0
1500, 0.0
1501, 0.0
1502, 0.0
1503, 0.0
1504, 0.0
1505, 0.0
1506, 0.0
1507, 0.0
1508, 0.0
1509, 0.0
1510, 0.0
1511, 0.0
1512, 0.0
1513, 0.0
1514, 0.0
1515, 0.0
1516, 0.0
1517, 0.0
1518, 0.0
1519, 0.0
1520, 0.0
1521, 0.0
1522, 0.0
1523, 0.0
1524, 0.0
1525, 0.0
1526, 0.0
1527, 0.0
1528, 0.0
1529, 0.0
1530, 0.0
1531, 0.0
1532, 0.0
1533, 0.0
1534, 0.0
1535, 0.0
1536, 0.0
1537, 0.0
1538, 0.0
1539, 0.0
1540, 0.0
1541, 0.0
1542, 0.0
1543, 0.0
1544, 0.0
1545, 0.0
1546, 0.0
1547, 0.0
1548, 0.0
1549, 0.0
1550, 0.0
1551, 0.0
1552, 0.0
1553, 0.0
1554, 0.0
1555, 0.0
1556, 0.0
1557, 0.0
1558, 0.0
1559, 0.0
1560, 0.0
1561, 0.0
1562, 0.0
1563, 0.0
1564, 0.0
1565, 0.0
1566, 0.0
1567, 0.0
1568, 0.0
1569, 0.0
1570, 0.0
1571, 0.0
1572, 0.0
1573, 0.0
1574, 0.0
1575, 0.0
1576, 0.0
1577, 0.0
1578, 0.0
1579, 0.0
1580, 0.0
1581, 0.0
1582, 0.0
1583, 0.0
1584, 0.0
1585, 0.0
1586, 0.0
1587, 0.0
1588, 0.0
1589, 0.0
1590, 0.0
1591, 0.0
1592, 0.0
1593, 0.0
1594, 0.0
1595, 0.0
1596, 0.0
1597, 0.0
1598, 0.0
1599, 0.0
