30, 0.0
31, 0.0
32, 0.0
33, 0.0
34, 0.0
35, 0.0
36, 0.0
37, 0.0
38, 0.0
39, 0.0
40, 0.0
41, 0.0
42, 0.0
43, 0.0
44, 0.0
45, 0.0
46, 0.0
47, 0.0
48, 0.0
49, 0.0
50, 0.0
51, 0.0
52, 0.0
53, 0.0
54, 0.0
55, 0.0
56, 0.0
57, 0.0
58, 0.0
59, 0.0
60, 0.0
61, 0.0
62, 0.0
63, 0.0
64, 0.0
65, 0.0
66, 0.0
67, 0.0
68, 0.0
69, 0.0
70, 0.0
71, 0.0
72, 0.0
73, 0.0
74, 0.0
75, 0.0
76, 0.0
77, 0.0
78, 0.0
79, 0.0
80, 0.0
81, 0.0
82, 0.0
83, 0.0
84, 0.0
85, 0.0
86, 0.0
87, 0.0
88, 0.0
89, 0.0
90, 0.0
91, 0.0
92, 0.0
93, 0.0
94, 0.0
95, 0.0
96, 0.0
97, 0.0
98, 0.0
99, 0.0
100, 0.0
101, 0.0
102, 0.0
103, 0.0
104, 0.0
105, 0.0
106, 0.0
107, 0.0
108, 0.0
109, 0.0
110, 0.0
111, 0.0
112, 0.0
113, 0.0
114, 0.0
115, 0.0
116, 0.0
117, 0.0
118, 0.0
119, 0.0
120, 0.0
121, 0.0
122, 0.0
123, 0.0
124, 0.0
125, 0.0
126, 0.0
127, 0.0
128, 0.0
129, 0.0
130, 0.0
131, 0.0
132, 0.0
133, 0.0
134, 0.0
135, 0.0
136, 0.0
137, 0.0
138, 0.0
139, 0.0
140, 0.0
141, 0.0
142, 0.0
143, 0.0
144, 0.0
145, 0.0
146, 0.0
147, 0.0
148, 0.0
149, 0.0
150, 0.0
151, 0.0
152, 0.0
153, 0.0
154, 0.0
155, 0.0
156, 0.0
157, 0.0
158, 0.0
159, 0.0
160, 0.0
161, 0.0
162, 0.0
163, 0.0
164, 0.0
165, 0.0
166, 0.0
167, 0.0
168, 0.0
169.0, 3.136651923863708e-05
170.0, 0.0003981957378236412
171.0, 0.002842272326221036
172.0, 0.00374168685075829
173.0, 0.005127797752628667
174.0, 0.007764092103266099
175.0, 0.009421124657010619
176.0, 0.009584587793229288
177.0, 0.010531214959640397
178.0, 0.012452762080374238
179.0, 0.013829752957536124
180.0, 0.01587848382129636
181.0, 0.016665655655959188
182.0, 0.01682054348260568
183.0, 0.017699665985261726
184.0, 0.020031979716829167
185.0, 0.025875853359580415
186.0, 0.034509084711280336
187.0, 0.040479659592925175
188.0, 0.045173342577979975
189.0, 0.04801838574862288
190.0, 0.050737942148647
191.0, 0.053412220738086685
192.0, 0.055049440950868236
193.0, 0.0539839343564269
194.0, 0.05067488937922021
195.0, 0.04519058095176839
196.0, 0.03653176491370695
197.0, 0.023760648204236588
198.0, 0.01423612998347925
199.0, 0.006674204993150501
200.0, 0.001016704387653286
201.0, 0.001912157331365764
202.0, 0.003555592808021709
203.0, 0.0024255454254621146
204.0, 0.0006290668592983382
205.0, 0.004534127606486185
206.0, 0.009866501090759655
207.0, 0.015306380242037045
208.0, 0.022728867949399274
209.0, 0.030521131906813385
210.0, 0.0362820974761608
211.0, 0.04369265585809823
212.0, 0.0500874100292317
213.0, 0.056298831306392676
214.0, 0.0628122119518837
215.0, 0.06702633048492228
216.0, 0.070820491503941
217.0, 0.07244701262389659
218.0, 0.07129724322071446
219.0, 0.06799788248598426
220.0, 0.06391124793356091
221.0, 0.05838092467982001
222.0, 0.05177942806298115
223.0, 0.045260138885819035
224.0, 0.040789244923771624
225.0, 0.03477027015344566
226.0, 0.029829638245671822
227.0, 0.026768964324632435
228.0, 0.023757945449522984
229.0, 0.02017404161893636
230.0, 0.01689709806426713
231.0, 0.01475467104757447
232.0, 0.013430644235818901
233.0, 0.010000974424981292
234.0, 0.005990062951997626
235.0, 0.0044590997212234865
236.0, 0.004430106401444472
237.0, 0.0025718073736846346
238.0, 0.001242848145512096
239.0, 0.004680724057078109
240.0, 0.006735941205256982
241.0, 0.004068143423197964
242.0, 0.0032925017425384914
243.0, 0.004512734176758795
244.0, 0.003007700030796414
245.0, 2.902668267705162e-05
246.0, 0.0002082352891570717
247.0, 0.0007711455709760345
248.0, 0.0002940455858050766
249.0, 0.000302772680964523
250.0, 0.0005956249310106476
251.0, 0.003234106617844331
252.0, 0.004962218143375014
253.0, 0.005540850592604749
254.0, 0.006468628002947714
255.0, 0.008573826293735803
256.0, 0.010621910155512487
257.0, 0.01251287722521314
258.0, 0.014493994134106819
259.0, 0.016323650392579495
260.0, 0.017606785559449233
261.0, 0.018161513544417102
262.0, 0.01917141529800342
263.0, 0.02051724496614734
264.0, 0.021956966817830832
265.0, 0.023792821965856
266.0, 0.02474759172217493
267.0, 0.026678222380401514
268.0, 0.02946406525999059
269.0, 0.03137526581257114
270.0, 0.03368078284781341
271.0, 0.03673059635795926
272.0, 0.04015367112379504
273.0, 0.04373875116822799
274.0, 0.04773013714575668
275.0, 0.05206830627050904
276.0, 0.0563321564618103
277.0, 0.060727258440987225
278.0, 0.06519760201792325
279.0, 0.06771488312580826
280.0, 0.06983166993290038
281.0, 0.07214382903133341
282.0, 0.07325985913967863
283.0, 0.07135549998561297
284.0, 0.07016958621657675
285.0, 0.06662319173409074
286.0, 0.061502255209008684
287.0, 0.056553354536088174
288.0, 0.0517325752110469
289.0, 0.045440100178203414
290.0, 0.0395844653987383
291.0, 0.03506611455035205
292.0, 0.03159624954524305
293.0, 0.02917967519230151
294.0, 0.02636086220374813
295.0, 0.023990315624210706
296.0, 0.022330314321274792
297.0, 0.020622500698496752
298.0, 0.019591876773972138
299.0, 0.018680365818045434
300.0, 0.01760173695507772
301.0, 0.01634346876412864
302.0, 0.014896214819287358
303.0, 0.012154720232764496
304.0, 0.009812733779486573
305.0, 0.007196250279352158
306.0, 0.0035992455072628013
307.0, 0.0018929512284364999
308.0, 0.0013587574855285789
309.0, 0.0014440018946264223
310.0, 0.002200653046640232
311.0, 0.0039496433617603735
312.0, 0.005540146057743468
313.0, 0.008095388124839934
314.0, 0.010507009264915731
315.0, 0.0122098211882513
316.0, 0.013812048762403032
317.0, 0.012634590794479157
318.0, 0.010631425140870947
319.0, 0.008705542290782787
320.0, 0.006876115882112093
321.0, 0.005240245037934331
322.0, 0.004238530513308273
323.0, 0.002190583792392648
324.0, 0.0006420448215620995
325.0, 0.0014451068730266016
326.0, 0.0007178030228395381
327.0, 0.00023281731397914316
328.0, 0.0006197649658842869
329.0, 0.0009764957841734568
330.0, 0.00019423467364800765
331.0, 0.0007101214048910678
332.0, 0.001857302975731242
333.0, 0.002417060485150733
334.0, 0.002024010246115343
335.0, 0.0020690075504858794
336.0, 0.0014012859898356641
337.0, 0.00018695682325516044
338.0, 0.000800329802624826
339.0, 0.0014477069690679788
340.0, 0.0029895061678826577
341.0, 0.0034964104502950956
342.0, 0.0055006807345682135
343.0, 0.007835202505263109
344.0, 0.008204756784115171
345.0, 0.007382291528445888
346.0, 0.007866290196242054
347.0, 0.009007654153120105
348.0, 0.009224357823400638
349.0, 0.00827866155812486
350.0, 0.009245819329960351
351.0, 0.010335378098548542
352.0, 0.01211607075859519
353.0, 0.014643425116371926
354.0, 0.016973013760155968
355.0, 0.01853476783363965
356.0, 0.01892882412490776
357.0, 0.018696661411615342
358.0, 0.01837634042174178
359.0, 0.017932693723481705
360.0, 0.016304452135053042
361.0, 0.013614075002343105
362.0, 0.011177515438439213
363.0, 0.009997707145358293
364.0, 0.010041428709172443
365.0, 0.008422495216682426
366.0, 0.007743990328660933
367.0, 0.007519051882184165
368.0, 0.006610374082563618
369.0, 0.00517962032900147
370.0, 0.0050407101658952675
371.0, 0.006214716570496533
372.0, 0.007103295981737453
373.0, 0.007398229837331972
374.0, 0.009561585536254866
375.0, 0.010292781536782165
376.0, 0.011760714778425066
377.0, 0.012884334872927432
378.0, 0.013230119737008182
379.0, 0.0167286493923949
380.0, 0.01849669147378099
381.0, 0.02061155840119403
382.0, 0.023269547932565682
383.0, 0.025721367636745738
384.0, 0.02805179002328898
385.0, 0.030210704438944448
386.0, 0.032438149207437615
387.0, 0.03430056206344045
388.0, 0.035252446266897434
389.0, 0.035539801432702106
390.0, 0.0351422337607295
391.0, 0.03474655515032312
392.0, 0.03327166333516046
393.0, 0.02987923746760797
394.0, 0.026636080056008284
395.0, 0.024711637386748777
396.0, 0.022247217158747046
397.0, 0.019920052323551332
398.0, 0.019051285399386896
399.0, 0.018110132927629197
400.0, 0.01818422025133494
401.0, 0.01817179734665686
402.0, 0.0172450607228545
403.0, 0.015608963024235794
404.0, 0.014696874952709668
405.0, 0.014065740369392288
406.0, 0.0124775337900267
407.0, 0.010978010432204791
408.0, 0.010708119956816831
409.0, 0.008934837959098012
410.0, 0.0069625983337348535
411.0, 0.006036437143639065
412.0, 0.0056119882410534064
413.0, 0.00436749261621287
414.0, 0.002457352858337716
415.0, 0.0017640394570850823
416.0, 0.0020341442573196976
417.0, 0.0014611638866267283
418.0, 0.00040755428694746115
419.0, 0.0008453649109533263
420.0, 0.0012406959486451514
421.0, 0.001984215362119365
422.0, 0.001874094565006026
423.0, 0.0007997824879614474
424.0, 0.0015393648150290532
425.0, 0.0007431164217240322
426.0, 0.0005616286985625407
427.0, 0.0015539388441042753
428.0, 0.0021218000043022
429.0, 0.0027171699044330065
430.0, 0.004480805342255197
431.0, 0.005182331140271102
432.0, 0.005938545712111309
433.0, 0.007187777262475113
434.0, 0.0065705912876272065
435.0, 0.007312387918445027
436.0, 0.009615032118309715
437.0, 0.01117921708250849
438.0, 0.011391785194546672
439.0, 0.01231854160856528
440.0, 0.01310507743914965
441.0, 0.013748380343626413
442.0, 0.012957184517650006
443.0, 0.01144744733562361
444.0, 0.011217324157638597
445.0, 0.010291950727539615
446.0, 0.010314169918547514
447.0, 0.011066579103384858
448.0, 0.012652456717733036
449.0, 0.015607534927895912
450.0, 0.01861289219014754
451.0, 0.022885882979363604
452.0, 0.027122705233747744
453.0, 0.031060942473347376
454.0, 0.03531715685095047
455.0, 0.0396508955720344
456.0, 0.04546130844976844
457.0, 0.052022474634073126
458.0, 0.05974578416425196
459.0, 0.06915507135013965
460.0, 0.07906325797339178
461.0, 0.0908055868841719
462.0, 0.10225832975353527
463.0, 0.11257505807367861
464.0, 0.12071846335686595
465.0, 0.12481926753109768
466.0, 0.12500869086543184
467.0, 0.11963020546196959
468.0, 0.10811428140485356
469.0, 0.09288598812757208
470.0, 0.07926513203840989
471.0, 0.06974637720946279
472.0, 0.06039848341489427
473.0, 0.053444091069850645
474.0, 0.04948080887377504
475.0, 0.047098439504614016
476.0, 0.04743762672279304
477.0, 0.04882419859165983
478.0, 0.052859460138500416
479.0, 0.05968669641616941
480.0, 0.0679047729214786
481.0, 0.07638222635371757
482.0, 0.08511582858762276
483.0, 0.09273105689622774
484.0, 0.10035342704505286
485.0, 0.10988827533297366
486.0, 0.12250167971284259
487.0, 0.13793096467347235
488.0, 0.15746576510844207
489.0, 0.18182368323658313
490.0, 0.21094158387804623
491.0, 0.24385326192697948
492.0, 0.27880596443769506
493.0, 0.31106235940569155
494.0, 0.33928232385527857
495.0, 0.35654329731850587
496.0, 0.35115126048157197
497.0, 0.3146855122936991
498.0, 0.25489954941439824
499.0, 0.1906828175047425
500.0, 0.1366857389622959
501.0, 0.09786772475190579
502.0, 0.06994541946915699
503.0, 0.05244110673943677
504.0, 0.03841361977350373
505.0, 0.02832644626659034
506.0, 0.021784048855752303
507.0, 0.01610416739615759
508.0, 0.012519525585847228
509.0, 0.009143649358041185
510.0, 0.007255059502058906
511.0, 0.005649726154602049
512.0, 0.0030820815409631623
513.0, 0.002032663474741582
514.0, 0.0009706437166353626
515.0, 0.0003833859841251852
516.0, 0.0005287494655441319
517.0, 0.0015075285218980627
518.0, 0.0010262641298679938
519.0, 0.0018400703756801741
520.0, 0.002176037767255066
521.0, 0.001251677201153642
522.0, 0.00032044746646641125
523.0, 0.00047681495021351046
524.0, 0.000481050526138392
525.0, 0.0025203494453025412
526.0, 0.004152582232378731
527.0, 0.005945095760096744
528.0, 0.009096906833897123
529.0, 0.013593858108317532
530.0, 0.01667270472188996
531.0, 0.02058512447505316
532.0, 0.02566635472929176
533.0, 0.03172390594756845
534.0, 0.038229342269395006
535.0, 0.043395450716600864
536.0, 0.049988307799975235
537.0, 0.05809491434825248
538.0, 0.06670374662817145
539.0, 0.07580459984882122
540.0, 0.08679475262445116
541.0, 0.10016723126482832
542.0, 0.11262433625884788
543.0, 0.12507466425806768
544.0, 0.13772815996102394
545.0, 0.14830236563721513
546.0, 0.15412593368340546
547.0, 0.15418083045151548
548.0, 0.14737594697374062
549.0, 0.13399862450762512
550.0, 0.11579273467042026
551.0, 0.09605374364634488
552.0, 0.07882687037082466
553.0, 0.06478028556450345
554.0, 0.053736824886994716
555.0, 0.044685545228311425
556.0, 0.03686061904961348
557.0, 0.030732835468136637
558.0, 0.025070047788439905
559.0, 0.021306338470689693
560.0, 0.01890311365818648
561.0, 0.017219262809030945
562.0, 0.0161821943124278
563.0, 0.013193568270016375
564.0, 0.011818156319942683
565.0, 0.010603752456226653
566.0, 0.009335757175429027
567.0, 0.008515706484261327
568.0, 0.007413213121185612
569.0, 0.006635336980561058
570.0, 0.005557547858456125
571.0, 0.005143167094506202
572.0, 0.005102499009825449
573.0, 0.004386597374054299
574.0, 0.0038962314624395073
575.0, 0.0032060743739497468
576.0, 0.002506465377542551
577.0, 0.001909626660864791
578.0, 0.0015773744269410794
579.0, 0.0016144293251777505
580.0, 0.001714668266821598
581.0, 0.0012426203696568026
582.0, 0.0007367685342733762
583.0, 0.0007067548837272161
584.0, 0.0009733045695455484
585.0, 0.000592171642736808
586.0, 0.0005701115661771372
587.0, 0.0010899029370758327
588.0, 0.0018778874479632214
589.0, 0.001944899772133935
590.0, 0.0007717847700533245
591.0, 3.689430980894009e-05
592.0, 0.0010859342132156
593.0, 0.0012333370420957329
594.0, 0.0009102975452669179
595.0, 0.0011161673630748687
596.0, 0.0013890503237614059
597.0, 0.0009208575517161144
598.0, 0.0007288582992023017
599.0, 0.0013181979557552095
600.0, 0.0011230056177904074
601.0, 6.059760927787751e-05
602.0, 0.0005749712878169762
603.0, 0.0004403553020389405
604.0, 0.0005312451735287269
605.0, 0.00023305390955602673
606.0, 0.0002454406717981196
607.0, 0.00043943589964136234
608.0, 0.00017012659065781892
609.0, 0.0002271946356108627
610.0, 0.0003048509850165375
611.0, 0.00022762943028735157
612.0, 0.00014129306013585362
613.0, 0.0001317971060208828
614.0, 6.716841677687724e-05
615.0, 0.0003382179069896675
616.0, 0.0003468723866919903
617.0, 0.0008342208677479992
618.0, 0.0010355650555832047
619.0, 0.00016637284802605208
620.0, 2.9932391496733002e-05
621.0, 0.0003064747944566777
622.0, 0.00041693586363741896
623.0, 0.0005726157878986073
624.0, 0.0002055442169624528
625.0, 0.00041763653970717087
626.0, 9.432052036870062e-05
627.0, 0.0003427748470818492
628.0, 0.0006674081928286451
629.0, 0.0009354271563930691
630.0, 0.0011714433101119805
631.0, 0.001019973520698623
632.0, 0.001407039508291165
633.0, 0.0011056385485356634
634.0, 0.0012033219253625796
635.0, 0.0011157631828978267
636.0, 0.0005710494268759676
637.0, 0.0004803249064388856
638.0, 0.0007722447961873658
639.0, 0.0015387760204022096
640.0, 0.0018708522121571583
641.0, 0.0018201964066431621
642.0, 0.002153811203754054
643.0, 0.00292954630008051
644.0, 0.002404763401025363
645.0, 0.002767604092130918
646.0, 0.003128398709637123
647.0, 0.003278835873825138
648.0, 0.0037023198694035326
649.0, 0.004558450470316366
650.0, 0.0038881526375762593
651.0, 0.005085529983420373
652.0, 0.005534038142163692
653.0, 0.006235862922070369
654.0, 0.0075154129884916305
655.0, 0.00743906633482037
656.0, 0.009345342515670799
657.0, 0.01030622874028081
658.0, 0.011374071147596917
659.0, 0.013014826417205019
660.0, 0.014129352930357069
661.0, 0.013551143887203963
662.0, 0.013620983509595154
663.0, 0.014668579405857635
664.0, 0.013660435102485356
665.0, 0.012526092988785638
666.0, 0.011921271475549455
667.0, 0.010146513827664202
668.0, 0.009030684739043835
669.0, 0.0075010623735939815
670.0, 0.005612650633592085
671.0, 0.005080849501425267
672.0, 0.00486876191604652
673.0, 0.003128389065145039
674.0, 0.003076539662307454
675.0, 0.0033466705677296016
676.0, 0.003812167258190882
677.0, 0.0033430004536838085
678.0, 0.00286697676953055
679.0, 0.003739194889125081
680.0, 0.002406846332125228
681.0, 0.003670275905322103
682.0, 0.003839081353841561
683.0, 0.003614472417352921
684.0, 0.004453663985338467
685.0, 0.005575107458409516
686.0, 0.005433714272403319
687.0, 0.006531649598126027
688.0, 0.008034362216717933
689.0, 0.008205968252509018
690.0, 0.008683552943150506
691.0, 0.010700925795127722
692.0, 0.012427826143305612
693.0, 0.015618225513408851
694.0, 0.018687842813018687
695.0, 0.020967689034482942
696.0, 0.023883769331994195
697.0, 0.027743673552030754
698.0, 0.031595527815081
699.0, 0.03747279051299453
700.0, 0.03761653610727383
701.0, 0.035219516491882166
702.0, 0.0342144700273567
703.0, 0.03465891194428985
704.0, 0.03576820828292715
705.0, 0.040520143773218956
706.0, 0.04426734701805581
707.0, 0.044606319101100224
708.0, 0.039405396153153076
709.0, 0.030980122916518554
710.0, 0.023778605014448524
711.0, 0.01856154769446153
712.0, 0.014921139074344772
713.0, 0.012368252583027983
714.0, 0.010020005464987334
715.0, 0.009387916635812656
716.0, 0.00999863432325725
717.0, 0.009240334803797687
718.0, 0.011567704165740733
719.0, 0.012901269533058092
720.0, 0.014122449202686727
721.0, 0.016085673399437134
722.0, 0.01825622970284341
723.0, 0.020021263233262806
724.0, 0.022233596817596228
725.0, 0.024553129485751904
726.0, 0.027287347001347374
727.0, 0.03070853532080958
728.0, 0.03379408979591041
729.0, 0.03639892218344992
730.0, 0.040116864142488405
731.0, 0.044869785842860735
732.0, 0.046910167669387826
733.0, 0.04793629861423507
734.0, 0.04563692114811241
735.0, 0.03801809412367652
736.0, 0.026505483268885136
737.0, 0.015522055336717881
738.0, 0.008910819281455285
739.0, 0.0038303888437705336
740.0, 0.001201855284543827
741.0, 0.00038532487766233933
742.0, 3.46774641611248e-05
743.0, 0.00023496567067535194
744.0, 0.0011621885902103346
745.0, 0.00030914019783471455
746.0, 0.0001035014507410879
747.0, 0.00015425829636907235
748.0, 5.561037467137212e-05
749.0, 0.00042987718165031085
750.0, 0.0011687989120019002
751.0, 0.0005799063258796487
752.0, 0.0002230958640877579
753.0, 4.890027831436129e-05
754.0, 0.00027574020721598565
755.0, 0.000311284384330452
756.0, 4.509112941854786e-05
757.0, 0.0002790492729136423
758.0, 8.928775698712041e-05
759.0, 0.000441482544186324
760.0, 0.0008924118075420245
761.0, 0.0010956500030008735
762.0, 0.0012835525999589262
763.0, 0.0018778002217088232
764.0, 0.0029265953816661697
765.0, 0.002702678927778466
766.0, 0.00257609320532373
767.0, 0.0031660470987454874
768.0, 0.004525659362207652
769.0, 0.006340183858400394
770.0, 0.007230932589649989
771.0, 0.007984375649249491
772.0, 0.00912573328124081
773.0, 0.010440724781730222
774.0, 0.01205317980724799
775.0, 0.014167404937139418
776.0, 0.016297383337556627
777.0, 0.017026014822889297
778.0, 0.018238229553925716
779.0, 0.01849778842427423
780.0, 0.0179044402982406
781.0, 0.017577901578105376
782.0, 0.017435421334686136
783.0, 0.0164095677695941
784.0, 0.015783691915146728
785.0, 0.014330066999349158
786.0, 0.013175362576849165
787.0, 0.011873097817298582
788.0, 0.01096943942088976
789.0, 0.01041107693004517
790.0, 0.007939362541313775
791.0, 0.005751452910614988
792.0, 0.005065753317495955
793.0, 0.004563345431758802
794.0, 0.004009776130552851
795.0, 0.0032633230699102046
796.0, 0.0022217786719483184
797.0, 0.001728773719524656
798.0, 0.0019127290365977376
799.0, 0.0007921977314189556
800.0, 0.00027089097311067513
801.0, 0.0004572053762801481
802.0, 0.0008859154006580862
803.0, 0.0013824810227024444
804.0, 0.0012518346225818405
805.0, 0.0013191581205124763
806.0, 0.0010370270173379265
807.0, 0.0007287587118032811
808.0, 0.0007337781040369646
809.0, 0.001512291984959686
810.0, 0.0027593573966028
811.0, 0.0027083300001004753
812.0, 0.0014756607618652468
813.0, 0.0006314830113600933
814.0, 0.0011054032120665224
815.0, 0.0012303338389685176
816.0, 0.0010074121494067373
817.0, 0.0018989564169101148
818.0, 0.0019510598768354853
819.0, 0.0006931000440874879
820.0, 0.0001742193433223646
821.0, 0.0008150912201221124
822.0, 0.001273728022301592
823.0, 0.0008721407021793712
824.0, 0.001507536416555743
825.0, 0.002602674363909609
826.0, 0.0032638512730395084
827.0, 0.0031638824222759328
828.0, 0.0041018643126143174
829.0, 0.0045879610091720405
830.0, 0.004177291170742221
831.0, 0.0046207016659999154
832.0, 0.006377222354542606
833.0, 0.008299507846051182
834.0, 0.008747531895194605
835.0, 0.009111726422946768
836.0, 0.011141804059261648
837.0, 0.013066831825748972
838.0, 0.013829953096249355
839.0, 0.015489299401212166
840.0, 0.013940680970697013
841.0, 0.013861791766855541
842.0, 0.012339440033434625
843.0, 0.010375638226985211
844.0, 0.0083920941349229
845.0, 0.006138657103944493
846.0, 0.004812034037685725
847.0, 0.00440703774361045
848.0, 0.002491013203233337
849.0, 0.002167335803655267
850.0, 0.002525605117986968
851.0, 0.001791817644250787
852.0, 0.0006121364742969062
853.0, 0.0004375137490103472
854.0, 0.0005728502585963005
855.0, 0.00024709262872300484
856.0, 0.0007634510563023433
857.0, 0.0008815504474852044
858.0, 0.0011461661639840391
859.0, 0.0014767122628472887
860.0, 0.0013220957960131596
861.0, 0.0009862251156451509
862.0, 0.0008965055108538446
863.0, 0.0011498975479626301
864.0, 0.0007479484431953991
865.0, 0.0009346074984105566
866.0, 0.0010225056381891362
867.0, 0.0005435458941595191
868.0, 0.0012667809990184187
869.0, 0.001955248628245139
870.0, 0.0010651582056828467
871.0, 0.00103551837899204
872.0, 0.0005878867214337576
873.0, 0.0005994759326149442
874.0, 0.0012783296986638537
875.0, 0.0014202650589283906
876.0, 0.0019037102041280312
877.0, 0.0014687376023059713
878.0, 0.0019361446512069914
879.0, 0.002278388744695002
880.0, 0.002190303620153922
881.0, 0.0017574198557061963
882.0, 0.0012048830013575837
883.0, 0.0010123429656828532
884.0, 0.0014417117422353687
885.0, 0.00034993449027548605
886.0, 0.0001106305384352204
887.0, 0.00025559372413465646
888.0, 0.0008045330046352273
889.0, 0.0010841845467363092
890.0, 0.0005217499902011924
891.0, 0.0007619876779655078
892.0, 7.667929719208189e-05
893.0, 0.0007018840126292016
894.0, 9.133956490524496e-05
895.0, 0.00023337049358089222
896.0, 0.00025426484858363335
897.0, 0.00026867458971391767
898.0, 0.0009786713091951406
899.0, 0.00034580203400890825
900.0, 0.0005023150370496038
901.0, 0.0005177798597387499
902.0, 0.00014292834922850198
903.0, 0.00015711922708471575
904.0, 0.0005787040842130208
905.0, 0.0009348342784583027
906.0, 0.0009843035388940578
907.0, 0.0002969730299919414
908.0, 0.0009544437560890372
909.0, 0.0005932428759827566
910.0, 0.0007510171817574767
911.0, 0.00078705031717954
912.0, 0.0004275034419367906
913.0, 0.0008258841532526158
914.0, 0.0016089856911589565
915.0, 0.0023391439103064384
916.0, 0.0003460816142700875
917.0, 0.000668847561591787
918.0, 0.0013711652700581717
919.0, 0.001376340457799719
920.0, 0.001535452473286831
921.0, 0.0016313564792507385
922.0, 0.000963793409883862
923.0, 0.0008893186925259621
924.0, 0.0007551662089333207
925.0, 0.0004369870012125468
926.0, 0.0014720487017233583
927.0, 0.0016567570989416912
928.0, 0.0006079439335023512
929.0, 0.0007403545431173247
930.0, 0.0012478395929683877
931.0, 0.001955676075837814
932.0, 0.0008226671531330231
933.0, 0.0004719458938837325
934.0, 0.0008934315860425575
935.0, 0.0012455470038096328
936.0, 0.0015189835431341056
937.0, 0.0017416150657533207
938.0, 0.001135723416245176
939.0, 0.0009841641317838883
940.0, 0.001679880430610486
941.0, 0.0014288189511010628
942.0, 0.0013240586067973686
943.0, 0.0017388797344040242
944.0, 0.0019381276326637547
945.0, 0.001685658659166685
946.0, 0.0014418035050433
947.0, 0.00045353263984439473
948.0, 0.0013661544919269263
949.0, 0.0016691926448991715
950.0, 0.0012335200828695924
951.0, 0.0008037928426442049
952.0, 0.000552428331533054
953.0, 0.00021469851054662978
954.0, 0.0003464654042662143
955.0, 0.0012638368476827091
956.0, 0.0005185402353798462
957.0, 0.0013085000704901263
958.0, 0.001442203934231207
959.0, 0.0013758832622152118
960.0, 0.0010741953373036713
961.0, 0.00038790903120559494
962.0, 0.0006837948779626123
963.0, 0.0003561266103237049
964.0, 0.0005305173114219366
965.0, 0.0003096762231396224
966.0, 0.00018951896294100757
967.0, 0.00025646569167593353
968.0, 0.0006454559068495816
969.0, 0.0005939357305745589
970.0, 0.0007639510559639796
971.0, 0.0006233891736003949
972.0, 0.0007267995499521625
973.0, 0.001660381790202462
974.0, 0.0017713900753231556
975.0, 0.00030528575567239605
976.0, 0.0004629595007375544
977.0, 0.00023536528001397717
978.0, 0.0003240414413129656
979.0, 0.00029972001821337884
980.0, 0.00028443649328331437
981.0, 0.0005796291320272198
982.0, 0.00010369004634237305
983.0, 0.00026802883925044975
984.0, 0.0004158086379319337
985.0, 0.0003570003365437451
986.0, 0.0011095776747552476
987.0, 0.0004174095142760049
988.0, 8.289369518347881e-05
989.0, 0.00010632156686537983
990.0, 0.0011801593667802972
991.0, 0.0010597831330941287
992.0, 0.00028294376390942223
993.0, 4.002277554597212e-05
994.0, 0.00018466790972048827
995.0, 0.00025268915198227063
996.0, 0.001491121125031917
997.0, 0.002334076778659469
998.0, 0.0021960494769317643
999.0, 0.002188244885914599
1000.0, 0.0005912130726420496
1001.0, 0.0001823204361691098
1002.0, 2.1927621625365036e-05
1003.0, 0.00021124278574095114
1004.0, 0.00043022495905703306
1005.0, 0.00034168414421566424
1006.0, 0.0005131722553382145
1007.0, 0.0006405563416434724
1008.0, 0.0007969149582496453
1009.0, 0.0015160477939733907
1010.0, 0.0023574253573391073
1011.0, 0.0026285591606133685
1012.0, 0.0024543461436780938
1013.0, 0.0028913250430950463
1014.0, 0.004518635790872669
1015.0, 0.004748269399457165
1016.0, 0.005912796776860856
1017.0, 0.007646370613406491
1018.0, 0.00890869760319622
1019.0, 0.010307558095870644
1020.0, 0.011098134781459906
1021.0, 0.011312366911925937
1022.0, 0.012584255581625651
1023.0, 0.014130595648635745
1024.0, 0.015079971314274578
1025.0, 0.015328281769896842
1026.0, 0.01731092789523999
1027.0, 0.018504748793795822
1028.0, 0.01963821385946941
1029.0, 0.021884880366804558
1030.0, 0.02432259492590503
1031.0, 0.026043961793714508
1032.0, 0.028585560045079575
1033.0, 0.030426491304563284
1034.0, 0.03139930910080702
1035.0, 0.03082651337050596
1036.0, 0.02984024352744416
1037.0, 0.02830621053761318
1038.0, 0.024622790837340296
1039.0, 0.019912603602687012
1040.0, 0.017150538950744615
1041.0, 0.016293242689356044
1042.0, 0.013507592260238604
1043.0, 0.013351485894115021
1044.0, 0.013145855246146126
1045.0, 0.013746424239548694
1046.0, 0.01502376685909257
1047.0, 0.015005254770077452
1048.0, 0.014777302864181276
1049.0, 0.01629965885835876
1050.0, 0.018623218961837502
1051.0, 0.023183959062901792
1052.0, 0.03238914540772913
1053.0, 0.04854272728955836
1054.0, 0.07454545897859306
1055.0, 0.1032726844583167
1056.0, 0.125024222502521
1057.0, 0.14044756947374915
1058.0, 0.15662335753433337
1059.0, 0.17922410209988626
1060.0, 0.21158472549883345
1061.0, 0.2621691501688752
1062.0, 0.34561376147797546
1063.0, 0.4712612012025548
1064.0, 0.6269876092163204
1065.0, 0.7879453993893811
1066.0, 0.9030783872629975
1067.0, 0.8687469365027397
1068.0, 0.6833012175407003
1069.0, 0.5109314332070981
1070.0, 0.43080026806520766
1071.0, 0.44215734033056775
1072.0, 0.5240924054018665
1073.0, 0.6469155352643122
1074.0, 0.8039236433884657
1075.0, 0.9599398969743035
1076.0, 0.9606714662801179
1077.0, 0.7636795053388774
1078.0, 0.5209645543174471
1079.0, 0.3573468426615113
1080.0, 0.273003950078045
1081.0, 0.23738804473930858
1082.0, 0.23095333635478252
1083.0, 0.2383267900202291
1084.0, 0.2544995951910359
1085.0, 0.2742908350676699
1086.0, 0.28786346249690165
1087.0, 0.2867639364219445
1088.0, 0.26573249329176807
1089.0, 0.22457848665069885
1090.0, 0.17716581964144923
1091.0, 0.1334577902420693
1092.0, 0.09880957026703512
1093.0, 0.07399395562576305
1094.0, 0.0559977939009978
1095.0, 0.0436835869541005
1096.0, 0.034733470690100854
1097.0, 0.02771655941055739
1098.0, 0.02281869373937053
1099.0, 0.018914733706640968
1100.0, 0.016225214591165528
1101.0, 0.01350612416898108
1102.0, 0.010782203208943767
1103.0, 0.009375294437977867
1104.0, 0.00842533789681147
1105.0, 0.006724435844732098
1106.0, 0.006525711458388449
1107.0, 0.006096972719276498
1108.0, 0.003963378103813676
1109.0, 0.004229862712907547
1110.0, 0.0026927515219671884
1111.0, 0.003258312371571479
1112.0, 0.0023875009959263126
1113.0, 0.0011093253193256067
1114.0, 0.0010665542369467272
1115.0, 0.0012175178466057935
1116.0, 0.0007301078168169856
1117.0, 0.0004980171738967998
1118.0, 0.0008691218257698026
1119.0, 0.0006460980254867305
1120.0, 0.0004088143373826218
1121.0, 0.0003018168794454542
1122.0, 0.0003050457277549017
1123.0, 0.000572844955792308
1124.0, 0.00025847488334165364
1125.0, 4.596712070408282e-05
1126.0, 0.0002454343461629821
1127.0, 0.00038919039108961954
1128.0, 0.00072550017672855
1129.0, 0.0008352681843826141
1130.0, 0.00030064633934826087
1131.0, 0.00010781721830803994
1132.0, 0.00026329048007724446
1133.0, 0.0002458594019240705
1134.0, 0.00015203736933933472
1135.0, 0.00022270925519748256
1136.0, 0.00019120436640313428
1137.0, 0.00029167851216834373
1138.0, 0.0008293046678078304
1139.0, 0.0004826974017377461
1140.0, 0.0008396235999676459
1141.0, 0.00020495612664459881
1142.0, 0.0004973362777787024
1143.0, 0.000562673501665217
1144.0, 0.0015234441529354157
1145.0, 0.0017087982625508457
1146.0, 0.0010112956177744218
1147.0, 0.0012748368477775007
1148.0, 0.0013449428443065871
1149.0, 0.0016321551663728883
1150.0, 0.002141177256774092
1151.0, 0.0014154350919806918
1152.0, 0.0019486886015715708
1153.0, 0.0022202882335824424
1154.0, 0.0011376722825523315
1155.0, 0.0009123139059149105
1156.0, 0.0013967446054827268
1157.0, 0.0014335958313787102
1158.0, 0.0015846043482250932
1159.0, 0.0010689729505018535
1160.0, 0.0005374100589966817
1161.0, 0.0006654704018066447
1162.0, 0.0003156173055406216
1163.0, 0.00040808648478026394
1164.0, 0.001204852279968344
1165.0, 5.254377001597828e-05
1166.0, 0.0003967520090534908
1167.0, 0.0005986662460896641
1168.0, 0.0005684591865017376
1169.0, 0.0005383952495299055
1170.0, 0.0009133300060018219
1171.0, 0.0013583186394253589
1172.0, 0.0014935574317589582
1173.0, 0.0014237558286611192
1174.0, 0.0012749107964964627
1175.0, 0.0014014281011811675
1176.0, 0.0011965671902747787
1177.0, 0.0014641078260365279
1178.0, 0.002107898726161682
1179.0, 0.0017485144424109107
1180.0, 0.0018235410108167246
1181.0, 0.0023099411211667856
1182.0, 0.0023268433221302533
1183.0, 0.002486596257353946
1184.0, 0.0023784132645523776
1185.0, 0.0018875131394332798
1186.0, 0.0026520294817740982
1187.0, 0.001965419960377329
1188.0, 0.003028543109595741
1189.0, 0.0038407486973335053
1190.0, 0.0043248098614255505
1191.0, 0.004742390348354636
1192.0, 0.004815928924755419
1193.0, 0.00540128325089043
1194.0, 0.006338621135222044
1195.0, 0.006288690343379114
1196.0, 0.0058752360285032066
1197.0, 0.006480929684288089
1198.0, 0.007208548566586541
1199.0, 0.008887122086761654
1200.0, 0.009597340484987938
1201.0, 0.010603937060200226
1202.0, 0.01186307142748791
1203.0, 0.01199897317679965
1204.0, 0.013532778477822156
1205.0, 0.015060659715810054
1206.0, 0.015791642272768757
1207.0, 0.01667660804096857
1208.0, 0.01739995874191922
1209.0, 0.017630130157060112
1210.0, 0.01855272780565052
1211.0, 0.019181370606929968
1212.0, 0.01974487215099993
1213.0, 0.020226097444757264
1214.0, 0.02059064739032509
1215.0, 0.021104697618181425
1216.0, 0.02124819829089013
1217.0, 0.02123492318687377
1218.0, 0.02140580833747725
1219.0, 0.021187651068490028
1220.0, 0.020013421251519267
1221.0, 0.017949052562635112
1222.0, 0.01643329806880078
1223.0, 0.01612868539126103
1224.0, 0.014023010024942838
1225.0, 0.012996057401725653
1226.0, 0.011019376141600744
1227.0, 0.01016630713932709
1228.0, 0.010079950627453258
1229.0, 0.008879295560018933
1230.0, 0.007364698448752492
1231.0, 0.006901435491157628
1232.0, 0.006556818976954556
1233.0, 0.005601705823343969
1234.0, 0.00493808778542128
1235.0, 0.004633252762249428
1236.0, 0.0040418986483924295
1237.0, 0.0031700263046456484
1238.0, 0.002977416566773492
1239.0, 0.0029451616725242966
1240.0, 0.002539020397231138
1241.0, 0.0019262678551458545
1242.0, 0.000503805137585495
1243.0, 0.0004533644117794429
1244.0, 0.0009903183365266323
1245.0, 0.0014661364304623958
1246.0, 0.0018211129951766583
1247.0, 0.001683246726370852
1248.0, 0.00112340415071461
1249.0, 0.00031615017595988323
1250.0, 0.001009950663264708
1251.0, 0.0013946539113851766
1252.0, 0.0007025354300126397
1253.0, 0.0004239301960869375
1254.0, 0.0011112967975201041
1255.0, 0.0009566963456304272
1256.0, 0.0006331737662762122
1257.0, 0.00036522109005298524
1258.0, 0.0002933778469111424
1259.0, 0.00043654039087252864
1260.0, 8.181352454155082e-05
1261.0, 0.0002084009866890134
1262.0, 0.0003890107008392598
1263.0, 0.00019407804678338563
1264.0, 0.0011347035281354828
1265.0, 0.0013553154704684172
1266.0, 0.00017833812910324066
1267.0, 0.0007834164795815204
1268.0, 0.00012179605839474013
1269.0, 1.6922257607580394e-05
1270.0, 0.0006475658875257022
1271.0, 0.0010489592966917624
1272.0, 0.0005532643943638635
1273.0, 1.893679003343574e-05
1274.0, 0.00018647927014151964
1275.0, 0.0005521248140186515
1276.0, 0.0010678525451507314
1277.0, 0.0012837893266610645
1278.0, 0.00043133891380546703
1279.0, 0.0003783169336832739
1280.0, 0.0007254725910031309
1281.0, 0.0012794052065211484
1282.0, 0.0008220699613055517
1283.0, 0.0016457828054443249
1284.0, 0.0007510472617544527
1285.0, 7.48549727921875e-05
1286.0, 0.0007014678741030106
1287.0, 0.0010629788481634097
1288.0, 0.001285687472850961
1289.0, 0.0014164994021796937
1290.0, 0.0002654825313445692
1291.0, 0.0008348203870871256
1292.0, 0.0005225478859274778
1293.0, 0.00013165162450723398
1294.0, 0.0011342741781763131
1295.0, 0.0014694127365748853
1296.0, 0.0010308795139843622
1297.0, 0.0009735691596245904
1298.0, 0.0014523741118032689
1299.0, 0.0012203945884799413
1300.0, 0.0019819514056281197
1301.0, 0.0019211584280840609
1302.0, 0.001195088901646114
1303.0, 0.0013407206450387042
1304.0, 0.000960973020194447
1305.0, 7.36330614567732e-05
1306, 0.0
1307, 0.0
1308, 0.0
1309, 0.0
1310, 0.0
1311, 0.0
1312, 0.0
1313, 0.0
1314, 0.0
1315, 0.0
1316, 0.0
1317, 0.0
1318, 0.0
1319, 0.0
1320, 0.0
1321, 0.0
1322, 0.0
1323, 0.0
1324, 0.0
1325, 0.0
1326, 0.0
1327, 0.0
1328, 0.0
1329, 0.0
1330, 0.0
1331, 0.0
1332, 0.0
1333, 0.0
1334, 0.0
1335, 0.0
1336, 0.0
1337, 0.0
1338, 0.0
1339, 0.0
1340, 0.0
1341, 0.0
1342, 0.0
1343, 0.0
1344, 0.0
1345, 0.0
1346, 0.0
1347, 0.0
1348, 0.0
1349, 0.0
1350, 0.0
1351, 0.0
1352, 0.0
1353, 0.0
1354, 0.0
1355, 0.0
1356, 0.0
1357, 0.0
1358, 0.0
1359, 0.0
1360, 0.0
1361, 0.0
1362, 0.0
1363, 0.0
1364, 0.0
1365, 0.0
1366, 0.0
1367, 0.0
1368, 0.0
1369, 0.0
1370, 0.0
1371, 0.0
1372, 0.0
1373, 0.0
1374, 0.0
1375, 0.0
1376, 0.0
1377, 0.0
1378, 0.0
1379, 0.0
1380, 0.0
1381, 0.0
1382, 0.0
1383, 0.0
1384, 0.0
1385, 0.0
1386, 0.0
1387, 0.0
1388, 0.0
1389, 0.0
1390, 0.0
1391, 0.0
1392, 0.0
1393, 0.0
1394, 0.0
1395, 0.0
1396, 0.0
1397, 0.0
1398, 0.0
1399, 0.0
1400, 0.0
1401, 0.0
1402, 0.0
1403, 0.0
1404, 0.0
1405, 0.0
1406, 0.0
1407, 0.0
1408, 0.0
1409, 0.0
1410, 0.0
1411, 0.0
1412, 0.0
1413, 0.0
1414, 0.0
1415, 0.0
1416, 0.0
1417, 0.0
1418, 0.0
1419, 0.0
1420, 0.0
1421, 0.0
1422, 0.0
1423, 0.0
1424, 0.0
1425, 0.0
1426, 0.0
1427, 0.0
1428, 0.0
1429, 0.0
1430, 0.0
1431, 0.0
1432, 0.0
1433, 0.0
1434, 0.0
1435, 0.0
1436, 0.0
1437, 0.0
1438, 0.0
1439, 0.0
1440, 0.0
1441, 0.0
1442, 0.0
1443, 0.0
1444, 0.0
1445, 0.0
1446, 0.0
1447, 0.0
1448, 0.0
1449, 0.0
1450, 0.0
1451, 0.0
1452, 0.0
1453, 0.0
1454, 0.0
1455, 0.0
1456, 0.0
1457, 0.0
1458, 0.0
1459, 0.0
1460, 0.0
1461, 0.0
1462, 0.0
1463, 0.0
1464, 0.0
1465, 0.0
1466, 0.0
1467, 0.0
1468, 0.0
1469, 0.0
1470, 0.0
1471, 0.0
1472, 0.0
1473, 0.0
1474, 0.0
1475, 0.0
1476, 0.0
1477, 0.0
1478, 0.0
1479, 0.0
1480, 0.0
1481, 0.0
1482, 0.0
1483, 0.0
1484, 0.0
1485, 0.0
1486, 0.0
1487, 0.0
1488, 0.0
1489, 0.0
1490, 0.0
1491, 0.0
1492, 0.0
1493, 0.0
1494, 0.0
1495, 0.0
1496, 0.0
1497, 0.0
1498, 0.0
1499, 0.0
1500, 0.0
1501, 0.0
1502, 0.0
1503, 0.0
1504, 0.0
1505, 0.0
1506, 0.0
1507, 0.0
1508, 0.0
1509, 0.0
1510, 0.0
1511, 0.0
1512, 0.0
1513, 0.0
1514, 0.0
1515, 0.0
1516, 0.0
1517, 0.0
1518, 0.0
1519, 0.0
1520, 0.0
1521, 0.0
1522, 0.0
1523, 0.0
1524, 0.0
1525, 0.0
1526, 0.0
1527, 0.0
1528, 0.0
1529, 0.0
1530, 0.0
1531, 0.0
1532, 0.0
1533, 0.0
1534, 0.0
1535, 0.0
1536, 0.0
1537, 0.0
1538, 0.0
1539, 0.0
1540, 0.0
1541, 0.0
1542, 0.0
1543, 0.0
1544, 0.0
1545, 0.0
1546, 0.0
1547, 0.0
1548, 0.0
1549, 0.0
1550, 0.0
1551, 0.0
1552, 0.0
1553, 0.0
1554, 0.0
1555, 0.0
1556, 0.0
1557, 0.0
1558, 0.0
1559, 0.0
1560, 0.0
1561, 0.0
1562, 0.0
1563, 0.0
1564, 0.0
1565, 0.0
1566, 0.0
1567, 0.0
1568, 0.0
1569, 0.0
1570, 0.0
1571, 0.0
1572, 0.0
1573, 0.0
1574, 0.0
1575, 0.0
1576, 0.0
1577, 0.0
1578, 0.0
1579, 0.0
1580, 0.0
1581, 0.0
1582, 0.0
1583, 0.0
1584, 0.0
1585, 0.0
1586, 0.0
1587, 0.0
1588, 0.0
1589, 0.0
1590, 0.0
1591, 0.0
1592, 0.0
1593, 0.0
1594, 0.0
1595, 0.0
1596, 0.0
1597, 0.0
1598, 0.0
1599, 0.0
