30, 0.0
31, 0.0
32, 0.0
33, 0.0
34, 0.0
35, 0.0
36, 0.0
37, 0.0
38, 0.0
39, 0.0
40, 0.0
41, 0.0
42, 0.0
43, 0.0
44, 0.0
45, 0.0
46, 0.0
47, 0.0
48, 0.0
49, 0.0
50, 0.0
51, 0.0
52, 0.0
53, 0.0
54, 0.0
55, 0.0
56, 0.0
57, 0.0
58, 0.0
59, 0.0
60, 0.0
61, 0.0
62, 0.0
63, 0.0
64, 0.0
65, 0.0
66, 0.0
67, 0.0
68, 0.0
69, 0.0
70, 0.0
71, 0.0
72, 0.0
73, 0.0
74, 0.0
75, 0.0
76, 0.0
77, 0.0
78, 0.0
79, 0.0
80, 0.0
81, 0.0
82, 0.0
83, 0.0
84, 0.0
85, 0.0
86, 0.0
87, 0.0
88, 0.0
89, 0.0
90, 0.0
91, 0.0
92, 0.0
93, 0.0
94, 0.0
95, 0.0
96, 0.0
97, 0.0
98, 0.0
99, 0.0
100, 0.0
101, 0.0
102, 0.0
103, 0.0
104, 0.0
105, 0.0
106, 0.0
107, 0.0
108, 0.0
109, 0.0
110, 0.0
111, 0.0
112, 0.0
113, 0.0
114, 0.0
115, 0.0
116, 0.0
117, 0.0
118, 0.0
119, 0.0
120, 0.0
121.0, 0.00011138916595579441
122.0, 0.005947389494790789
123.0, 0.020467999663515465
124.0, 0.023731015597093837
125.0, 0.0145078009689577
126.0, 0.009534232307317859
127.0, 0.010259660391631292
128.0, 0.014537881945092809
129.0, 0.02111790112423427
130.0, 0.02911477493097872
131.0, 0.035872280298048356
132.0, 0.04187255203798105
133.0, 0.04765326509820897
134.0, 0.051047240555862086
135.0, 0.055632464841222265
136.0, 0.06502583181684392
137.0, 0.071668290688028
138.0, 0.07707873307725509
139.0, 0.09701682839185403
140.0, 0.09366694769739482
141.0, 0.0809627680129962
142.0, 0.07139484064931267
143.0, 0.06593007502832869
144.0, 0.06288428350199472
145.0, 0.06352425098493465
146.0, 0.06691072114608981
147.0, 0.07097499211469499
148.0, 0.07475695408977438
149.0, 0.07348669819689906
150.0, 0.071351621437166
151.0, 0.07249157555664362
152.0, 0.07581531055908124
153.0, 0.0768473792425943
154.0, 0.08336907651372771
155.0, 0.09043154045109106
156.0, 0.07898001179818515
157.0, 0.0764831079472655
158.0, 0.07734550195213041
159.0, 0.07639617719552379
160.0, 0.0706696623585709
161.0, 0.07624735606506731
162.0, 0.08279936723005679
163.0, 0.08594725031511193
164.0, 0.08566451744935322
165.0, 0.08262745373933898
166.0, 0.07889685863163597
167.0, 0.07874227860289837
168.0, 0.07769454131321378
169.0, 0.06919529471056989
170.0, 0.06714591701818075
171.0, 0.06453401922267424
172.0, 0.05796103823278124
173.0, 0.04982989836268791
174.0, 0.049761188522425455
175.0, 0.04582062724607117
176.0, 0.03971793547615475
177.0, 0.03644346815944807
178.0, 0.0357731559365017
179.0, 0.029562666773120833
180.0, 0.023541894964499845
181.0, 0.021669594891881843
182.0, 0.02265191692440808
183.0, 0.016174884901337096
184.0, 0.013733106672984352
185.0, 0.015935815595132255
186.0, 0.017802241645135598
187.0, 0.014743065568460284
188.0, 0.009617383772776957
189.0, 0.004209928392038247
190.0, 0.0012017930432927457
191.0, 0.0029537773304165456
192.0, 0.000871822412197357
193.0, 0.0013677818539925405
194.0, 0.0035224167002667374
195.0, 0.0004792809572416075
196.0, 0.0004942404235230703
197.0, 0.001980736764570663
198.0, 0.003022048018904501
199.0, 0.0005323376576378352
200.0, 0.0009534031589487452
201.0, 0.002059387063426533
202.0, 0.0024018584635965294
203.0, 0.002989344529836946
204.0, 0.004893287926902973
205.0, 0.0021106375662879456
206.0, 0.0031713958360544484
207.0, 0.006634984996661466
208.0, 0.007572802572085502
209.0, 0.0038132821456017267
210.0, 0.002242288822666423
211.0, 0.0029766933400568697
212.0, 0.003612693859213731
213.0, 0.0011657412500582197
214.0, 0.002993634166594585
215.0, 0.0031758631428092077
216.0, 0.0010870702344538293
217.0, 0.0002054331956345199
218.0, 0.0003744499456402808
219.0, 0.005678689741248496
220.0, 0.005313182069227844
221.0, 0.0015425211281260207
222.0, 0.0101615394760692
223.0, 0.009849379683193766
224.0, 0.014642969552022071
225.0, 0.020317808459659786
226.0, 0.019745749850507085
227.0, 0.022969173452729023
228.0, 0.029621020802924034
229.0, 0.03363566352721233
230.0, 0.03471555118560478
231.0, 0.039663487348146384
232.0, 0.04786988628434922
233.0, 0.051341768213164406
234.0, 0.05783795204708156
235.0, 0.07268301959794457
236.0, 0.07947819147794119
237.0, 0.08797424362246944
238.0, 0.09549464108740491
239.0, 0.1021845156074622
240.0, 0.11264285487139665
241.0, 0.13019810873398144
242.0, 0.1494684575039401
243.0, 0.16327353842459136
244.0, 0.17122559899712508
245.0, 0.1864830674508449
246.0, 0.20011564537795404
247.0, 0.21374778643193307
248.0, 0.22621033920237035
249.0, 0.2339835409523348
250.0, 0.25065403204883097
251.0, 0.2646633808696831
252.0, 0.27622602897463544
253.0, 0.289058394603983
254.0, 0.3084043010655183
255.0, 0.3244777837948254
256.0, 0.33864298466142234
257.0, 0.3501447651634373
258.0, 0.3575851629907059
259.0, 0.36919647163728725
260.0, 0.37943952585913415
261.0, 0.3773373537895703
262.0, 0.36428471577037946
263.0, 0.3561296706134651
264.0, 0.3366874118511938
265.0, 0.3159425118010345
266.0, 0.29167909398397285
267.0, 0.2604474198711255
268.0, 0.23509940865015894
269.0, 0.21308624236790816
270.0, 0.1951086923750441
271.0, 0.1783010332668215
272.0, 0.15783121701271438
273.0, 0.1430328134430134
274.0, 0.12752552367595982
275.0, 0.11194194048058105
276.0, 0.09739637656163298
277.0, 0.0809210365038583
278.0, 0.0740924409089177
279.0, 0.0660565656175589
280.0, 0.053535880154897394
281.0, 0.040150357467879545
282.0, 0.031986102972067706
283.0, 0.018966182031453744
284.0, 0.011930485187977118
285.0, 0.012140531381993409
286.0, 0.006870227200077669
287.0, 0.0014265067173694626
288.0, 0.00439519526568412
289.0, 0.005307774407851208
290.0, 0.004924671365002375
291.0, 0.005505602272262586
292.0, 0.00047794143185149235
293.0, 0.0025878615966363873
294.0, 0.002512999323833174
295.0, 0.005195605674980137
296.0, 0.007806732970452381
297.0, 0.016537671694357603
298.0, 0.0228348028100131
299.0, 0.026590859114152862
300.0, 0.03607100899257253
301.0, 0.040144310622849615
302.0, 0.04648082953661761
303.0, 0.05475248411876893
304.0, 0.05892383842379738
305.0, 0.05221682168497332
306.0, 0.056627466064894265
307.0, 0.06176966714332394
308.0, 0.06335915188162065
309.0, 0.06430754437883075
310.0, 0.06900525860248499
311.0, 0.076286618625962
312.0, 0.08524156780013416
313.0, 0.09772755274175882
314.0, 0.11570903448426118
315.0, 0.13545809727009858
316.0, 0.15707069185319394
317.0, 0.18281502663869084
318.0, 0.21292907828008562
319.0, 0.24541799291007296
320.0, 0.27795334268905664
321.0, 0.30794178315085224
322.0, 0.3403908849870239
323.0, 0.3763156443865335
324.0, 0.40664928066489
325.0, 0.4461354567810293
326.0, 0.48874528525970024
327.0, 0.5324099164522886
328.0, 0.5800898481347107
329.0, 0.636316226311144
330.0, 0.6935940510355988
331.0, 0.764070199323896
332.0, 0.8395692749311726
333.0, 0.9017564852264545
334.0, 0.9570176478491461
335.0, 0.9926068100590696
336.0, 0.9971592216560393
337.0, 0.9657239532613312
338.0, 0.898728386665945
339.0, 0.7946439683994739
340.0, 0.6723728476670594
341.0, 0.544951502605196
342.0, 0.42405049504033476
343.0, 0.3209790869614825
344.0, 0.2326506526622353
345.0, 0.16771068053469293
346.0, 0.12157340194743337
347.0, 0.08555891348952072
348.0, 0.0558707245498832
349.0, 0.03711685408534321
350.0, 0.02395436363761843
351.0, 0.015033900540539531
352.0, 0.01100118672201468
353.0, 0.009351991546391077
354.0, 0.012029478577949356
355.0, 0.019714422197510295
356.0, 0.02620600802002117
357.0, 0.029313713961111272
358.0, 0.0420635532084998
359.0, 0.05523924871403178
360.0, 0.07597080740753824
361.0, 0.10073460208434168
362.0, 0.12174269003557434
363.0, 0.1501547468483369
364.0, 0.17748948680793308
365.0, 0.20353114994051535
366.0, 0.23015329230669923
367.0, 0.25876113017694363
368.0, 0.29142655285503544
369.0, 0.31736262418606415
370.0, 0.33732342685233
371.0, 0.3542471696457879
372.0, 0.3685404533016883
373.0, 0.3856949515661354
374.0, 0.40301867344289727
375.0, 0.42304609659491443
376.0, 0.446693696689888
377.0, 0.46950765337722666
378.0, 0.48798896037704687
379.0, 0.49117711366372097
380.0, 0.476207877535428
381.0, 0.44336894190929377
382.0, 0.39377002218480395
383.0, 0.3403342017653874
384.0, 0.2807409767312978
385.0, 0.22254278779433234
386.0, 0.17271185755987342
387.0, 0.13077301078936845
388.0, 0.09588195406585764
389.0, 0.07284397924383455
390.0, 0.06009994215141795
391.0, 0.05084565836945424
392.0, 0.03861337425599353
393.0, 0.03197713728637455
394.0, 0.025778404586298757
395.0, 0.020533591971932476
396.0, 0.018088275782293686
397.0, 0.017588519062101054
398.0, 0.016566079704280784
399.0, 0.013318457498769263
400.0, 0.008862557411314075
401.0, 0.005846114937401069
402.0, 0.008440428970995287
403.0, 0.007808579235410139
404.0, 0.008595471171978303
405.0, 0.009524482006485258
406.0, 0.0074949988262641674
407.0, 0.002776500934682656
408.0, 0.0007141358844777512
409.0, 0.0001287353005558606
410.0, 0.0016812820369657123
411.0, 0.00411614128447913
412.0, 0.004789643308680577
413.0, 0.002124740551719563
414.0, 0.005016197677007199
415.0, 0.007535035096812583
416.0, 0.005560923972859067
417.0, 0.004672572655001291
418.0, 0.0029493422025341637
419.0, 0.0035434472297068346
420.0, 0.004311195055109101
421.0, 0.003325999407812751
422.0, 0.001321680055602324
423.0, 0.0044414117660766545
424.0, 0.004485914767926542
425.0, 0.0037792809122693415
426.0, 0.006094417272610475
427.0, 0.009279966240901289
428.0, 0.0033387595586646525
429.0, 0.007727455804003021
430.0, 0.012485809364468713
431.0, 0.011298784296577115
432.0, 0.011802876746882313
433.0, 0.012931292317057532
434.0, 0.011649019136040585
435.0, 0.012718097178414085
436.0, 0.016086290766675178
437.0, 0.01669557612835884
438.0, 0.014240078307313303
439.0, 0.01619451485319192
440.0, 0.019212079230811765
441.0, 0.01854947088639669
442.0, 0.014212563954125602
443.0, 0.015774665138553245
444.0, 0.018691058719125284
445.0, 0.016124432786406375
446.0, 0.013450601610613141
447.0, 0.016370196821349218
448.0, 0.015388888826137911
449.0, 0.01457168469585608
450.0, 0.0160812691004504
451.0, 0.017536885939012238
452.0, 0.017617318108452504
453.0, 0.020170519866064728
454.0, 0.016829610615245637
455.0, 0.016973046299995367
456.0, 0.019429033276952383
457.0, 0.021006704305987747
458.0, 0.022668084181665524
459.0, 0.019712501825989777
460.0, 0.01781325736624925
461.0, 0.01939714887734707
462.0, 0.020751777191556176
463.0, 0.017982799563483393
464.0, 0.01754151199990627
465.0, 0.022780522737740613
466.0, 0.024740753234344413
467.0, 0.022930726700574056
468.0, 0.022522957989237022
469.0, 0.017027483145164665
470.0, 0.018539686336628256
471.0, 0.020739890719109498
472.0, 0.019754635141386274
473.0, 0.01799153886790678
474.0, 0.019528140607289177
475.0, 0.01884400724475114
476.0, 0.0179616410535973
477.0, 0.017108123535949035
478.0, 0.015098302758785811
479.0, 0.012172033291180794
480.0, 0.014246633700314457
481.0, 0.013737308589709413
482.0, 0.012110478153351445
483.0, 0.012231487219261183
484.0, 0.014038450316508976
485.0, 0.015125470836989709
486.0, 0.014807224141127702
487.0, 0.014109945699986673
488.0, 0.01389179416212427
489.0, 0.013557080735099472
490.0, 0.010568833879897788
491.0, 0.011883697906653605
492.0, 0.01081649978115868
493.0, 0.008507562858826359
494.0, 0.008781807394288878
495.0, 0.009308516222108905
496.0, 0.006639552967232431
497.0, 0.00861555256526209
498.0, 0.009899764458896952
499.0, 0.00750818288106824
500.0, 0.006618930164464358
501.0, 0.006734783307893686
502.0, 0.007426752953580119
503.0, 0.008445179781768865
504.0, 0.00828753182064353
505.0, 0.00620478675486718
506.0, 0.004677104067365287
507.0, 0.0051245333086211665
508.0, 0.006200485232304758
509.0, 0.006297350982759881
510.0, 0.004769885434007792
511.0, 0.0028639066865891382
512.0, 0.0032888897504723324
513.0, 0.0030157448898839975
514.0, 0.0026553625901968706
515.0, 0.0035121378962821876
516.0, 0.004541039503339969
517.0, 0.004777984680772521
518.0, 0.004212264482490848
519.0, 0.00710589029317275
520.0, 0.008588402198062693
521.0, 0.004538871724476794
522.0, 0.0031711143735576332
523.0, 0.005967059958308817
524.0, 0.007402113848640358
525.0, 0.005936381755130854
526.0, 0.004208802666370686
527.0, 0.005562258950785901
528.0, 0.00788446879442857
529.0, 0.00897595747239991
530.0, 0.006967306306678661
531.0, 0.005562044766808164
532.0, 0.007280940453039708
533.0, 0.007304851113018438
534.0, 0.008443621451720647
535.0, 0.008233064765600422
536.0, 0.007935486514619724
537.0, 0.007715980144372326
538.0, 0.005590626508801645
539.0, 0.003749850237730594
540.0, 0.005658481809944922
541.0, 0.006279349227735206
542.0, 0.0045549840394120975
543.0, 0.0030815058322898044
544.0, 0.00241548007449888
545.0, 0.004017971417282287
546.0, 0.006151793783625002
547.0, 0.005305276557642622
548.0, 0.002566072082242577
549.0, 0.0024995286271441855
550.0, 0.0005106761443128913
551.0, 0.00022044643766392345
552.0, 0.0019426776533157852
553.0, 0.0034708154708813577
554.0, 0.0015861773931318025
555.0, 0.00041364141805386997
556.0, 0.0007422899162434577
557.0, 0.002147788664931968
558.0, 0.0026941932922407465
559.0, 0.0018993703334641142
560.0, 0.0010150535236646216
561.0, 0.0017464984153773857
562.0, 0.000336196072446258
563.0, 0.0016290080683782748
564.0, 0.0009513067556349195
565.0, 0.0005065548819456848
566.0, 0.00026072025470092613
567.0, 0.001018135524725426
568.0, 0.0005027391299122787
569.0, 0.0020558352358238515
570.0, 0.0041072165679182145
571.0, 0.0011242648864570105
572.0, 0.001449025390526353
573.0, 0.00026626209616293386
574.0, 0.0005155402538960279
575.0, 8.29030268507711e-05
576.0, 0.000593386881736385
577.0, 0.004629986376654126
578.0, 0.002371216227011819
579.0, 0.003379644047292063
580.0, 0.0031538667794871263
581.0, 0.0032942356622118513
582.0, 0.005332393549164641
583.0, 0.004290938055664921
584.0, 0.001976113173453939
585.0, 0.002769129706494209
586.0, 0.003965807400684912
587.0, 0.0035670756401901416
588.0, 0.003201970432845706
589.0, 0.008158776019044592
590.0, 0.00789670502982231
591.0, 0.005455117978243059
592.0, 0.007404744299975132
593.0, 0.012028386081732633
594.0, 0.011545084833335143
595.0, 0.009913129059507116
596.0, 0.012381363001561948
597.0, 0.010582427523737394
598.0, 0.00983406906911979
599.0, 0.012107773174173405
600.0, 0.010767520642487791
601.0, 0.01092699313422884
602.0, 0.00973498146405352
603.0, 0.010576322622487137
604.0, 0.01311763541748011
605.0, 0.014656524636250131
606.0, 0.013142036282470982
607.0, 0.01067765132939074
608.0, 0.009158126381373703
609.0, 0.010197091215350593
610.0, 0.011990537723177052
611.0, 0.012298406047184055
612.0, 0.01154282062995459
613.0, 0.008993114246533745
614.0, 0.009968850312671338
615.0, 0.01052703629969871
616.0, 0.00926668024850601
617.0, 0.008787798723585528
618.0, 0.01130638068593184
619.0, 0.007995018967543899
620.0, 0.006521968315509279
621.0, 0.005956119561873257
622.0, 0.004469345355691486
623.0, 0.003194323459707198
624.0, 0.0024716626332833207
625.0, 0.0012677947174781017
626.0, 0.003575179874163763
627.0, 0.0033237379941710955
628.0, 0.0010060029384486165
629.0, 0.00320606670215788
630.0, 0.0027329765224860464
631.0, 0.0029136618777646723
632.0, 0.0010832660578497296
633.0, 0.001821476451865583
634.0, 0.0018524138722163788
635.0, 0.0019595098122450675
636.0, 0.0021758325929295643
637.0, 0.00035359741511212586
638.0, 0.0011641701749908976
639.0, 0.0015413420512819373
640.0, 0.00023656138133337068
641.0, 6.364909319565638e-05
642.0, 0.0006580176659027211
643.0, 0.001409330643174973
644.0, 0.0006655537212418364
645.0, 0.0018270439082960599
646.0, 0.004797050920851881
647.0, 0.0036586039180759493
648.0, 0.007679585836847475
649.0, 0.006970857325688835
650.0, 0.006662344574434461
651.0, 0.007733039631434239
652.0, 0.009221575421482898
653.0, 0.010831258450533076
654.0, 0.009465981264470461
655.0, 0.014673055822788725
656.0, 0.01645876149396333
657.0, 0.017568619894425524
658.0, 0.020589256042015468
659.0, 0.023716628121836957
660.0, 0.028357914138124548
661.0, 0.029163722528462183
662.0, 0.03499580698513085
663.0, 0.03835153942436585
664.0, 0.03775212839147381
665.0, 0.040543952050254344
666.0, 0.04387421069386915
667.0, 0.04528906440652949
668.0, 0.04462515999269269
669.0, 0.046053685799661466
670.0, 0.05061141615533026
671.0, 0.054084760113144704
672.0, 0.05052283233195762
673.0, 0.05032061992451608
674.0, 0.05204820736855228
675.0, 0.05353494058450039
676.0, 0.05238641312617544
677.0, 0.048678070923076994
678.0, 0.04643516299391418
679.0, 0.040795560321234
680.0, 0.039238734805237666
681.0, 0.037835599839690516
682.0, 0.03327192186787888
683.0, 0.02849104740155818
684.0, 0.028440957596443814
685.0, 0.023426138739788886
686.0, 0.017587498949922262
687.0, 0.016693856645560567
688.0, 0.014678058494911309
689.0, 0.009493904911018149
690.0, 0.00876477167792301
691.0, 0.006443815004034631
692.0, 0.004217423537402533
693.0, 0.0038096483494866502
694.0, 0.002943329840217216
695.0, 0.0011774873413339729
696.0, 0.0006655749633364813
697.0, 0.0028224125781292075
698.0, 0.0046847635921225235
699.0, 0.004350411934010958
700.0, 0.005818633697211484
701.0, 0.006467356008519355
702.0, 0.0040312019502907305
703.0, 0.008085894251272223
704.0, 0.008218408113738699
705.0, 0.006472301843426593
706.0, 0.006950475525656221
707.0, 0.009492900143923115
708.0, 0.012483510189618732
709.0, 0.014883623758522832
710.0, 0.013451166784677553
711.0, 0.015680229061093152
712.0, 0.01667899091624031
713.0, 0.017971159131776226
714.0, 0.021221218347535774
715.0, 0.023242116624832308
716.0, 0.022285280155267734
717.0, 0.020670773246328634
718.0, 0.021235931946304982
719.0, 0.021288999191827005
720.0, 0.01984424983287261
721.0, 0.018648638273285674
722.0, 0.01822792920563332
723.0, 0.01679245444486252
724.0, 0.017134149610821617
725.0, 0.01632481193011424
726.0, 0.01526998999115271
727.0, 0.015296343269620288
728.0, 0.01446321616594471
729.0, 0.012007429227720114
730.0, 0.011335070461691268
731.0, 0.011667700934021225
732.0, 0.010588281561751524
733.0, 0.00965180331023758
734.0, 0.009025987002440422
735.0, 0.0032108658965964627
736.0, 0.006058542879143229
737.0, 0.003975615110504338
738.0, 0.0018241703758281414
739.0, 0.003581701478271715
740.0, 0.004566674571177694
741.0, 0.00034809861877543196
742.0, 0.0034980501900914686
743.0, 0.0048016163918945245
744.0, 0.0023948837310372806
745.0, 0.0023524981938669
746.0, 0.002496893427934662
747.0, 0.00037949348388345626
748.0, 0.002399449553971135
749.0, 0.002118224684888411
750.0, 0.0004888359063349378
751.0, 0.00048278555995213626
752.0, 0.002114597683851502
753.0, 0.0031632370510081814
754.0, 0.0013077728788474532
755.0, 0.0004526798516614464
756.0, 0.002459612202039982
757.0, 0.0008238610920426652
758.0, 0.001985043782914023
759.0, 0.0033268243210991867
760.0, 0.0029446790703186194
761.0, 0.00037145782242995753
762.0, 0.0012654040909952785
763.0, 0.004937936864972157
764.0, 0.006978218152269354
765.0, 0.0049129481611553585
766.0, 0.0016567723682588188
767.0, 0.0016883313962376648
768.0, 0.0030559670836714957
769.0, 0.0019141969053551597
770.0, 0.0035670865094240382
771.0, 0.0026824329532505737
772.0, 0.002998858875538442
773.0, 0.004514888446172789
774.0, 0.001561045492582872
775.0, 0.005104187605610676
776.0, 0.0028425509344167962
777.0, 0.0034254443583163507
778.0, 0.003431931472288184
779.0, 0.003169300116718041
780.0, 0.0041139293750727425
781.0, 0.003132998236797594
782.0, 0.002088252138634114
783.0, 0.0026334246940327146
784.0, 0.0025350822615812945
785.0, 0.0007180839417296283
786.0, 0.0014105117519094617
787.0, 0.0033188561235669876
788.0, 0.0018264085146443803
789.0, 0.00027788215668909916
790.0, 0.000625689566693917
791.0, 0.0007426499359677781
792.0, 0.0017017653300330322
793.0, 0.002106951007856264
794.0, 0.0016598782403546687
795.0, 0.0030413826165101936
796.0, 0.0006293536444598169
797.0, 0.00032750733297412114
798.0, 0.001318946212938004
799.0, 0.0006658532925452901
800.0, 0.0007980936458257238
801.0, 0.0004948041375742627
802.0, 0.002734717964761748
803.0, 0.004578854561038361
804.0, 0.00493629574746775
805.0, 0.004009671755223588
806.0, 0.00422213361820984
807.0, 0.004963223157489321
808.0, 0.003933235503122347
809.0, 0.003264489079252542
810.0, 0.0019791234852206694
811.0, 0.0006073093232919629
812.0, 0.00038233958899351237
813.0, 0.0017304610133798974
814.0, 0.003818456547427225
815.0, 0.0022539792154803086
816.0, 0.0023300880154011787
817.0, 0.0070823115002235934
818.0, 0.006094044542943105
819.0, 0.005145105517479726
820.0, 0.003376629853427167
821.0, 0.0024386581078230667
822.0, 0.005753795266202268
823.0, 0.006462891909195742
824.0, 0.00506744332991785
825.0, 0.003578996350883995
826.0, 0.003996877870548737
827.0, 0.004339249090243633
828.0, 0.0034510880742976867
829.0, 0.0025907072853101052
830.0, 0.002813442370625328
831.0, 0.0013728025626896876
832.0, 0.002820014424202429
833.0, 0.0044805503424575725
834.0, 0.0039526377165262335
835.0, 0.003981023816691346
836.0, 0.005640157594154174
837.0, 0.004048248166741709
838.0, 0.0031190422682025464
839.0, 0.004698721136216737
840.0, 0.007257463852808115
841.0, 0.006100022058297277
842.0, 0.004972550280749084
843.0, 0.006384883169555913
844.0, 0.00486676422891651
845.0, 0.004595418940013317
846.0, 0.008331653777230622
847.0, 0.007974176507702272
848.0, 0.005636408700895887
849.0, 0.0043877593575910355
850.0, 0.004337260854151019
851.0, 0.004044288639906911
852.0, 0.00320177303156773
853.0, 0.0050485688427273105
854.0, 0.006441348173202378
855.0, 0.007336207681341206
856.0, 0.00753219074100687
857.0, 0.006870539110200204
858.0, 0.006505469551156901
859.0, 0.007991419584237422
860.0, 0.0072164669265321005
861.0, 0.00495311775154906
862.0, 0.005111055202090662
863.0, 0.004701397807515269
864.0, 0.0044647982107821746
865.0, 0.004777204914514863
866.0, 0.002947013061178413
867.0, 0.006011012764113396
868.0, 0.003991215363635085
869.0, 0.004882303567995124
870.0, 0.004756587301060444
871.0, 0.004957941814481798
872.0, 0.0058756167926490195
873.0, 0.00466172157247905
874.0, 0.004210422932026362
875.0, 0.007361831839328467
876.0, 0.0060128412147719456
877.0, 0.004073996833168188
878.0, 0.0031568669525855048
879.0, 0.0024048765545238164
880.0, 0.0019464388587685842
881.0, 0.002843905249886756
882.0, 0.00423855424197342
883.0, 0.004944316918753698
884.0, 0.0026809756507486945
885.0, 0.003918753431645738
886.0, 0.003830153655381018
887.0, 0.0009159694677469253
888.0, 0.0010355978138807057
889.0, 0.0028550470752910875
890.0, 0.003784587158103673
891.0, 0.002363147688141141
892.0, 0.00045958797643565874
893.0, 0.0014277743104459516
894.0, 0.0021288033925753913
895.0, 0.00045828012969895295
896.0, 0.0017668981688162585
897.0, 0.0031450071155871414
898.0, 0.00029953630748873043
899.0, 0.0013803923350982033
900.0, 0.0029718136456508993
901.0, 0.0020014233410893902
902.0, 0.0005665493606816327
903.0, 0.0007840552911760856
904.0, 0.00204515812036577
905.0, 0.0034054848968017703
906.0, 0.003441178640569819
907.0, 0.002572421015106257
908.0, 0.0008611172365009694
909.0, 0.0017182225515515732
910.0, 0.00290736291195249
911.0, 0.0011594869253546932
912.0, 0.0013518604392585873
913.0, 0.0014979490569840112
914.0, 0.0016399696453368992
915.0, 0.0016530040799888149
916.0, 0.0015015417791571645
917.0, 0.0007464685124628342
918.0, 0.0006708850449909675
919.0, 0.0013869787691130604
920.0, 0.0005301326779041252
921.0, 0.0011427568260679213
922.0, 0.002086179698261258
923.0, 0.00022927084865677013
924.0, 0.0004086542353101987
925.0, 0.0021850395234548226
926.0, 0.0015073503163500462
927.0, 0.0005275863188610077
928.0, 0.0005903918418435324
929.0, 0.0014432049387549392
930.0, 0.0040777387750976345
931.0, 0.001636900682568485
932.0, 0.0009727561441887168
933.0, 0.0021275555667932887
934.0, 0.005355150117009234
935.0, 0.004326859152296197
936.0, 0.004925246020584004
937.0, 0.005396144268500168
938.0, 0.004029193954767591
939.0, 0.003029969601863665
940.0, 0.0017494324429349539
941.0, 0.001823692870412982
942.0, 0.002833565220165568
943.0, 0.0028565034118503536
944.0, 0.0037229552382790974
945.0, 0.0010992954012713286
946.0, 0.0025378712846600643
947.0, 0.0015950611176539235
948.0, 0.001917814866511509
949.0, 0.0036792456359190347
950.0, 0.004084318703370469
951.0, 0.002522766332011158
952.0, 0.000588703715356833
953.0, 0.0011164939165126194
954.0, 0.0032284040569593862
955.0, 0.0019790712377570872
956.0, 0.002887881580223749
957.0, 0.003943373310472305
958.0, 0.00377038685994748
959.0, 0.005281589173896274
960.0, 0.005328460689125755
961.0, 0.0016361701303505877
962.0, 0.001164538400472269
963.0, 0.0006785345585914301
964.0, 0.00017887461476049455
965.0, 0.0020937690994115785
966.0, 0.0040127036055036995
967.0, 0.004313181567263411
968.0, 0.00201623471807149
969.0, 0.0013629672387103933
970.0, 0.0023045387041851083
971.0, 0.00452073929951949
972.0, 0.003453368345830297
973.0, 0.0010446785498189521
974.0, 0.0009549603715457509
975.0, 0.0010312229253254981
976.0, 0.00046741196170145115
977.0, 0.004153930306359482
978.0, 0.0050087006873254765
979.0, 0.0003882625959591086
980.0, 0.004612960599288204
981.0, 0.0029733903584820173
982.0, 0.0014747707678878644
983.0, 0.0028089715978765546
984.0, 0.003091106295565194
985.0, 0.004633621191589605
986.0, 0.005456330780700596
987.0, 0.00299810498637325
988.0, 0.009332933438730493
989.0, 0.007313907388843344
990.0, 0.00752015795770537
991.0, 0.0071402650742727145
992.0, 0.004917663957155245
993.0, 0.007131910094281831
994.0, 0.009424512059371882
995.0, 0.005250536919538869
996.0, 0.005895907894488423
997.0, 0.008507738451091526
998.0, 0.0063754062461344576
999.0, 0.004366754129860149
1000.0, 0.00742597658669788
1001.0, 0.011200002019494792
1002.0, 0.010746313838011803
1003.0, 0.010112701557995332
1004.0, 0.012630887116650155
1005.0, 0.010976957195546286
1006.0, 0.013139405431759947
1007.0, 0.013259127075459174
1008.0, 0.013219587452065236
1009.0, 0.014904072372193478
1010.0, 0.016337646658125527
1011.0, 0.016981727169556583
1012.0, 0.01869398335037191
1013.0, 0.01773278860570463
1014.0, 0.019440233464004163
1015.0, 0.016415089488716183
1016.0, 0.013038399293046494
1017.0, 0.013905751695973386
1018.0, 0.013486969793043672
1019.0, 0.011048694931957067
1020.0, 0.012110892511876388
1021.0, 0.009779085657534575
1022.0, 0.009078331398074789
1023.0, 0.009982262993162488
1024.0, 0.009555350410116504
1025.0, 0.008391692412062661
1026.0, 0.007124853174625577
1027.0, 0.007970330061407772
1028.0, 0.010385648819979096
1029.0, 0.010129927175082628
1030.0, 0.006976822673031491
1031.0, 0.006355136226069179
1032.0, 0.006094267873561906
1033.0, 0.00801037078998881
1034.0, 0.007045805329348516
1035.0, 0.0063584002331965594
1036.0, 0.00694589372001852
1037.0, 0.006022701366576102
1038.0, 0.004661058593406978
1039.0, 0.006638038389334542
1040.0, 0.007019585459297474
1041.0, 0.0051998867778635756
1042.0, 0.003997024794526472
1043.0, 0.003638791360928634
1044.0, 0.003998878501521659
1045.0, 0.003276431371593467
1046.0, 0.0009474854218855559
1047.0, 0.0009546162858062334
1048.0, 0.0057237288462932785
1049.0, 0.0039789711685366
1050.0, 0.0052713558327326365
1051.0, 0.005291707358355367
1052.0, 0.007896133298758367
1053.0, 0.005756192765022528
1054.0, 0.0026326920361147356
1055.0, 0.0034624717619710834
1056.0, 0.004514470858874524
1057.0, 0.00427215759034098
1058.0, 0.006574757680269028
1059.0, 0.005764277628359836
1060.0, 0.005542239222351038
1061.0, 0.0059499146474796365
1062.0, 0.004382943723271126
1063.0, 0.0027748816801383075
1064.0, 0.0029954282657568797
1065.0, 0.004882657484739784
1066.0, 0.006244778629079637
1067.0, 0.004955680641882464
1068.0, 0.0036454766836521587
1069.0, 0.0009758719389280522
1070.0, 0.0038030873264561465
1071.0, 0.005309340894147964
1072.0, 0.004301070591633642
1073.0, 0.0006458371992875999
1074.0, 0.00041199806567363613
1075.0, 0.002172602660159867
1076.0, 0.0011434469123113166
1077.0, 0.002532495031671292
1078.0, 0.00302114945057405
1079.0, 2.6885527364312044e-05
1080.0, 0.00583011981446653
1081.0, 0.0032134461085223066
1082.0, 0.0018779808896460452
1083.0, 0.002946826253011104
1084.0, 0.0017785130347517937
1085.0, 0.0007706668712318585
1086.0, 0.002313776176184486
1087.0, 0.002982686777035982
1088.0, 0.0037303618977971246
1089.0, 0.0006519970753566819
1090.0, 0.0014295406310565557
1091.0, 0.001220880885562469
1092.0, 0.0004288904959201622
1093.0, 0.0001938764395574986
1094.0, 0.0005141514002846846
1095.0, 0.0023766798683433512
1096.0, 0.0024849711554615623
1097.0, 0.00016281113912385673
1098.0, 0.0018523292646108482
1099.0, 0.003098368591914687
1100.0, 0.0011889750433688134
1101.0, 0.0020848821779536125
1102.0, 0.0020024816480013383
1103.0, 0.0009420736462284432
1104.0, 0.0007978842194554196
1105.0, 0.0022940237738144744
1106.0, 0.003470568073676161
1107.0, 0.0008672097981570078
1108.0, 0.00021125086208721185
1109.0, 0.002213499793973226
1110.0, 0.0010904627669116617
1111.0, 0.0008538034851209521
1112.0, 0.00012348952786370973
1113.0, 0.00046776053224149643
1114.0, 0.0009839337910182132
1115.0, 0.000886886011775801
1116.0, 0.0019537305144341813
1117.0, 0.0007530264077913675
1118.0, 0.002886405422261198
1119.0, 0.0026059011658498277
1120.0, 0.0018917643264968235
1121.0, 0.0002889559773280822
1122.0, 0.0009881520228001651
1123.0, 0.0016432189494082307
1124.0, 0.002155568285701798
1125.0, 0.001466489731197763
1126.0, 0.00042715495430157907
1127.0, 0.0003830534966791217
1128.0, 0.0017806149998822595
1129.0, 0.007541046266470789
1130.0, 0.008768162270052284
1131.0, 0.002451741480440993
1132.0, 0.004132174870652186
1133.0, 0.0035089931957296024
1134.0, 0.001504950268841805
1135.0, 0.004480967766281006
1136.0, 0.0061722325121011026
1137.0, 0.004241433051040088
1138.0, 0.004993608119108708
1139.0, 0.003459399048702489
1140.0, 0.00411611132902859
1141.0, 0.005215508147413407
1142.0, 0.004253648631885037
1143.0, 0.003916744707382851
1144.0, 0.00554802942075714
1145.0, 0.004648516098156023
1146.0, 0.00372368044897741
1147.0, 0.004721968047818475
1148.0, 0.005655134316154998
1149.0, 0.005956285512111805
1150.0, 0.0023607555692285844
1151.0, 0.0038863600878636063
1152.0, 0.003705318462489274
1153.0, 0.0015194402807138187
1154.0, 0.0003251961204103006
1155.0, 0.0032761651489386966
1156.0, 0.004518865697561138
1157.0, 0.003004548775719718
1158.0, 0.001985310185233243
1159.0, 0.001824580898302146
1160.0, 0.0027866557214824093
1161.0, 0.003268381776521605
1162.0, 0.0045178391121306685
1163.0, 0.008044612930995421
1164.0, 0.006799636908947419
1165.0, 0.00395754634397134
1166.0, 0.0037319525252373477
1167.0, 0.0034196948134974105
1168.0, 0.003102443299516447
1169.0, 0.0014599603222194423
1170.0, 0.0005982208635717547
1171.0, 0.003159599583252728
1172.0, 0.002688834456489599
1173.0, 0.004953313925478717
1174.0, 0.005061195786487131
1175.0, 0.004404585619494781
1176.0, 0.003945638899117483
1177.0, 0.005111038500289179
1178.0, 0.0030153291682168304
1179.0, 0.0024332837630569744
1180.0, 0.003165746822779564
1181.0, 0.0037838050693393363
1182.0, 0.004757139169346463
1183.0, 0.004140512308358756
1184.0, 0.003919793107515581
1185.0, 0.0040950237408504935
1186.0, 0.003781608604151264
1187.0, 0.0012786790297451619
1188.0, 0.0008910139435959826
1189.0, 0.002545125143490044
1190.0, 0.0052612159910567086
1191.0, 0.0032429825081548417
1192.0, 0.0008901800943326187
1193.0, 0.003614902045602016
1194.0, 0.0054178179448534074
1195.0, 0.0024415020377948817
1196.0, 0.003978682810551551
1197.0, 0.004210314640763653
1198.0, 0.005683321695402076
1199.0, 0.002725783278669505
1200.0, 0.0034846950277679614
1201.0, 0.005185484989666614
1202.0, 0.005464244056191938
1203.0, 0.0036712051756413082
1204.0, 0.0015144439964221569
1205.0, 0.0008159358141905686
1206.0, 0.001651401201447726
1207.0, 0.003401882554018928
1208.0, 0.0035082843060146264
1209.0, 0.0012367802857708645
1210.0, 0.00013579040244016878
1211.0, 0.0005207711527153083
1212.0, 0.0009645602107531829
1213.0, 0.00105159261833713
1214.0, 0.002818100110718856
1215.0, 0.0019415637157743938
1216.0, 0.0017216122254506865
1217.0, 0.0022728534287079567
1218.0, 0.0022176600693242614
1219.0, 0.0022094878719956124
1220.0, 0.002223568518825906
1221.0, 0.003935213922737129
1222.0, 0.0030433695487692546
1223.0, 0.003910435197333139
1224.0, 0.0019516504882487063
1225.0, 0.0029154177902556517
1226.0, 0.002188605066362853
1227.0, 0.002277234396063181
1228.0, 0.0029095016112954454
1229.0, 0.0037999508447056096
1230.0, 0.00501357112797258
1231.0, 0.0046939383634259976
1232.0, 0.0038820849595687565
1233.0, 0.005297699259422739
1234.0, 0.00521622468319662
1235.0, 0.0026118106630511383
1236.0, 0.0046716825899839375
1237.0, 0.0017035430150094217
1238.0, 0.0033780037278974876
1239.0, 0.0028900181797829345
1240.0, 0.004618202299935396
1241.0, 0.004992409428901645
1242.0, 0.0026015741764153846
1243.0, 0.0027311107732934155
1244.0, 0.002382010522102638
1245.0, 0.0006323765181163226
1246.0, 0.0015659590867567207
1247.0, 0.0031586817928930507
1248.0, 0.0032744146564094253
1249.0, 0.0007775472974847945
1250.0, 0.004761187743253229
1251.0, 0.004523658849256663
1252.0, 0.0026512267647782945
1253.0, 0.0035259201114693074
1254.0, 0.003988489392822749
1255.0, 0.0047335831256316305
1256.0, 0.005521738255182476
1257.0, 0.0038043078218736063
1258.0, 0.0031503583312344824
1259.0, 0.004857157663920477
1260.0, 0.003219815171752351
1261.0, 0.0029887359604152306
1262.0, 0.004422346172828288
1263.0, 0.003923420923049021
1264.0, 8.683309929093005e-05
1265.0, 0.0023107627136321335
1266.0, 0.004532430241309031
1267.0, 0.0011119311500768295
1268.0, 0.0015749054326660138
1269.0, 0.0023627577449056468
1270.0, 0.0014355681889440762
1271.0, 0.0016589618200611093
1272.0, 0.002186286111171448
1273.0, 0.0021872457026147867
1274.0, 0.0015730207383460315
1275.0, 0.0038601755471246875
1276.0, 1.0853314309814587e-05
1277, 0.0
1278, 0.0
1279, 0.0
1280, 0.0
1281, 0.0
1282, 0.0
1283, 0.0
1284, 0.0
1285, 0.0
1286, 0.0
1287, 0.0
1288, 0.0
1289, 0.0
1290, 0.0
1291, 0.0
1292, 0.0
1293, 0.0
1294, 0.0
1295, 0.0
1296, 0.0
1297, 0.0
1298, 0.0
1299, 0.0
1300, 0.0
1301, 0.0
1302, 0.0
1303, 0.0
1304, 0.0
1305, 0.0
1306, 0.0
1307, 0.0
1308, 0.0
1309, 0.0
1310, 0.0
1311, 0.0
1312, 0.0
1313, 0.0
1314, 0.0
1315, 0.0
1316, 0.0
1317, 0.0
1318, 0.0
1319, 0.0
1320, 0.0
1321, 0.0
1322, 0.0
1323, 0.0
1324, 0.0
1325, 0.0
1326, 0.0
1327, 0.0
1328, 0.0
1329, 0.0
1330, 0.0
1331, 0.0
1332, 0.0
1333, 0.0
1334, 0.0
1335, 0.0
1336, 0.0
1337, 0.0
1338, 0.0
1339, 0.0
1340, 0.0
1341, 0.0
1342, 0.0
1343, 0.0
1344, 0.0
1345, 0.0
1346, 0.0
1347, 0.0
1348, 0.0
1349, 0.0
1350, 0.0
1351, 0.0
1352, 0.0
1353, 0.0
1354, 0.0
1355, 0.0
1356, 0.0
1357, 0.0
1358, 0.0
1359, 0.0
1360, 0.0
1361, 0.0
1362, 0.0
1363, 0.0
1364, 0.0
1365, 0.0
1366, 0.0
1367, 0.0
1368, 0.0
1369, 0.0
1370, 0.0
1371, 0.0
1372, 0.0
1373, 0.0
1374, 0.0
1375, 0.0
1376, 0.0
1377, 0.0
1378, 0.0
1379, 0.0
1380, 0.0
1381, 0.0
1382, 0.0
1383, 0.0
1384, 0.0
1385, 0.0
1386, 0.0
1387, 0.0
1388, 0.0
1389, 0.0
1390, 0.0
1391, 0.0
1392, 0.0
1393, 0.0
1394, 0.0
1395, 0.0
1396, 0.0
1397, 0.0
1398, 0.0
1399, 0.0
1400, 0.0
1401, 0.0
1402, 0.0
1403, 0.0
1404, 0.0
1405, 0.0
1406, 0.0
1407, 0.0
1408, 0.0
1409, 0.0
1410, 0.0
1411, 0.0
1412, 0.0
1413, 0.0
1414, 0.0
1415, 0.0
1416, 0.0
1417, 0.0
1418, 0.0
1419, 0.0
1420, 0.0
1421, 0.0
1422, 0.0
1423, 0.0
1424, 0.0
1425, 0.0
1426, 0.0
1427, 0.0
1428, 0.0
1429, 0.0
1430, 0.0
1431, 0.0
1432, 0.0
1433, 0.0
1434, 0.0
1435, 0.0
1436, 0.0
1437, 0.0
1438, 0.0
1439, 0.0
1440, 0.0
1441, 0.0
1442, 0.0
1443, 0.0
1444, 0.0
1445, 0.0
1446, 0.0
1447, 0.0
1448, 0.0
1449, 0.0
1450, 0.0
1451, 0.0
1452, 0.0
1453, 0.0
1454, 0.0
1455, 0.0
1456, 0.0
1457, 0.0
1458, 0.0
1459, 0.0
1460, 0.0
1461, 0.0
1462, 0.0
1463, 0.0
1464, 0.0
1465, 0.0
1466, 0.0
1467, 0.0
1468, 0.0
1469, 0.0
1470, 0.0
1471, 0.0
1472, 0.0
1473, 0.0
1474, 0.0
1475, 0.0
1476, 0.0
1477, 0.0
1478, 0.0
1479, 0.0
1480, 0.0
1481, 0.0
1482, 0.0
1483, 0.0
1484, 0.0
1485, 0.0
1486, 0.0
1487, 0.0
1488, 0.0
1489, 0.0
1490, 0.0
1491, 0.0
1492, 0.0
1493, 0.0
1494, 0.0
1495, 0.0
1496, 0.0
1497, 0.0
1498, 0.0
1499, 0.0
1500, 0.0
1501, 0.0
1502, 0.0
1503, 0.0
1504, 0.0
1505, 0.0
1506, 0.0
1507, 0.0
1508, 0.0
1509, 0.0
1510, 0.0
1511, 0.0
1512, 0.0
1513, 0.0
1514, 0.0
1515, 0.0
1516, 0.0
1517, 0.0
1518, 0.0
1519, 0.0
1520, 0.0
1521, 0.0
1522, 0.0
1523, 0.0
1524, 0.0
1525, 0.0
1526, 0.0
1527, 0.0
1528, 0.0
1529, 0.0
1530, 0.0
1531, 0.0
1532, 0.0
1533, 0.0
1534, 0.0
1535, 0.0
1536, 0.0
1537, 0.0
1538, 0.0
1539, 0.0
1540, 0.0
1541, 0.0
1542, 0.0
1543, 0.0
1544, 0.0
1545, 0.0
1546, 0.0
1547, 0.0
1548, 0.0
1549, 0.0
1550, 0.0
1551, 0.0
1552, 0.0
1553, 0.0
1554, 0.0
1555, 0.0
1556, 0.0
1557, 0.0
1558, 0.0
1559, 0.0
1560, 0.0
1561, 0.0
1562, 0.0
1563, 0.0
1564, 0.0
1565, 0.0
1566, 0.0
1567, 0.0
1568, 0.0
1569, 0.0
1570, 0.0
1571, 0.0
1572, 0.0
1573, 0.0
1574, 0.0
1575, 0.0
1576, 0.0
1577, 0.0
1578, 0.0
1579, 0.0
1580, 0.0
1581, 0.0
1582, 0.0
1583, 0.0
1584, 0.0
1585, 0.0
1586, 0.0
1587, 0.0
1588, 0.0
1589, 0.0
1590, 0.0
1591, 0.0
1592, 0.0
1593, 0.0
1594, 0.0
1595, 0.0
1596, 0.0
1597, 0.0
1598, 0.0
1599, 0.0
