30, 0.0
31, 0.0
32, 0.0
33, 0.0
34, 0.0
35, 0.0
36, 0.0
37, 0.0
38, 0.0
39, 0.0
40, 0.0
41, 0.0
42, 0.0
43, 0.0
44, 0.0
45, 0.0
46, 0.0
47, 0.0
48, 0.0
49, 0.0
50, 0.0
51, 0.0
52, 0.0
53, 0.0
54, 0.0
55, 0.0
56, 0.0
57, 0.0
58, 0.0
59, 0.0
60, 0.0
61, 0.0
62, 0.0
63, 0.0
64, 0.0
65, 0.0
66, 0.0
67, 0.0
68, 0.0
69, 0.0
70, 0.0
71, 0.0
72, 0.0
73, 0.0
74, 0.0
75, 0.0
76, 0.0
77, 0.0
78, 0.0
79, 0.0
80, 0.0
81, 0.0
82, 0.0
83, 0.0
84, 0.0
85, 0.0
86, 0.0
87, 0.0
88, 0.0
89, 0.0
90, 0.0
91, 0.0
92, 0.0
93, 0.0
94, 0.0
95, 0.0
96, 0.0
97, 0.0
98, 0.0
99, 0.0
100, 0.0
101, 0.0
102, 0.0
103, 0.0
104, 0.0
105, 0.0
106, 0.0
107, 0.0
108, 0.0
109, 0.0
110, 0.0
111, 0.0
112, 0.0
113, 0.0
114, 0.0
115, 0.0
116, 0.0
117, 0.0
118, 0.0
119, 0.0
120, 0.0
121, 0.0
122, 0.0
123, 0.0
124, 0.0
125, 0.0
126, 0.0
127, 0.0
128.0, 0.002764165667147052
129.0, 0.004110378287982889
130.0, 0.0004692499080593319
131.0, 0.004674194069202159
132.0, 0.003234309439912555
133.0, 0.00011691854150970929
134.0, 0.0002106712965285169
135.0, 0.0022628557180454775
136.0, 0.0020032651537046477
137.0, 0.0023293835062006413
138.0, 0.006176332951345104
139.0, 0.011767378149169
140.0, 0.010143078759430895
141.0, 0.008886332457576545
142.0, 0.012068594335279232
143.0, 0.017034554126454316
144.0, 0.015436684101579503
145.0, 0.013413879716846575
146.0, 0.012765597066645405
147.0, 0.012986126577192454
148.0, 0.0234717676367356
149.0, 0.02946140034563184
150.0, 0.027056240886456816
151.0, 0.018920412567240235
152.0, 0.02084690336727219
153.0, 0.026169068066413583
154.0, 0.029283572319267426
155.0, 0.030228171151895987
156.0, 0.03487757589571505
157.0, 0.034996073254901935
158.0, 0.03551489098140449
159.0, 0.03615471500519704
160.0, 0.03380529599254947
161.0, 0.035276320235600414
162.0, 0.03751180258365495
163.0, 0.039656136345935816
164.0, 0.039112235055260625
165.0, 0.03875372078887575
166.0, 0.0392940528706514
167.0, 0.040245196700452096
168.0, 0.038550399748140535
169.0, 0.03186425796314521
170.0, 0.03139508453901724
171.0, 0.03448519142044135
172.0, 0.033999474550763374
173.0, 0.027671348573204475
174.0, 0.02152040786869424
175.0, 0.022310944801462115
176.0, 0.021594628020683675
177.0, 0.015315116878249062
178.0, 0.015786539162597545
179.0, 0.016593469291524027
180.0, 0.015809971228900304
181.0, 0.014515601759592241
182.0, 0.014451596567385185
183.0, 0.010241667238980434
184.0, 0.004271406068569297
185.0, 0.0034605507725240783
186.0, 0.011943647479740284
187.0, 0.009270732841960375
188.0, 0.0067568060039180505
189.0, 0.005259912336702682
190.0, 0.0031647411113293255
191.0, 0.0019323518040366586
192.0, 0.00034420135966519686
193.0, 0.0028591516429701965
194.0, 0.005563821038798321
195.0, 0.0009413919117081502
196.0, 0.005993216301099832
197.0, 0.0022657145902177395
198.0, 0.0034731113176367837
199.0, 0.008249450530765383
200.0, 0.0017002196530073324
201.0, 9.235630744942164e-05
202.0, 9.641231773130116e-05
203.0, 0.0015563016126707869
204.0, 0.0011086262710637011
205.0, 0.0028333362539801525
206.0, 0.0013376149764808207
207.0, 0.0013304885064026387
208.0, 0.00044187880903983045
209.0, 0.0015041377116946414
210.0, 0.0011174378476267062
211.0, 0.001022686978702943
212.0, 0.0012412438438207582
213.0, 0.00017293968575773114
214.0, 0.001713031891754682
215.0, 0.0038571494023991767
216.0, 0.004632898844608806
217.0, 0.0033885582397768076
218.0, 0.0002730193349547238
219.0, 0.0020420335468778823
220.0, 0.004362341161198488
221.0, 0.0028552482767405843
222.0, 0.002078095577921211
223.0, 0.0021599532491664046
224.0, 0.000922604186819107
225.0, 0.003905560711995935
226.0, 0.00283864068225048
227.0, 0.0008979369983693546
228.0, 0.00038916388850440177
229.0, 0.004411789388764916
230.0, 0.007290431802980265
231.0, 0.007656877672509577
232.0, 0.007447702288267581
233.0, 0.009921789243297124
234.0, 0.01438059315439281
235.0, 0.01806872422929486
236.0, 0.01824520467497448
237.0, 0.020997441350324737
238.0, 0.02148186935666626
239.0, 0.019929094644076266
240.0, 0.02968509570606064
241.0, 0.03885572111574119
242.0, 0.04460677374488517
243.0, 0.049155130928340694
244.0, 0.056483933300517576
245.0, 0.0626727835393717
246.0, 0.07337609716044803
247.0, 0.08306929988673428
248.0, 0.08740202927795222
249.0, 0.09276897395751733
250.0, 0.10092152912523886
251.0, 0.10620771130789829
252.0, 0.11181250919724775
253.0, 0.12239833094930054
254.0, 0.1330385547572046
255.0, 0.1426395031072222
256.0, 0.14926248782511084
257.0, 0.15618181467692407
258.0, 0.16544694942988414
259.0, 0.17229754776537592
260.0, 0.18105385557055034
261.0, 0.18464484947252352
262.0, 0.18086339092771503
263.0, 0.1805615004345177
264.0, 0.1800430667657855
265.0, 0.17475844310757213
266.0, 0.16358369900563102
267.0, 0.1479775444598484
268.0, 0.13554567123713554
269.0, 0.1191463856734574
270.0, 0.10759068744413967
271.0, 0.10117932925731006
272.0, 0.08511712671304239
273.0, 0.07309857371782832
274.0, 0.06195428223687366
275.0, 0.05453149427458303
276.0, 0.05181170125386259
277.0, 0.04306575691515885
278.0, 0.0390289868524133
279.0, 0.03549667430796454
280.0, 0.030866235726558763
281.0, 0.027275129167181708
282.0, 0.021776321324116797
283.0, 0.018696808748571485
284.0, 0.01520213750409098
285.0, 0.011603095768823648
286.0, 0.012951373020807904
287.0, 0.007964581851790853
288.0, 0.005490888198720634
289.0, 0.006109187146072275
290.0, 0.005274495913621256
291.0, 0.0028019659662517986
292.0, 0.005630050015572901
293.0, 0.005866427569594964
294.0, 0.0017681144619161166
295.0, 0.0017561086552410087
296.0, 0.0021027694010129295
297.0, 0.0014154775620269847
298.0, 0.002197434180400015
299.0, 0.004572748371381589
300.0, 0.005914793987508449
301.0, 0.0016558186133830912
302.0, 0.004797591449196092
303.0, 0.005346322891655438
304.0, 0.005183602610846632
305.0, 0.0049536737285117835
306.0, 0.014763293302262157
307.0, 0.022223542985303362
308.0, 0.025353962857244245
309.0, 0.028623250238762468
310.0, 0.03937651076481057
311.0, 0.048178561648662015
312.0, 0.058293882701107504
313.0, 0.07312743163626449
314.0, 0.09312297753325767
315.0, 0.11282481321303378
316.0, 0.13395561671088344
317.0, 0.16194873343359448
318.0, 0.2005200406790988
319.0, 0.24695337055212005
320.0, 0.29328642410653366
321.0, 0.3440564601506056
322.0, 0.39235835356578674
323.0, 0.43358114734692527
324.0, 0.47046100759585685
325.0, 0.5021318199383483
326.0, 0.5419367768264484
327.0, 0.588980431602082
328.0, 0.6360743696583123
329.0, 0.6792680694006686
330.0, 0.7293087505068511
331.0, 0.7805497870025
332.0, 0.8315193958420336
333.0, 0.8817938907394074
334.0, 0.9251491879632964
335.0, 0.9583019046366708
336.0, 0.9834335777773063
337.0, 0.9975876797618523
338.0, 0.9911618040280935
339.0, 0.9411242134130264
340.0, 0.8631863296330814
341.0, 0.7586664217769208
342.0, 0.6335971616914806
343.0, 0.5043414137358989
344.0, 0.387764783603005
345.0, 0.2936876255425167
346.0, 0.22487086052693359
347.0, 0.17371017532300745
348.0, 0.13083314559218887
349.0, 0.09987024783943094
350.0, 0.0783031113192734
351.0, 0.060470652178713634
352.0, 0.04847678283849296
353.0, 0.04540174409851254
354.0, 0.033425891829277174
355.0, 0.022397209351360484
356.0, 0.015031667300013334
357.0, 0.00910437319225927
358.0, 0.0034364912672167707
359.0, 0.0019550094367096643
360.0, 0.006064098951674955
361.0, 0.009846666024707159
362.0, 0.012020852702701477
363.0, 0.015833978243198703
364.0, 0.020947593571615637
365.0, 0.023737440488165423
366.0, 0.029747349411726843
367.0, 0.037829797764316955
368.0, 0.0409659457655085
369.0, 0.046547728247775026
370.0, 0.04911918370614576
371.0, 0.055096130024296065
372.0, 0.06558846672905816
373.0, 0.07310123811815186
374.0, 0.07104483454690382
375.0, 0.07672119892900424
376.0, 0.08341595615314067
377.0, 0.0873140475003648
378.0, 0.09596559204588463
379.0, 0.10365308703683676
380.0, 0.11160912396391395
381.0, 0.11602361270008074
382.0, 0.11284650390812588
383.0, 0.10641398784223631
384.0, 0.10903975168707267
385.0, 0.10189803598048973
386.0, 0.09162552310199912
387.0, 0.08369473740541752
388.0, 0.07380353997233613
389.0, 0.06766578013668208
390.0, 0.06805482339010678
391.0, 0.06413610035660533
392.0, 0.059649145149081165
393.0, 0.06131830271014241
394.0, 0.057043108279496935
395.0, 0.056444049300944044
396.0, 0.056481538775425305
397.0, 0.053608959616454614
398.0, 0.04856433994223815
399.0, 0.045654215888350974
400.0, 0.03228907135849053
401.0, 0.025319485291924217
402.0, 0.02377981972731403
403.0, 0.018196545910188135
404.0, 0.01561630400008435
405.0, 0.01346487950458352
406.0, 0.01211867039521872
407.0, 0.01034188409897707
408.0, 0.007680185692193067
409.0, 0.005585352767344627
410.0, 0.0036411906959328416
411.0, 0.004007737544014428
412.0, 0.0034169719002358095
413.0, 0.0006869652171189578
414.0, 0.0006249671445424226
415.0, 0.0019747322371813096
416.0, 0.0004460169555878563
417.0, 0.00351223381385143
418.0, 0.0041995104904431835
419.0, 0.003135162491273983
420.0, 0.00038029929519237625
421.0, 0.0006996981712399701
422.0, 0.0013361306647263834
423.0, 0.004852491538400155
424.0, 0.003431602562061396
425.0, 0.0006371590319220052
426.0, 0.0009475657505827899
427.0, 0.0004422679227849904
428.0, 0.0006554809886194558
429.0, 0.0005041339232107054
430.0, 0.0010938879407430245
431.0, 0.0006146396235985495
432.0, 0.00020611567810560063
433.0, 0.0007315185049358155
434.0, 0.00033766460474633363
435.0, 0.0004787089268035128
436.0, 0.0037168349696734167
437.0, 0.0017687827787590603
438.0, 0.0031980314868548443
439.0, 0.0005686396294387249
440.0, 0.0023649397538487134
441.0, 0.0051820602290401346
442.0, 0.0019130521049721284
443.0, 0.00012795516825321455
444.0, 5.1727194943099425e-05
445.0, 0.002419044556929442
446.0, 0.000832263808662928
447.0, 0.0003744512803369743
448.0, 0.0007005780062210007
449.0, 0.0010456394040402155
450.0, 0.0027019994203097046
451.0, 0.0011834200129812189
452.0, 0.0023750667627352767
453.0, 0.0006373846046292803
454.0, 0.001056691298605927
455.0, 0.004627467974384503
456.0, 0.001636195850622193
457.0, 0.0030165784647154395
458.0, 0.005123954026673358
459.0, 0.00458228194659395
460.0, 0.00636324551397936
461.0, 0.015472300861411704
462.0, 0.00900212791675606
463.0, 0.0013666270170115153
464.0, 0.00440268006372923
465.0, 0.010005461739429627
466.0, 0.008167659348557857
467.0, 0.010736383914077677
468.0, 0.0057205460241332206
469.0, 0.006010941641391755
470.0, 0.010117923363852449
471.0, 0.011010031009131315
472.0, 0.006959657299922909
473.0, 0.012793696352183989
474.0, 0.009872546114190174
475.0, 0.0117199561986408
476.0, 0.016205101182409525
477.0, 0.01073311665036523
478.0, 0.0071609314568344224
479.0, 0.008204826481163807
480.0, 0.007177342178256385
481.0, 0.007937669117977936
482.0, 0.012467497414898384
483.0, 0.014580074880334536
484.0, 0.011813555724337501
485.0, 0.010054840657493777
486.0, 0.012227448924475734
487.0, 0.015318173031548022
488.0, 0.015858589347895014
489.0, 0.014707973149631926
490.0, 0.012703458066381375
491.0, 0.010899676128817178
492.0, 0.00888485401151096
493.0, 0.009087712341575198
494.0, 0.01291346709775253
495.0, 0.010940120962287395
496.0, 0.012711042538281658
497.0, 0.011361466545482476
498.0, 0.008947395277025719
499.0, 0.010224278332113113
500.0, 0.011868001481654554
501.0, 0.012934137093416079
502.0, 0.013189962157042025
503.0, 0.011810784891783157
504.0, 0.010324388011833035
505.0, 0.009997912064056152
506.0, 0.011913622951226163
507.0, 0.010515307581692123
508.0, 0.007775652119404801
509.0, 0.008878777199004045
510.0, 0.011780268785466333
511.0, 0.008110322274228561
512.0, 0.007235984516159307
513.0, 0.0066318502652491125
514.0, 0.005067943537290756
515.0, 0.005730039925379743
516.0, 0.006793072103789716
517.0, 0.0008941282831150363
518.0, 0.004878511492289497
519.0, 0.00703261938061958
520.0, 0.0063949713015123534
521.0, 0.0070993795199079295
522.0, 0.008633140965256665
523.0, 0.006832223080099994
524.0, 0.006874640075812186
525.0, 0.007701323294046352
526.0, 0.007149883723602668
527.0, 0.0073963211195666595
528.0, 0.013597435481729899
529.0, 0.012767504121642457
530.0, 0.008867343944176372
531.0, 0.006750350252066995
532.0, 0.00902646139901404
533.0, 0.011165150090219345
534.0, 0.0037141545881432094
535.0, 0.005259955773306385
536.0, 0.007887984026976788
537.0, 0.008042998612089998
538.0, 0.006971572512228266
539.0, 0.007178723163378918
540.0, 0.0073625624458634265
541.0, 0.006934742342740815
542.0, 0.004481255305813456
543.0, 0.004060111834842138
544.0, 0.007246947294248625
545.0, 0.009305869480012672
546.0, 0.006497219292576356
547.0, 0.004886591720000268
548.0, 0.00509317857882591
549.0, 0.003381386265300383
550.0, 0.0019644883878189253
551.0, 0.008511774333957363
552.0, 0.011069036188021256
553.0, 0.0037654005903605806
554.0, 0.0032647451141112533
555.0, 0.005311738539742691
556.0, 0.00333709133628918
557.0, 0.005892517278460009
558.0, 0.0015351445116125674
559.0, 0.0023235268469477903
560.0, 0.0007191720598532937
561.0, 0.0009165341457509555
562.0, 0.00018625049134760955
563.0, 0.002925606342372574
564.0, 0.001765836452720892
565.0, 0.0007774106610422819
566.0, 0.002481911512201542
567.0, 0.0048895099750560335
568.0, 0.0023305023570831126
569.0, 0.0006133715330841462
570.0, 0.002773129037027871
571.0, 0.0013082815249901012
572.0, 0.0009732533084706608
573.0, 0.0019791276714775275
574.0, 0.0013119080911556207
575.0, 0.0016065910230761765
576.0, 0.0031586538273228855
577.0, 0.002881792616107114
578.0, 0.004197307240736827
579.0, 0.004126168557596153
580.0, 0.010827489428375634
581.0, 0.011261387619561912
582.0, 0.00892820784806577
583.0, 0.007244183088332012
584.0, 0.008847524147538489
585.0, 0.012518149846594514
586.0, 0.015938979930114644
587.0, 0.01947536311046402
588.0, 0.021945225683541306
589.0, 0.019176912171233337
590.0, 0.024256071333560624
591.0, 0.029299538542234403
592.0, 0.026159094652567143
593.0, 0.026376619270607204
594.0, 0.026450819128457707
595.0, 0.032213713574039515
596.0, 0.030932043941296034
597.0, 0.026875934323587213
598.0, 0.03038200651489742
599.0, 0.03583262953647268
600.0, 0.03270970934710537
601.0, 0.038594680562347265
602.0, 0.04284453681391197
603.0, 0.043843142203349394
604.0, 0.04295772951061492
605.0, 0.03857409076086334
606.0, 0.039596386607120754
607.0, 0.04438096243937975
608.0, 0.04344131291941209
609.0, 0.042721963317034414
610.0, 0.0450057663344745
611.0, 0.04418585929553998
612.0, 0.04177885243930026
613.0, 0.03922215301260304
614.0, 0.03948522701560837
615.0, 0.04100615452346143
616.0, 0.03813193762778708
617.0, 0.03138953016199821
618.0, 0.03327297342283927
619.0, 0.034507129700899725
620.0, 0.03361091830395934
621.0, 0.031047423609690226
622.0, 0.028863373650141085
623.0, 0.02920208851147751
624.0, 0.030349119750153825
625.0, 0.026718599333953857
626.0, 0.026246301304704782
627.0, 0.024395258839094915
628.0, 0.01791924069991766
629.0, 0.014388408775133471
630.0, 0.019917997135749547
631.0, 0.02181533598840137
632.0, 0.018734837607076994
633.0, 0.01868547518873519
634.0, 0.01517819582732471
635.0, 0.011645188384534395
636.0, 0.01359907933179199
637.0, 0.01218967551744266
638.0, 0.011811422023334855
639.0, 0.01375777188867364
640.0, 0.015985578329978413
641.0, 0.015773126365780432
642.0, 0.013637145220445642
643.0, 0.013528540492904107
644.0, 0.020394531310946762
645.0, 0.023785551363804378
646.0, 0.021148554962696953
647.0, 0.02214803506735333
648.0, 0.02521973894434992
649.0, 0.025326084828720376
650.0, 0.031382263057030714
651.0, 0.039336376807469604
652.0, 0.042973640964646544
653.0, 0.043903606556716615
654.0, 0.04913889378815887
655.0, 0.057729271435068466
656.0, 0.06334884873172368
657.0, 0.07425444272687619
658.0, 0.08170712296144682
659.0, 0.09143187059301101
660.0, 0.10238627576846121
661.0, 0.11541646430181013
662.0, 0.12981136087984846
663.0, 0.13963988854579495
664.0, 0.14881950953845566
665.0, 0.16091761036282728
666.0, 0.17584161565767398
667.0, 0.19327706133733313
668.0, 0.20609699068839799
669.0, 0.21213404556530666
670.0, 0.22851256891994737
671.0, 0.23449057022975692
672.0, 0.24812706287080594
673.0, 0.2593429377363685
674.0, 0.2624115068127058
675.0, 0.26141427073093015
676.0, 0.2609091887333802
677.0, 0.2691962344097439
678.0, 0.2655884534653049
679.0, 0.25379365269241233
680.0, 0.24076175892219173
681.0, 0.22956627857938258
682.0, 0.21674300024172485
683.0, 0.1992595405575038
684.0, 0.19042515255617481
685.0, 0.17384641941307155
686.0, 0.15738940255377765
687.0, 0.1407040340225511
688.0, 0.12354360690619728
689.0, 0.11051368498026191
690.0, 0.09777883876457415
691.0, 0.0817659773060682
692.0, 0.06796581001140473
693.0, 0.06032071396351156
694.0, 0.05103602875836505
695.0, 0.03683148170643728
696.0, 0.02717471324030522
697.0, 0.024155327470695546
698.0, 0.016357685461309966
699.0, 0.008406941021934688
700.0, 0.007518411654820057
701.0, 0.0052359950003197705
702.0, 0.0017558365735233254
703.0, 0.0012118000326213222
704.0, 0.00046341274743566475
705.0, 0.0037346630021151527
706.0, 0.0015970020888419001
707.0, 0.0022247564160600133
708.0, 0.001270194006580457
709.0, 0.0008364774971069077
710.0, 0.004051838354810982
711.0, 0.0056545421056487305
712.0, 0.006924688523698861
713.0, 0.001820883156668699
714.0, 0.002028616519548588
715.0, 0.007873044300647574
716.0, 0.00980939431171996
717.0, 0.006778300461901092
718.0, 0.01062350079284415
719.0, 0.010799543914744537
720.0, 0.007974635354381733
721.0, 0.008144090893366492
722.0, 0.010888842818656779
723.0, 0.014619593508181206
724.0, 0.017737571575121423
725.0, 0.01314480945352199
726.0, 0.011618417789739202
727.0, 0.013858479479300896
728.0, 0.011699122324119265
729.0, 0.007381540997841269
730.0, 0.006482683972985997
731.0, 0.009755025402883094
732.0, 0.012469457749315576
733.0, 0.006908948053920532
734.0, 0.005762333580199592
735.0, 0.00857748244251898
736.0, 0.007324593717822903
737.0, 0.004900385224332311
738.0, 0.007096453944043605
739.0, 0.0055797920802124
740.0, 0.00010228053704587994
741.0, 0.001215214901989362
742.0, 0.00013687857312002583
743.0, 0.0018373953492562566
744.0, 0.005927413328857928
745.0, 0.002229033404024348
746.0, 0.0013550467435240405
747.0, 0.005268013647121241
748.0, 0.0015998401053322826
749.0, 0.001228332014167785
750.0, 0.0027568333139189427
751.0, 0.0012076396478709708
752.0, 0.006268160606331346
753.0, 0.0060801412753033425
754.0, 0.0012700993003042255
755.0, 0.0007947060295786263
756.0, 0.0004210762092815482
757.0, 0.0004138432773316186
758.0, 0.0007822287178576894
759.0, 0.0014153852365962924
760.0, 0.004622083461370425
761.0, 0.002571435223367692
762.0, 0.001746206517590424
763.0, 0.006027756993022733
764.0, 0.003938203855567767
765.0, 0.004017446344210659
766.0, 0.005287057013830216
767.0, 0.004430798674772305
768.0, 0.008614521486805565
769.0, 0.006047104883832954
770.0, 0.00784567166339253
771.0, 0.007572414381336447
772.0, 0.01023929327781534
773.0, 0.010086659571830485
774.0, 0.00763143878962823
775.0, 0.013172369084646479
776.0, 0.017104697440448742
777.0, 0.012467749866736244
778.0, 0.012995011519739808
779.0, 0.01211467699426522
780.0, 0.010412726521123229
781.0, 0.012119115804681864
782.0, 0.01506627735443295
783.0, 0.012545180336280081
784.0, 0.010374677171050077
785.0, 0.010281605223089131
786.0, 0.009969909361383016
787.0, 0.011094667046938615
788.0, 0.010307947237331092
789.0, 0.008908473490452358
790.0, 0.009197369555654653
791.0, 0.006401310907108666
792.0, 0.009471767789395028
793.0, 0.009951066793370518
794.0, 0.009002967174953061
795.0, 0.008186520014488198
796.0, 0.010114507790545945
797.0, 0.010439740613390982
798.0, 0.00596987438856839
799.0, 0.005749593071861442
800.0, 0.006827490437469902
801.0, 0.007547818801615094
802.0, 0.00743928177385952
803.0, 0.007655950256089163
804.0, 0.007431313343334204
805.0, 0.006030277737598315
806.0, 0.005378271746649669
807.0, 0.007309208206483608
808.0, 0.010220556078948255
809.0, 0.008154842165481397
810.0, 0.005631135626510479
811.0, 0.007873636965898078
812.0, 0.008589902414426922
813.0, 0.005139905049921609
814.0, 0.004933440255616733
815.0, 0.0010216337368119887
816.0, 0.00099244619183678
817.0, 0.005506143181956349
818.0, 0.008331627012638024
819.0, 0.007161256913746241
820.0, 0.00659713933053677
821.0, 0.005858139751578546
822.0, 0.00023303208341854832
823.0, 0.0012179332876092758
824.0, 0.004472074024545469
825.0, 0.0017155553965278855
826.0, 0.003409024784486482
827.0, 0.007071631285369301
828.0, 0.005480179370562201
829.0, 0.004057176531856241
830.0, 0.0037282686647246133
831.0, 0.003804228391729961
832.0, 0.0009203228246485215
833.0, 0.005430008891372433
834.0, 0.008773144822353056
835.0, 0.0044765820862182745
836.0, 0.0027950976186920566
837.0, 0.005407868266704182
838.0, 0.004786981985801971
839.0, 0.0034899151703372375
840.0, 0.009308114345247346
841.0, 0.007895834824722578
842.0, 0.004576444156559759
843.0, 0.005762657565091073
844.0, 0.00525652179744525
845.0, 0.0034391961157174632
846.0, 0.003939048838126131
847.0, 0.0043722148196594195
848.0, 0.009646283220811602
849.0, 0.009046674776613365
850.0, 0.0062953358900326275
851.0, 0.0056922216068121916
852.0, 0.008096567841374571
853.0, 0.00949315424998877
854.0, 0.008860741744864734
855.0, 0.00893729569146958
856.0, 0.009811351897832424
857.0, 0.00737740454815492
858.0, 0.0076297900680013225
859.0, 0.0040292434885577655
860.0, 0.007210297561118819
861.0, 0.0066085981474362405
862.0, 0.0062675633503022935
863.0, 0.01207530210914429
864.0, 0.012097911361196756
865.0, 0.007261626291165414
866.0, 0.006044886189122811
867.0, 0.005454526630508547
868.0, 0.004373981879199424
869.0, 0.0036245772737560243
870.0, 0.002729449303063963
871.0, 0.003150566866010921
872.0, 0.00466096638748219
873.0, 0.0032107764519940024
874.0, 0.004483562859598147
875.0, 0.007263115314966393
876.0, 0.00792791521051144
877.0, 0.005836464529071255
878.0, 0.008585255816219543
879.0, 0.007276229298219899
880.0, 0.0009868197826017329
881.0, 0.0007412420748462305
882.0, 0.004033502949803549
883.0, 0.004457504798281922
884.0, 0.0011509024381685478
885.0, 0.002159469983656829
886.0, 0.001212036717907157
887.0, 0.0021834092930647204
888.0, 0.0023885651077735874
889.0, 0.0003872274497609174
890.0, 0.0036658621974285936
891.0, 0.005437606327000148
892.0, 0.007080895502703991
893.0, 0.006508676161340375
894.0, 0.004646820870207173
895.0, 0.0040928276997072325
896.0, 0.004214739470974409
897.0, 0.0029076731648992127
898.0, 0.0017678642766837782
899.0, 0.0015025122035846905
900.0, 0.0005256204159049411
901.0, 0.0012551841677116123
902.0, 0.002534797660054211
903.0, 8.798172956282061e-05
904.0, 0.0037168906925163893
905.0, 0.0033197046487010275
906.0, 0.0022268353758091095
907.0, 0.003407908664237308
908.0, 0.001567161273819064
909.0, 0.0015053513062216707
910.0, 0.0039012110514903
911.0, 0.0021894604134073035
912.0, 0.004837935360870155
913.0, 0.0027333900056183366
914.0, 0.004004011824361969
915.0, 0.0034191190618922725
916.0, 0.0033321517215256706
917.0, 0.0025977741473130365
918.0, 0.0030723052107332113
919.0, 0.0011038748466369289
920.0, 0.0028825570102711516
921.0, 0.003119052178407134
922.0, 0.004680389221492477
923.0, 0.004342637712372282
924.0, 0.002511915733115249
925.0, 0.0031266121005353686
926.0, 0.00565126556100795
927.0, 0.007084629809262504
928.0, 0.007094419352557557
929.0, 0.005160713506444389
930.0, 0.010052187318787436
931.0, 0.012263546240346803
932.0, 0.011075194886475636
933.0, 0.011776299796821089
934.0, 0.008819398789850682
935.0, 0.006814607366388436
936.0, 0.008894714466903318
937.0, 0.00879559294936116
938.0, 0.011392738226044788
939.0, 0.009496591752731726
940.0, 0.00691603345206771
941.0, 0.012812521023835167
942.0, 0.014292826729076074
943.0, 0.013777189381374982
944.0, 0.014543897560198948
945.0, 0.010166345509139323
946.0, 0.006317442617001315
947.0, 0.013634039601878194
948.0, 0.015899523801001573
949.0, 0.015121697099456877
950.0, 0.020805337250931248
951.0, 0.018592662411423915
952.0, 0.01410489679452151
953.0, 0.014742071368855806
954.0, 0.015090958097014252
955.0, 0.01142493280655175
956.0, 0.0093719071954401
957.0, 0.01272992546587255
958.0, 0.012697028367154013
959.0, 0.012153640604898012
960.0, 0.009956072052260428
961.0, 0.008826965444755999
962.0, 0.013647025793690636
963.0, 0.015582711717788272
964.0, 0.012371818250562317
965.0, 0.010778176035223129
966.0, 0.010462354446366798
967.0, 0.006417283972823214
968.0, 0.003925833898149432
969.0, 0.00892572869090446
970.0, 0.004440149504818477
971.0, 0.007599090049435141
972.0, 0.004814997688531135
973.0, 0.004371904422759167
974.0, 0.003407624733191608
975.0, 0.0006272412841362281
976.0, 0.0010453298247599272
977.0, 0.004397832815106208
978.0, 0.005089536427805788
979.0, 0.002684263024221516
980.0, 0.0029857388983198555
981.0, 0.002485542217785197
982.0, 0.004726596319683066
983.0, 0.004035486197674945
984.0, 0.005465684294803918
985.0, 0.0021672903147529404
986.0, 0.001109475264386307
987.0, 0.006823964201666047
988.0, 0.009115248978535476
989.0, 0.006451576150908045
990.0, 0.006838476663102807
991.0, 0.009074439374370837
992.0, 0.009888082195811252
993.0, 0.008374206786285735
994.0, 0.009499435656575567
995.0, 0.007912214663552424
996.0, 0.010499766208656622
997.0, 0.01825868969744442
998.0, 0.021066687900955373
999.0, 0.01989096480658414
1000.0, 0.025606223408901344
1001.0, 0.027468994055307967
1002.0, 0.025101673394268362
1003.0, 0.027801252155692686
1004.0, 0.03750499770135951
1005.0, 0.03658714159097592
1006.0, 0.03556674946144064
1007.0, 0.03911718970886362
1008.0, 0.04082337868339434
1009.0, 0.03938261931164897
1010.0, 0.04148858137153385
1011.0, 0.04673835857686251
1012.0, 0.046062576384717134
1013.0, 0.04692471817849275
1014.0, 0.05097197706932632
1015.0, 0.049569447364654004
1016.0, 0.05038561511663281
1017.0, 0.04990686837909503
1018.0, 0.05347867423332286
1019.0, 0.052231201424300655
1020.0, 0.05050324753191462
1021.0, 0.05298567155524927
1022.0, 0.04995148959888091
1023.0, 0.04636816718836079
1024.0, 0.04108607171094655
1025.0, 0.046211761619422746
1026.0, 0.04481024820518312
1027.0, 0.04285587868305661
1028.0, 0.030965602008406833
1029.0, 0.032235005351906605
1030.0, 0.033150753511161715
1031.0, 0.028314623429757196
1032.0, 0.023930288250636075
1033.0, 0.020825397392520963
1034.0, 0.02045275693648527
1035.0, 0.013921634335007363
1036.0, 0.017942666902454052
1037.0, 0.011875533775363798
1038.0, 0.0106694521379586
1039.0, 0.01198889476737828
1040.0, 0.010123885206941905
1041.0, 0.007711861304530237
1042.0, 0.007552612967781284
1043.0, 0.007365578126892621
1044.0, 0.005708184469965159
1045.0, 0.004997781635363282
1046.0, 0.003466875206203081
1047.0, 0.001132879381636893
1048.0, 0.0014087556922836892
1049.0, 0.006248576267277935
1050.0, 0.007078221963411224
1051.0, 0.001922822576431128
1052.0, 0.00020408037030857461
1053.0, 0.00034161313519833435
1054.0, 0.0030773244750302822
1055.0, 0.0020844718657320785
1056.0, 0.002316374336286757
1057.0, 0.00394855797070194
1058.0, 0.0026635642705453637
1059.0, 0.0010566212386442586
1060.0, 0.0016674250293966112
1061.0, 0.008214131861401231
1062.0, 0.0036166081926308144
1063.0, 0.01260579481148371
1064.0, 0.003537240443997925
1065.0, 0.0003998220839640443
1066.0, 0.004119972338851308
1067.0, 0.003324674792120073
1068.0, 0.0013439314219591911
1069.0, 0.003208738921024377
1070.0, 0.006917316303251884
1071.0, 0.009425708352066223
1072.0, 0.00904758417800688
1073.0, 0.010523615625351647
1074.0, 0.01134624410678718
1075.0, 0.014743885648071832
1076.0, 0.0046707115142324805
1077.0, 0.010417833430163387
1078.0, 0.004191577576154036
1079.0, 0.004444179037670243
1080.0, 0.006591180188254343
1081.0, 0.0022150023215368924
1082.0, 0.0008120974788913443
1083.0, 0.0058051108410352185
1084.0, 0.009498326451895613
1085.0, 0.008552337058827419
1086.0, 0.00523643756014553
1087.0, 0.003986341711599974
1088.0, 0.004512975378928942
1089.0, 0.010858537747264651
1090.0, 0.009602511359334277
1091.0, 0.009639867812841629
1092.0, 0.005695751709633216
1093.0, 0.007814476782004675
1094.0, 0.008259613201753916
1095.0, 0.005627403616209763
1096.0, 0.0042572273762668976
1097.0, 0.006479450154083047
1098.0, 0.008564231673945722
1099.0, 0.006836355517182018
1100.0, 0.008781302562271493
1101.0, 0.0063324339250341284
1102.0, 0.0059648795062584685
1103.0, 0.0032000930579681236
1104.0, 0.0004989395055913287
1105.0, 0.0034290459127281586
1106.0, 0.0014384222822029257
1107.0, 0.003284583830312608
1108.0, 0.0032420093105801585
1109.0, 0.0005851107740580768
1110.0, 0.001975436958926309
1111.0, 0.004481363098800402
1112.0, 0.001827762346353977
1113.0, 0.0023960570510514665
1114.0, 0.0003666471987779292
1115.0, 0.0038020328347192784
1116.0, 0.002036430687448861
1117.0, 0.006286167870769354
1118.0, 0.0017850968242635913
1119.0, 0.006547015906154716
1120.0, 0.007837697856059582
1121.0, 0.0009851159346266724
1122.0, 0.0035012922025666623
1123.0, 0.008426108728575727
1124.0, 0.008404522658652897
1125.0, 0.008810765647229667
1126.0, 0.006296424379321991
1127.0, 0.0005289581927153933
1128.0, 0.002765349803899686
1129.0, 0.009848382451288587
1130.0, 0.009912131983341576
1131.0, 0.0066166862324405174
1132.0, 0.0010617911104040076
1133.0, 0.0045520104801871995
1134.0, 0.003014749950552704
1135.0, 0.009140598143862274
1136.0, 0.007623556233496232
1137.0, 0.002106254017700509
1138.0, 0.004869847438256515
1139.0, 0.007180952281515189
1140.0, 0.005573628300816411
1141.0, 0.002666548106242108
1142.0, 0.0037856129102555192
1143.0, 0.006992552690612183
1144.0, 0.0045393280576739165
1145.0, 0.005249086445947733
1146.0, 0.0030641978220997262
1147.0, 0.00748129202289854
1148.0, 0.010063673521330458
1149.0, 0.012905561188262409
1150.0, 0.006313401288462477
1151.0, 0.0015661805254931708
1152.0, 0.003656629570130239
1153.0, 0.0033277568362319585
1154.0, 0.0024118779944296395
1155.0, 0.0026655923249587605
1156.0, 0.005623270274811532
1157.0, 0.0030823726815999456
1158.0, 0.00510863081418494
1159.0, 0.01074144062177597
1160.0, 0.01040988358486209
1161.0, 0.013824109721102257
1162.0, 0.007879576125143749
1163.0, 0.006882396799793156
1164.0, 0.007740015941029244
1165.0, 0.007149305831495219
1166.0, 0.003205897223340327
1167.0, 0.008537754535284204
1168.0, 0.005562680384182811
1169.0, 0.007141605968604416
1170.0, 0.008057205134033211
1171.0, 0.0036872152106068646
1172.0, 0.0005986939646120014
1173.0, 0.002958407475629195
1174.0, 0.011145901872803118
1175.0, 0.015517165696345809
1176.0, 0.007976759977318962
1177.0, 0.0021908497887703
1178.0, 0.0047187412661631
1179.0, 0.006929291310769249
1180.0, 0.010131003217186501
1181.0, 0.008718562515785075
1182.0, 0.009874942907716218
1183.0, 0.014698176850509045
1184.0, 0.006737836813415343
1185.0, 0.007034662535689141
1186.0, 0.00815755758434101
1187.0, 0.004425374433265228
1188.0, 0.010609253819240869
1189.0, 0.00688967035781376
1190.0, 0.005850002326827694
1191.0, 0.006214748184344151
1192.0, 0.009097060549936191
1193.0, 0.003533174998426644
1194.0, 0.003446381903222599
1195.0, 0.005252239348006812
1196.0, 0.0006213033045041068
1197.0, 0.0011404536929222032
1198.0, 0.0036782941471055204
1199.0, 0.01105503695656023
1200.0, 0.006551757173217137
1201.0, 0.0013023381099087877
1202.0, 0.0013319176212557313
1203.0, 0.010828836331865306
1204.0, 0.005247229277801284
1205.0, 0.005830782602830039
1206.0, 0.0071301308676840905
1207.0, 0.009027998651492416
1208.0, 0.0028971422875185187
1209.0, 5.3599896427493216e-05
1210.0, 0.005206853159338433
1211.0, 0.00883538688410401
1212.0, 0.008091184372337553
1213.0, 0.010970793677573795
1214.0, 0.007966107898919975
1215.0, 0.004106353268315168
1216.0, 0.008829070184922632
1217.0, 0.008626469357344024
1218.0, 0.005188890335111033
1219.0, 0.00371295251108444
1220.0, 0.001426733763203284
1221.0, 0.0052555389731757
1222.0, 0.004414495751599691
1223.0, 0.0022288552082010485
1224.0, 0.001663207400058165
1225.0, 0.006959250139346806
1226.0, 0.003361642567665065
1227.0, 0.005518105364709713
1228.0, 0.00387358197372191
1229.0, 0.0009953522760817433
1230.0, 9.213387345690908e-05
1231.0, 0.0008303638242458389
1232.0, 0.003433708803740281
1233.0, 0.0011405768249215342
1234.0, 0.0029972974861733376
1235.0, 0.005203053103560904
1236.0, 0.008558644274501344
1237.0, 0.006984067967722389
1238.0, 0.005107318193753099
1239.0, 0.010021496056459316
1240.0, 0.007622182574765464
1241.0, 0.006559554494896748
1242.0, 0.0026985714148623097
1243.0, 0.001822469441152995
1244.0, 0.01009283492872686
1245.0, 0.014132733297528843
1246.0, 0.008084934706029953
1247.0, 0.0024069804483318725
1248.0, 0.005433285156771281
1249.0, 0.011406769907946342
1250.0, 0.010680505657386263
1251.0, 0.013723765101849224
1252.0, 0.006991041143652589
1253.0, 4.342947296710238e-05
1254.0, 0.000762652227711248
1255.0, 0.010238619833517417
1256.0, 0.002312727363598171
1257.0, 0.006969537299806698
1258.0, 0.009779218887411765
1259.0, 0.006539188577561633
1260.0, 0.0058573726449554185
1261.0, 0.005998736431636674
1262.0, 0.010573468353703925
1263.0, 0.011711605938306714
1264.0, 0.013191912698724568
1265.0, 0.011659153104279845
1266.0, 0.004780143505013497
1267.0, 0.007781286430590147
1268.0, 0.0022224558389896372
1269.0, 0.012638258595106639
1270.0, 0.010281972968256206
1271.0, 0.0037234958984202456
1272.0, 0.010636229855533799
1273.0, 0.0077011010493748845
1274.0, 0.008777346016399077
1275.0, 0.01237633226261807
1276.0, 0.011240068866878391
1277.0, 0.004718591457210055
1278.0, 0.0009270878033027513
1279.0, 0.005126923139507982
1280.0, 0.006596032895012811
1281.0, 0.004818257998810951
1282.0, 0.0017054286635242752
1283.0, 3.0916188540173843e-05
1284, 0.0
1285, 0.0
1286, 0.0
1287, 0.0
1288, 0.0
1289, 0.0
1290, 0.0
1291, 0.0
1292, 0.0
1293, 0.0
1294, 0.0
1295, 0.0
1296, 0.0
1297, 0.0
1298, 0.0
1299, 0.0
1300, 0.0
1301, 0.0
1302, 0.0
1303, 0.0
1304, 0.0
1305, 0.0
1306, 0.0
1307, 0.0
1308, 0.0
1309, 0.0
1310, 0.0
1311, 0.0
1312, 0.0
1313, 0.0
1314, 0.0
1315, 0.0
1316, 0.0
1317, 0.0
1318, 0.0
1319, 0.0
1320, 0.0
1321, 0.0
1322, 0.0
1323, 0.0
1324, 0.0
1325, 0.0
1326, 0.0
1327, 0.0
1328, 0.0
1329, 0.0
1330, 0.0
1331, 0.0
1332, 0.0
1333, 0.0
1334, 0.0
1335, 0.0
1336, 0.0
1337, 0.0
1338, 0.0
1339, 0.0
1340, 0.0
1341, 0.0
1342, 0.0
1343, 0.0
1344, 0.0
1345, 0.0
1346, 0.0
1347, 0.0
1348, 0.0
1349, 0.0
1350, 0.0
1351, 0.0
1352, 0.0
1353, 0.0
1354, 0.0
1355, 0.0
1356, 0.0
1357, 0.0
1358, 0.0
1359, 0.0
1360, 0.0
1361, 0.0
1362, 0.0
1363, 0.0
1364, 0.0
1365, 0.0
1366, 0.0
1367, 0.0
1368, 0.0
1369, 0.0
1370, 0.0
1371, 0.0
1372, 0.0
1373, 0.0
1374, 0.0
1375, 0.0
1376, 0.0
1377, 0.0
1378, 0.0
1379, 0.0
1380, 0.0
1381, 0.0
1382, 0.0
1383, 0.0
1384, 0.0
1385, 0.0
1386, 0.0
1387, 0.0
1388, 0.0
1389, 0.0
1390, 0.0
1391, 0.0
1392, 0.0
1393, 0.0
1394, 0.0
1395, 0.0
1396, 0.0
1397, 0.0
1398, 0.0
1399, 0.0
1400, 0.0
1401, 0.0
1402, 0.0
1403, 0.0
1404, 0.0
1405, 0.0
1406, 0.0
1407, 0.0
1408, 0.0
1409, 0.0
1410, 0.0
1411, 0.0
1412, 0.0
1413, 0.0
1414, 0.0
1415, 0.0
1416, 0.0
1417, 0.0
1418, 0.0
1419, 0.0
1420, 0.0
1421, 0.0
1422, 0.0
1423, 0.0
1424, 0.0
1425, 0.0
1426, 0.0
1427, 0.0
1428, 0.0
1429, 0.0
1430, 0.0
1431, 0.0
1432, 0.0
1433, 0.0
1434, 0.0
1435, 0.0
1436, 0.0
1437, 0.0
1438, 0.0
1439, 0.0
1440, 0.0
1441, 0.0
1442, 0.0
1443, 0.0
1444, 0.0
1445, 0.0
1446, 0.0
1447, 0.0
1448, 0.0
1449, 0.0
1450, 0.0
1451, 0.0
1452, 0.0
1453, 0.0
1454, 0.0
1455, 0.0
1456, 0.0
1457, 0.0
1458, 0.0
1459, 0.0
1460, 0.0
1461, 0.0
1462, 0.0
1463, 0.0
1464, 0.0
1465, 0.0
1466, 0.0
1467, 0.0
1468, 0.0
1469, 0.0
1470, 0.0
1471, 0.0
1472, 0.0
1473, 0.0
1474, 0.0
1475, 0.0
1476, 0.0
1477, 0.0
1478, 0.0
1479, 0.0
1480, 0.0
1481, 0.0
1482, 0.0
1483, 0.0
1484, 0.0
1485, 0.0
1486, 0.0
1487, 0.0
1488, 0.0
1489, 0.0
1490, 0.0
1491, 0.0
1492, 0.0
1493, 0.0
1494, 0.0
1495, 0.0
1496, 0.0
1497, 0.0
1498, 0.0
1499, 0.0
1500, 0.0
1501, 0.0
1502, 0.0
1503, 0.0
1504, 0.0
1505, 0.0
1506, 0.0
1507, 0.0
1508, 0.0
1509, 0.0
1510, 0.0
1511, 0.0
1512, 0.0
1513, 0.0
1514, 0.0
1515, 0.0
1516, 0.0
1517, 0.0
1518, 0.0
1519, 0.0
1520, 0.0
1521, 0.0
1522, 0.0
1523, 0.0
1524, 0.0
1525, 0.0
1526, 0.0
1527, 0.0
1528, 0.0
1529, 0.0
1530, 0.0
1531, 0.0
1532, 0.0
1533, 0.0
1534, 0.0
1535, 0.0
1536, 0.0
1537, 0.0
1538, 0.0
1539, 0.0
1540, 0.0
1541, 0.0
1542, 0.0
1543, 0.0
1544, 0.0
1545, 0.0
1546, 0.0
1547, 0.0
1548, 0.0
1549, 0.0
1550, 0.0
1551, 0.0
1552, 0.0
1553, 0.0
1554, 0.0
1555, 0.0
1556, 0.0
1557, 0.0
1558, 0.0
1559, 0.0
1560, 0.0
1561, 0.0
1562, 0.0
1563, 0.0
1564, 0.0
1565, 0.0
1566, 0.0
1567, 0.0
1568, 0.0
1569, 0.0
1570, 0.0
1571, 0.0
1572, 0.0
1573, 0.0
1574, 0.0
1575, 0.0
1576, 0.0
1577, 0.0
1578, 0.0
1579, 0.0
1580, 0.0
1581, 0.0
1582, 0.0
1583, 0.0
1584, 0.0
1585, 0.0
1586, 0.0
1587, 0.0
1588, 0.0
1589, 0.0
1590, 0.0
1591, 0.0
1592, 0.0
1593, 0.0
1594, 0.0
1595, 0.0
1596, 0.0
1597, 0.0
1598, 0.0
1599, 0.0
