30, 0.0
31, 0.0
32, 0.0
33, 0.0
34, 0.0
35, 0.0
36, 0.0
37, 0.0
38, 0.0
39, 0.0
40, 0.0
41, 0.0
42, 0.0
43, 0.0
44, 0.0
45, 0.0
46, 0.0
47, 0.0
48, 0.0
49, 0.0
50, 0.0
51, 0.0
52, 0.0
53, 0.0
54, 0.0
55, 0.0
56, 0.0
57, 0.0
58, 0.0
59, 0.0
60, 0.0
61, 0.0
62, 0.0
63, 0.0
64, 0.0
65, 0.0
66, 0.0
67, 0.0
68, 0.0
69, 0.0
70, 0.0
71, 0.0
72, 0.0
73, 0.0
74, 0.0
75, 0.0
76, 0.0
77, 0.0
78, 0.0
79, 0.0
80, 0.0
81, 0.0
82, 0.0
83, 0.0
84, 0.0
85, 0.0
86, 0.0
87, 0.0
88, 0.0
89, 0.0
90, 0.0
91, 0.0
92, 0.0
93, 0.0
94, 0.0
95, 0.0
96, 0.0
97, 0.0
98, 0.0
99, 0.0
100, 0.0
101, 0.0
102, 0.0
103, 0.0
104, 0.0
105, 0.0
106, 0.0
107, 0.0
108, 0.0
109, 0.0
110, 0.0
111, 0.0
112, 0.0
113, 0.0
114, 0.0
115, 0.0
116, 0.0
117, 0.0
118, 0.0
119, 0.0
120, 0.0
121, 0.0
122, 0.0
123, 0.0
124, 0.0
125, 0.0
126, 0.0
127, 0.0
128, 0.0
129, 0.0
130, 0.0
131, 0.0
132, 0.0
133, 0.0
134, 0.0
135, 0.0
136, 0.0
137, 0.0
138, 0.0
139, 0.0
140, 0.0
141, 0.0
142, 0.0
143, 0.0
144, 0.0
145, 0.0
146, 0.0
147, 0.0
148, 0.0
149, 0.0
150, 0.0
151, 0.0
152.0, 0.0034991790936899792
153.0, 0.007027017037834279
154.0, 0.006518964057430209
155.0, 0.010094577718104597
156.0, 0.0075676771110470865
157.0, 0.00027743024584432076
158.0, 0.0013516294236983572
159.0, 0.0010841344079305407
160.0, 0.0011834478414916496
161.0, 0.002709267805551813
162.0, 0.0017893001121875596
163.0, 0.0031649672140586097
164.0, 0.00650021985942373
165.0, 0.011192984398842077
166.0, 0.017591957972466855
167.0, 0.021773448772486936
168.0, 0.022492869922109485
169.0, 0.01949652618582152
170.0, 0.027798244925570932
171.0, 0.03647302763809991
172.0, 0.033216145362195734
173.0, 0.02924387449062701
174.0, 0.021628805687185802
175.0, 0.012461103871947255
176.0, 0.012673840444173556
177.0, 0.011277507761070987
178.0, 0.009176158267562193
179.0, 0.006739837410683915
180.0, 0.008033864292763388
181.0, 0.006388306988335885
182.0, 0.0034260877029034698
183.0, 0.001975583665232372
184.0, 0.004179358737642006
185.0, 0.00575816992509902
186.0, 0.0060047177020053355
187.0, 0.006250555805919396
188.0, 0.008008182027945654
189.0, 0.010876674247097253
190.0, 0.014757947404621236
191.0, 0.015010340184857418
192.0, 0.017280044340726015
193.0, 0.019967154289543224
194.0, 0.017993890386789856
195.0, 0.019687093811616325
196.0, 0.020938125613750545
197.0, 0.020751837697235955
198.0, 0.022500220387952918
199.0, 0.023995058279598264
200.0, 0.025424451110658036
201.0, 0.026969303008400617
202.0, 0.028492316378383113
203.0, 0.03020793419501463
204.0, 0.03239020537985493
205.0, 0.0360362216556002
206.0, 0.038511453241691466
207.0, 0.039419883989229014
208.0, 0.03858039669037465
209.0, 0.03782887679737075
210.0, 0.03559063196170305
211.0, 0.03182850098658869
212.0, 0.026152704184747515
213.0, 0.02462639729927885
214.0, 0.021621071547831047
215.0, 0.017459998795341065
216.0, 0.015607706206746258
217.0, 0.015381798771502659
218.0, 0.01621412521364407
219.0, 0.017725900783121615
220.0, 0.013963801447958385
221.0, 0.011890143246463074
222.0, 0.011227091577804575
223.0, 0.011929644264810588
224.0, 0.0071779981366523835
225.0, 0.004794429356470938
226.0, 0.004624107306188196
227.0, 0.003242117577676126
228.0, 0.0029623897691834055
229.0, 0.002653292669404576
230.0, 0.0021289313409980546
231.0, 0.006259131311691241
232.0, 0.006385213495128722
233.0, 0.005555280231129464
234.0, 0.007023272831362332
235.0, 0.004614789714424585
236.0, 0.005193359770195807
237.0, 0.007543754994275573
238.0, 0.006108196086509081
239.0, 0.005495781430361277
240.0, 0.005450526747058984
241.0, 0.005651665571819501
242.0, 0.0027366649379228346
243.0, 0.004283677251749366
244.0, 0.00562555739736059
245.0, 0.002571969757684282
246.0, 0.0030769292471018246
247.0, 0.003031355902383343
248.0, 0.0038661661717572086
249.0, 0.009718171737325938
250.0, 0.00538579420252088
251.0, 0.002623233584161274
252.0, 0.003296367386227507
253.0, 0.001313981615561179
254.0, 0.0034589726551014586
255.0, 0.004963531921264073
256.0, 0.0028672760627583044
257.0, 0.0008340988800482507
258.0, 0.0005140162445141342
259.0, 0.0026952702736954405
260.0, 0.009078665333938571
261.0, 0.008485891331546635
262.0, 0.009446023586750936
263.0, 0.011657346473266588
264.0, 0.00922907169141504
265.0, 0.009646556665767723
266.0, 0.009857270069052215
267.0, 0.009214188015417258
268.0, 0.01589008569599302
269.0, 0.015693231321753563
270.0, 0.01374574065216554
271.0, 0.014588047473204956
272.0, 0.019363653335620325
273.0, 0.021216378090594082
274.0, 0.020348528136190428
275.0, 0.017488187268369943
276.0, 0.015408660001431845
277.0, 0.0128487246908279
278.0, 0.009909408497571465
279.0, 0.00861009655364704
280.0, 0.007630008313967569
281.0, 0.006872064833560117
282.0, 0.006311776855661613
283.0, 0.006070680001384716
284.0, 0.005798132117820322
285.0, 0.0049676915464181085
286.0, 0.0029070976862468597
287.0, 0.0009377388256085562
288.0, 0.0007256440620179492
289.0, 0.0014809393213658603
290.0, 0.0011180302295489967
291.0, 0.001958288679400995
292.0, 0.005574959064449976
293.0, 0.010818641809523735
294.0, 0.008738025009395446
295.0, 0.008497562634417536
296.0, 0.00787137951231689
297.0, 0.00585966188202697
298.0, 0.004827057205642407
299.0, 0.0029564558920524907
300.0, 0.0022020844684173596
301.0, 0.0047292726793048915
302.0, 0.004672569914554343
303.0, 0.003134000558615793
304.0, 0.0011575670699231842
305.0, 0.000815417264833036
306.0, 0.001598403329434668
307.0, 0.0024430563160082823
308.0, 0.0029793812890231766
309.0, 0.0023377460740546018
310.0, 0.000987216916960101
311.0, 0.0002764743669485627
312.0, 0.0007222787625369307
313.0, 0.0019356851042710377
314.0, 0.001125299661510537
315.0, 0.002736953699541868
316.0, 0.010321712763194404
317.0, 0.008604592944812264
318.0, 0.011385115053292483
319.0, 0.015640530862446888
320.0, 0.016854646244348837
321.0, 0.025509353825571814
322.0, 0.030508144525105436
323.0, 0.031704733614869356
324.0, 0.03136409126574503
325.0, 0.035980261604615774
326.0, 0.03926409385643104
327.0, 0.04004894303370493
328.0, 0.04001740093904632
329.0, 0.040499445884865745
330.0, 0.039592529184302325
331.0, 0.0365926397085453
332.0, 0.03484917190437108
333.0, 0.03589255240338509
334.0, 0.035923922225920876
335.0, 0.03180630139762622
336.0, 0.03101433546768447
337.0, 0.029812346428556496
338.0, 0.028355803050794458
339.0, 0.02690038974526555
340.0, 0.027461611422955324
341.0, 0.026303432760549014
342.0, 0.02434284629237409
343.0, 0.024680122760319275
344.0, 0.023053076576228133
345.0, 0.02226550234549399
346.0, 0.022293387495456726
347.0, 0.020517396874586362
348.0, 0.02169213938838749
349.0, 0.02175445248019774
350.0, 0.019813408417523957
351.0, 0.021217488450066168
352.0, 0.02275474664001752
353.0, 0.02466660326426435
354.0, 0.026968819805221696
355.0, 0.0250724363774909
356.0, 0.024973877682772466
357.0, 0.024211431182741713
358.0, 0.020319191813207394
359.0, 0.024101301620820817
360.0, 0.023478752132527196
361.0, 0.021270826384731684
362.0, 0.022333734852442565
363.0, 0.021975954248878743
364.0, 0.022888409850659482
365.0, 0.02436643245604267
366.0, 0.02405558960865762
367.0, 0.0243255799766137
368.0, 0.023159186639125483
369.0, 0.021618910653828167
370.0, 0.025431360406315877
371.0, 0.024762110963161738
372.0, 0.023299229306555477
373.0, 0.022642483400875883
374.0, 0.0261677934970548
375.0, 0.025888704135731473
376.0, 0.024417111992222216
377.0, 0.02319515035088586
378.0, 0.025975648548272348
379.0, 0.023596622116984167
380.0, 0.022191692569384636
381.0, 0.025850217305878262
382.0, 0.02823932903314963
383.0, 0.026193539468764494
384.0, 0.024795677573151435
385.0, 0.02917229748684008
386.0, 0.02774809871986637
387.0, 0.02771620814340685
388.0, 0.028589757079436565
389.0, 0.029501129895498922
390.0, 0.029844384723745416
391.0, 0.030991345309542277
392.0, 0.03407712965205074
393.0, 0.04137126507795996
394.0, 0.04059895556389502
395.0, 0.04268411127249982
396.0, 0.04795280594351993
397.0, 0.05353195036712327
398.0, 0.055772367613013255
399.0, 0.05768001025559078
400.0, 0.059382839528870995
401.0, 0.05905934177481685
402.0, 0.05445228067448967
403.0, 0.050107989029643224
404.0, 0.04650639511636524
405.0, 0.039317418782281746
406.0, 0.03906361378419316
407.0, 0.03804934183433706
408.0, 0.034169241133970504
409.0, 0.03381148690992784
410.0, 0.03165203427106525
411.0, 0.02928022673143783
412.0, 0.027513954939862296
413.0, 0.02688149733578817
414.0, 0.025398551111431612
415.0, 0.023859644852249624
416.0, 0.022768877873096748
417.0, 0.022276496432488274
418.0, 0.022117150738338788
419.0, 0.021746372015336822
420.0, 0.020746182908567973
421.0, 0.02062614723451211
422.0, 0.020334785040119204
423.0, 0.020203286145670477
424.0, 0.020563144775341317
425.0, 0.01946931488290261
426.0, 0.018943644201753054
427.0, 0.01843342837755522
428.0, 0.01724971393427902
429.0, 0.016400051444321627
430.0, 0.016756402281363107
431.0, 0.016846393806970845
432.0, 0.014489627075657733
433.0, 0.01619739105848271
434.0, 0.01762176290739425
435.0, 0.018238212838507274
436.0, 0.017556612334629986
437.0, 0.018619979908005773
438.0, 0.01847881681612385
439.0, 0.017936121186546312
440.0, 0.019018304640256837
441.0, 0.02037579541412471
442.0, 0.020281608140334063
443.0, 0.019172294825149552
444.0, 0.018364080498699597
445.0, 0.018183855425535866
446.0, 0.01783653194427612
447.0, 0.017682663336788817
448.0, 0.01889361560459544
449.0, 0.017880028845446483
450.0, 0.016844764728975854
451.0, 0.016318468200636736
452.0, 0.016852988696142795
453.0, 0.016029416059645855
454.0, 0.018110945685675246
455.0, 0.02079421700059956
456.0, 0.014979215112757287
457.0, 0.016588205996129955
458.0, 0.017214121215094344
459.0, 0.015846650549687716
460.0, 0.014324726063440677
461.0, 0.01388725031737294
462.0, 0.014454678393720655
463.0, 0.015375336797595535
464.0, 0.01451353316916459
465.0, 0.01575919371483919
466.0, 0.01642103512369056
467.0, 0.016261667835536894
468.0, 0.016459052448958324
469.0, 0.01567796732531068
470.0, 0.01528534860445526
471.0, 0.015375428961803867
472.0, 0.015218432661122362
473.0, 0.015016836697489004
474.0, 0.014737876061547748
475.0, 0.014214505643338718
476.0, 0.012872570257421945
477.0, 0.012103109342377686
478.0, 0.012263573071006218
479.0, 0.013167754901123697
480.0, 0.013890272030618822
481.0, 0.013789715863852673
482.0, 0.014469400424914841
483.0, 0.015499242719274841
484.0, 0.014257953664491962
485.0, 0.01395956959609254
486.0, 0.014004151432817023
487.0, 0.014505725124942578
488.0, 0.01624295849971574
489.0, 0.01626804318114625
490.0, 0.01712499931436933
491.0, 0.01838033441582108
492.0, 0.017244056963063848
493.0, 0.01734379267086392
494.0, 0.01753333512027176
495.0, 0.01761994916517073
496.0, 0.01763560209459487
497.0, 0.018963360054523277
498.0, 0.02160793986973488
499.0, 0.023457293921332927
500.0, 0.01918289654261095
501.0, 0.023504883741024996
502.0, 0.02471832724128788
503.0, 0.02352040548456683
504.0, 0.025057706085843203
505.0, 0.022948603465868682
506.0, 0.025054259637986902
507.0, 0.029339620697149807
508.0, 0.03003358813695751
509.0, 0.028365577803427185
510.0, 0.02872155631446888
511.0, 0.02909829441786467
512.0, 0.025332847419730797
513.0, 0.02652078043323177
514.0, 0.026575355259524404
515.0, 0.025399382009723123
516.0, 0.023454470023636063
517.0, 0.02626652907961367
518.0, 0.02553303713484511
519.0, 0.024114975283012235
520.0, 0.0260580255888622
521.0, 0.022991842283978978
522.0, 0.020449604809253244
523.0, 0.02038793423580229
524.0, 0.024656222996478034
525.0, 0.0199257177629141
526.0, 0.0209213791420868
527.0, 0.02284293271150279
528.0, 0.021681335446952638
529.0, 0.024162624105220576
530.0, 0.025631130371410696
531.0, 0.024990119752722875
532.0, 0.02207178408907508
533.0, 0.026248797152695527
534.0, 0.027985762807778033
535.0, 0.029228651836109627
536.0, 0.030808353685998466
537.0, 0.030201583198522192
538.0, 0.027577573131590587
539.0, 0.02831567216735139
540.0, 0.03336268254758678
541.0, 0.03332621098522173
542.0, 0.030230369089905677
543.0, 0.029769017557940498
544.0, 0.032180257110304006
545.0, 0.02975675643598135
546.0, 0.027902099849716686
547.0, 0.028192219258677785
548.0, 0.02956791270368487
549.0, 0.02726644767882441
550.0, 0.0229424693863403
551.0, 0.02096981432236512
552.0, 0.02101624345445594
553.0, 0.020439884345132282
554.0, 0.020319234207032213
555.0, 0.019821245806638795
556.0, 0.019239961993936017
557.0, 0.0192566167108433
558.0, 0.01727502600217679
559.0, 0.01628423563384149
560.0, 0.015584912215174732
561.0, 0.01405347374656199
562.0, 0.014766458263062566
563.0, 0.012718287252096004
564.0, 0.011168912456046273
565.0, 0.013055409594765626
566.0, 0.013350307936971569
567.0, 0.012158716687291836
568.0, 0.012414585832591222
569.0, 0.015345539942087255
570.0, 0.012782016071274499
571.0, 0.010918970646148642
572.0, 0.011130450753014741
573.0, 0.013426536480323404
574.0, 0.013936863815777854
575.0, 0.015980033629844237
576.0, 0.016394742344809386
577.0, 0.014259781388428292
578.0, 0.009843499298871109
579.0, 0.010028872293248137
580.0, 0.007957520848598548
581.0, 0.004093030828901041
582.0, 0.002822412608922741
583.0, 0.0028769604956732533
584.0, 0.004301593571151736
585.0, 0.004997190054792184
586.0, 0.0016293276620917476
587.0, 0.0009621485684148278
588.0, 0.0014754491658323635
589.0, 0.0021139059594196107
590.0, 0.0018250304696081415
591.0, 0.0007178213406614288
592.0, 0.00028684467093743513
593.0, 0.0004021455042334018
594.0, 0.0009563047189440455
595.0, 0.001845506899028261
596.0, 0.0015680012601874524
597.0, 0.0012579522047716264
598.0, 0.0013923865934899649
599.0, 0.0018103400756644267
600.0, 0.0012051605575183254
601.0, 0.0006196106464213788
602.0, 0.0003625358662882886
603.0, 0.0005196893688128273
604.0, 0.0010133391766001456
605.0, 0.0017041243436290072
606.0, 0.0020845019562284947
607.0, 0.001275504160114693
608.0, 0.0016898961123442773
609.0, 0.002417622716494197
610.0, 0.0026567681903845544
611.0, 0.0016032630836039672
612.0, 0.0004372423426923154
613.0, 0.0007812707375084852
614.0, 0.0010277123619273924
615.0, 0.0002292156268462597
616.0, 0.00015922767526259287
617.0, 0.001307460574891606
618.0, 0.0015367669902599588
619.0, 0.0005201315765861615
620.0, 0.0007253914273251987
621.0, 0.0006127652047292984
622.0, 0.0008827251688643461
623.0, 0.0016368641926715823
624.0, 0.0027420681530622663
625.0, 0.0031472457375238076
626.0, 0.0018396840373983568
627.0, 0.0006598598838665895
628.0, 0.002248997455436774
629.0, 0.0036683712540402803
630.0, 0.0023548141160806917
631.0, 0.0009646963154739813
632.0, 0.0015982240693372656
633.0, 0.002756032485529541
634.0, 0.0026633791937528983
635.0, 0.0017375703042733191
636.0, 0.0008009267377689778
637.0, 0.002896464760265792
638.0, 0.004012748690101301
639.0, 0.004141015931839694
640.0, 0.0031559317424127258
641.0, 0.0007683946090282243
642.0, 0.0011610383817094864
643.0, 0.0007961226309147822
644.0, 0.0002872098911432077
645.0, 0.0008826673497803697
646.0, 0.0017823536268164123
647.0, 0.0020728682725699864
648.0, 0.001918040983116973
649.0, 0.0015279378680534907
650.0, 0.0016048303350009172
651.0, 0.0021857032941849652
652.0, 0.003119176933079244
653.0, 0.004152618655623804
654.0, 0.0045521275090439775
655.0, 0.0026289289275435814
656.0, 0.002770983956025818
657.0, 0.004281228295443989
658.0, 0.004364374061738612
659.0, 0.002929564256627713
660.0, 0.003069108114314492
661.0, 0.004533802552224374
662.0, 0.006594964582597322
663.0, 0.0036844793075601037
664.0, 0.004154038472024115
665.0, 0.004625362945711644
666.0, 0.004674793684993281
667.0, 0.011090889061291867
668.0, 0.00952730573519608
669.0, 0.008409272798380055
670.0, 0.009776202267161409
671.0, 0.013643655399259724
672.0, 0.012991464750098722
673.0, 0.012595127036832755
674.0, 0.01326384970077847
675.0, 0.015317644486314752
676.0, 0.01463929441028315
677.0, 0.014380605825576558
678.0, 0.015624401991571012
679.0, 0.01856080018996629
680.0, 0.02082494489690817
681.0, 0.018896188907535822
682.0, 0.01799830141104528
683.0, 0.01898010149747327
684.0, 0.020607622486088124
685.0, 0.0197906060523207
686.0, 0.02073111080136411
687.0, 0.02210455901919113
688.0, 0.021973723076171632
689.0, 0.019177423031922925
690.0, 0.022689694976930793
691.0, 0.02549515047555327
692.0, 0.024552810810734304
693.0, 0.0243845314484546
694.0, 0.023030662069046047
695.0, 0.022528970005270262
696.0, 0.02311107965191627
697.0, 0.024225906368780303
698.0, 0.022179665054599895
699.0, 0.022503120857492582
700.0, 0.0228791815914743
701.0, 0.020870845458797062
702.0, 0.01922559827009549
703.0, 0.017921512199770295
704.0, 0.017053025770881802
705.0, 0.0164552998038722
706.0, 0.01532281760676225
707.0, 0.01491857822385669
708.0, 0.013768539090178148
709.0, 0.01222783007117751
710.0, 0.011286999325731545
711.0, 0.009965619745052973
712.0, 0.00788332530997171
713.0, 0.005538792274091077
714.0, 0.00346794186754017
715.0, 0.0027912716512645992
716.0, 0.004594361453951548
717.0, 0.0036577346686259963
718.0, 0.0009955570041813731
719.0, 0.003462681741718328
720.0, 0.0027012776749800343
721.0, 0.0025381519568570816
722.0, 0.0030941748766772762
723.0, 0.003944232658079512
724.0, 0.0019581608870552513
725.0, 0.004436248803805831
726.0, 0.004854534415416677
727.0, 0.0016645726325004628
728.0, 0.0012418238391766073
729.0, 0.002501440843933579
730.0, 0.0017893402124305826
731.0, 0.0010645255476049822
732.0, 0.004179550579064342
733.0, 0.004461533434384152
734.0, 0.004594126061568641
735.0, 0.0043190546414241075
736.0, 0.0036190501814818777
737.0, 0.0033537486685474736
738.0, 0.0030305630484204573
739.0, 0.002451049705169857
740.0, 0.00308896241623651
741.0, 0.007929739804455006
742.0, 0.00567043824350604
743.0, 0.006632303144199518
744.0, 0.009480447391399818
745.0, 0.011929680821220666
746.0, 0.007525031485538938
747.0, 0.005766691855957696
748.0, 0.005283977106911957
749.0, 0.00546182531735344
750.0, 0.005861512661766636
751.0, 0.009934429778725915
752.0, 0.012041818070068903
753.0, 0.01303866421795299
754.0, 0.014344544228439574
755.0, 0.017569973254334997
756.0, 0.019551258685180085
757.0, 0.02140145604948734
758.0, 0.023070147505864873
759.0, 0.023220842283165073
760.0, 0.02698818075256693
761.0, 0.02958877529847862
762.0, 0.031650285347427524
763.0, 0.03445732329633105
764.0, 0.03955027619923063
765.0, 0.042859984547401364
766.0, 0.04879768038076007
767.0, 0.05608781233420437
768.0, 0.05555695942127311
769.0, 0.06161966878448489
770.0, 0.06523373244601093
771.0, 0.06650670277668509
772.0, 0.06696000606594597
773.0, 0.07076129939025565
774.0, 0.0703706467393043
775.0, 0.06837031077413364
776.0, 0.06698603299121451
777.0, 0.06958029051071739
778.0, 0.06836338482434805
779.0, 0.06516871842248255
780.0, 0.06289163408600655
781.0, 0.06386146820756831
782.0, 0.06190946793702515
783.0, 0.0614424658485107
784.0, 0.05945396129433269
785.0, 0.055827898406250215
786.0, 0.05330249552181697
787.0, 0.051082964561651394
788.0, 0.049775955471356964
789.0, 0.04851816338677678
790.0, 0.046583959654293815
791.0, 0.04535798022017486
792.0, 0.040796181677763874
793.0, 0.03741867894393159
794.0, 0.036139428059691135
795.0, 0.03567856528099694
796.0, 0.034550078585593724
797.0, 0.034280114236444094
798.0, 0.03404623218489964
799.0, 0.03339332544524307
800.0, 0.03415710035341308
801.0, 0.02969842134625417
802.0, 0.026264451610136335
803.0, 0.023756200697532016
804.0, 0.019225428627715337
805.0, 0.019982556786339138
806.0, 0.02157535197580961
807.0, 0.022731297585648968
808.0, 0.022724201635326624
809.0, 0.02178138852040331
810.0, 0.02315790837327273
811.0, 0.022602455920051015
812.0, 0.020549025555529624
813.0, 0.01868711318825405
814.0, 0.018390312579831966
815.0, 0.015928902977190906
816.0, 0.015857237976874137
817.0, 0.01749797519757904
818.0, 0.012514201029462322
819.0, 0.01919694141249525
820.0, 0.020935357402190734
821.0, 0.01936337563728594
822.0, 0.01788215077747445
823.0, 0.018118809352620224
824.0, 0.017561621410822032
825.0, 0.018601228331315927
826.0, 0.020782664788836256
827.0, 0.02180314115877402
828.0, 0.024042371072110005
829.0, 0.022802595903374596
830.0, 0.023051447524749854
831.0, 0.026175747636702842
832.0, 0.02363825271981763
833.0, 0.025546514158745218
834.0, 0.025399331469866476
835.0, 0.025295701902512412
836.0, 0.028777161079735762
837.0, 0.029671878597041297
838.0, 0.030923506109856357
839.0, 0.032014877572332914
840.0, 0.03378375858458789
841.0, 0.03872903387897601
842.0, 0.03682360797284417
843.0, 0.036949523515412454
844.0, 0.03969730698323438
845.0, 0.044573358620422485
846.0, 0.04893580940970488
847.0, 0.052091398838719986
848.0, 0.05480145653257606
849.0, 0.058235677475122025
850.0, 0.06362574607890344
851.0, 0.06838679716274493
852.0, 0.07032160310026
853.0, 0.07237513262169415
854.0, 0.07666858050575123
855.0, 0.08529741290341124
856.0, 0.09291070338112073
857.0, 0.10119437521607592
858.0, 0.110055381447918
859.0, 0.11932090953956395
860.0, 0.12900318359368967
861.0, 0.14032342433716832
862.0, 0.15140883528928903
863.0, 0.1637303948683802
864.0, 0.1793584552729358
865.0, 0.1943655869478557
866.0, 0.21688050129806158
867.0, 0.23935624319472082
868.0, 0.25952026599392697
869.0, 0.2789859581524544
870.0, 0.3091897996258544
871.0, 0.34213948221859086
872.0, 0.3818237661653993
873.0, 0.4286464838774743
874.0, 0.4732932555930472
875.0, 0.527709499480391
876.0, 0.5899627300443219
877.0, 0.6546093156489636
878.0, 0.717409519841966
879.0, 0.7922726036865614
880.0, 0.8472465364670769
881.0, 0.8999540788212095
882.0, 0.9526298362785884
883.0, 0.9999999675318463
884.0, 0.9999974699815602
885.0, 0.9897019739428775
886.0, 0.9629923940517158
887.0, 0.9202907291550542
888.0, 0.8703385403845645
889.0, 0.7924374132646375
890.0, 0.7217865667955111
891.0, 0.6540196585482395
892.0, 0.5838289573176489
893.0, 0.5105552410563524
894.0, 0.4628379106395565
895.0, 0.411555728395969
896.0, 0.360372773767051
897.0, 0.31810162565408084
898.0, 0.2797281046369649
899.0, 0.249099816073008
900.0, 0.2186804967435856
901.0, 0.19114161754948664
902.0, 0.17370888299564782
903.0, 0.15065810916216046
904.0, 0.13934316737445498
905.0, 0.12683543779999187
906.0, 0.11027358805659954
907.0, 0.09709691141683685
908.0, 0.09131317543902756
909.0, 0.08338532767296433
910.0, 0.0771197212318452
911.0, 0.0734428100622182
912.0, 0.06574122325610872
913.0, 0.06188880499619191
914.0, 0.053909774570343544
915.0, 0.047941347332694936
916.0, 0.04822571038771484
917.0, 0.04296251631213731
918.0, 0.03917869910906276
919.0, 0.037690780953413945
920.0, 0.0365721108047396
921.0, 0.03361845475659739
922.0, 0.03224982268719412
923.0, 0.03168917631499028
924.0, 0.027660214198110288
925.0, 0.021296804528212226
926.0, 0.016788591355014607
927.0, 0.023484448453208073
928.0, 0.023048505718558567
929.0, 0.022549598440896428
930.0, 0.02285242349196462
931.0, 0.01963634478505056
932.0, 0.014457781303819186
933.0, 0.014422130296115755
934.0, 0.01492907155240021
935.0, 0.015890434197260217
936.0, 0.02431489004732828
937.0, 0.020781615117079398
938.0, 0.015126908764106514
939.0, 0.013392489710448856
940.0, 0.01618231849545502
941.0, 0.012042979760380216
942.0, 0.014388855911093193
943.0, 0.013017705636163673
944.0, 0.010120883734918604
945.0, 0.008861178935062792
946.0, 0.011009544742797054
947.0, 0.01099363990743961
948.0, 0.009738665848542492
949.0, 0.00925316477584195
950.0, 0.01069973695147621
951.0, 0.009406742169924088
952.0, 0.011631045735027285
953.0, 0.011113954138859974
954.0, 0.008115629132700287
955.0, 0.00500716425985588
956.0, 0.005838043687730517
957.0, 0.00661444389234587
958.0, 0.009130553790500205
959.0, 0.011300401258245968
960.0, 0.009799259702607152
961.0, 0.006192704624559224
962.0, 0.006704986449778753
963.0, 0.0066641997779607436
964.0, 0.004743732336960439
965.0, 0.0016513968624590472
966.0, 0.005737575255225865
967.0, 0.004384448390071727
968.0, 0.0038652960280902513
969.0, 0.004797327986282032
970.0, 0.004267810520061459
971.0, 0.0023155961355302724
972.0, 0.0008691693003199024
973.0, 0.0013370499776280405
974.0, 0.0029693069391373496
975.0, 0.0032752890463502516
976.0, 0.0035158719482033148
977.0, 0.004141887200987819
978.0, 0.0035353570181871786
979.0, 0.0024275315235992427
980.0, 0.0037292698026972267
981.0, 0.0018428437606666575
982.0, 0.0012432120954280295
983.0, 0.0007405333637971188
984.0, 0.0006055955278413531
985.0, 0.0026464307223276902
986.0, 0.003286289983635342
987.0, 0.0038838387120976236
988.0, 0.0025769347556810545
989.0, 0.00019520905820418155
990.0, 0.0006230928323050387
991.0, 0.0009345650495769387
992.0, 0.001603464022956851
993.0, 0.002249625760183762
994.0, 0.0026646942152339127
995.0, 0.0028418337842598036
996.0, 0.0009130803315286847
997.0, 0.0007732745056729724
998.0, 0.0006705498804607452
999.0, 0.0004585570274998771
1000.0, 0.0019186783256165691
1001.0, 0.0011558009503414895
1002.0, 0.001075416205792542
1003.0, 0.0014337749523691042
1004.0, 0.001579906315803919
1005.0, 0.00045314604465450836
1006.0, 0.002412781849855996
1007.0, 0.001351826738994265
1008.0, 0.0004288759753979096
1009.0, 0.0007251345542358643
1010.0, 0.0011645696029338314
1011.0, 0.001411521154511804
1012.0, 0.003323214764750846
1013.0, 0.0028139038387511575
1014.0, 0.00033797796325456074
1015.0, 0.0003894620071472428
1016.0, 0.0023263908920543716
1017.0, 0.0018859955141094296
1018.0, 0.0015648003429663384
1019.0, 0.0018813271140877775
1020.0, 0.0019056682635452099
1021.0, 0.0034279842415314023
1022.0, 0.0028006141548495085
1023.0, 0.0023005502253605602
1024.0, 0.0021552140004608136
1025.0, 0.001520842664197055
1026.0, 0.0038475534366339426
1027.0, 0.005847525284142721
1028.0, 0.005234799430658091
1029.0, 0.0033615572259300046
1030.0, 0.003123650260038106
1031.0, 0.002638333951445544
1032.0, 0.001723000349607167
1033.0, 0.0038842738588009116
1034.0, 0.005014901004670433
1035.0, 0.00012273642750291553
1036.0, 0.0006403848432747223
1037.0, 0.0034311649157886316
1038.0, 0.0026978887485985324
1039.0, 0.0009742535073000181
1040.0, 0.0023020697050507204
1041.0, 0.005650967487679192
1042.0, 0.0025973405144610537
1043.0, 0.0022702209421646123
1044.0, 0.002898921566985545
1045.0, 0.0022001564253384225
1046.0, 0.004072873405762781
1047.0, 0.005579255807736732
1048.0, 0.005038158086923201
1049.0, 0.004194846209653483
1050.0, 0.0042909770257567835
1051.0, 0.004272523975194721
1052.0, 0.0032312808710434726
1053.0, 0.0035027353101117907
1054.0, 0.004404155676904026
1055.0, 0.0052152972399166515
1056.0, 0.005536782931708781
1057.0, 0.005884399583084104
1058.0, 0.007199642455463021
1059.0, 0.006987353912277526
1060.0, 0.005600818983001186
1061.0, 0.006220013484410949
1062.0, 0.00472861044781015
1063.0, 0.005695260973361607
1064.0, 0.005509007738924812
1065.0, 0.005142085036095608
1066.0, 0.0076324664682902044
1067.0, 0.004323433650641164
1068.0, 0.005169478769203979
1069.0, 0.008793723083117098
1070.0, 0.01048717685071747
1071.0, 0.006889118379587208
1072.0, 0.01030313355175765
1073.0, 0.01043619162324805
1074.0, 0.007316369408210199
1075.0, 0.005974765206125927
1076.0, 0.008686503623356772
1077.0, 0.005505681578614079
1078.0, 0.0074770627876169305
1079.0, 0.009287176049675215
1080.0, 0.009343488805681716
1081.0, 0.008199524742830885
1082.0, 0.00939136107814585
1083.0, 0.008231635569196667
1084.0, 0.007949082132275593
1085.0, 0.007425726562109373
1086.0, 0.006206633108058836
1087.0, 0.004796453281612379
1088.0, 0.00828517819166514
1089.0, 0.00667494379125767
1090.0, 0.004590023864355105
1091.0, 0.004058158918749061
1092.0, 0.0050249314537874346
1093.0, 0.0023349586752477217
1094.0, 0.005577853103796391
1095.0, 0.007262780716046393
1096.0, 0.006550616113381767
1097.0, 0.004234634934145695
1098.0, 0.0004192336407053232
1099.0, 0.0021673067888213953
1100.0, 0.005124966929226227
1101.0, 0.005692942056376001
1102.0, 0.004437951819853354
1103.0, 0.008403003624029662
1104.0, 0.003977282215123005
1105.0, 0.004620977670923584
1106.0, 0.005703129888597985
1107.0, 0.004959693584355347
1108.0, 0.0028207829064465255
1109.0, 0.0048277979597259315
1110.0, 0.004552893472093878
1111.0, 0.004991506256598556
1112.0, 0.00491746975227941
1113.0, 0.002677471548878077
1114.0, 0.0019013563292302727
1115.0, 0.0052108288709774575
1116.0, 0.0038041895300265152
1117.0, 0.002767576255906134
1118.0, 0.0051704220256084295
1119.0, 0.0059623666674995515
1120.0, 0.006949466874048954
1121.0, 0.005369462857554415
1122.0, 0.003915199516433688
1123.0, 0.004320319682822968
1124.0, 0.006839026331940135
1125.0, 0.006475398346131069
1126.0, 0.006709653954559656
1127.0, 0.0066147169863989795
1128.0, 0.006298283734336267
1129.0, 0.006166627993912601
1130.0, 0.006222324402772603
1131.0, 0.004822435684875022
1132.0, 0.0020960661051426816
1133.0, 0.002334199567655097
1134.0, 0.005731527151527211
1135.0, 0.005175872630605829
1136.0, 0.0025939988302890763
1137.0, 0.005035140069302169
1138.0, 0.004958871705534054
1139.0, 0.00291339476558001
1140.0, 0.004066434615152217
1141.0, 0.004049807045297757
1142.0, 0.004409607568129255
1143.0, 0.0033956400341433554
1144.0, 0.001920632821426444
1145.0, 0.0012659545545426927
1146.0, 0.0017897569387743367
1147.0, 0.001566034608341446
1148.0, 0.002157406112229212
1149.0, 0.0017252133159084352
1150.0, 0.0013098678777909527
1151.0, 0.004503529058036954
1152.0, 0.0065235762727995925
1153.0, 0.005542154961129203
1154.0, 0.00522085451307737
1155.0, 0.004306719569231794
1156.0, 0.0019994387360399964
1157.0, 0.006176985563878408
1158.0, 0.003725519205764841
1159.0, 0.0025667060074872415
1160.0, 0.002516614808177959
1161.0, 0.003032246544476931
1162.0, 0.004238457680122437
1163.0, 0.006040449024976279
1164.0, 0.005511845495954746
1165.0, 0.005107436599848765
1166.0, 0.004703719044518196
1167.0, 0.0033209570198249414
1168.0, 0.0015943408655528012
1169.0, 0.0016548361628209525
1170.0, 0.001820979726369834
1171.0, 0.0012124812984160625
1172.0, 0.0008628233001686204
1173.0, 0.003961877279402273
1174.0, 0.0038244281631911615
1175.0, 0.0030889156304170825
1176.0, 0.0037313270009183583
1177.0, 0.004514558920272779
1178.0, 0.003753018815655559
1179.0, 0.0046461995623977735
1180.0, 0.0034206882305870484
1181.0, 0.0046918057605144685
1182.0, 0.006368827377004029
1183.0, 0.007028076549065123
1184.0, 0.007401205332689486
1185.0, 0.008874827233654764
1186.0, 0.007827283377728433
1187.0, 0.004434571473656396
1188.0, 0.001572040300078393
1189.0, 0.0016141172124301863
1190.0, 0.0010447852709396424
1191.0, 0.002032650542336283
1192.0, 0.002078539820771293
1193.0, 0.00195799314374763
1194.0, 0.002244596365656982
1195.0, 0.0028765004923964922
1196.0, 0.0034402038622674373
1197.0, 0.002290568439485383
1198.0, 0.0012673282398806443
1199.0, 0.0015936343451350677
1200.0, 0.002895057690656316
1201.0, 0.0013367400125688317
1202.0, 0.0035966970792050508
1203.0, 0.0060026906044132
1204.0, 0.004617389814269732
1205.0, 0.0030224146138989605
1206.0, 0.007670460563964458
1207.0, 0.004189597360223859
1208.0, 0.00419829583677223
1209.0, 0.00925861139715814
1210.0, 0.010233719395149613
1211.0, 0.005575523410637323
1212.0, 0.00919911338340629
1213.0, 0.005713470143833888
1214.0, 0.0037646395372504544
1215.0, 0.005811199600089357
1216.0, 0.008206022329869967
1217.0, 0.006870918936934679
1218.0, 0.006872699457656675
1219.0, 0.006044357366340852
1220.0, 0.004661873966882863
1221.0, 0.005303199275507307
1222.0, 0.007964510957621846
1223.0, 0.009652509044694267
1224.0, 0.004248849103156757
1225.0, 0.005168245861024666
1226.0, 0.005732906751980967
1227.0, 0.005094435695161906
1228.0, 0.004433213302459137
1229.0, 0.005803449449038002
1230.0, 0.006974291150825769
1231.0, 0.005472468547749049
1232.0, 0.005185978524105276
1233.0, 0.0061851819450898515
1234.0, 0.0072674272807227306
1235.0, 0.00980332418030329
1236.0, 0.007295087762978797
1237.0, 0.005683364430245664
1238.0, 0.00366185859005883
1239.0, 0.0021563766171590264
1240.0, 0.0034351039201488973
1241.0, 0.0025314720668101736
1242.0, 0.006476140910151413
1243.0, 0.007947657176124763
1244.0, 0.006406139075532419
1245.0, 0.004636049907244252
1246.0, 0.00731536658260368
1247.0, 0.006593776885195063
1248.0, 0.006686064227034359
1249.0, 0.007457126784259531
1250.0, 0.008155043522113097
1251.0, 0.007499122960543246
1252.0, 0.0036311681905419014
1253.0, 0.005260599313761425
1254.0, 0.009052049507095827
1255.0, 0.008366382563025599
1256.0, 0.005358235835239569
1257.0, 0.0059155047981769866
1258.0, 0.010927004167314154
1259.0, 0.009273937416680466
1260.0, 0.0073424440930272405
1261.0, 0.005428635031627506
1262.0, 0.004632889891569121
1263.0, 0.006061819380797381
1264.0, 0.005038202280812828
1265.0, 0.0056320671595834326
1266.0, 0.006953658239175875
1267.0, 0.007721481861067362
1268.0, 0.008788689420505381
1269.0, 0.012489053188844064
1270.0, 0.010466201905821426
1271.0, 0.008394640750260252
1272.0, 0.005764379936986665
1273.0, 0.006175847022132754
1274.0, 0.008248406471477347
1275.0, 0.002988284319489568
1276.0, 0.009733789913973273
1277.0, 0.007898327974553733
1278.0, 0.0046403641072178285
1279.0, 0.004068009064192814
1280.0, 0.0057329719315049096
1281.0, 0.002901708654223253
1282.0, 0.005698140578054472
1283.0, 0.003742440317744209
1284.0, 0.005164685326650455
1285.0, 0.006450530112555622
1286.0, 0.004149910589760636
1287.0, 0.00826821816254909
1288.0, 0.005528960080409163
1289.0, 0.0048068843937807875
1290.0, 0.007745701042005171
1291.0, 0.008948197498719048
1292.0, 0.004118648966819281
1293.0, 0.0034014171797405435
1294.0, 0.008133766890086833
1295.0, 0.005776804020920332
1296.0, 0.0030643949513743385
1297.0, 0.004826625978709228
1298.0, 0.010171270691831928
1299.0, 0.005630541411004678
1300.0, 0.0031856056202583466
1301.0, 0.00555041053662368
1302.0, 0.0040690281290013935
1303.0, 0.0006018877517498245
1304.0, 0.0017392962867502412
1305.0, 0.0002382933894405397
1306.0, 0.0017896459872889857
1307.0, 0.0023253803471439184
1308.0, 0.002086754765667628
1309.0, 0.0021314773261343284
1310.0, 0.00338684743696407
1311.0, 0.0050039510540076685
1312.0, 0.0030002588463343754
1313.0, 0.0032108203336328033
1314.0, 0.00378120511033333
1315.0, 0.0036337214159951627
1316.0, 0.0029741610394541135
1317.0, 0.0020031910437593946
1318.0, 0.0012106639874778697
1319.0, 0.0018146685757972295
1320.0, 0.0015354513691981468
1321.0, 0.0009462722589953989
1322.0, 0.00190521418758046
1323.0, 0.0009572565934706631
1324.0, 0.0022733272905628423
1325.0, 0.0033644342947349816
1326.0, 0.0021324596652541974
1327.0, 0.000175674384903172
1328.0, 0.0006037740125133783
1329.0, 0.00179233413103448
1330.0, 0.000948172635494164
1331.0, 0.002882319641031989
1332.0, 0.004046328117394368
1333.0, 0.003878759387800069
1334.0, 0.0039018958784290307
1335.0, 0.003719208799905522
1336.0, 0.0035067263354388407
1337.0, 0.0038795616526094575
1338.0, 0.003837906697708082
1339.0, 0.0038441451146205164
1340.0, 0.004649807873126741
1341.0, 0.0049935462032808355
1342.0, 0.003903189768175356
1343.0, 0.004192800472795717
1344.0, 0.004319731139172961
1345.0, 0.004228238554039705
1346.0, 0.004503301795884767
1347.0, 0.005054998004064632
1348.0, 0.004777428122797497
1349.0, 0.006260366903622472
1350.0, 0.006042861596873935
1351.0, 0.0040023521398101815
1352.0, 0.0020078570613033127
1353.0, 0.002448220370058566
1354.0, 0.004320829871568766
1355.0, 0.005672899727974079
1356.0, 0.005410815813355745
1357.0, 0.003636587775071937
1358.0, 0.0027128673623171905
1359.0, 0.006541293699166582
1360.0, 0.004432999191758101
1361.0, 0.005749647958129208
1362.0, 0.005474209653288622
1363.0, 0.005329084666188903
1364.0, 0.005241928513607175
1365.0, 0.0026590145563842632
1366.0, 0.007390868332731471
1367.0, 0.0033391210989564954
1368.0, 0.00420667592143543
1369.0, 0.0035528283624289532
1370.0, 0.0009303145871649738
1371.0, 0.00226088424732009
1372.0, 0.00467777428978843
1373.0, 0.0034246737789312945
1374.0, 0.004442069741912371
1375.0, 0.003965915580675814
1376.0, 0.0036272373731510528
1377.0, 0.0059619183073816966
1378.0, 0.004612201031234615
1379.0, 0.005520555108152518
1380.0, 0.003168247440724469
1381.0, 0.004264408774099504
1382.0, 0.006925413368848977
1383.0, 0.007728201230923766
1384.0, 0.008059766528785442
1385.0, 0.005764175039844875
1386.0, 0.0030543707438933808
1387.0, 0.0034838216963167202
1388.0, 0.0046409997014414395
1389.0, 0.0036030172321083872
1390.0, 0.0004652210579869703
1391.0, 0.0051026064163721685
1392.0, 0.007516518093553945
1393.0, 0.005935464298193226
1394.0, 0.00636799297401981
1395.0, 0.008169427577127589
1396.0, 0.006834518791689553
1397.0, 0.007403134379029157
1398.0, 0.009382098799040176
1399.0, 0.008794617480604134
1400.0, 0.00753359604893487
1401.0, 0.0058224660200577325
1402.0, 0.004380332448736004
1403.0, 0.006571701611170651
1404.0, 0.005158927015218889
1405.0, 0.008124524925428932
1406.0, 0.0081459687862267
1407.0, 0.0075428398392843946
1408.0, 0.007448336830981828
1409.0, 0.005232028692263111
1410.0, 0.006968486549911127
1411.0, 0.00844893929252745
1412.0, 0.006585865921089227
1413.0, 0.0036970507416205366
1414.0, 0.0038525904780055374
1415.0, 0.007672608897490139
1416.0, 0.00445881071892081
1417.0, 0.005360493091702277
1418.0, 0.004336286518477116
1419.0, 0.0045251937703165305
1420.0, 0.005672473356222695
1421.0, 0.005486251114825268
1422.0, 0.0020871567338515353
1423.0, 0.004673354109902592
1424.0, 0.007405635077327551
1425.0, 0.005967288631015784
1426.0, 0.004143023435911541
1427.0, 0.004559391143904518
1428.0, 0.005984485294945356
1429.0, 0.0026978184009551574
1430.0, 0.0025536370265727454
1431.0, 0.006064445745244075
1432.0, 0.006906636634294969
1433.0, 0.00571018974089137
1434.0, 0.005507204733581323
1435.0, 0.006729860411449386
1436.0, 0.0033867993848651673
1437.0, 0.004022603268465792
1438.0, 0.003374340694350844
1439.0, 0.003947511437004721
1440.0, 0.005622057198515528
1441.0, 0.005472300037152739
1442.0, 0.0039521336943568845
1443.0, 0.005847194068117624
1444.0, 0.006373570113161321
1445.0, 0.0034677532006377513
1446.0, 0.0034776341760095917
1447.0, 0.007296587438625911
1448.0, 0.003785469746774043
1449.0, 0.0020997270477657384
1450.0, 0.005034672086054942
1451.0, 0.0054236257241154434
1452.0, 0.00662958084995572
1453.0, 0.007221917595008323
1454.0, 0.004052836435348119
1455.0, 0.003570005032556785
1456.0, 0.006730683397367316
1457.0, 0.004984660288826849
1458.0, 0.0041659708762810995
1459.0, 0.00455860766532723
1460.0, 0.004273872748639242
1461.0, 0.0023630779069949933
1462.0, 0.003275482113796172
1463.0, 0.0022843378355215252
1464.0, 0.00371320401457882
1465.0, 0.0029947437946916677
1466.0, 0.000997069224751348
1467.0, 0.0006695801115290916
1468.0, 0.0015876185367612885
1469.0, 0.006019387721962147
1470.0, 0.004792325961904766
1471.0, 0.008566534267822659
1472.0, 0.012886690466257303
1473.0, 0.011942194655606322
1474.0, 0.005377103096328951
1475.0, 0.0031124298134682276
1476.0, 0.008772307996672234
1477.0, 0.0077077604620101265
1478.0, 0.005499781566300646
1479.0, 0.004471263854000353
1480.0, 0.003988805762362005
1481.0, 0.0026374636675187517
1482.0, 0.004987424362315963
1483.0, 0.0026844273276475567
1484.0, 0.002736053633363682
1485.0, 0.002994360631993281
1486.0, 0.003944883882273421
1487.0, 0.005184809924433155
1488.0, 0.002708298341833509
1489.0, 0.002079522435406275
1490.0, 0.005721730833176552
1491.0, 0.007572844805827891
1492.0, 0.005388195261140564
1493.0, 0.0032677673405589673
1494.0, 0.004662312931988948
1495.0, 0.002950132639899081
1496.0, 0.0034951767243521976
1497.0, 0.005383222861828898
1498.0, 0.006016783782437009
1499.0, 0.006257182399955697
1500.0, 0.005498247720041928
1501.0, 0.0034036523049546254
1502.0, 0.006242351741717462
1503.0, 0.0019940477791162447
1504.0, 0.00040230442940705237
1505.0, 0.0027507759624259462
1506.0, 0.0033413087026653502
1507.0, 0.002108100685621216
1508.0, 0.0038705144657913415
1509.0, 0.00011673185832713866
1510.0, 0.0020271498647014795
1511.0, 0.002390177568961793
1512.0, 0.0022145951597094316
1513.0, 0.0015579988025258035
1514.0, 0.0008017666127971969
1515.0, 0.0008490739944275457
1516.0, 0.0006149961511540346
1517.0, 0.0012351881038328927
1518.0, 0.0004510793303351998
1519.0, 4.098855478379567e-06
1520, 0.0
1521, 0.0
1522, 0.0
1523, 0.0
1524, 0.0
1525, 0.0
1526, 0.0
1527, 0.0
1528, 0.0
1529, 0.0
1530, 0.0
1531, 0.0
1532, 0.0
1533, 0.0
1534, 0.0
1535, 0.0
1536, 0.0
1537, 0.0
1538, 0.0
1539, 0.0
1540, 0.0
1541, 0.0
1542, 0.0
1543, 0.0
1544, 0.0
1545, 0.0
1546, 0.0
1547, 0.0
1548, 0.0
1549, 0.0
1550, 0.0
1551, 0.0
1552, 0.0
1553, 0.0
1554, 0.0
1555, 0.0
1556, 0.0
1557, 0.0
1558, 0.0
1559, 0.0
1560, 0.0
1561, 0.0
1562, 0.0
1563, 0.0
1564, 0.0
1565, 0.0
1566, 0.0
1567, 0.0
1568, 0.0
1569, 0.0
1570, 0.0
1571, 0.0
1572, 0.0
1573, 0.0
1574, 0.0
1575, 0.0
1576, 0.0
1577, 0.0
1578, 0.0
1579, 0.0
1580, 0.0
1581, 0.0
1582, 0.0
1583, 0.0
1584, 0.0
1585, 0.0
1586, 0.0
1587, 0.0
1588, 0.0
1589, 0.0
1590, 0.0
1591, 0.0
1592, 0.0
1593, 0.0
1594, 0.0
1595, 0.0
1596, 0.0
1597, 0.0
1598, 0.0
1599, 0.0
