30, 0.0
31, 0.0
32, 0.0
33, 0.0
34, 0.0
35, 0.0
36, 0.0
37, 0.0
38, 0.0
39, 0.0
40, 0.0
41, 0.0
42, 0.0
43, 0.0
44, 0.0
45, 0.0
46, 0.0
47, 0.0
48, 0.0
49, 0.0
50, 0.0
51, 0.0
52, 0.0
53, 0.0
54, 0.0
55, 0.0
56, 0.0
57, 0.0
58, 0.0
59, 0.0
60, 0.0
61, 0.0
62, 0.0
63, 0.0
64, 0.0
65, 0.0
66, 0.0
67, 0.0
68, 0.0
69, 0.0
70, 0.0
71, 0.0
72, 0.0
73, 0.0
74, 0.0
75, 0.0
76, 0.0
77, 0.0
78, 0.0
79, 0.0
80, 0.0
81, 0.0
82, 0.0
83, 0.0
84, 0.0
85, 0.0
86, 0.0
87, 0.0
88, 0.0
89, 0.0
90, 0.0
91, 0.0
92, 0.0
93, 0.0
94, 0.0
95, 0.0
96, 0.0
97, 0.0
98, 0.0
99, 0.0
100, 0.0
101, 0.0
102.0, 5.520539596117228e-05
103.0, 0.000760883136253723
104.0, 0.0030122026207671073
105.0, 0.002867242622255674
106.0, 0.0023505911917319853
107.0, 0.0025441940283677375
108.0, 0.010012563988849709
109.0, 0.020002591577884702
110.0, 0.03133373079446865
111.0, 0.04327872973083554
112.0, 0.04306543648222303
113.0, 0.04147853394407591
114.0, 0.03849583399962109
115.0, 0.02637753850615071
116.0, 0.023979861885820585
117.0, 0.022517373266998965
118.0, 0.015340769267392276
119.0, 0.011051478286160227
120.0, 0.012196404413570892
121.0, 0.0190750548222607
122.0, 0.03338577217915121
123.0, 0.0494758383062515
124.0, 0.06719425141995272
125.0, 0.0867829296436612
126.0, 0.11535391705862892
127.0, 0.13890310406178316
128.0, 0.15662775947754876
129.0, 0.16606147841381103
130.0, 0.15997985072832469
131.0, 0.14491344034734838
132.0, 0.12254149680348563
133.0, 0.09574275991561909
134.0, 0.07501068927053288
135.0, 0.060545082548941156
136.0, 0.05460769162797786
137.0, 0.04349853830655477
138.0, 0.037318184961481114
139.0, 0.03878295568987776
140.0, 0.03351734564225678
141.0, 0.02853627442342953
142.0, 0.02572431950826374
143.0, 0.028679871111725562
144.0, 0.023289867944944417
145.0, 0.019786524581986834
146.0, 0.019507120180996956
147.0, 0.017215990115224823
148.0, 0.01591491451322355
149.0, 0.01395987951153519
150.0, 0.009589046195761444
151.0, 0.009583362960339214
152.0, 0.0083181420305518
153.0, 0.006003000846116416
154.0, 0.006091535602012908
155.0, 0.004432863258333077
156.0, 0.002876366365610741
157.0, 0.0024947003786194057
158.0, 0.0018783250124204296
159.0, 0.0012592906142874834
160.0, 0.0006969028589191814
161.0, 0.000351059031562524
162.0, 0.0001272695215965404
163.0, 0.00023417735072584509
164.0, 0.0007251387235688877
165.0, 0.0006319463899884714
166.0, 0.0006435215773995432
167.0, 0.001851005410746655
168.0, 0.006204175342659453
169.0, 0.0064429911503528035
170.0, 0.007884531048870715
171.0, 0.010977931669208144
172.0, 0.012673674208815554
173.0, 0.011030032665108476
174.0, 0.010423290285347409
175.0, 0.014406647088972973
176.0, 0.016913193753909258
177.0, 0.017520935472705147
178.0, 0.016913031584733496
179.0, 0.017128571908441734
180.0, 0.016063837630347546
181.0, 0.015716117697839753
182.0, 0.01678597880914939
183.0, 0.015679641950482746
184.0, 0.01613579919161802
185.0, 0.017017293969567568
186.0, 0.016668141855703804
187.0, 0.01725297506339469
188.0, 0.017624137311820637
189.0, 0.01786524206748767
190.0, 0.019853257979154843
191.0, 0.02095699160415692
192.0, 0.022435163736273845
193.0, 0.025236580097414467
194.0, 0.027190745295698114
195.0, 0.02984102836245276
196.0, 0.03203922997737825
197.0, 0.030373728227713954
198.0, 0.0352386080555217
199.0, 0.03945044025430772
200.0, 0.04139196297912232
201.0, 0.0500659797728142
202.0, 0.059347801201705734
203.0, 0.0680510886919712
204.0, 0.07468554711219816
205.0, 0.07828470863334093
206.0, 0.07994024491571265
207.0, 0.0796843832646296
208.0, 0.07691813179406984
209.0, 0.07096247617051694
210.0, 0.062462942602716114
211.0, 0.05157971233526125
212.0, 0.04542682623397659
213.0, 0.038941831845663445
214.0, 0.03197327262011667
215.0, 0.024164735922749564
216.0, 0.01939623782397612
217.0, 0.01607127449693911
218.0, 0.013741160630707093
219.0, 0.011230902680703675
220.0, 0.010721099668238364
221.0, 0.009575200664574133
222.0, 0.006182965183230724
223.0, 0.00552647698534505
224.0, 0.003911465159973117
225.0, 0.0021701723146175557
226.0, 0.001989960779630801
227.0, 0.0008260720050095518
228.0, 0.0007113607481162578
229.0, 0.0017463795436686675
230.0, 0.0016944349708367008
231.0, 0.002646381476584375
232.0, 0.003460330189958438
233.0, 0.003367105643656153
234.0, 0.0023494518583880865
235.0, 0.002212030706786904
236.0, 0.002521956394433271
237.0, 0.002379249024433878
238.0, 0.0013712933891230016
239.0, 0.0010828549704864194
240.0, 0.0017039185331220285
241.0, 0.0021565449387218995
242.0, 0.002446220210276941
243.0, 0.0022567394992977943
244.0, 0.0013176994996957172
245.0, 0.0012568063842305335
246.0, 0.002306066262560663
247.0, 0.0030878066388814844
248.0, 0.0008018667073248123
249.0, 0.0013466271648690073
250.0, 0.0022597020574668548
251.0, 0.002799776056345366
252.0, 0.0011508532630918368
253.0, 0.000798504699244098
254.0, 0.0009894020321812266
255.0, 0.001359889571667996
256.0, 0.0024669637651692318
257.0, 0.002704709268295049
258.0, 0.0027214946696425277
259.0, 0.0035397362455780053
260.0, 0.002852040824071413
261.0, 0.0030418180330103245
262.0, 0.0041337993078977555
263.0, 0.004744969010017416
264.0, 0.005229001851710541
265.0, 0.006805373143591919
266.0, 0.00989126045690066
267.0, 0.009734587464380632
268.0, 0.012098729377522948
269.0, 0.015618105412127147
270.0, 0.018907503463814184
271.0, 0.019257006664926614
272.0, 0.018438661762795804
273.0, 0.016815389111026986
274.0, 0.014921583602394374
275.0, 0.014262681733728782
276.0, 0.01421200293299828
277.0, 0.014588657727933899
278.0, 0.015153261714995713
279.0, 0.014741126080753564
280.0, 0.01478521705141384
281.0, 0.016392550351436996
282.0, 0.015276568538876168
283.0, 0.014907809791720331
284.0, 0.016165371488715583
285.0, 0.02084118875849551
286.0, 0.021905081495928642
287.0, 0.02271849960341409
288.0, 0.023868306642905908
289.0, 0.025662407881847885
290.0, 0.02641661947042706
291.0, 0.02852179774410142
292.0, 0.03277926677592464
293.0, 0.03416349664915007
294.0, 0.037120844014734845
295.0, 0.03945281970492872
296.0, 0.038898265762272025
297.0, 0.03917683674525489
298.0, 0.03783397214067229
299.0, 0.03598889953039587
300.0, 0.036407686896994945
301.0, 0.03613785814587549
302.0, 0.035691195252578065
303.0, 0.03532260711245776
304.0, 0.03589995939746613
305.0, 0.03674253332704576
306.0, 0.03744106878421171
307.0, 0.037926332315989394
308.0, 0.04104349882924805
309.0, 0.0440188000678606
310.0, 0.04652041464540445
311.0, 0.0481418786340437
312.0, 0.05236634223839927
313.0, 0.05578246822194213
314.0, 0.058654151219123034
315.0, 0.06187533033690029
316.0, 0.06898750027747867
317.0, 0.07640045317843773
318.0, 0.08389156032261356
319.0, 0.09357257514935811
320.0, 0.10337550052183177
321.0, 0.11313921501635876
322.0, 0.12262350412343759
323.0, 0.12934553818498684
324.0, 0.13325697236936146
325.0, 0.1354457070391782
326.0, 0.13661748954971065
327.0, 0.1332398047458755
328.0, 0.1300513181701069
329.0, 0.12540158924602146
330.0, 0.11612501719017093
331.0, 0.10759657882111458
332.0, 0.1009551402690446
333.0, 0.09552916842885675
334.0, 0.0887209058689223
335.0, 0.08201975492643503
336.0, 0.07653705917665583
337.0, 0.07239273057153905
338.0, 0.0679868170539142
339.0, 0.06294173750169456
340.0, 0.059652533782375894
341.0, 0.05938188669719398
342.0, 0.05805828327876427
343.0, 0.05689077387890623
344.0, 0.05567703166007393
345.0, 0.05420560664942768
346.0, 0.05338475480575229
347.0, 0.05301075466638314
348.0, 0.053287139474764565
349.0, 0.05469789369772914
350.0, 0.05405076489867883
351.0, 0.053349350159905835
352.0, 0.05294907475897088
353.0, 0.053161222545950376
354.0, 0.05616363311896618
355.0, 0.05873141185676923
356.0, 0.059856735386726735
357.0, 0.05875398698906104
358.0, 0.05478957873247527
359.0, 0.05209867712489072
360.0, 0.05248938466052983
361.0, 0.05094979056532955
362.0, 0.05094629628680194
363.0, 0.050536702148605325
364.0, 0.048070154932690526
365.0, 0.045714299451667086
366.0, 0.0451459590680508
367.0, 0.04557299620805665
368.0, 0.04592012627656791
369.0, 0.044677513549779765
370.0, 0.04390535625055483
371.0, 0.043674308409359215
372.0, 0.043810387445550526
373.0, 0.04293298568690511
374.0, 0.04134353249760978
375.0, 0.03997127987992768
376.0, 0.04228021462973436
377.0, 0.04071124995451914
378.0, 0.03995587695455132
379.0, 0.04096035890415263
380.0, 0.040341706890688986
381.0, 0.03985742057740113
382.0, 0.038964638228326264
383.0, 0.03758047595733245
384.0, 0.03870321994921757
385.0, 0.04041195438163003
386.0, 0.0409047001474494
387.0, 0.038812802450149564
388.0, 0.04010536299953896
389.0, 0.042493978735905054
390.0, 0.044436916237949715
391.0, 0.04411491062402885
392.0, 0.05039540142751728
393.0, 0.05551771466782358
394.0, 0.05940283799351262
395.0, 0.062373418402415726
396.0, 0.06476908574502181
397.0, 0.06633643094115528
398.0, 0.06651905932906056
399.0, 0.06383732705482988
400.0, 0.06022705413069484
401.0, 0.05556049253449383
402.0, 0.05017575232270398
403.0, 0.045379639184357626
404.0, 0.04003237501351258
405.0, 0.037025151557746265
406.0, 0.03631314672922606
407.0, 0.03312678111421785
408.0, 0.03304131098964394
409.0, 0.031953143648651365
410.0, 0.028654690090704
411.0, 0.02689960033149947
412.0, 0.02771940049983384
413.0, 0.027649259527167767
414.0, 0.025132886836139148
415.0, 0.02592785794496719
416.0, 0.026149505026486945
417.0, 0.025250836322452806
418.0, 0.02286192735383242
419.0, 0.023318563613772488
420.0, 0.02337353404331568
421.0, 0.02347725313782261
422.0, 0.02407259655690317
423.0, 0.023267825946861987
424.0, 0.02272005997647829
425.0, 0.022730990793505254
426.0, 0.02369432592665625
427.0, 0.02344920215415291
428.0, 0.022242357400644047
429.0, 0.02112055579731666
430.0, 0.0218043909893783
431.0, 0.022436026151078828
432.0, 0.021884519264048885
433.0, 0.02097778203201031
434.0, 0.021616389093500395
435.0, 0.022135120658085667
436.0, 0.022027487177318224
437.0, 0.021677882449058848
438.0, 0.022236754949546262
439.0, 0.0225768944896018
440.0, 0.022424054484633846
441.0, 0.021966593956517406
442.0, 0.021946931703884894
443.0, 0.02095583095175351
444.0, 0.020794703750594803
445.0, 0.021400428621155602
446.0, 0.0209943064874861
447.0, 0.021613649233515397
448.0, 0.021048391664378052
449.0, 0.019284160406829377
450.0, 0.019059178202524996
451.0, 0.019556690597178024
452.0, 0.019420696010060596
453.0, 0.018730169408246355
454.0, 0.020429464075570714
455.0, 0.019382072238608487
456.0, 0.01843269482451511
457.0, 0.018552864646217207
458.0, 0.0192291010937002
459.0, 0.01865536369372178
460.0, 0.018626656736100925
461.0, 0.019393416817149407
462.0, 0.016754206451683996
463.0, 0.017721709367976127
464.0, 0.018364539841045895
465.0, 0.017170469880803757
466.0, 0.017388004211555418
467.0, 0.016658595454163837
468.0, 0.016046226355904268
469.0, 0.01607081065936663
470.0, 0.016358769009533904
471.0, 0.017483098404379505
472.0, 0.01851649465629466
473.0, 0.01874946121360754
474.0, 0.015811433903846654
475.0, 0.016386701532232806
476.0, 0.017112055780158047
477.0, 0.01623330055343467
478.0, 0.017044644854733036
479.0, 0.01655291497880932
480.0, 0.016087282538583735
481.0, 0.016348792514130576
482.0, 0.015436241629380051
483.0, 0.01565171624706917
484.0, 0.015387817232539904
485.0, 0.013977167083192406
486.0, 0.01731398191348293
487.0, 0.018180493923767915
488.0, 0.018439971752239895
489.0, 0.019153233268109908
490.0, 0.01833684450898935
491.0, 0.017614258878720198
492.0, 0.017332224967065605
493.0, 0.01765053691500755
494.0, 0.017391540451529332
495.0, 0.01803952993588958
496.0, 0.018557770802047038
497.0, 0.018379558397062762
498.0, 0.018844709592379955
499.0, 0.01977908669305884
500.0, 0.02184882324668545
501.0, 0.025029200961685066
502.0, 0.02327204380508386
503.0, 0.023767853664796043
504.0, 0.026379555337207865
505.0, 0.03074620681796226
506.0, 0.032977211593408724
507.0, 0.0366156249476304
508.0, 0.03870629235586841
509.0, 0.038230789512052075
510.0, 0.04135221774805258
511.0, 0.04206897063949061
512.0, 0.04185918768959444
513.0, 0.0411577341789665
514.0, 0.037528466868482956
515.0, 0.034797048643925584
516.0, 0.03304547323764754
517.0, 0.03190783903452937
518.0, 0.028319019035027655
519.0, 0.02699245728612008
520.0, 0.025506092040806443
521.0, 0.02374441286698674
522.0, 0.02697713485354591
523.0, 0.026096979344964008
524.0, 0.025700196829347276
525.0, 0.026826116344777433
526.0, 0.026481290189386487
527.0, 0.026433685564752826
528.0, 0.027575897660762367
529.0, 0.029626540593088682
530.0, 0.03020870397777676
531.0, 0.03130782407424901
532.0, 0.03274028590519903
533.0, 0.03420192828035478
534.0, 0.03477897857609081
535.0, 0.03617757571253206
536.0, 0.03735673990049133
537.0, 0.0379167957292517
538.0, 0.03730749846854681
539.0, 0.04026085972418688
540.0, 0.041982380360222706
541.0, 0.04292950472742375
542.0, 0.04596900915072867
543.0, 0.04423864679477412
544.0, 0.043369370763782986
545.0, 0.04376277226200913
546.0, 0.04494763688078443
547.0, 0.040530553084218164
548.0, 0.03889031282198094
549.0, 0.038475579261241094
550.0, 0.03598271138737783
551.0, 0.0343467749169091
552.0, 0.033164916530567155
553.0, 0.031602534425189004
554.0, 0.028701515432617508
555.0, 0.027193678375902558
556.0, 0.024679729675808167
557.0, 0.02227544072060308
558.0, 0.021017607630848634
559.0, 0.020038441826080434
560.0, 0.018114947680693085
561.0, 0.015811486623567347
562.0, 0.013613186880001071
563.0, 0.012635962850690522
564.0, 0.011495232033450221
565.0, 0.011021223702820417
566.0, 0.0114161861118517
567.0, 0.01062198418783919
568.0, 0.010782935216531642
569.0, 0.011844521438338113
570.0, 0.01290673054845829
571.0, 0.009375741828412096
572.0, 0.010051029772173726
573.0, 0.009437836792350222
574.0, 0.0072728959306925765
575.0, 0.008183936305071254
576.0, 0.007940049001395813
577.0, 0.007549032606086754
578.0, 0.006728518730980742
579.0, 0.004295726921034785
580.0, 0.004042688632298346
581.0, 0.0047584443796208145
582.0, 0.004982051528023723
583.0, 0.0024335277075716536
584.0, 0.004685587502572093
585.0, 0.004221914960617883
586.0, 0.002259167038744766
587.0, 0.0007723446556375975
588.0, 0.001648269789137399
589.0, 0.0018382329593697516
590.0, 0.0015803235605405604
591.0, 0.001201794138992734
592.0, 0.002739488914000849
593.0, 0.0020974123517395232
594.0, 0.0011234216531713765
595.0, 0.0007872445550104679
596.0, 0.00027753605423753676
597.0, 0.0008942321693729982
598.0, 0.0010923467907915897
599.0, 0.0005249934828340638
600.0, 0.00030712759888132417
601.0, 0.0006058349978353239
602.0, 0.001685120779930303
603.0, 0.003088543460734628
604.0, 0.003362196727766784
605.0, 0.0013185450568368629
606.0, 0.0013988616368201573
607.0, 0.0025429613999761657
608.0, 0.0018293622817490923
609.0, 0.0018663626414233828
610.0, 0.0012632849971549172
611.0, 0.0005617872071093552
612.0, 0.0004568126202886823
613.0, 0.0008042112396830142
614.0, 0.0005607119237208085
615.0, 0.0005686162281346436
616.0, 0.0013980901129268552
617.0, 0.0024393203175357724
618.0, 0.0016379345578904504
619.0, 0.0012214035921012262
620.0, 0.0018360133884153884
621.0, 0.0015596099302714356
622.0, 0.002340017601373343
623.0, 0.001969807192473649
624.0, 0.0008138884622370355
625.0, 0.0016506129027724983
626.0, 0.0006193988464224707
627.0, 0.0009365487752835226
628.0, 0.0018410873492080088
629.0, 0.0012837060936797136
630.0, 0.0004962231230001483
631.0, 0.0009821646381290722
632.0, 0.0016905013971927228
633.0, 0.0014973672959092063
634.0, 0.0012332496648605332
635.0, 0.002119974806525287
636.0, 0.0021645906743747115
637.0, 0.0005129501359588653
638.0, 9.064625268895236e-05
639.0, 0.0010610452757209509
640.0, 0.0015952962873245393
641.0, 0.0013346686055799699
642.0, 0.0013154956222713127
643.0, 0.0017189208508597033
644.0, 0.0016186763651055314
645.0, 0.001053793309181735
646.0, 0.00042794115167174373
647.0, 0.0017081327569051534
648.0, 0.0012112280177336166
649.0, 0.0003485080900568662
650.0, 0.000934377880964305
651.0, 0.0024462991797980643
652.0, 0.003457709588494615
653.0, 0.003935687641441183
654.0, 0.003936586007480948
655.0, 0.003974250563664784
656.0, 0.004801746537378185
657.0, 0.006216301938421208
658.0, 0.007655959698024731
659.0, 0.007456176353083451
660.0, 0.009214209051137954
661.0, 0.01052571383399288
662.0, 0.011001647265116576
663.0, 0.010637716492168924
664.0, 0.011426800872558561
665.0, 0.014271379855576806
666.0, 0.017002671389554316
667.0, 0.017749466825014104
668.0, 0.01993937950892038
669.0, 0.02108071639529469
670.0, 0.02168751333243239
671.0, 0.022414623171386715
672.0, 0.025266286840257054
673.0, 0.028325308532391267
674.0, 0.029837038734342385
675.0, 0.03018905667326652
676.0, 0.03126925416088942
677.0, 0.03185226177877025
678.0, 0.03317243544476092
679.0, 0.03423265539531686
680.0, 0.033830113062186154
681.0, 0.0352834160777114
682.0, 0.03477665669249884
683.0, 0.03497714954255115
684.0, 0.03737979646114523
685.0, 0.041023895590093236
686.0, 0.04092963417716439
687.0, 0.04367015481127254
688.0, 0.04856027464438998
689.0, 0.04862454221355543
690.0, 0.04840765584693113
691.0, 0.050322651815345495
692.0, 0.053587754843484645
693.0, 0.05681637905873826
694.0, 0.059393396659353184
695.0, 0.061589001164581055
696.0, 0.06315175254649594
697.0, 0.06413985418725165
698.0, 0.06593479950849264
699.0, 0.06483258861054435
700.0, 0.06465150562684319
701.0, 0.06492813641207033
702.0, 0.061512965674316654
703.0, 0.05604501332883667
704.0, 0.05111578815629727
705.0, 0.04721389944669378
706.0, 0.04453126748319928
707.0, 0.041324528569073087
708.0, 0.036250026593425425
709.0, 0.031258962855434
710.0, 0.027597529796372734
711.0, 0.025838446412616185
712.0, 0.02335362333914631
713.0, 0.02065760057025718
714.0, 0.018555220394745015
715.0, 0.018494605178583937
716.0, 0.01585014413735652
717.0, 0.013243704650627438
718.0, 0.012114184706489136
719.0, 0.013308787600400504
720.0, 0.011259035218978825
721.0, 0.009746709251464633
722.0, 0.008093388075108315
723.0, 0.0066900978078660855
724.0, 0.00820786003550952
725.0, 0.007182171212052005
726.0, 0.006183462589285785
727.0, 0.005726808400766896
728.0, 0.005926256567032676
729.0, 0.004543678641491855
730.0, 0.004109574644635523
731.0, 0.004225109331676839
732.0, 0.004250540479772011
733.0, 0.0019492981976577065
734.0, 0.0027381315790486744
735.0, 0.0020991832919216398
736.0, 0.0004889232412029277
737.0, 0.0020419646322984387
738.0, 0.0024841375711924414
739.0, 0.0014842518074443657
740.0, 0.001092941334563623
741.0, 0.0029287636527061587
742.0, 0.0006976044964367354
743.0, 0.000982106965605471
744.0, 0.0010587577515527825
745.0, 0.0002299599381491041
746.0, 6.199954041280117e-05
747.0, 0.0016708320779658579
748.0, 0.0022362084845224174
749.0, 0.0017809627416338803
750.0, 0.000916941241154885
751.0, 0.0009901922602798077
752.0, 0.0007017277240009197
753.0, 0.001231439583602196
754.0, 0.002542914012097402
755.0, 0.0014701057284388689
756.0, 0.0008754316660347697
757.0, 0.0012840459040140302
758.0, 0.0016253448333174102
759.0, 1.4071602904797099e-05
760.0, 0.002666103690899448
761.0, 0.002648281115904278
762.0, 0.0019606558085269177
763.0, 0.00207710176067315
764.0, 0.0031387344059055837
765.0, 0.0028315257360441446
766.0, 0.004276006803194402
767.0, 0.006473951110490441
768.0, 0.006110803785353006
769.0, 0.00807290062392469
770.0, 0.008320398701462096
771.0, 0.007471590859675026
772.0, 0.006528385379677479
773.0, 0.008225655345347098
774.0, 0.008304612302442699
775.0, 0.006402126469596057
776.0, 0.004437297753708316
777.0, 0.006510373181918337
778.0, 0.005972320692159699
779.0, 0.004191198457674664
780.0, 0.003618803030671534
781.0, 0.0053768653132974685
782.0, 0.0037321015915463087
783.0, 0.004251044702357008
784.0, 0.003794880852799105
785.0, 0.002566877846220114
786.0, 0.002804373182623807
787.0, 0.002079566084193705
788.0, 0.0022008287038902774
789.0, 0.0021089187468379495
790.0, 0.0011490933350519607
791.0, 0.0009386816515318188
792.0, 0.0008993750677642934
793.0, 0.0007913509390422478
794.0, 0.0009460656903551473
795.0, 0.0021041273092798672
796.0, 0.0009844543364049526
797.0, 0.0006793706440750807
798.0, 0.0014636046254917156
799.0, 0.00289742475718929
800.0, 0.0018073366842068523
801.0, 0.002199322042023716
802.0, 0.0021408173562394235
803.0, 0.0013956820666630153
804.0, 0.0003411027183906469
805.0, 0.003094313372252036
806.0, 0.0035858658897318964
807.0, 0.00308072125357452
808.0, 0.0026103056159323132
809.0, 0.0029930441643283246
810.0, 0.0019520975579615943
811.0, 0.0017887864149604183
812.0, 0.0021796642177770525
813.0, 0.00217698475180585
814.0, 0.004138299727190009
815.0, 0.003949095793054398
816.0, 0.0032112895945886955
817.0, 0.00309992492631581
818.0, 0.004830600232363279
819.0, 0.005076096456173322
820.0, 0.004826399908735517
821.0, 0.004695749734076374
822.0, 0.0051698868549789
823.0, 0.0056900999970349595
824.0, 0.006465442710487608
825.0, 0.007247455991835223
826.0, 0.007824129810700764
827.0, 0.007918137657759967
828.0, 0.008546888070963906
829.0, 0.009248911418154253
830.0, 0.009403751254469522
831.0, 0.009382619079844449
832.0, 0.014275272366205224
833.0, 0.013455222201375247
834.0, 0.013274552943845518
835.0, 0.013789320924460922
836.0, 0.012838200248601047
837.0, 0.01197146048020831
838.0, 0.0137629067783349
839.0, 0.015754070231199315
840.0, 0.016902753035825835
841.0, 0.018240600961372373
842.0, 0.019095123642243746
843.0, 0.020739430680488134
844.0, 0.022926296176313143
845.0, 0.0251587242508928
846.0, 0.02683911628298009
847.0, 0.029780510347004765
848.0, 0.032705270648460134
849.0, 0.034893174389777945
850.0, 0.03576279000715543
851.0, 0.03753045582684708
852.0, 0.04059759652770994
853.0, 0.043562356826498276
854.0, 0.0460325005262371
855.0, 0.05032232417317271
856.0, 0.055441147514556394
857.0, 0.0605009094484714
858.0, 0.06551066648179502
859.0, 0.07081399375887663
860.0, 0.0787619616423619
861.0, 0.08817831652904383
862.0, 0.09603797511128649
863.0, 0.1028650834178474
864.0, 0.11208654512732219
865.0, 0.12661676760208715
866.0, 0.14069566591966684
867.0, 0.15357761608406714
868.0, 0.16637439006367927
869.0, 0.18544323148408776
870.0, 0.20978920432146347
871.0, 0.2361700455134416
872.0, 0.26522722642053154
873.0, 0.2987166855902646
874.0, 0.34419900316273044
875.0, 0.3921308695690464
876.0, 0.4526057955648629
877.0, 0.5246536659922162
878.0, 0.5995178748602251
879.0, 0.6923824982686226
880.0, 0.7793680157424152
881.0, 0.8605582901336503
882.0, 0.9343564039463024
883.0, 0.9936227633875312
884.0, 0.9996889629923198
885.0, 0.965239845757329
886.0, 0.9049403285900782
887.0, 0.8308075516608808
888.0, 0.7266477402603108
889.0, 0.6243220188594368
890.0, 0.5331187959823324
891.0, 0.45289334179728913
892.0, 0.3795412896157816
893.0, 0.3188748835097676
894.0, 0.2730612901341801
895.0, 0.23505953359418005
896.0, 0.20139769386198514
897.0, 0.17131856286805985
898.0, 0.14442837558582627
899.0, 0.12449370508839101
900.0, 0.10955146735623608
901.0, 0.09752028393523382
902.0, 0.08675359632498965
903.0, 0.07635278523926928
904.0, 0.0685809533971463
905.0, 0.06162967027618741
906.0, 0.05385075813785651
907.0, 0.04983740989472755
908.0, 0.04441825278619759
909.0, 0.040577441255323386
910.0, 0.03784652945148503
911.0, 0.03444405922451363
912.0, 0.03234408296885275
913.0, 0.030707214674379896
914.0, 0.027913981371856664
915.0, 0.024765866403095086
916.0, 0.024413752457282046
917.0, 0.02160792406808217
918.0, 0.018444232608703467
919.0, 0.016389147006651308
920.0, 0.0154978687666286
921.0, 0.013190946377574777
922.0, 0.014620488233704841
923.0, 0.014551762891089
924.0, 0.013292043636145572
925.0, 0.011501929199722332
926.0, 0.008938717143475657
927.0, 0.010503842415804395
928.0, 0.010971509278648714
929.0, 0.010664002127800042
930.0, 0.010655170009759806
931.0, 0.008007619651547877
932.0, 0.007577021304520657
933.0, 0.007922787702437829
934.0, 0.00773358879009435
935.0, 0.0058875722353744645
936.0, 0.006816638271529252
937.0, 0.006879538768067685
938.0, 0.00750036562343486
939.0, 0.007955584687324928
940.0, 0.005860956341000999
941.0, 0.005213904615651121
942.0, 0.005514334030493006
943.0, 0.005696765985255027
944.0, 0.005468948521724839
945.0, 0.0055168530230615045
946.0, 0.005774786003641175
947.0, 0.005923926749037867
948.0, 0.005900805003608108
949.0, 0.005857231522026184
950.0, 0.006405807568293549
951.0, 0.005611195356317581
952.0, 0.006274839359348584
953.0, 0.006850885870852101
954.0, 0.00633721959741467
955.0, 0.006758587129334766
956.0, 0.007980471865803213
957.0, 0.007264226685804591
958.0, 0.006326392497203469
959.0, 0.006508542024613271
960.0, 0.003499589740279806
961.0, 0.004685492888457226
962.0, 0.004344602757855197
963.0, 0.0025874358207537145
964.0, 0.0011244658498016568
965.0, 0.0025015315965691565
966.0, 0.0014305078521505087
967.0, 0.0019389767235476528
968.0, 0.0026186424701506515
969.0, 0.000744804510676014
970.0, 0.0007398409330184116
971.0, 0.0018150956187543324
972.0, 0.001894322584030938
973.0, 0.0012013791042617956
974.0, 0.0010381021005163842
975.0, 0.001931931184047902
976.0, 0.0014986157231201946
977.0, 0.0015568056361544163
978.0, 0.0016734188561521462
979.0, 0.00025081662360371603
980.0, 0.0012738720679153588
981.0, 0.0017307593233321945
982.0, 0.0013065322886210073
983.0, 0.0005562470330415244
984.0, 0.0006747664874973671
985.0, 0.0004996496728336084
986.0, 0.0017055198731223257
987.0, 0.0017920928444066272
988.0, 0.0010957982249700433
989.0, 0.0023482752936080783
990.0, 0.0021479696852396753
991.0, 0.0008650851800285466
992.0, 0.0005457039352562402
993.0, 0.0011934401542506464
994.0, 0.0008504591819062754
995.0, 0.00042904534845454985
996.0, 0.0007451447494971048
997.0, 0.0010950021683898774
998.0, 0.001028832424789947
999.0, 0.00035355912366988486
1000.0, 0.00038311343776868353
1001.0, 0.0014070730472854507
1002.0, 0.001693445106127477
1003.0, 0.0010247558319713415
1004.0, 0.0008197907119675611
1005.0, 0.001206302860022764
1006.0, 0.0014847715394481938
1007.0, 0.0016587267952556178
1008.0, 0.0016325166787896147
1009.0, 0.0011981418457654637
1010.0, 0.0014570565639398503
1011.0, 0.001511764610994783
1012.0, 0.0014895546910678008
1013.0, 0.0015196524924185589
1014.0, 0.0017263725314089124
1015.0, 0.0007733558838036475
1016.0, 0.002115147557441897
1017.0, 0.00281847074525296
1018.0, 0.0019756743122138374
1019.0, 0.0006704186830533789
1020.0, 0.0038049863066808272
1021.0, 0.0032356775708604255
1022.0, 0.0017636553391148328
1023.0, 0.0010953379911383867
1024.0, 0.0019201190297197565
1025.0, 0.0009290447331588516
1026.0, 0.0024127725255150864
1027.0, 0.0029303224985894384
1028.0, 0.002146488007013781
1029.0, 0.0018809055636593872
1030.0, 0.0005194659184802193
1031.0, 0.0005432435530366542
1032.0, 0.0015370123391732454
1033.0, 0.002701085998584163
1034.0, 0.003067733664844379
1035.0, 0.003253033690252303
1036.0, 0.003956283518523804
1037.0, 0.003632869032888505
1038.0, 0.0028656971133986004
1039.0, 0.003028941477828097
1040.0, 0.0026722025639252345
1041.0, 0.003174330715730477
1042.0, 0.0023638588838899932
1043.0, 0.001457764446678169
1044.0, 0.0021992164571687164
1045.0, 0.000985224669473591
1046.0, 0.0011692989029895694
1047.0, 0.0021206669978569292
1048.0, 0.003376729649353355
1049.0, 0.004200582235655165
1050.0, 0.002373891121195863
1051.0, 0.0016219423656781333
1052.0, 0.002096759232522278
1053.0, 0.0033831002589746724
1054.0, 0.004163925532847573
1055.0, 0.0005352750620588368
1056.0, 0.0015452551215989966
1057.0, 0.002163816411315105
1058.0, 0.002929067043071076
1059.0, 0.004002295519053988
1060.0, 0.003213227314700669
1061.0, 0.0025060346619713574
1062.0, 0.0037890929683728628
1063.0, 0.004611077503375821
1064.0, 0.003853925858404305
1065.0, 0.0027616927601818893
1066.0, 0.0032549051695839304
1067.0, 0.0026523994446266694
1068.0, 0.00224557622755359
1069.0, 0.002514397865429766
1070.0, 0.0030743508914587996
1071.0, 0.003756684474192776
1072.0, 0.004546558403478065
1073.0, 0.004722888547967834
1074.0, 0.004431657714324461
1075.0, 0.004285453862958243
1076.0, 0.004056998021340331
1077.0, 0.0038282810058293446
1078.0, 0.00526729283734338
1079.0, 0.006480040743220767
1080.0, 0.0051307205191483945
1081.0, 0.003468688028628197
1082.0, 0.00443562593269779
1083.0, 0.003851531189389595
1084.0, 0.002906583754508451
1085.0, 0.0032536874448774126
1086.0, 0.004763560502740885
1087.0, 0.0034086099768972397
1088.0, 0.0040552279986599635
1089.0, 0.0043874306091374275
1090.0, 0.003119599777488332
1091.0, 0.0017168243859203786
1092.0, 0.0039410960051439415
1093.0, 0.00419380768380569
1094.0, 0.003930314973408867
1095.0, 0.0038494041901997356
1096.0, 0.003854112572850919
1097.0, 0.005199588764679055
1098.0, 0.0042657521933339776
1099.0, 0.0031709880077504344
1100.0, 0.003639347859749143
1101.0, 0.0059148995309530935
1102.0, 0.0017689387663721167
1103.0, 0.00179819274931376
1104.0, 0.002067065482482405
1105.0, 0.0032006310622699347
1106.0, 0.005183557090430435
1107.0, 0.0029046249896051315
1108.0, 0.0013116455795992923
1109.0, 0.0008923839953051182
1110.0, 0.0016282451434993335
1111.0, 0.0026503345735901674
1112.0, 0.0020274404199133685
1113.0, 0.0011825881916591135
1114.0, 0.003173615879218772
1115.0, 0.00284126880328744
1116.0, 0.001156100109780748
1117.0, 0.0028195794436318613
1118.0, 0.0030162498163145857
1119.0, 0.0035401586359964294
1120.0, 0.002790547287513198
1121.0, 0.0027009489067286964
1122.0, 0.004745914572325044
1123.0, 0.0038537226463056084
1124.0, 0.005499462438114953
1125.0, 0.004265516595502623
1126.0, 0.0029657683555095434
1127.0, 0.0034606510297132717
1128.0, 0.004081110924284679
1129.0, 0.002821131559907893
1130.0, 0.002707431213514231
1131.0, 0.0026217319358880697
1132.0, 0.002282884897655716
1133.0, 0.002130336353301229
1134.0, 0.002493013054311435
1135.0, 0.0027508275130568058
1136.0, 0.00227345252466031
1137.0, 0.0021812721066995023
1138.0, 0.0030877774640665333
1139.0, 0.0017981286524592452
1140.0, 0.000802933995571297
1141.0, 0.0008962502442565043
1142.0, 0.0014034492587105061
1143.0, 0.0017068776193356707
1144.0, 0.001564407100447026
1145.0, 0.0012537035091866016
1146.0, 0.002340538891357002
1147.0, 0.002471302605114562
1148.0, 0.0024509268094849435
1149.0, 0.003910408280963294
1150.0, 0.001263051956257097
1151.0, 0.002124582966993616
1152.0, 0.0017454789784837703
1153.0, 0.0015245141633349881
1154.0, 0.0024340607553220016
1155.0, 0.0015755053711762335
1156.0, 0.002203100509061326
1157.0, 0.0022308118174923426
1158.0, 0.0019191710283614496
1159.0, 0.0017318996815391984
1160.0, 0.0021493588108224826
1161.0, 0.00318286859339675
1162.0, 0.0019804758775321747
1163.0, 0.0017815823206394257
1164.0, 0.0015289371990192526
1165.0, 0.0002540862057124429
1166.0, 0.001392060435685737
1167.0, 0.002673436776084172
1168.0, 0.0025504353252490497
1169.0, 0.0017190923909786576
1170.0, 0.0009011646133510881
1171.0, 0.0006508743268076186
1172.0, 0.00283159086864488
1173.0, 0.0017448536774541193
1174.0, 0.0015644797540230635
1175.0, 0.00210581803987114
1176.0, 0.0020433655726027045
1177.0, 0.0020200307838948587
1178.0, 0.0016342585329515954
1179.0, 0.0021975933649406396
1180.0, 0.00272400027064663
1181.0, 0.0027773751061892704
1182.0, 0.0028335584219795905
1183.0, 0.0032273934057831946
1184.0, 0.0028120056174415573
1185.0, 0.003104253308797533
1186.0, 0.003411957938409748
1187.0, 0.002894147000983613
1188.0, 0.003127642019193564
1189.0, 0.003726595072704677
1190.0, 0.0019617229751856553
1191.0, 0.0007824485582554146
1192.0, 0.0012343158466837502
1193.0, 0.0017631715600551759
1194.0, 0.0015486325601508691
1195.0, 0.002838580473523946
1196.0, 0.003971257874773093
1197.0, 0.003431338894041556
1198.0, 0.0011229177978315037
1199.0, 0.0005586411500608353
1200.0, 0.0028104540957865987
1201.0, 0.002190701859662292
1202.0, 0.0032205833943045846
1203.0, 0.004709905789533087
1204.0, 0.0016776848864142688
1205.0, 0.003225175461100582
1206.0, 0.0036707495776324957
1207.0, 0.003599079058858858
1208.0, 0.0034531159420655025
1209.0, 0.0035516558902525374
1210.0, 0.003995691144200933
1211.0, 0.003829199315145469
1212.0, 0.0019843804446118014
1213.0, 0.0007044368891483442
1214.0, 0.000790729081156099
1215.0, 0.0017395111740676227
1216.0, 0.0015686571043778497
1217.0, 0.00291395785116577
1218.0, 0.0021312809716573363
1219.0, 0.002749699632484524
1220.0, 0.0045810106334742435
1221.0, 0.0022765196067282283
1222.0, 0.0028067208438763433
1223.0, 0.0030808721826294564
1224.0, 0.0035442930841678533
1225.0, 0.0031333455790990995
1226.0, 0.0018560346671345567
1227.0, 0.003760047596035807
1228.0, 0.004594661266980212
1229.0, 0.0035046753922758447
1230.0, 0.0033757412913774892
1231.0, 0.0035714439919177048
1232.0, 0.0019859822512380146
1233.0, 0.003668134715377338
1234.0, 0.004119305606923895
1235.0, 0.0037060189758272035
1236.0, 0.003181484692979183
1237.0, 0.0028325852648179843
1238.0, 0.002238306008832656
1239.0, 0.0013485023095981307
1240.0, 0.0011314223477623005
1241.0, 0.0011127305793996523
1242.0, 0.0010167155875972491
1243.0, 0.0009639423457734141
1244.0, 0.001809729560209479
1245.0, 0.0022554062974401655
1246.0, 0.0024377555735506707
1247.0, 0.0032344211039518392
1248.0, 0.004289030565798771
1249.0, 0.00455094909505606
1250.0, 0.0033055075941611283
1251.0, 0.005037977544309515
1252.0, 0.004443260749168267
1253.0, 0.003703296030612879
1254.0, 0.004175935847686609
1255.0, 0.005078695237206144
1256.0, 0.002305943716397826
1257.0, 0.0017798408402657257
1258.0, 0.0024114308393892166
1259.0, 0.0022074853302677592
1260.0, 0.00187656210590895
1261.0, 0.005903922025013508
1262.0, 0.00392272319020557
1263.0, 0.003412368609001654
1264.0, 0.003414666016125087
1265.0, 0.0031821922940915353
1266.0, 0.0022732480708339145
1267.0, 0.0007475770312331853
1268.0, 0.0023339252794713555
1269.0, 0.0040699793780960315
1270.0, 0.0035888235392535425
1271.0, 0.0024873987443041236
1272.0, 0.003143896165987074
1273.0, 0.0028205357014749618
1274.0, 0.004598832931278643
1275.0, 0.004660720180638168
1276.0, 0.0038570216300096586
1277.0, 0.00253338026068654
1278.0, 0.0009475972556453583
1279.0, 0.0026228211998419906
1280.0, 0.003286904867339119
1281.0, 0.0022221138433496583
1282.0, 0.0017334789340360392
1283.0, 0.002833421499453531
1284.0, 0.00444752986966647
1285.0, 0.0034048435254045123
1286.0, 0.002429492726315214
1287.0, 0.002553629457658912
1288.0, 0.002160515225561972
1289.0, 0.0014081881278009945
1290.0, 0.002806698439989488
1291.0, 0.0018933396065643128
1292.0, 0.0021267586449803533
1293.0, 0.0010511231594631427
1294.0, 0.0006318007298810733
1295.0, 0.001781825763050709
1296.0, 0.0020985193071785327
1297.0, 0.002036121146919286
1298.0, 0.002365044827114114
1299.0, 0.002680828884957788
1300.0, 0.002404297817427589
1301.0, 0.0016611475605348082
1302.0, 0.0018119757636579706
1303.0, 0.0015490517671398224
1304.0, 0.0009851764827877565
1305.0, 0.000887763350418127
1306.0, 0.0007450892357469393
1307.0, 0.00022972669490480284
1308.0, 0.00035840290732319104
1309.0, 0.0006428115071224646
1310.0, 0.0014126855545874058
1311.0, 0.0012476424482776316
1312.0, 0.0006734335246408649
1313.0, 0.0008366264702344517
1314.0, 0.002270092883546378
1315.0, 0.0012291205647493174
1316.0, 0.002814616198653606
1317.0, 0.002771211127189959
1318.0, 0.0012418441723427316
1319.0, 0.00019810032611581045
1320.0, 0.0008043373310876096
1321.0, 0.0006025268183910411
1322.0, 0.0004692250700638499
1323.0, 0.0016619607334558437
1324.0, 0.002494441914308607
1325.0, 0.0019969779888577765
1326.0, 0.0037610037140352196
1327.0, 0.0006527636957776868
1328.0, 0.0001489325842544422
1329.0, 0.0020484441194697687
1330.0, 0.002750607109119509
1331.0, 0.0006155674175966593
1332.0, 0.0011918338921862134
1333.0, 0.0023730270137727657
1334.0, 0.0023623887381398066
1335.0, 0.0019199476316856259
1336.0, 0.0018449547811432015
1337.0, 0.002300059709300606
1338.0, 0.002252938514006902
1339.0, 0.000865870362361573
1340.0, 0.002098546137482473
1341.0, 0.0019056858811129795
1342.0, 0.0011102714363260854
1343.0, 0.0017832518814035942
1344.0, 0.004360340343266619
1345.0, 0.0006462761714915546
1346.0, 0.001051019500288005
1347.0, 0.0014412263075332696
1348.0, 0.001918487819136173
1349.0, 0.002706398843154529
1350.0, 0.0023320025528449947
1351.0, 0.002298164323584431
1352.0, 0.0015331870247839812
1353.0, 0.0009017376255401697
1354.0, 0.00119145200627037
1355.0, 0.0022475982353426164
1356.0, 0.002807653657785552
1357.0, 0.0018624480477997087
1358.0, 0.0025753820622293833
1359.0, 0.0019118153416420687
1360.0, 0.002411187758353774
1361.0, 0.003658125162985449
1362.0, 0.002389397476835419
1363.0, 0.0032443821859061686
1364.0, 0.003572255215965961
1365.0, 0.004982348004800115
1366.0, 0.004302027509037679
1367.0, 0.0028077986137860886
1368.0, 0.003618914183689815
1369.0, 0.000517829550382814
1370.0, 0.0008281473424225051
1371.0, 0.0013976039946558688
1372.0, 0.0008968230439195203
1373.0, 0.0010718624336640064
1374.0, 0.002911676636981303
1375.0, 0.0005309572726011405
1376.0, 0.0010374665190966948
1377.0, 0.0032138822097535578
1378.0, 0.0024154801808900224
1379.0, 0.0016418759166925562
1380.0, 0.0036260617232010788
1381.0, 0.00413105570020266
1382.0, 0.0034166685571842804
1383.0, 0.0026843188245818895
1384.0, 0.0025780150256981198
1385.0, 0.0025180310789357455
1386.0, 0.0017908624245044965
1387.0, 0.0006015040562843943
1388.0, 0.004142460991333813
1389.0, 0.0019311852116670276
1390.0, 0.001996284823628125
1391.0, 0.00160503027711038
1392.0, 0.0006098968249823283
1393.0, 0.0018900510499240924
1394.0, 0.00397561935200594
1395.0, 0.003123193348041167
1396.0, 0.0031638248639680217
1397.0, 0.0034325733247905017
1398.0, 0.0032602957221969956
1399.0, 0.0025253938740109824
1400.0, 0.0018757924284309034
1401.0, 0.0033413214277456353
1402.0, 0.00316737028198193
1403.0, 0.002807520427704308
1404.0, 0.0020276131165683888
1405.0, 0.0016089063149701487
1406.0, 0.004011865774933289
1407.0, 0.0044327405134844886
1408.0, 0.002012642309924815
1409.0, 0.003531279594444611
1410.0, 0.00576796941836647
1411.0, 0.005819734249233414
1412.0, 0.003824268490062167
1413.0, 0.0028869952579720394
1414.0, 0.0026741101701013023
1415.0, 0.0031495779464020407
1416.0, 0.004683949812628157
1417.0, 0.005335608043803856
1418.0, 0.004188711970777612
1419.0, 0.004852333737762443
1420.0, 0.004205296039137233
1421.0, 0.003824653321399887
1422.0, 0.003350008953584707
1423.0, 0.0031822252290786167
1424.0, 0.0026994262297097994
1425.0, 0.0006177872943026815
1426.0, 0.0005781585732302033
1427.0, 0.0031718870587497325
1428.0, 0.0028397670973941314
1429.0, 0.0013607908158502875
1430.0, 0.0009418909484721149
1431.0, 0.0019372180724462923
1432.0, 0.001154532900744011
1433.0, 0.0017707073106383022
1434.0, 0.0021696623473920003
1435.0, 0.0015565438061307217
1436.0, 0.001568575165014935
1437.0, 0.0025965304480482765
1438.0, 0.0025799924654810427
1439.0, 0.0019378112185162682
1440.0, 0.0025584982140342077
1441.0, 0.0020928568615029555
1442.0, 0.003425332658474058
1443.0, 0.004311958744310772
1444.0, 0.0018014102483429985
1445.0, 0.0016273899069471926
1446.0, 0.0026277885201647817
1447.0, 0.001301132018264142
1448.0, 0.00042870808144201397
1449.0, 0.0001481415533692973
1450.0, 2.1462334100844066e-05
1451.0, 0.0003192140205225272
1452.0, 0.0026704433147833042
1453.0, 0.0025493776469220648
1454.0, 0.002261415858491579
1455.0, 0.001958619731462835
1456.0, 0.0016114565611629092
1457.0, 0.0013022796524186728
1458.0, 0.001254376402937605
1459.0, 0.00022781633169026845
1460.0, 0.0017041050197564018
1461.0, 0.0015907499920011106
1462.0, 0.0023769608913967425
1463.0, 0.004350197437807538
1464.0, 0.004261780979956731
1465.0, 0.0014119929656596487
1466.0, 0.00286201622891855
1467.0, 0.0029465933264872938
1468.0, 0.0024706211149888137
1469.0, 0.0036456382484849822
1470.0, 0.006123235495031937
1471.0, 0.005456145933843921
1472.0, 0.0035248798956321764
1473.0, 0.003807827376453323
1474.0, 0.0030572048147694203
1475.0, 0.0031383389860979768
1476.0, 0.003377710010321651
1477.0, 0.002087046454889897
1478.0, 0.0012350052297158342
1479.0, 0.003045625510441786
1480.0, 0.003125095013953269
1481.0, 0.0031898889986117476
1482.0, 0.002038241819013959
1483.0, 0.0005719937875972375
1484.0, 0.0017510737912812577
1485.0, 0.004576785747736756
1486.0, 0.0024763805246597295
1487.0, 0.003162425268034901
1488.0, 0.0032438141451161385
1489.0, 0.003057428084597228
1490.0, 0.003419128423084182
1491.0, 0.0033806155362487685
1492.0, 0.00397787070882392
1493.0, 0.0025693341885149887
1494.0, 0.0037110284879585714
1495.0, 0.004172705820744923
1496.0, 0.0033247406347022388
1497.0, 0.003095008778395185
1498.0, 0.005407798157842463
1499.0, 0.0038845365177157553
1500.0, 0.002644865922281791
1501.0, 0.00268581532952286
1502.0, 0.0027785433727505267
1503.0, 0.002926627385025859
1504.0, 0.0037883308852693573
1505.0, 0.004488351276801339
1506.0, 0.0027435800899271896
1507.0, 0.002373077809488073
1508.0, 0.002770893521409562
1509.0, 0.0028531304650220774
1510.0, 0.0035346890527023053
1511.0, 0.005828303196938476
1512.0, 0.0054287426658538905
1513.0, 0.004808200370959043
1514.0, 0.004328170699123299
1515.0, 0.0027798536914108948
1516.0, 0.0017712003218176694
1517.0, 0.001381918774928808
1518.0, 0.00034829399661149467
1519.0, 0.0018663400426555505
1520.0, 0.003100718165944565
1521.0, 0.00432738557990981
1522.0, 0.002139427126673573
1523.0, 2.3875943606832275e-06
1524, 0.0
1525, 0.0
1526, 0.0
1527, 0.0
1528, 0.0
1529, 0.0
1530, 0.0
1531, 0.0
1532, 0.0
1533, 0.0
1534, 0.0
1535, 0.0
1536, 0.0
1537, 0.0
1538, 0.0
1539, 0.0
1540, 0.0
1541, 0.0
1542, 0.0
1543, 0.0
1544, 0.0
1545, 0.0
1546, 0.0
1547, 0.0
1548, 0.0
1549, 0.0
1550, 0.0
1551, 0.0
1552, 0.0
1553, 0.0
1554, 0.0
1555, 0.0
1556, 0.0
1557, 0.0
1558, 0.0
1559, 0.0
1560, 0.0
1561, 0.0
1562, 0.0
1563, 0.0
1564, 0.0
1565, 0.0
1566, 0.0
1567, 0.0
1568, 0.0
1569, 0.0
1570, 0.0
1571, 0.0
1572, 0.0
1573, 0.0
1574, 0.0
1575, 0.0
1576, 0.0
1577, 0.0
1578, 0.0
1579, 0.0
1580, 0.0
1581, 0.0
1582, 0.0
1583, 0.0
1584, 0.0
1585, 0.0
1586, 0.0
1587, 0.0
1588, 0.0
1589, 0.0
1590, 0.0
1591, 0.0
1592, 0.0
1593, 0.0
1594, 0.0
1595, 0.0
1596, 0.0
1597, 0.0
1598, 0.0
1599, 0.0
