30, 0.0
31, 0.0
32, 0.0
33, 0.0
34, 0.0
35, 0.0
36, 0.0
37, 0.0
38, 0.0
39, 0.0
40, 0.0
41, 0.0
42, 0.0
43, 0.0
44, 0.0
45, 0.0
46, 0.0
47, 0.0
48, 0.0
49, 0.0
50, 0.0
51, 0.0
52, 0.0
53, 0.0
54, 0.0
55, 0.0
56, 0.0
57, 0.0
58, 0.0
59, 0.0
60, 0.0
61, 0.0
62, 0.0
63, 0.0
64, 0.0
65, 0.0
66, 0.0
67, 0.0
68, 0.0
69, 0.0
70, 0.0
71, 0.0
72, 0.0
73, 0.0
74, 0.0
75, 0.0
76, 0.0
77, 0.0
78, 0.0
79, 0.0
80, 0.0
81, 0.0
82, 0.0
83, 0.0
84, 0.0
85, 0.0
86, 0.0
87, 0.0
88, 0.0
89, 0.0
90, 0.0
91, 0.0
92, 0.0
93, 0.0
94, 0.0
95, 0.0
96, 0.0
97, 0.0
98, 0.0
99, 0.0
100, 0.0
101, 0.0
102, 0.0
103, 0.0
104, 0.0
105, 0.0
106, 0.0
107, 0.0
108, 0.0
109, 0.0
110, 0.0
111, 0.0
112, 0.0
113, 0.0
114, 0.0
115, 0.0
116, 0.0
117, 0.0
118, 0.0
119, 0.0
120, 0.0
121, 0.0
122, 0.0
123, 0.0
124, 0.0
125, 0.0
126, 0.0
127, 0.0
128, 0.0
129, 0.0
130, 0.0
131, 0.0
132, 0.0
133, 0.0
134, 0.0
135, 0.0
136, 0.0
137.0, 4.035109945911211e-05
138.0, 3.531553646263507e-05
139.0, 0.00020664217279148359
140.0, 0.00027387953709123676
141.0, 0.00029542836717522456
142.0, 0.00016575810425120468
143.0, 5.359436878674709e-05
144.0, 0.0003255080969841909
145.0, 7.66256782442771e-05
146.0, 8.213728818097115e-05
147.0, 0.0003009428253343273
148.0, 0.00023558616036826752
149.0, 0.0001114453857040029
150.0, 0.00017094841500366748
151.0, 0.00018899330246431776
152.0, 5.94198418913569e-05
153.0, 2.3184931334829936e-05
154.0, 9.793023776451322e-06
155.0, 6.84183615533729e-05
156.0, 0.00011394648322888274
157.0, 3.990093777326676e-05
158.0, 2.4905699479924313e-05
159.0, 1.813181265786401e-05
160.0, 1.639691670254399e-05
161.0, 2.088252784422728e-05
162.0, 6.649536941471978e-05
163.0, 3.0749645761854065e-05
164.0, 0.0001202421723659357
165.0, 8.561096890892187e-05
166.0, 1.208619731005386e-05
167.0, 1.5806925075276395e-05
168.0, 0.00010674941111006213
169.0, 0.00020785618362384616
170.0, 0.0002328479069743343
171.0, 0.00019148550233519062
172.0, 0.0002086763903946755
173.0, 0.00029008261041955387
174.0, 0.000372305123164798
175.0, 0.00034357258095348036
176.0, 0.0005166603510637332
177.0, 0.0008155623400124255
178.0, 0.0010392151356933422
179.0, 0.0009819358694199986
180.0, 0.001242548594263936
181.0, 0.0014186543657944343
182.0, 0.0016593318868966009
183.0, 0.0024680379441859423
184.0, 0.0030324608264887224
185.0, 0.003992387483093434
186.0, 0.00538107393232924
187.0, 0.006917520248831485
188.0, 0.008489267396238927
189.0, 0.009986797682873156
190.0, 0.011237126545563423
191.0, 0.01218960507041501
192.0, 0.01294787068928173
193.0, 0.013648038894709471
194.0, 0.014802378316818353
195.0, 0.01624391259107619
196.0, 0.017559115881418258
197.0, 0.01930646423941432
198.0, 0.020975441137917068
199.0, 0.023093217024051527
200.0, 0.026027840577518325
201.0, 0.029348916506989245
202.0, 0.033861366530584226
203.0, 0.03910581490983077
204.0, 0.04431805814671921
205.0, 0.04837395133816064
206.0, 0.049417937963541464
207.0, 0.04560957886168333
208.0, 0.03795546260700678
209.0, 0.0290199735238905
210.0, 0.02116475799176027
211.0, 0.014983826830729172
212.0, 0.010837552347181681
213.0, 0.008227486105747467
214.0, 0.006133992000044847
215.0, 0.004480366504315676
216.0, 0.0035646585340965266
217.0, 0.0029340675403827783
218.0, 0.0021986760341733756
219.0, 0.0018583878750509258
220.0, 0.0015109424298567237
221.0, 0.0012265216697324446
222.0, 0.00101494079251684
223.0, 0.0007516967351664828
224.0, 0.0004962957778032396
225.0, 0.0003308580991377061
226.0, 0.0002485177755622801
227.0, 0.00019974224484971807
228.0, 0.00021252354291489644
229.0, 0.00011791301512897268
230.0, 0.0002616834567795805
231.0, 0.0005182052932185683
232.0, 0.0003334469219074956
233.0, 0.00019556637666991094
234.0, 0.00021581707177848784
235.0, 0.00036892335668758225
236.0, 0.000627345370472429
237.0, 0.001053430308773193
238.0, 0.0017047421232818964
239.0, 0.002851580802575859
240.0, 0.004127892630949258
241.0, 0.00475663751796866
242.0, 0.005711289085830641
243.0, 0.006340341273423649
244.0, 0.006727332226138768
245.0, 0.007156787029635739
246.0, 0.007819858952839598
247.0, 0.008397901051909441
248.0, 0.009235038374680895
249.0, 0.01029282844858074
250.0, 0.01124191659797821
251.0, 0.012527514034734583
252.0, 0.01410575353308622
253.0, 0.016431492571930953
254.0, 0.019700245292879757
255.0, 0.02349524818297221
256.0, 0.02754262987872468
257.0, 0.031266851737486716
258.0, 0.033128589184597185
259.0, 0.03133182718263033
260.0, 0.025049093141938518
261.0, 0.01804757583279172
262.0, 0.01214339552817171
263.0, 0.007923035892276862
264.0, 0.005279981416867913
265.0, 0.003503545634969038
266.0, 0.002419099671863253
267.0, 0.0017612912837078347
268.0, 0.0012676406745545526
269.0, 0.0008255627118285978
270.0, 0.0006649746585447718
271.0, 0.00040692756533936393
272.0, 5.293629783296278e-05
273.0, 5.202517447961183e-05
274.0, 1.4344681916923031e-05
275.0, 8.394581517667361e-05
276.0, 0.00016435723717634533
277.0, 0.00010443547315693949
278.0, 0.00019428367003743475
279.0, 0.00028296770490197833
280.0, 0.00026243862907455637
281.0, 0.00014040753360984002
282.0, 4.312777691622182e-06
283.0, 5.441358991727891e-05
284.0, 0.00012656539554749746
285.0, 0.0002806312750492364
286.0, 0.0002792150633358992
287.0, 0.00031777764171146786
288.0, 0.0004302090015928539
289.0, 0.0005775880415330707
290.0, 0.0007823469487642665
291.0, 0.0010334887396599795
292.0, 0.001230947159821665
293.0, 0.001407607467109766
294.0, 0.0016987321512761952
295.0, 0.002010494946006657
296.0, 0.0022389770764698795
297.0, 0.0026690801040203864
298.0, 0.0031542672535126463
299.0, 0.003633420701200915
300.0, 0.004156923605677718
301.0, 0.004855534623892503
302.0, 0.005797674085237378
303.0, 0.007018818878936219
304.0, 0.00849843969908594
305.0, 0.010240512116175606
306.0, 0.012304342924507383
307.0, 0.014869466467971274
308.0, 0.017365774138658124
309.0, 0.02004516226953557
310.0, 0.023175501006647312
311.0, 0.026047945822556217
312.0, 0.02924067485978406
313.0, 0.03210999426270634
314.0, 0.034964736880196856
315.0, 0.03866459711509801
316.0, 0.042333297791246415
317.0, 0.04647318985242167
318.0, 0.05114024257690284
319.0, 0.05645881620920168
320.0, 0.06265586852403049
321.0, 0.06909721847852156
322.0, 0.07609166132506648
323.0, 0.0824412008457738
324.0, 0.08673473552155785
325.0, 0.08827075635898982
326.0, 0.08727192309136923
327.0, 0.08274980078115832
328.0, 0.07539297746255276
329.0, 0.06651918120427731
330.0, 0.05729355394464822
331.0, 0.04890466082557233
332.0, 0.04125516102683655
333.0, 0.03454572583586262
334.0, 0.029254161638605652
335.0, 0.024661954641299996
336.0, 0.020813537824342077
337.0, 0.017442973455431027
338.0, 0.014593263195614454
339.0, 0.012514326418785682
340.0, 0.010602285429222447
341.0, 0.008900438070123636
342.0, 0.007630760866024223
343.0, 0.006735436301229792
344.0, 0.005829093960123665
345.0, 0.004958909473399497
346.0, 0.004368071509737684
347.0, 0.0038251643952719153
348.0, 0.003179487302078133
349.0, 0.002735608824682658
350.0, 0.0024411159167986897
351.0, 0.0020340381756589715
352.0, 0.0016391076692980748
353.0, 0.0014245247543381602
354.0, 0.0012194187613074957
355.0, 0.0010270431411930207
356.0, 0.0008260261279422039
357.0, 0.0006819498316021069
358.0, 0.0006226924261863888
359.0, 0.0004448514877609158
360.0, 0.0003201411163539196
361.0, 0.0002298636716271695
362.0, 0.00011438555689112341
363.0, 3.434401292322855e-05
364.0, 8.155855229487344e-05
365.0, 7.748119008338948e-05
366.0, 4.4364534512033075e-05
367.0, 4.095753943191436e-05
368.0, 0.00011843865419819129
369.0, 4.2487464391236235e-05
370.0, 9.118932046129999e-05
371.0, 8.546714551246455e-05
372.0, 0.0003343311534627268
373.0, 0.0005726416320002129
374.0, 0.0007347207955157406
375.0, 0.001067421113560709
376.0, 0.0015728421671354917
377.0, 0.0023126214105281978
378.0, 0.0034747279845387946
379.0, 0.004886295474672002
380.0, 0.00674291164776969
381.0, 0.00861740059496665
382.0, 0.010273132646689342
383.0, 0.011958843578929845
384.0, 0.013265022396556019
385.0, 0.014480813924559114
386.0, 0.015924903261066617
387.0, 0.01761971604229413
388.0, 0.019425597033584447
389.0, 0.021692926794663583
390.0, 0.024804317212193824
391.0, 0.028663174338783768
392.0, 0.03331278917498734
393.0, 0.03918202799660269
394.0, 0.044838586798435845
395.0, 0.05093368700585621
396.0, 0.05610257147500938
397.0, 0.05849845084800069
398.0, 0.056526546903758766
399.0, 0.04845909620743062
400.0, 0.03829074544839881
401.0, 0.028653182852884013
402.0, 0.020939528850430246
403.0, 0.01562865096796233
404.0, 0.012023719747819996
405.0, 0.009600627199753024
406.0, 0.007739979056683856
407.0, 0.006175125675804226
408.0, 0.0051603947499690534
409.0, 0.004230630478210803
410.0, 0.00353474221791999
411.0, 0.003025540422558805
412.0, 0.0025624027266538496
413.0, 0.002132219752380127
414.0, 0.0019436563262432585
415.0, 0.001719208057786278
416.0, 0.0014693429565960868
417.0, 0.0012952263311972617
418.0, 0.0012112145741891445
419.0, 0.0010439435614438299
420.0, 0.0008626294781797023
421.0, 0.0007124294602152127
422.0, 0.0006085503665905036
423.0, 0.0005435837505162073
424.0, 0.0004352518571611912
425.0, 0.00034252750030482743
426.0, 0.0002905489429359996
427.0, 0.00028114186049706927
428.0, 0.0002788257902779232
429.0, 0.00023456386676190972
430.0, 0.00014111712669144305
431.0, 6.226726740665578e-05
432.0, 4.569622017940584e-05
433.0, 8.12779850982325e-05
434.0, 7.388512602465305e-05
435.0, 2.5902521624891532e-05
436.0, 7.108733913965407e-06
437.0, 3.0431465911829964e-05
438.0, 4.71765021549089e-05
439.0, 2.6125166885020934e-05
440.0, 6.548600928848334e-05
441.0, 7.52889700193603e-05
442.0, 3.8947261521981335e-05
443.0, 0.0001227917253737268
444.0, 3.33521965729299e-05
445.0, 2.4745282000597245e-05
446.0, 2.6483013055713944e-05
447.0, 3.437206298839279e-05
448.0, 0.00014275957064242367
449.0, 1.4836036878000792e-05
450.0, 5.5262226159417474e-05
451.0, 8.802177129153761e-05
452.0, 3.8015767911961654e-05
453.0, 1.627438226094557e-05
454.0, 1.1276072439770938e-05
455.0, 1.030478687394232e-06
456.0, 7.818604661539504e-05
457.0, 5.808920956909811e-05
458.0, 9.15499866672329e-05
459.0, 9.1762542516017e-05
460.0, 2.1913993775756905e-05
461.0, 5.3838638324064045e-05
462.0, 6.261239375488291e-05
463.0, 2.171485166946403e-05
464.0, 1.2581127104795409e-05
465.0, 9.870377570679533e-05
466.0, 5.9625862989693574e-05
467.0, 0.000124712322655789
468.0, 9.407917996852866e-05
469.0, 0.00012133759370029004
470.0, 7.206289225895491e-05
471.0, 6.439143845386967e-05
472.0, 1.121305335191184e-06
473.0, 4.6002628366103654e-05
474.0, 1.811630103777201e-05
475.0, 5.471248307655745e-05
476.0, 7.898742983858574e-05
477.0, 7.025460943946459e-05
478.0, 8.082020955220404e-05
479.0, 8.184482029021917e-05
480.0, 1.681875895505477e-05
481.0, 3.2967816350289015e-05
482.0, 9.7303248327036e-05
483.0, 0.00017286188606179217
484.0, 0.0002139238290882028
485.0, 0.00013341979982498548
486.0, 5.3291665726107326e-05
487.0, 6.214341167572138e-05
488.0, 9.631945228281844e-05
489.0, 0.00011418883220923856
490.0, 0.00014323264478103735
491.0, 0.00027507635137714284
492.0, 0.0002120124697735113
493.0, 0.00014877522139619939
494.0, 0.00018841677064924592
495.0, 0.0003075308778714145
496.0, 0.00044750490329361725
497.0, 0.0004416042282666632
498.0, 0.0003268831857824446
499.0, 0.00028994814335573006
500.0, 0.0003817598332231359
501.0, 0.0004921904115914637
502.0, 0.0005622289759837722
503.0, 0.0004699242865501446
504.0, 0.0004568835401391579
505.0, 0.0005331383803984152
506.0, 0.000596207145814794
507.0, 0.0007052942281039578
508.0, 0.000773797796417174
509.0, 0.0008313654668644381
510.0, 0.0009038677268534686
511.0, 0.0009540072809799264
512.0, 0.0009472240826178839
513.0, 0.001128749450015663
514.0, 0.0011256161812778723
515.0, 0.0013013586072064462
516.0, 0.0016092376741806934
517.0, 0.001711177957477559
518.0, 0.0019145266008257391
519.0, 0.002060386519586944
520.0, 0.002332083210284092
521.0, 0.002650326297216303
522.0, 0.0029148120244787633
523.0, 0.003242463314186508
524.0, 0.0038389258484507085
525.0, 0.004400237276153868
526.0, 0.005048844791309259
527.0, 0.005769273414882161
528.0, 0.006392537894526561
529.0, 0.007174303409185102
530.0, 0.008200336992145629
531.0, 0.009132623586492528
532.0, 0.009965902467814043
533.0, 0.010909640138912324
534.0, 0.012078649905314228
535.0, 0.013141868571325304
536.0, 0.014248996722595247
537.0, 0.015430772120019214
538.0, 0.016611014706889197
539.0, 0.01772676530755236
540.0, 0.01870319099238424
541.0, 0.01945578076526211
542.0, 0.020099945362100895
543.0, 0.020289280647727417
544.0, 0.01980168168443375
545.0, 0.019065829276627515
546.0, 0.018126067244262398
547.0, 0.016670604306000848
548.0, 0.015206108539313517
549.0, 0.01379745274472977
550.0, 0.012117145475581103
551.0, 0.01054304986794762
552.0, 0.00921023653317663
553.0, 0.008054213493708936
554.0, 0.006989953055232727
555.0, 0.006042493482797009
556.0, 0.005332010266269867
557.0, 0.0045681151050273915
558.0, 0.004110895226468667
559.0, 0.003675904763466089
560.0, 0.003107347867283138
561.0, 0.002638007601276086
562.0, 0.002535263361920447
563.0, 0.002172542839361853
564.0, 0.001957604254237566
565.0, 0.0017293286997737344
566.0, 0.00141155496850985
567.0, 0.0012618287144628316
568.0, 0.0010612556613215237
569.0, 0.0008817537446088348
570.0, 0.0008883916752234633
571.0, 0.0008838078535556131
572.0, 0.000710346648489435
573.0, 0.0006233012062660378
574.0, 0.0005026460710994936
575.0, 0.00042677138986120755
576.0, 0.0003489023426129578
577.0, 0.0003070949579445993
578.0, 0.00034993692433265585
579.0, 0.0003007082356033589
580.0, 0.00020441561202004773
581.0, 0.000130989050544403
582.0, 9.194755579261208e-05
583.0, 9.692087130169498e-05
584.0, 0.00014758313138057055
585.0, 0.0001237336270573274
586.0, 5.628472989899452e-05
587.0, 5.186753382916099e-05
588.0, 9.680964015479453e-05
589.0, 3.538214401632989e-05
590.0, 1.632603680338642e-05
591.0, 2.078345073343084e-05
592.0, 5.129694496556297e-05
593.0, 2.9669421131064737e-05
594.0, 0.00014362510099983887
595.0, 5.501763299592471e-05
596.0, 5.648363760854448e-05
597.0, 3.3545477170628604e-05
598.0, 0.0001515038891341481
599.0, 0.00012450324388522363
600.0, 8.889379357283973e-05
601.0, 0.0002128698046412649
602.0, 0.00017193397496427428
603.0, 0.00018699949839232915
604.0, 0.00023859399331117284
605.0, 0.00025310150336143764
606.0, 0.00021372891059376505
607.0, 0.0001672547877337253
608.0, 0.0001430938418769568
609.0, 0.00010486748112967021
610.0, 8.848636551858483e-05
611.0, 0.00020101939975646156
612.0, 0.0003408745157956227
613.0, 0.0002423271586243095
614.0, 0.0002494546621814383
615.0, 0.00019776774610248248
616.0, 0.0001639766861094871
617.0, 7.351799496992418e-05
618.0, 7.64724526668355e-05
619.0, 5.2558158383483765e-05
620.0, 2.7108655913491034e-05
621.0, 5.5123081795051215e-05
622.0, 7.909113186857694e-05
623.0, 4.875571168289712e-05
624.0, 8.09171177217687e-05
625.0, 7.074016744947771e-05
626.0, 1.1456037401681499e-05
627.0, 1.3306899072900387e-05
628.0, 5.4534068275741096e-05
629.0, 9.596756925456261e-05
630.0, 0.000129756644217936
631.0, 0.0001387383458767801
632.0, 6.640009984431073e-05
633.0, 4.6776535923656934e-05
634.0, 0.00011283521418980802
635.0, 0.00016997682677865654
636.0, 0.0001267389958848083
637.0, 3.913702785106092e-05
638.0, 6.4769558812497734e-06
639.0, 3.799048883809696e-05
640.0, 2.9812228911743868e-05
641.0, 0.00011885300396498694
642.0, 0.00019726950930694243
643.0, 0.00014566419275318954
644.0, 7.590218085068628e-05
645.0, 0.0002307113892314021
646.0, 0.00033870765525853525
647.0, 0.0004082233347954945
648.0, 0.0005863081262644709
649.0, 0.0006201717308818407
650.0, 0.0006338174977480577
651.0, 0.0007259502795736171
652.0, 0.0008846445141317354
653.0, 0.001109073339803105
654.0, 0.0013237131409267286
655.0, 0.001371649179500186
656.0, 0.0016902107594274015
657.0, 0.0017648060644976202
658.0, 0.0019267763280817485
659.0, 0.0021807547244314957
660.0, 0.0023228100545990968
661.0, 0.0025822134644167037
662.0, 0.0029491579354342535
663.0, 0.003168330404189986
664.0, 0.0034403970458276208
665.0, 0.0038475350540944377
666.0, 0.004332278243110051
667.0, 0.004898313112886389
668.0, 0.005388222067069434
669.0, 0.006073395977674634
670.0, 0.006911615934396856
671.0, 0.007571517235670974
672.0, 0.00814844761335339
673.0, 0.009323366064455633
674.0, 0.011012123534173497
675.0, 0.012063473221689979
676.0, 0.013559492547354205
677.0, 0.015714536836852706
678.0, 0.01813541002232016
679.0, 0.020595563506468236
680.0, 0.02340120199346462
681.0, 0.027318079572401434
682.0, 0.031348949389181945
683.0, 0.03580017361856767
684.0, 0.04099494276410126
685.0, 0.046373953626097586
686.0, 0.05154098002446519
687.0, 0.05736404335716977
688.0, 0.06384113336881747
689.0, 0.07064118161225953
690.0, 0.07756134791103625
691.0, 0.08473083770544973
692.0, 0.09251357716161754
693.0, 0.10011994528515122
694.0, 0.10655988334968523
695.0, 0.11142069885395735
696.0, 0.11424546521685418
697.0, 0.11455198197331805
698.0, 0.11209524999471039
699.0, 0.10544743774434286
700.0, 0.09624134056599484
701.0, 0.0861120665622172
702.0, 0.0755311590521102
703.0, 0.065047725493809
704.0, 0.05563899747505792
705.0, 0.047671090317606905
706.0, 0.04058155815097215
707.0, 0.03456603374611832
708.0, 0.029783652606912906
709.0, 0.026040108873829668
710.0, 0.022889298749894996
711.0, 0.02010252993701167
712.0, 0.017883293570588623
713.0, 0.015994901784284362
714.0, 0.014297149019459271
715.0, 0.012810587665128515
716.0, 0.011589247561630742
717.0, 0.010675091803495317
718.0, 0.00971787276386948
719.0, 0.008991211295454226
720.0, 0.00832027316867441
721.0, 0.007701360890349167
722.0, 0.007071030945233392
723.0, 0.006298114462225359
724.0, 0.005956792912189294
725.0, 0.005669524475151328
726.0, 0.005349593325125057
727.0, 0.005052455433691544
728.0, 0.004689180733870337
729.0, 0.004223993218867069
730.0, 0.0039327686708625674
731.0, 0.003743909694645426
732.0, 0.0036126238450101445
733.0, 0.003352846472711882
734.0, 0.003069251400706047
735.0, 0.0028825723730200358
736.0, 0.0026952853279000513
737.0, 0.0026347407133800573
738.0, 0.0024326498917947303
739.0, 0.0021989647639492787
740.0, 0.002120694388004321
741.0, 0.0020112168481757234
742.0, 0.0017069985681247037
743.0, 0.0016560686674972176
744.0, 0.001668998436866749
745.0, 0.0015940798961754956
746.0, 0.0014592315781800683
747.0, 0.0014387320693055841
748.0, 0.0014781954885292174
749.0, 0.0013300574925456542
750.0, 0.0011370112027463874
751.0, 0.0011701239202269325
752.0, 0.001090937345578183
753.0, 0.0010470295826596457
754.0, 0.0009584115643358411
755.0, 0.0007420876472423474
756.0, 0.0007523100837692004
757.0, 0.0007118053165770742
758.0, 0.0005338871406979431
759.0, 0.0005296083154946478
760.0, 0.0005149239537350288
761.0, 0.00036303254368402424
762.0, 0.0002553510009574281
763.0, 0.00022882008828185117
764.0, 0.0002655280429258035
765.0, 0.000334432778704098
766.0, 0.00022228283645694797
767.0, 0.00015289076638378172
768.0, 0.0002233593549107656
769.0, 0.0001501944593960142
770.0, 8.348529884895085e-05
771.0, 0.00022192622473150188
772.0, 0.000188107454161268
773.0, 0.00020739329432244532
774.0, 0.00019883382240439771
775.0, 3.674788648466666e-05
776.0, 0.00010435205590934545
777.0, 7.64359228463158e-05
778.0, 0.0002302915113051757
779.0, 9.405710815851185e-05
780.0, 2.8830335173278207e-05
781.0, 6.141544709979536e-05
782.0, 5.991907726477504e-05
783.0, 1.9419402570208165e-05
784.0, 2.6770876940343837e-05
785.0, 1.2282858748778449e-05
786.0, 4.106276086941717e-05
787.0, 1.921403901553685e-05
788.0, 2.6714900530251557e-05
789.0, 3.75185371597035e-05
790.0, 0.00020119912972084149
791.0, 7.407151428687275e-05
792.0, 2.0375114879306828e-06
793.0, 0.00014294865914471478
794.0, 0.00023284175114130916
795.0, 0.00014695610354131523
796.0, 9.117578982795855e-05
797.0, 0.00018626870639180715
798.0, 0.0002937938603095602
799.0, 0.0003785027006683841
800.0, 0.00032557572543917177
801.0, 0.0002533928604097341
802.0, 0.00027805794957046627
803.0, 0.0003023974283771647
804.0, 0.0002557724563666151
805.0, 0.00023822925116545233
806.0, 0.0002557886734282512
807.0, 0.00016170164769197068
808.0, 9.286836135258062e-05
809.0, 0.00013929844725708724
810.0, 0.0001358863605098904
811.0, 2.2339548468024985e-05
812.0, 0.00011313566550181427
813.0, 0.00014928144478955943
814.0, 0.0001113279964743189
815.0, 6.710990296602604e-05
816.0, 0.00011045593497541442
817.0, 0.0002425322289965524
818.0, 0.00032368675782987487
819.0, 0.0005095186987670159
820.0, 0.0004490492902702151
821.0, 0.00047964214018310206
822.0, 0.0006276776093359006
823.0, 0.0007661193381583261
824.0, 0.0008815115082850837
825.0, 0.0009846505631925712
826.0, 0.0010225493083923633
827.0, 0.0011663730752832836
828.0, 0.0013845941723029057
829.0, 0.0015721113082631855
830.0, 0.0017189750014202539
831.0, 0.0020480311137960807
832.0, 0.002629396370083535
833.0, 0.0025378430252691936
834.0, 0.0027889566269125986
835.0, 0.00334541721815427
836.0, 0.003796698708910737
837.0, 0.004167853816588634
838.0, 0.004788742304313265
839.0, 0.005641602443089915
840.0, 0.006161864569585106
841.0, 0.006773606292147884
842.0, 0.007631883170509124
843.0, 0.008578384062722133
844.0, 0.009624743225362052
845.0, 0.010775673306065625
846.0, 0.011909363254919638
847.0, 0.013367850495992569
848.0, 0.015179615546016456
849.0, 0.016907079473373412
850.0, 0.01860882243412157
851.0, 0.020546373191459605
852.0, 0.022902884863723553
853.0, 0.025566204171218444
854.0, 0.02825441417026525
855.0, 0.030947999194733476
856.0, 0.034243138087340426
857.0, 0.03776621596165074
858.0, 0.04162321998423027
859.0, 0.046196642200297226
860.0, 0.05138254726432984
861.0, 0.056858023187106116
862.0, 0.06340234036382147
863.0, 0.07121380585241407
864.0, 0.08021545985289323
865.0, 0.09145028709255723
866.0, 0.10508703724724747
867.0, 0.12185121915089292
868.0, 0.14359410588961813
869.0, 0.1697293341890737
870.0, 0.20236936108976253
871.0, 0.24032112566571834
872.0, 0.2827905213239656
873.0, 0.3269366763969636
874.0, 0.37123230260044676
875.0, 0.4174095740709404
876.0, 0.46836582121844156
877.0, 0.5257908155048293
878.0, 0.5954546925155259
879.0, 0.6739826906677762
880.0, 0.7600087095028188
881.0, 0.8484625474921684
882.0, 0.9268534163340963
883.0, 0.9803567183455381
884.0, 0.9977688401335864
885.0, 0.9562287829729992
886.0, 0.8556085892306501
887.0, 0.7200903288897595
888.0, 0.5797091858687365
889.0, 0.454385431559265
890.0, 0.3543811159572872
891.0, 0.27953437897108613
892.0, 0.2228278855026718
893.0, 0.18026531646026417
894.0, 0.14764076236171642
895.0, 0.12229481295104006
896.0, 0.10247220224621167
897.0, 0.08649814570522506
898.0, 0.07329917526924296
899.0, 0.06324268383128116
900.0, 0.054396320811862006
901.0, 0.04746001379328927
902.0, 0.041030109653932105
903.0, 0.03594547406246059
904.0, 0.031817155146560964
905.0, 0.027843705759518673
906.0, 0.024700505272231724
907.0, 0.02197724402339854
908.0, 0.019737048443181787
909.0, 0.01758763894752745
910.0, 0.01584085353322338
911.0, 0.014215366856732256
912.0, 0.012704903372255135
913.0, 0.011473690351028411
914.0, 0.010195086792136852
915.0, 0.00912144099464393
916.0, 0.008318215882164458
917.0, 0.007538021022767152
918.0, 0.0068380036016716704
919.0, 0.006154393481833307
920.0, 0.005449933964308043
921.0, 0.004821240469021256
922.0, 0.004311221086300463
923.0, 0.0036947251411345683
924.0, 0.00331797812168753
925.0, 0.0031646521994421017
926.0, 0.002753966178527644
927.0, 0.0022576778642626276
928.0, 0.0020437443555842896
929.0, 0.0018967681291110325
930.0, 0.0013645086196517916
931.0, 0.0013159768013684243
932.0, 0.0009054061964356938
933.0, 0.0007193550570618942
934.0, 0.0005840739962944914
935.0, 0.0006205815460943482
936.0, 0.0007223734916507917
937.0, 0.0005732821608676042
938.0, 0.0004393269480487796
939.0, 0.0002817164887635858
940.0, 0.0002799248337976922
941.0, 0.00024293158719675774
942.0, 0.0002104319449240508
943.0, 8.738704337122822e-05
944.0, 4.800433946629771e-06
945.0, 5.944900804032685e-05
946.0, 1.6831820055244422e-05
947.0, 0.00011581894030938055
948.0, 0.00010943806765660369
949.0, 0.00012252846398924845
950.0, 3.713756876090856e-05
951.0, 2.557172497655095e-05
952.0, 3.764399255707738e-05
953.0, 7.313674931572397e-05
954.0, 9.216929239692574e-06
955.0, 0.0001220160090781784
956.0, 0.0001456395142396456
957.0, 0.0001268307823872259
958.0, 0.00018478659738814537
959.0, 0.0002876947300376216
960.0, 0.0002657525215956922
961.0, 0.00014332853821694358
962.0, 0.00015885523413875386
963.0, 0.00024746187058881684
964.0, 0.00020554068599336033
965.0, 0.00012901891958525926
966.0, 0.00012415456646808364
967.0, 0.00015812407381830118
968.0, 0.00016275884290660773
969.0, 0.00016567806019102818
970.0, 0.00019350850358268985
971.0, 0.00016096838882721318
972.0, 0.00010350432603689493
973.0, 9.353679733944258e-05
974.0, 2.346768460972793e-05
975.0, 5.939989531409526e-06
976.0, 6.017820161070353e-06
977.0, 4.700565739371736e-05
978.0, 8.107295775220907e-05
979.0, 9.926818735776328e-05
980.0, 0.000302951767253055
981.0, 0.00023413547383869507
982.0, 0.0002032306277155614
983.0, 0.0002020910903463148
984.0, 0.00019875469330916977
985.0, 0.00016603013013444655
986.0, 0.00015340894350475868
987.0, 0.00019943326992419313
988.0, 0.00020504171185031108
989.0, 0.00014804164377865906
990.0, 0.0001266009907244528
991.0, 3.456898524910122e-05
992.0, 4.719589721957547e-06
993.0, 1.2765689321667054e-05
994.0, 1.688030590422749e-05
995.0, 1.9587234837455655e-05
996.0, 4.157023030038932e-05
997.0, 1.81276196066319e-05
998.0, 0.0001251785410037903
999.0, 3.7257695483413616e-05
1000.0, 4.464249611057295e-05
1001.0, 4.68204540856431e-05
1002.0, 3.0466519804642037e-05
1003.0, 8.65308090604754e-05
1004.0, 0.00021549287780527664
1005.0, 0.00030732724856334307
1006.0, 0.0003336884363545088
1007.0, 0.00034462503232045197
1008.0, 0.0002513111613680095
1009.0, 0.0002879267346519576
1010.0, 0.0004117725899277806
1011.0, 0.0005862898723914915
1012.0, 0.0005926785695727472
1013.0, 0.0005016329389652516
1014.0, 0.0006696748099037522
1015.0, 0.0006836077339792376
1016.0, 0.0007109621277300376
1017.0, 0.0007145505537007487
1018.0, 0.0006698033276002349
1019.0, 0.0007147467133965801
1020.0, 0.0007239227856460082
1021.0, 0.0007920162918453827
1022.0, 0.0009392495682138414
1023.0, 0.0008889766307615217
1024.0, 0.0007754810307735073
1025.0, 0.0008453573986709428
1026.0, 0.0007795975042115393
1027.0, 0.0008530605878836501
1028.0, 0.0009108160754562346
1029.0, 0.0009322493637593734
1030.0, 0.000884233073268617
1031.0, 0.0008346167277355909
1032.0, 0.0009524815536116884
1033.0, 0.000979329547096359
1034.0, 0.0009778027650969034
1035.0, 0.0010389038987773924
1036.0, 0.0011747779379890984
1037.0, 0.001120074351670691
1038.0, 0.0010140335830366354
1039.0, 0.0010630447090907258
1040.0, 0.001197130613655666
1041.0, 0.0012317365340406
1042.0, 0.001202017262505876
1043.0, 0.0012615042599068182
1044.0, 0.0012985578440285939
1045.0, 0.0012479131870002244
1046.0, 0.0012750510454193527
1047.0, 0.0013754371465120002
1048.0, 0.0014424218449981439
1049.0, 0.0015005538388691824
1050.0, 0.0015346597145132687
1051.0, 0.0014231764836101883
1052.0, 0.0014309663103745005
1053.0, 0.0013338448144201997
1054.0, 0.0013600028079763032
1055.0, 0.0013471231186689984
1056.0, 0.0013279924556244235
1057.0, 0.0013392327854389525
1058.0, 0.0012178613080833986
1059.0, 0.0011354610990334875
1060.0, 0.0012869727694445156
1061.0, 0.0012121952231507955
1062.0, 0.0013193247818758058
1063.0, 0.0012285002554717807
1064.0, 0.001153875927320722
1065.0, 0.0011471591139065648
1066.0, 0.0011396784923087728
1067.0, 0.0011933363570561515
1068.0, 0.00127031585121117
1069.0, 0.0012889132764289926
1070.0, 0.001279904014021465
1071.0, 0.0012258401928416165
1072.0, 0.001314856444310468
1073.0, 0.001310785332814601
1074.0, 0.001335351854253229
1075.0, 0.0013327030027598212
1076.0, 0.0013558806007847874
1077.0, 0.0013032474159631558
1078.0, 0.001261642659851358
1079.0, 0.0013027548323269733
1080.0, 0.001164059060828242
1081.0, 0.0012054112959562224
1082.0, 0.0012351157857827917
1083.0, 0.0012964392033277894
1084.0, 0.0012464790644877268
1085.0, 0.001154541987027282
1086.0, 0.001110125561147892
1087.0, 0.0010093282103977419
1088.0, 0.0009288099591894032
1089.0, 0.0009291068340116997
1090.0, 0.0008343523703837873
1091.0, 0.0008472881257971395
1092.0, 0.001029672487028109
1093.0, 0.000859910927924308
1094.0, 0.0008590691286795664
1095.0, 0.0008113515556314451
1096.0, 0.0008585263217650077
1097.0, 0.0008330854013725067
1098.0, 0.0006751934852944378
1099.0, 0.0006530069077511682
1100.0, 0.0006554024734968945
1101.0, 0.0006417729505031991
1102.0, 0.0007618092986805291
1103.0, 0.0006961501198234371
1104.0, 0.0005582814116099292
1105.0, 0.0004339307821901281
1106.0, 0.0004730274727617893
1107.0, 0.0004877210124202892
1108.0, 0.0004425379773431199
1109.0, 0.00048282506842940736
1110.0, 0.0005190758491092982
1111.0, 0.00048491073907507297
1112.0, 0.0006092898987546833
1113.0, 0.0004697192653695444
1114.0, 0.000434576789837785
1115.0, 0.000983385265268451
1116.0, 0.0007607133227873704
1117.0, 0.00037509652674363954
1118.0, 0.00038008316085201793
1119.0, 0.0004508465608598735
1120.0, 0.0004312492401443446
1121.0, 0.00036062170201212854
1122.0, 0.0005118976640597493
1123.0, 0.0004174135715495705
1124.0, 0.0003500675634649936
1125.0, 0.0003760396673665672
1126.0, 0.00036756970992513435
1127.0, 0.0003660613314001365
1128.0, 0.0003247677680608736
1129.0, 0.0002634275039736807
1130.0, 0.00026745156834402856
1131.0, 0.00025534640376180637
1132.0, 0.0001307906781277564
1133.0, 0.00013105909899240297
1134.0, 0.00011788929648991001
1135.0, 8.455409089402092e-05
1136.0, 0.00014820549137863098
1137.0, 6.506960475502616e-05
1138.0, 8.299768115787443e-05
1139.0, 7.84078290305182e-05
1140.0, 2.062712104496066e-05
1141.0, 5.190363173939252e-05
1142.0, 1.567545763459875e-05
1143.0, 3.539124191487396e-05
1144.0, 4.482609944225121e-05
1145.0, 5.229487121979918e-05
1146.0, 9.514665527883144e-05
1147.0, 1.856663399550279e-05
1148.0, 4.061622751355629e-05
1149.0, 7.580423469310662e-05
1150.0, 9.4748251781305e-05
1151.0, 7.106368598938572e-05
1152.0, 0.0001248918373109247
1153.0, 3.8016657966097015e-05
1154.0, 5.961927955586772e-06
1155.0, 9.613761018815722e-06
1156.0, 4.756396855958168e-05
1157.0, 9.845518279937517e-05
1158.0, 2.495110073587051e-05
1159.0, 3.297032440479222e-05
1160.0, 7.323367097333692e-05
1161.0, 4.8200086111532536e-05
1162.0, 5.284152069225757e-05
1163.0, 0.00010846658598549215
1164.0, 2.576828046593114e-05
1165.0, 0.00010323432495564793
1166.0, 7.818541456456833e-05
1167.0, 5.454108463561475e-05
1168.0, 6.899735034736154e-05
1169.0, 8.573716283390171e-05
1170.0, 4.1248248063140635e-05
1171.0, 9.426968928237344e-05
1172.0, 0.0001620120841534389
1173.0, 0.00012896509386172415
1174.0, 0.00016323812611623606
1175.0, 0.0002726491444697893
1176.0, 0.00013191561665969545
1177.0, 3.5884715752538385e-05
1178.0, 6.800264018376153e-05
1179.0, 1.8594732802201066e-05
1180.0, 4.382989297176665e-05
1181.0, 6.988940331513444e-05
1182.0, 9.452716958073628e-05
1183.0, 5.171857255234218e-05
1184.0, 4.718171764961245e-05
1185.0, 8.764820451523862e-05
1186.0, 0.00012228366580784318
1187.0, 5.648342902655119e-05
1188.0, 5.396817093086587e-05
1189.0, 5.121159524308156e-05
1190.0, 9.240936308436024e-05
1191.0, 2.2994800889660143e-05
1192.0, 5.2239871076708864e-05
1193.0, 4.0169622826943476e-05
1194.0, 3.916112533426438e-05
1195.0, 0.00011696117394305617
1196.0, 3.7869546393716404e-05
1197.0, 0.00010513120891937199
1198.0, 5.584752920855379e-05
1199.0, 2.536071961938003e-05
1200.0, 2.1964902570524926e-05
1201.0, 4.73357046959802e-05
1202.0, 9.120230775163652e-05
1203.0, 1.9766117246458446e-05
1204.0, 1.5436093901446558e-05
1205.0, 5.065812150283819e-05
1206.0, 0.00011348147621461702
1207.0, 0.00011713668795140094
1208.0, 3.7215286020546333e-05
1209.0, 6.387739618931446e-06
1210.0, 3.606996642080458e-05
1211.0, 3.175563060676201e-05
1212.0, 1.1665212780747104e-05
1213.0, 9.8012293067818e-06
1214.0, 1.1117985023859524e-05
1215.0, 2.8647747683608245e-05
1216.0, 4.258814572317792e-05
1217.0, 0.0001541548418856201
1218.0, 3.714253541019979e-05
1219.0, 4.2755353251351144e-05
1220.0, 0.00011955054339843598
1221.0, 8.489860457853952e-05
1222.0, 4.8263308322699134e-05
1223.0, 7.69123653973694e-05
1224.0, 0.00010130804860964886
1225.0, 0.00013164074077270233
1226.0, 0.0001367374690608436
1227.0, 5.803236752175955e-05
1228.0, 5.8229285842179686e-05
1229.0, 6.761637570316557e-05
1230.0, 9.320743001838943e-05
1231.0, 0.00016925567481681895
1232.0, 0.00020719257816669473
1233.0, 0.00021019233709648348
1234.0, 8.848238748497664e-05
1235.0, 0.00011251103823142071
1236.0, 0.000161123227979901
1237.0, 0.00010071905175723544
1238.0, 0.00024468504526041
1239.0, 0.00014415216841210602
1240.0, 0.0002441385889125122
1241.0, 0.00035538896479874686
1242.0, 0.00027864002133960925
1243.0, 0.00016947063841568708
1244.0, 0.00017803799549607075
1245.0, 0.00023903299704574373
1246.0, 0.0002091027778295119
1247.0, 0.0001693451610916315
1248.0, 0.00012361573366039154
1249.0, 0.0001557079640927525
1250.0, 0.0002492020472741496
1251.0, 0.0001827409105078374
1252.0, 7.88954574368147e-05
1253.0, 0.00013523115423462256
1254.0, 0.0001224044206314459
1255.0, 0.00023067943195397621
1256.0, 0.00010092436565871911
1257.0, 8.952689290502117e-05
1258.0, 0.0001696001913878611
1259.0, 0.00019657290309106962
1260.0, 0.00015868352156317333
1261.0, 0.00014646031975029133
1262.0, 0.00015208497205323703
1263.0, 0.00014722057304775946
1264.0, 0.0002111594387261757
1265.0, 0.00025805797379075654
1266.0, 0.00017848479091089406
1267.0, 0.0003362703472587333
1268.0, 0.00029927966096354307
1269.0, 0.0002294975786989088
1270.0, 0.00026879171282879745
1271.0, 0.0003611058804273223
1272.0, 0.0004143343140135462
1273.0, 0.0003505597974644736
1274.0, 0.0003333491422070894
1275.0, 0.0003489365506726241
1276.0, 0.00043362689248137705
1277.0, 0.0005246543332049975
1278.0, 0.00048803138199829995
1279.0, 0.00043367917236646764
1280.0, 0.00045224865116409247
1281.0, 0.00045413507128968833
1282.0, 0.0004978547820700433
1283.0, 0.0004185382819374832
1284.0, 0.00040569005009737666
1285.0, 0.0004377239685985418
1286.0, 0.0005027466773074487
1287.0, 0.00030441479162952065
1288.0, 0.0003099008724982217
1289.0, 0.00030781840201027664
1290.0, 0.00026335844249993274
1291.0, 0.00033827137967670833
1292.0, 0.00034349631130290765
1293.0, 0.00025344174856028063
1294.0, 0.00028579077632934983
1295.0, 0.0003001796330731122
1296.0, 0.00013029267502209668
1297.0, 0.0001786187757316917
1298.0, 0.00012459178796961476
1299.0, 7.565822827686822e-05
1300.0, 0.00013705706248791556
1301.0, 2.9187496929004727e-05
1302.0, 2.472174457990835e-05
1303, 0.0
1304, 0.0
1305, 0.0
1306, 0.0
1307, 0.0
1308, 0.0
1309, 0.0
1310, 0.0
1311, 0.0
1312, 0.0
1313, 0.0
1314, 0.0
1315, 0.0
1316, 0.0
1317, 0.0
1318, 0.0
1319, 0.0
1320, 0.0
1321, 0.0
1322, 0.0
1323, 0.0
1324, 0.0
1325, 0.0
1326, 0.0
1327, 0.0
1328, 0.0
1329, 0.0
1330, 0.0
1331, 0.0
1332, 0.0
1333, 0.0
1334, 0.0
1335, 0.0
1336, 0.0
1337, 0.0
1338, 0.0
1339, 0.0
1340, 0.0
1341, 0.0
1342, 0.0
1343, 0.0
1344, 0.0
1345, 0.0
1346, 0.0
1347, 0.0
1348, 0.0
1349, 0.0
1350, 0.0
1351, 0.0
1352, 0.0
1353, 0.0
1354, 0.0
1355, 0.0
1356, 0.0
1357, 0.0
1358, 0.0
1359, 0.0
1360, 0.0
1361, 0.0
1362, 0.0
1363, 0.0
1364, 0.0
1365, 0.0
1366, 0.0
1367, 0.0
1368, 0.0
1369, 0.0
1370, 0.0
1371, 0.0
1372, 0.0
1373, 0.0
1374, 0.0
1375, 0.0
1376, 0.0
1377, 0.0
1378, 0.0
1379, 0.0
1380, 0.0
1381, 0.0
1382, 0.0
1383, 0.0
1384, 0.0
1385, 0.0
1386, 0.0
1387, 0.0
1388, 0.0
1389, 0.0
1390, 0.0
1391, 0.0
1392, 0.0
1393, 0.0
1394, 0.0
1395, 0.0
1396, 0.0
1397, 0.0
1398, 0.0
1399, 0.0
1400, 0.0
1401, 0.0
1402, 0.0
1403, 0.0
1404, 0.0
1405, 0.0
1406, 0.0
1407, 0.0
1408, 0.0
1409, 0.0
1410, 0.0
1411, 0.0
1412, 0.0
1413, 0.0
1414, 0.0
1415, 0.0
1416, 0.0
1417, 0.0
1418, 0.0
1419, 0.0
1420, 0.0
1421, 0.0
1422, 0.0
1423, 0.0
1424, 0.0
1425, 0.0
1426, 0.0
1427, 0.0
1428, 0.0
1429, 0.0
1430, 0.0
1431, 0.0
1432, 0.0
1433, 0.0
1434, 0.0
1435, 0.0
1436, 0.0
1437, 0.0
1438, 0.0
1439, 0.0
1440, 0.0
1441, 0.0
1442, 0.0
1443, 0.0
1444, 0.0
1445, 0.0
1446, 0.0
1447, 0.0
1448, 0.0
1449, 0.0
1450, 0.0
1451, 0.0
1452, 0.0
1453, 0.0
1454, 0.0
1455, 0.0
1456, 0.0
1457, 0.0
1458, 0.0
1459, 0.0
1460, 0.0
1461, 0.0
1462, 0.0
1463, 0.0
1464, 0.0
1465, 0.0
1466, 0.0
1467, 0.0
1468, 0.0
1469, 0.0
1470, 0.0
1471, 0.0
1472, 0.0
1473, 0.0
1474, 0.0
1475, 0.0
1476, 0.0
1477, 0.0
1478, 0.0
1479, 0.0
1480, 0.0
1481, 0.0
1482, 0.0
1483, 0.0
1484, 0.0
1485, 0.0
1486, 0.0
1487, 0.0
1488, 0.0
1489, 0.0
1490, 0.0
1491, 0.0
1492, 0.0
1493, 0.0
1494, 0.0
1495, 0.0
1496, 0.0
1497, 0.0
1498, 0.0
1499, 0.0
1500, 0.0
1501, 0.0
1502, 0.0
1503, 0.0
1504, 0.0
1505, 0.0
1506, 0.0
1507, 0.0
1508, 0.0
1509, 0.0
1510, 0.0
1511, 0.0
1512, 0.0
1513, 0.0
1514, 0.0
1515, 0.0
1516, 0.0
1517, 0.0
1518, 0.0
1519, 0.0
1520, 0.0
1521, 0.0
1522, 0.0
1523, 0.0
1524, 0.0
1525, 0.0
1526, 0.0
1527, 0.0
1528, 0.0
1529, 0.0
1530, 0.0
1531, 0.0
1532, 0.0
1533, 0.0
1534, 0.0
1535, 0.0
1536, 0.0
1537, 0.0
1538, 0.0
1539, 0.0
1540, 0.0
1541, 0.0
1542, 0.0
1543, 0.0
1544, 0.0
1545, 0.0
1546, 0.0
1547, 0.0
1548, 0.0
1549, 0.0
1550, 0.0
1551, 0.0
1552, 0.0
1553, 0.0
1554, 0.0
1555, 0.0
1556, 0.0
1557, 0.0
1558, 0.0
1559, 0.0
1560, 0.0
1561, 0.0
1562, 0.0
1563, 0.0
1564, 0.0
1565, 0.0
1566, 0.0
1567, 0.0
1568, 0.0
1569, 0.0
1570, 0.0
1571, 0.0
1572, 0.0
1573, 0.0
1574, 0.0
1575, 0.0
1576, 0.0
1577, 0.0
1578, 0.0
1579, 0.0
1580, 0.0
1581, 0.0
1582, 0.0
1583, 0.0
1584, 0.0
1585, 0.0
1586, 0.0
1587, 0.0
1588, 0.0
1589, 0.0
1590, 0.0
1591, 0.0
1592, 0.0
1593, 0.0
1594, 0.0
1595, 0.0
1596, 0.0
1597, 0.0
1598, 0.0
1599, 0.0
