30, 0.0
31, 0.0
32, 0.0
33, 0.0
34, 0.0
35, 0.0
36, 0.0
37, 0.0
38, 0.0
39, 0.0
40, 0.0
41, 0.0
42, 0.0
43, 0.0
44, 0.0
45, 0.0
46, 0.0
47, 0.0
48, 0.0
49, 0.0
50, 0.0
51, 0.0
52, 0.0
53, 0.0
54, 0.0
55, 0.0
56, 0.0
57, 0.0
58, 0.0
59, 0.0
60, 0.0
61, 0.0
62, 0.0
63, 0.0
64, 0.0
65, 0.0
66, 0.0
67, 0.0
68, 0.0
69, 0.0
70, 0.0
71, 0.0
72, 0.0
73, 0.0
74, 0.0
75, 0.0
76, 0.0
77, 0.0
78, 0.0
79, 0.0
80, 0.0
81, 0.0
82, 0.0
83, 0.0
84, 0.0
85, 0.0
86, 0.0
87, 0.0
88, 0.0
89, 0.0
90, 0.0
91, 0.0
92, 0.0
93, 0.0
94, 0.0
95, 0.0
96, 0.0
97, 0.0
98, 0.0
99, 0.0
100, 0.0
101, 0.0
102, 0.0
103, 0.0
104, 0.0
105, 0.0
106, 0.0
107, 0.0
108, 0.0
109, 0.0
110, 0.0
111, 0.0
112, 0.0
113, 0.0
114, 0.0
115, 0.0
116, 0.0
117, 0.0
118, 0.0
119, 0.0
120, 0.0
121, 0.0
122, 0.0
123, 0.0
124, 0.0
125, 0.0
126, 0.0
127, 0.0
128, 0.0
129, 0.0
130, 0.0
131, 0.0
132, 0.0
133, 0.0
134, 0.0
135, 0.0
136, 0.0
137, 0.0
138.0, 0.00016780163313145306
139.0, 0.0018228064592429015
140.0, 0.02177852681605144
141.0, 0.04177250962829333
142.0, 0.05868710182611119
143.0, 0.09063702001261467
144.0, 0.1407960671173529
145.0, 0.18046613031409495
146.0, 0.2036845458144025
147.0, 0.21969275329704516
148.0, 0.24284122363844302
149.0, 0.24310299273132785
150.0, 0.23258280879507234
151.0, 0.20848650157536874
152.0, 0.15867696582825305
153.0, 0.14251790534622572
154.0, 0.12589213601531238
155.0, 0.10086118428411688
156.0, 0.06876447964866926
157.0, 0.019139152587846323
158.0, 0.01802143112946221
159.0, 0.020681895405445593
160.0, 0.010184390221767965
161.0, 0.027961190929298593
162.0, 0.03455302588031394
163.0, 0.04455897288602959
164.0, 0.05695353396154552
165.0, 0.0702958426680399
166.0, 0.09289338194575433
167.0, 0.1160166802865956
168.0, 0.13329580731363536
169.0, 0.15117499895634007
170.0, 0.1795612603768254
171.0, 0.17699034864898472
172.0, 0.18568492157591043
173.0, 0.19977786577101966
174.0, 0.18991795423362898
175.0, 0.16165015711439315
176.0, 0.1377484535578673
177.0, 0.12303978793510109
178.0, 0.11195701303448705
179.0, 0.07932182228950495
180.0, 0.05706969141069255
181.0, 0.046816419515622286
182.0, 0.03840126131489631
183.0, 0.021644560012726796
184.0, 0.017523626192801844
185.0, 0.01899178408394914
186.0, 0.01748848034650567
187.0, 0.008998644594034006
188.0, 0.002429032360011479
189.0, 0.010841690798322177
190.0, 0.0009702071973328183
191.0, 0.010369227041178191
192.0, 0.007019608106745514
193.0, 0.011559264598065402
194.0, 0.007357459969764953
195.0, 0.008200587416383812
196.0, 0.011788007326381729
197.0, 0.004418880166414772
198.0, 0.005507871847647789
199.0, 0.003990745766638094
200.0, 0.0026732145719333697
201.0, 0.0018109171453544386
202.0, 0.004207549995650682
203.0, 0.01711467377149293
204.0, 0.02768215028311071
205.0, 0.031687576161127454
206.0, 0.03844194259262563
207.0, 0.035194132755450844
208.0, 0.052068108656221815
209.0, 0.07093541205648467
210.0, 0.06670239359012968
211.0, 0.08272210353153177
212.0, 0.09872072928446322
213.0, 0.11007348428430809
214.0, 0.12457563517336598
215.0, 0.14264907015743816
216.0, 0.13556155834126715
217.0, 0.143025446570155
218.0, 0.15291875385718165
219.0, 0.1474690987269487
220.0, 0.12954274897114137
221.0, 0.12785562665619293
222.0, 0.13152276310014085
223.0, 0.1299737756658979
224.0, 0.12287759077105573
225.0, 0.1216157331708263
226.0, 0.12275445762015749
227.0, 0.12215867543962386
228.0, 0.12034977241047656
229.0, 0.12116076308676124
230.0, 0.1205596366476754
231.0, 0.13387587180281382
232.0, 0.13899597346555598
233.0, 0.11924827554105495
234.0, 0.11734228726197046
235.0, 0.12995635356294444
236.0, 0.12377282864779397
237.0, 0.10152165735001747
238.0, 0.0895124138074608
239.0, 0.07610262027450117
240.0, 0.07547902888973151
241.0, 0.08023195284594227
242.0, 0.08296203099619312
243.0, 0.08378965585843978
244.0, 0.0726879539508475
245.0, 0.07932229923393487
246.0, 0.0933622346478697
247.0, 0.10227497818539297
248.0, 0.10904911744803628
249.0, 0.11740677182658225
250.0, 0.1192274779777425
251.0, 0.11518484965526704
252.0, 0.11535122064224292
253.0, 0.12235742534935144
254.0, 0.11582130098954263
255.0, 0.1142955231032885
256.0, 0.12338886171095889
257.0, 0.13466410111507135
258.0, 0.1344744036582092
259.0, 0.1236593037401636
260.0, 0.11486973963061321
261.0, 0.10914056180584614
262.0, 0.09621571587799567
263.0, 0.09582317083939466
264.0, 0.09431104548744552
265.0, 0.08535734328914488
266.0, 0.0769321714647461
267.0, 0.07528780113629434
268.0, 0.06523209717256227
269.0, 0.05954370624534788
270.0, 0.049792958752542436
271.0, 0.05586467573005056
272.0, 0.04109360237733693
273.0, 0.05135867519241576
274.0, 0.05559311859603428
275.0, 0.04152551481784703
276.0, 0.024186760030416154
277.0, 0.012064756998146117
278.0, 0.012722493355710246
279.0, 0.024548602250685853
280.0, 0.030776135805037103
281.0, 0.017583033731203034
282.0, 0.00958535318575368
283.0, 0.01125530201102462
284.0, 0.016554573481104323
285.0, 0.014928604429710751
286.0, 0.002902856827330842
287.0, 0.010721195881116296
288.0, 0.00369223484466911
289.0, 0.008078598025862829
290.0, 0.0033622679665723286
291.0, 0.008346967767517265
292.0, 0.009566344119115028
293.0, 0.003044511734685899
294.0, 0.011807790154469235
295.0, 0.01907214223997631
296.0, 0.027415261766980926
297.0, 0.024765521910058517
298.0, 0.011730008833028861
299.0, 0.003352805786038172
300.0, 0.013171590312512143
301.0, 0.03112798956564802
302.0, 0.022929829038459998
303.0, 0.01615654981299453
304.0, 0.023675859074509253
305.0, 0.03510179454625843
306.0, 0.03518205759800833
307.0, 0.04349700861322415
308.0, 0.041585257994596225
309.0, 0.0370521554342603
310.0, 0.04466862683803455
311.0, 0.04506430560559469
312.0, 0.04116067527745696
313.0, 0.03838735941834494
314.0, 0.03827550990586111
315.0, 0.039159622341739225
316.0, 0.03930241072610628
317.0, 0.046944685653730424
318.0, 0.05289037788489926
319.0, 0.054953592812653496
320.0, 0.05732959245125431
321.0, 0.055277624604151504
322.0, 0.05831104226098599
323.0, 0.06580306211925277
324.0, 0.07374110406889413
325.0, 0.08257258774412145
326.0, 0.1028297087214665
327.0, 0.11452085448057843
328.0, 0.10884875420152637
329.0, 0.10348743205140917
330.0, 0.10954856020348058
331.0, 0.0983149267186119
332.0, 0.09997340510524126
333.0, 0.10060706592513755
334.0, 0.09448813747079558
335.0, 0.08714808163168754
336.0, 0.08406357415199302
337.0, 0.09010962462864586
338.0, 0.08453807334289051
339.0, 0.07481283653511289
340.0, 0.07353111698555007
341.0, 0.061964914254094644
342.0, 0.05816793007858045
343.0, 0.061587694844752565
344.0, 0.06773500117844518
345.0, 0.07216374411827081
346.0, 0.07036584190262214
347.0, 0.0888241714610192
348.0, 0.0919978666503339
349.0, 0.09102579608174395
350.0, 0.10222120675467043
351.0, 0.09402584644548077
352.0, 0.09931305382194748
353.0, 0.10474564800715548
354.0, 0.11129146734101883
355.0, 0.12320208911145858
356.0, 0.13509391987016617
357.0, 0.1508504022542431
358.0, 0.15551212287135874
359.0, 0.1617177623395912
360.0, 0.17582942755940165
361.0, 0.17914415000379263
362.0, 0.17820990214709087
363.0, 0.1904867352250685
364.0, 0.20027319823329112
365.0, 0.19256040747615577
366.0, 0.16875561351535556
367.0, 0.14240210004292278
368.0, 0.14283709711044268
369.0, 0.1307515700212226
370.0, 0.09645775019674167
371.0, 0.07728588672569187
372.0, 0.06973321211554971
373.0, 0.050788796028294274
374.0, 0.040869511787787985
375.0, 0.0359307664769312
376.0, 0.017781192061460754
377.0, 0.0014168329513549846
378.0, 0.012738726512894663
379.0, 0.012033973800298078
380.0, 0.013400409540677888
381.0, 0.018958880475649573
382.0, 0.003926124989752835
383.0, 0.0015329287048036957
384.0, 0.015151141099131111
385.0, 0.020415553562901093
386.0, 0.0036642565953602
387.0, 0.008194315944653474
388.0, 0.0027237546879824047
389.0, 0.004898574345691763
390.0, 0.015891123032677954
391.0, 0.02238640447193882
392.0, 0.02040016425582708
393.0, 0.03196972462214288
394.0, 0.04290044015409912
395.0, 0.052385400057527697
396.0, 0.06817455469446014
397.0, 0.08361124358984962
398.0, 0.07176973213102152
399.0, 0.09141622692634924
400.0, 0.09266505393739673
401.0, 0.09348228293897248
402.0, 0.1099674833847705
403.0, 0.1112270265162858
404.0, 0.10185225024314354
405.0, 0.0882091875596786
406.0, 0.08108953757771913
407.0, 0.08228348317442369
408.0, 0.0818105064908075
409.0, 0.06548998477064301
410.0, 0.054542283246289965
411.0, 0.04121686691087663
412.0, 0.032775266717616026
413.0, 0.03530239341889548
414.0, 0.03389755818442676
415.0, 0.027480371017947983
416.0, 0.020261145125540933
417.0, 0.01664312106059667
418.0, 0.01611679289970667
419.0, 0.012296191556485864
420.0, 0.002411442334870547
421.0, 0.0013744109937234065
422.0, 0.002517537305105832
423.0, 0.005181557462455082
424.0, 0.006254621593772441
425.0, 0.0025342118129676036
426.0, 0.003628639029452418
427.0, 0.00361207923723471
428.0, 0.003386698964153102
429.0, 0.015657372372868628
430.0, 0.047828674232864195
431.0, 0.04853687543044653
432.0, 0.054499600839154734
433.0, 0.06587248949985991
434.0, 0.07031099548018155
435.0, 0.09083554903031128
436.0, 0.08852999995593053
437.0, 0.09699917230069006
438.0, 0.10619770217820451
439.0, 0.11460832569955105
440.0, 0.12381884839268845
441.0, 0.13655502894505936
442.0, 0.14676870523251498
443.0, 0.14858296080013803
444.0, 0.1568488002302585
445.0, 0.17192593938586911
446.0, 0.18664741519393394
447.0, 0.21383039098715
448.0, 0.22638700555673516
449.0, 0.23250136948511396
450.0, 0.24541859063189558
451.0, 0.2684773315697332
452.0, 0.29167265001742526
453.0, 0.31937664219838874
454.0, 0.342356888914518
455.0, 0.35336053202815604
456.0, 0.37427423085992373
457.0, 0.415848866250512
458.0, 0.42546031016900604
459.0, 0.4431917313582219
460.0, 0.4602579316075889
461.0, 0.46430183647542583
462.0, 0.46020564597528846
463.0, 0.4616600313919914
464.0, 0.4232020957321723
465.0, 0.4177228096759214
466.0, 0.38878516447693795
467.0, 0.35569656570081637
468.0, 0.34733898606952884
469.0, 0.31592251596743015
470.0, 0.2925446422457958
471.0, 0.28062024281366216
472.0, 0.24523428916961573
473.0, 0.21033849132656363
474.0, 0.22532352148792079
475.0, 0.2140963505310409
476.0, 0.19099145922846994
477.0, 0.1887696974866409
478.0, 0.18715499672674415
479.0, 0.17327266669828859
480.0, 0.16687406624159554
481.0, 0.1587574172460895
482.0, 0.14641946806633402
483.0, 0.15268755596651912
484.0, 0.15939696632245348
485.0, 0.15097039871658555
486.0, 0.14286633901682816
487.0, 0.15638251514889523
488.0, 0.16449373290974714
489.0, 0.1651163702316728
490.0, 0.16218959759212806
491.0, 0.15215109247821568
492.0, 0.1285664530104416
493.0, 0.14037717742171318
494.0, 0.1381759269866623
495.0, 0.1390522320868997
496.0, 0.14710112007133846
497.0, 0.14623154402187946
498.0, 0.13451320677251363
499.0, 0.12783554241240766
500.0, 0.12776139058565075
501.0, 0.14128884801134248
502.0, 0.15733070524170048
503.0, 0.15283546833922287
504.0, 0.1425040267357107
505.0, 0.14860470940622236
506.0, 0.16051871700258696
507.0, 0.16472545210684464
508.0, 0.169113369921662
509.0, 0.18489864213351614
510.0, 0.18688637754944437
511.0, 0.1886672577921523
512.0, 0.19098412590827235
513.0, 0.18464012057682402
514.0, 0.17407252770514617
515.0, 0.1806517503754223
516.0, 0.17816036763332022
517.0, 0.156713818964843
518.0, 0.16811283517767983
519.0, 0.17695452389086727
520.0, 0.16037772094407124
521.0, 0.1511740863436647
522.0, 0.13952003742863356
523.0, 0.12313668154534527
524.0, 0.10997382806387618
525.0, 0.09931926428553442
526.0, 0.09182718750240701
527.0, 0.09175548795494105
528.0, 0.0836393356766863
529.0, 0.07520053820602475
530.0, 0.06308655305301092
531.0, 0.0516746546520132
532.0, 0.045806158618050166
533.0, 0.04291017056224364
534.0, 0.03973860931698325
535.0, 0.026329827109711046
536.0, 0.0191944557774504
537.0, 0.020992581785491748
538.0, 0.024209111527813673
539.0, 0.021739414133745655
540.0, 0.015606011704186325
541.0, 0.018378686284656165
542.0, 0.010541028271279347
543.0, 0.010272609752170616
544.0, 0.02077875267809022
545.0, 0.023281978681380933
546.0, 0.015118996197228441
547.0, 0.0022113456072593895
548.0, 0.009882385556022565
549.0, 0.016090340539900435
550.0, 0.005077694340497465
551.0, 0.0045769730893723045
552.0, 0.01218035119149997
553.0, 0.006025669580623019
554.0, 0.015896995815415225
555.0, 0.01636608342464537
556.0, 0.004117811265940826
557.0, 0.0008239031466676463
558.0, 0.004273165371460343
559.0, 0.00597317337376116
560.0, 0.009324325109326253
561.0, 0.014058503082284976
562.0, 0.009012945203545945
563.0, 0.002007132113759833
564.0, 0.004716668767728744
565.0, 0.011826732637628056
566.0, 0.0029517946687676743
567.0, 0.014778533505347503
568.0, 0.011027964567114754
569.0, 0.003083180190081818
570.0, 0.01297346534974472
571.0, 0.013022358310033094
572.0, 0.0055725733519031645
573.0, 0.008545893159887678
574.0, 0.0024816794604662967
575.0, 0.00503665570496371
576.0, 0.009201901443226366
577.0, 0.010261801598205462
578.0, 0.00182026570533857
579.0, 0.011233935818804055
580.0, 0.020804344776214047
581.0, 0.017291959618373546
582.0, 0.008430439728584885
583.0, 0.010463096863636017
584.0, 0.0177734682146958
585.0, 0.02413684728653096
586.0, 0.02349447140480074
587.0, 0.019075089753556845
588.0, 0.011806432600455555
589.0, 0.000694882232279223
590.0, 0.010729255627825285
591.0, 0.01254701660219296
592.0, 0.012306779153611018
593.0, 0.01545791711830457
594.0, 0.020490402711175262
595.0, 0.020988655652044177
596.0, 0.006716044866294098
597.0, 0.019682804137374655
598.0, 0.03130095173452077
599.0, 0.02800322272794495
600.0, 0.0189213804951604
601.0, 0.020277047252733164
602.0, 0.030985221082931884
603.0, 0.017638282180738724
604.0, 0.021988081485249195
605.0, 0.027273717242901528
606.0, 0.02995498463955839
607.0, 0.03134829786127542
608.0, 0.030602938857878122
609.0, 0.030405799360257484
610.0, 0.026782810354728574
611.0, 0.0188209457976184
612.0, 0.015672847317232667
613.0, 0.0160634562670284
614.0, 0.021218606814343052
615.0, 0.02930230954037447
616.0, 0.019029757189118608
617.0, 0.01886265191882169
618.0, 0.025833256686186575
619.0, 0.020746696769609475
620.0, 0.019195142778153502
621.0, 0.021120234928565705
622.0, 0.012938301677640101
623.0, 0.0020894881501582648
624.0, 0.003570008067940453
625.0, 0.011768848091153156
626.0, 0.018880159494291778
627.0, 0.02177369683645069
628.0, 0.020262690262059787
629.0, 0.014015412366378849
630.0, 0.008592018385296824
631.0, 0.0054034358819081765
632.0, 0.01667383830409965
633.0, 0.02478448278793384
634.0, 0.016758209908558495
635.0, 0.009461191353799149
636.0, 0.008581498514366237
637.0, 0.008423072436051905
638.0, 0.0008945513793435582
639.0, 0.01289666129072434
640.0, 0.03068538043957152
641.0, 0.01998913309678683
642.0, 0.01210901522428499
643.0, 0.010553919725704682
644.0, 0.02205570407809646
645.0, 0.03292958076971103
646.0, 0.03547575476508456
647.0, 0.02652136168641302
648.0, 0.015229675000273946
649.0, 0.02050554824332277
650.0, 0.02510520571753197
651.0, 0.031292396034509985
652.0, 0.03699889431279032
653.0, 0.032242176326553636
654.0, 0.023300922887172223
655.0, 0.018392609372173234
656.0, 0.010257943875725994
657.0, 0.019015450440628894
658.0, 0.021192654910779443
659.0, 0.020173193681647505
660.0, 0.018174335604051253
661.0, 0.01292273826487718
662.0, 0.006632912217865364
663.0, 0.005267971063146013
664.0, 0.013393250086497967
665.0, 0.01975128309604848
666.0, 0.01666148788501076
667.0, 0.010940324074812395
668.0, 0.015166388250854977
669.0, 0.022219816178034618
670.0, 0.009197497691276162
671.0, 0.010963183479081307
672.0, 0.014326500479234717
673.0, 0.01833423296524844
674.0, 0.02680899070928135
675.0, 0.025702088459669606
676.0, 0.006245708121027859
677.0, 0.013237217142335606
678.0, 0.01726713371709608
679.0, 0.01839051740762236
680.0, 0.012999740748346773
681.0, 0.012218328490904337
682.0, 0.021541321840761737
683.0, 0.030858646891815833
684.0, 0.03514189197150543
685.0, 0.02723691175282028
686.0, 0.021668192113231302
687.0, 0.011624865398388199
688.0, 0.022426044875372197
689.0, 0.02592213214999605
690.0, 0.008073986018713265
691.0, 0.01378571121044116
692.0, 0.026127528673160497
693.0, 0.007618814489489139
694.0, 0.006706761706124829
695.0, 0.012650266937438915
696.0, 0.01794727470402621
697.0, 0.016342088251513735
698.0, 0.0028898092009151757
699.0, 0.014421249729400398
700.0, 0.016907522245615425
701.0, 0.016481259992034498
702.0, 0.014884819567922761
703.0, 0.020659026159703824
704.0, 0.02011322586616811
705.0, 0.003050492469540287
706.0, 0.0009890835906164871
707.0, 0.001454790942299113
708.0, 0.009007167770748307
709.0, 0.006367338082091717
710.0, 0.0040439709030702636
711.0, 0.01083830786323742
712.0, 0.013511064737785508
713.0, 0.005069284835039385
714.0, 0.007605317498387109
715.0, 0.01593920227349093
716.0, 0.010932272072458614
717.0, 0.010034170761570569
718.0, 0.00989255119064547
719.0, 0.018028351357370746
720.0, 0.029625326776214142
721.0, 0.02634397694546474
722.0, 0.021223075067635034
723.0, 0.01896731098100395
724.0, 0.023052250757236988
725.0, 0.021914410752218533
726.0, 0.02287729837296329
727.0, 0.026014466571505464
728.0, 0.013842114233301313
729.0, 0.0052062052285829245
730.0, 0.023760336388666425
731.0, 0.008364567741982439
732.0, 0.015535918144255752
733.0, 0.022567993948389375
734.0, 0.009165261715301878
735.0, 0.008587131309610647
736.0, 0.006335103577095996
737.0, 0.009608134322602777
738.0, 0.013009789723320179
739.0, 0.0019751401374032973
740.0, 0.007278252220478952
741.0, 0.02065904591754633
742.0, 0.007359965195280097
743.0, 0.0016923752706506975
744.0, 0.004205126107357264
745.0, 0.01645473093178453
746.0, 0.012182218419954705
747.0, 0.014367154644231241
748.0, 0.008537309213550223
749.0, 0.020824036933929473
750.0, 0.012233279140921703
751.0, 0.002664111555720477
752.0, 0.00636145594435098
753.0, 0.02103691932760883
754.0, 0.009021243071952375
755.0, 0.007671226330812558
756.0, 0.007683822494620978
757.0, 0.008577266167530401
758.0, 0.013907215410367161
759.0, 0.0037554038515425184
760.0, 0.0041581220054828505
761.0, 0.01910042877453968
762.0, 0.02037297337526314
763.0, 0.01181860888389852
764.0, 0.021012160579431352
765.0, 0.02181504663029078
766.0, 0.008269967246350688
767.0, 0.012630738564597455
768.0, 0.009466408802306883
769.0, 0.0018898042603580736
770.0, 0.020820851202783847
771.0, 0.006771868043664613
772.0, 0.007632926906675315
773.0, 0.005119260727625615
774.0, 0.009192006431128698
775.0, 0.01994410501882618
776.0, 0.003949969140467333
777.0, 0.012634145657190982
778.0, 0.02062149774829282
779.0, 0.014547385224513761
780.0, 0.02655590398230222
781.0, 0.026783845224079714
782.0, 0.024890678479725148
783.0, 0.04294801356344718
784.0, 0.009118558310112905
785.0, 0.022608961584160536
786.0, 0.024218693706907365
787.0, 0.04194155324928553
788.0, 0.046488634370795826
789.0, 0.035362419032429204
790.0, 0.034343247594972426
791.0, 0.04574849173738863
792.0, 0.04893034818887701
793.0, 0.05529137595976745
794.0, 0.06302676445868931
795.0, 0.06842081331026813
796.0, 0.06604712285264955
797.0, 0.08619870033522384
798.0, 0.09108272518150014
799.0, 0.059608244945549574
800.0, 0.06368526099137775
801.0, 0.09349687138684452
802.0, 0.08281552622008442
803.0, 0.09911182236880581
804.0, 0.12313690563732636
805.0, 0.14298964083588875
806.0, 0.16755428711372153
807.0, 0.18628367018337627
808.0, 0.19809446260117064
809.0, 0.22956305206411504
810.0, 0.24709032635752498
811.0, 0.26753176661861466
812.0, 0.2940242911872537
813.0, 0.33238170751300633
814.0, 0.35596230657601774
815.0, 0.37324965161561163
816.0, 0.39575405883529574
817.0, 0.41015726772221334
818.0, 0.4247204477254718
819.0, 0.42564089340355815
820.0, 0.4433620018678303
821.0, 0.43867661153523524
822.0, 0.4165397280914348
823.0, 0.4019485594640972
824.0, 0.41020870402193965
825.0, 0.4245016407802137
826.0, 0.40420524165703164
827.0, 0.39609752353585187
828.0, 0.44285202349381597
829.0, 0.4549223797356834
830.0, 0.49620399354772876
831.0, 0.5277154184752826
832.0, 0.5644839708279327
833.0, 0.6093460238938927
834.0, 0.645886325382149
835.0, 0.7004297898888698
836.0, 0.771678277003017
837.0, 0.8280669196295622
838.0, 0.8805828304073668
839.0, 0.9259183862865572
840.0, 0.9559068649400964
841.0, 0.9827688156247788
842.0, 0.9984403437802267
843.0, 0.9832905709766181
844.0, 0.9617222810285586
845.0, 0.9414888348252658
846.0, 0.8929912527702516
847.0, 0.8338326718361135
848.0, 0.7812186365784305
849.0, 0.7065158970626555
850.0, 0.6547296696197837
851.0, 0.6078767609266944
852.0, 0.5390198397108983
853.0, 0.49418533677670823
854.0, 0.4692651961333476
855.0, 0.4244678488310617
856.0, 0.39574417961449254
857.0, 0.36554913513722254
858.0, 0.3241925355518412
859.0, 0.2932323724461933
860.0, 0.287689916717983
861.0, 0.2876664447307225
862.0, 0.27047128374060103
863.0, 0.24754217143697482
864.0, 0.23220985727476998
865.0, 0.21166101299276013
866.0, 0.2045600360347096
867.0, 0.2066520841706137
868.0, 0.2027376343677982
869.0, 0.18252163153450165
870.0, 0.16474122332896865
871.0, 0.1692552492056065
872.0, 0.16922773415419387
873.0, 0.14642281356787248
874.0, 0.14119313646886764
875.0, 0.13514134048952922
876.0, 0.12058705267805239
877.0, 0.11613356163073375
878.0, 0.11080042473938732
879.0, 0.0993046902178969
880.0, 0.10023408145013071
881.0, 0.10474378307054982
882.0, 0.07980777773354196
883.0, 0.08576829547673301
884.0, 0.08345247407715839
885.0, 0.06203651673498161
886.0, 0.060808206063793245
887.0, 0.05959221866900311
888.0, 0.05778343400151295
889.0, 0.04968867182711146
890.0, 0.04077311122238942
891.0, 0.04800287411147322
892.0, 0.02781135803434462
893.0, 0.00396402728575127
894.0, 0.014751610007261131
895.0, 0.014015903226680929
896.0, 0.019673406384782537
897.0, 0.023830536861177188
898.0, 0.020364820127073958
899.0, 0.008990212653913178
900.0, 0.0035356204704156346
901.0, 0.004377664216398651
902.0, 0.00031580812210423763
903.0, 0.0020576586749404832
904.0, 0.0014732316391740286
905.0, 0.0012492138962664086
906.0, 0.014309081057595608
907.0, 0.004615981939888229
908.0, 0.005859690794948826
909.0, 0.006060675961117331
910.0, 0.011640719696322247
911.0, 0.0033557660201346223
912.0, 0.011126068600062195
913.0, 0.01789259995456197
914.0, 0.0036707987809889036
915.0, 0.007178636279682231
916.0, 0.00554119940205679
917.0, 0.00799561994248129
918.0, 0.015227243918461985
919.0, 0.008776366197357669
920.0, 0.0020084906878712104
921.0, 0.003627067238412482
922.0, 0.004881652213517732
923.0, 0.0011540932286213798
924.0, 0.00022856778078538429
925.0, 0.0010701143453598569
926.0, 0.004637501149326161
927.0, 0.0012280954350344848
928.0, 0.00385875068115492
929.0, 0.003608468364954569
930.0, 0.008562272184838205
931.0, 0.0035344774185639104
932.0, 0.004516539739280959
933.0, 0.009892625143993895
934.0, 0.0030482618496270163
935.0, 0.016797319157074865
936.0, 0.00787727080785157
937.0, 0.004213123605628446
938.0, 0.004203468091834942
939.0, 0.00640401291875893
940.0, 0.008138684217630499
941.0, 0.005333600102653226
942.0, 0.003160929829830245
943.0, 0.005022719959438626
944.0, 0.0005285614636684351
945.0, 0.006442904588341696
946.0, 0.01040982440594648
947.0, 0.004974493254557329
948.0, 0.00835635626283339
949.0, 0.00787290259005904
950.0, 0.015782595391200954
951.0, 0.02909329384165555
952.0, 0.03294148252549756
953.0, 0.032102835842974284
954.0, 0.028061455470165732
955.0, 0.016801056061211492
956.0, 0.020699038397043425
957.0, 0.022374578841516314
958.0, 0.031107054230711747
959.0, 0.02000422181203098
960.0, 0.016013461600747254
961.0, 0.027440903087446962
962.0, 0.04415066381542181
963.0, 0.044236187779260576
964.0, 0.028995195494892972
965.0, 0.027023707256877753
966.0, 0.026559323152581835
967.0, 0.004096774634232825
968.0, 0.0021359727241352902
969.0, 0.03520403601820698
970.0, 0.03396167199364962
971.0, 0.021386320979719597
972.0, 0.02437482584001177
973.0, 0.03338315006918368
974.0, 0.02699683635150104
975.0, 0.016518564356402258
976.0, 0.009007029166264263
977.0, 0.0033461824794123163
978.0, 0.010254121819223166
979.0, 0.007067671027949455
980.0, 0.025540521706563263
981.0, 0.020546500543526615
982.0, 0.024852204463069207
983.0, 0.027116972182279042
984.0, 0.024513209528725252
985.0, 0.018312571416024832
986.0, 0.012674908562008364
987.0, 0.012156239688267404
988.0, 0.013146768920037324
989.0, 0.014993234654110149
990.0, 0.020402618512399995
991.0, 0.014128824194439454
992.0, 0.012962241106522658
993.0, 0.005851619780727098
994.0, 0.01068430894798052
995.0, 0.016534036671878964
996.0, 0.008969979338029684
997.0, 0.017780869829021134
998.0, 0.02825078721969997
999.0, 0.01768365577378237
1000.0, 0.010749288986552691
1001.0, 0.020130779615672126
1002.0, 0.03228033635978647
1003.0, 0.025206420216077816
1004.0, 0.014429358487096852
1005.0, 0.027300849419155487
1006.0, 0.03207594898452584
1007.0, 0.018146572734698316
1008.0, 0.024813804042396977
1009.0, 0.01916182494421619
1010.0, 0.021016208540021765
1011.0, 0.021446130263584114
1012.0, 0.011050808853213672
1013.0, 0.009074417073170263
1014.0, 0.013684271930861388
1015.0, 0.016207619596504956
1016.0, 0.02861902459968833
1017.0, 0.020689355121908382
1018.0, 0.012569663223935773
1019.0, 0.018038073539120927
1020.0, 0.011769301293217118
1021.0, 0.02707654113560129
1022.0, 0.00881043815773181
1023.0, 0.015903306344459533
1024.0, 0.01195088390909697
1025.0, 0.002820394204750867
1026.0, 0.013804082498718813
1027.0, 0.027116040418008358
1028.0, 0.019395848798514425
1029.0, 0.024136520465753642
1030.0, 0.01407426217108634
1031.0, 0.017429307750481907
1032.0, 0.026248911629737855
1033.0, 0.0463392786533659
1034.0, 0.009971511706256441
1035.0, 0.008156243506521069
1036.0, 0.021293404118876508
1037.0, 0.016120586110330945
1038.0, 0.022592816299548738
1039.0, 0.028453903532064548
1040.0, 0.017390427342418958
1041.0, 0.022274367692851595
1042.0, 0.04224926879280937
1043.0, 0.03431425132096072
1044.0, 0.025255781657740013
1045.0, 0.024755760776320402
1046.0, 0.009629526832149984
1047.0, 0.01242814110905452
1048.0, 0.012923723370828501
1049.0, 0.009749837164071124
1050.0, 0.020406027002357878
1051.0, 0.026246086453002502
1052.0, 0.022985338389691034
1053.0, 0.018820830498243377
1054.0, 0.011813219771346691
1055.0, 0.007234598233800964
1056.0, 0.00749225340236137
1057.0, 0.01482446448225476
1058.0, 0.023926174520671636
1059.0, 0.014706440343910731
1060.0, 0.0020863135816698787
1061.0, 0.0057067137421203465
1062.0, 0.01768211535112626
1063.0, 0.017518066389867974
1064.0, 0.022791237375610927
1065.0, 0.013504734798419715
1066.0, 0.017415746111241262
1067.0, 0.026912771240761562
1068.0, 0.027267073230236517
1069.0, 0.030229292262969294
1070.0, 0.025367203109782913
1071.0, 0.01987108704356574
1072.0, 0.019188784992063418
1073.0, 0.012963423212562206
1074.0, 0.027611687192691848
1075.0, 0.01928031122733138
1076.0, 0.03159223971807136
1077.0, 0.0040492857911479515
1078.0, 0.016286711823077546
1079.0, 0.014571403100438331
1080.0, 0.008624799312224823
1081.0, 0.0028172169371585014
1082.0, 0.011269674425838672
1083.0, 0.009152603821342154
1084.0, 0.006170365443118477
1085.0, 0.016003118647354108
1086.0, 0.0010698642206614683
1087.0, 0.008047520440516697
1088.0, 0.017915980019228013
1089.0, 0.008521261836658849
1090.0, 0.010150030569831058
1091.0, 0.0008728910548961013
1092.0, 0.011911880530561279
1093.0, 0.013360430947093738
1094.0, 0.00416303066392949
1095.0, 0.0008205186089410305
1096.0, 0.008803050282523027
1097.0, 0.015785035357415517
1098.0, 0.006858665646038801
1099.0, 0.007313347190705952
1100.0, 0.016334444647807984
1101.0, 0.008241473083676489
1102.0, 0.002501378601583188
1103.0, 0.012238661473792965
1104.0, 0.02696112513731474
1105.0, 0.021288742975716618
1106.0, 0.02040023516835617
1107.0, 0.02753829586905362
1108.0, 0.007358474642076512
1109.0, 0.01379207668096825
1110.0, 0.020556829071747378
1111.0, 0.010577074793577439
1112.0, 0.019433741404330726
1113.0, 0.01045684889160422
1114.0, 0.01147733362191403
1115.0, 0.023083716836449605
1116.0, 0.0290713133484354
1117.0, 0.02864370568002473
1118.0, 0.01810642743525637
1119.0, 0.00942632196750302
1120.0, 0.007648000306969796
1121.0, 0.0064344478572959
1122.0, 0.010635614854034603
1123.0, 0.013014768257719713
1124.0, 0.002775293512785676
1125.0, 0.008951840062845067
1126.0, 0.0040176411618525875
1127.0, 0.008940504438898246
1128.0, 0.005156198112011246
1129.0, 0.02769520606765926
1130.0, 0.004969417448359168
1131.0, 0.0012204919821395034
1132.0, 0.011672596996303242
1133.0, 0.002505731317184486
1134.0, 0.00966541826961582
1135.0, 0.029212856125785665
1136.0, 0.033963498489459246
1137.0, 0.025927878836053835
1138.0, 0.013536138143863079
1139.0, 0.02217136351524893
1140.0, 0.02221883755119059
1141.0, 0.009280675946017563
1142.0, 0.006647494558631881
1143.0, 0.005195200648109511
1144.0, 0.02672736448623924
1145.0, 0.019265351750935293
1146.0, 0.00919937025240181
1147.0, 0.016285567805055037
1148.0, 0.011172757939583758
1149.0, 0.006606962781410489
1150.0, 0.012876198329995057
1151.0, 0.010705091861429348
1152.0, 0.008733533960168427
1153.0, 0.007314845023901434
1154.0, 0.02284983380359048
1155.0, 0.009231044413602726
1156.0, 0.011367100571555124
1157.0, 0.015667755419724313
1158.0, 0.008793200301528222
1159.0, 0.00897387793632503
1160.0, 0.007856186796268611
1161.0, 0.006992852292326478
1162.0, 0.004050821703501735
1163.0, 0.007299765059630471
1164.0, 0.004878427859460231
1165.0, 0.01682988247565644
1166.0, 0.010368382632335544
1167.0, 0.00177804075763985
1168.0, 0.008023732440262606
1169.0, 0.01438819150362661
1170.0, 0.021542069672850786
1171.0, 0.015814719455998716
1172.0, 0.011338096088825822
1173.0, 0.01713050281414254
1174.0, 0.013091798782645811
1175.0, 0.003386865445321174
1176.0, 0.010639118613046415
1177.0, 0.017117067421371746
1178.0, 0.011549087017363817
1179.0, 0.015254336713846172
1180.0, 0.024756061843119584
1181.0, 0.028141897271221225
1182.0, 0.019256936741053617
1183.0, 0.01825268347825244
1184.0, 0.013300489817436001
1185.0, 0.017111590199926766
1186.0, 0.040171166652191184
1187.0, 0.0231299215471066
1188.0, 0.02327653126896363
1189.0, 0.021922850062209193
1190.0, 0.0083261287455134
1191.0, 0.013310244813987697
1192.0, 0.017074019636455256
1193.0, 0.012211261624460752
1194.0, 0.026109985005993697
1195.0, 0.029394189738925942
1196.0, 0.02309985810993061
1197.0, 0.0187950223371024
1198.0, 0.011607729941433654
1199.0, 0.012680667291513983
1200.0, 0.006499200436515319
1201.0, 0.009218595831437831
1202.0, 0.015975827869101726
1203.0, 0.005709045050687285
1204.0, 0.00028198904413705226
1205.0, 0.0022149907876472573
1206.0, 0.006475356953884374
1207.0, 0.0029602077128343747
1208.0, 0.002529111648427304
1209.0, 0.011520933290252944
1210.0, 0.017276352765321912
1211.0, 0.035101226137548486
1212.0, 0.008514788706113502
1213.0, 0.012006316475871588
1214.0, 0.020418946459294197
1215.0, 0.003722848778173556
1216.0, 0.029555250098080164
1217.0, 0.040549098902027444
1218.0, 0.02100201439517337
1219.0, 0.010180729067145126
1220.0, 0.03459238820597143
1221.0, 0.013617376340255664
1222.0, 0.0038825954370366638
1223.0, 0.021804272739540706
1224.0, 0.02501647055088144
1225.0, 0.025700310014178662
1226.0, 0.026256287806028608
1227.0, 0.021627549139528936
1228.0, 0.021796860038143344
1229.0, 0.017231328087686043
1230.0, 0.010776848046046918
1231.0, 0.012424387268787165
1232.0, 0.026922218605158484
1233.0, 0.035171981682565814
1234.0, 0.01574399457383388
1235.0, 0.007542372543049841
1236.0, 0.0013889632818009415
1237.0, 0.002706624881261676
1238.0, 0.0028076168037420926
1239.0, 0.008344513900409165
1240.0, 0.0064776172016265034
1241.0, 0.0038544185128119085
1242.0, 0.0031789807282273834
1243.0, 0.03279820623177159
1244.0, 0.03803068931888614
1245.0, 0.024585159322223115
1246.0, 0.026381971306417992
1247.0, 0.02465020666328698
1248.0, 0.03435071668842296
1249.0, 0.031325882446733885
1250.0, 0.03327133534586902
1251.0, 0.022772284242090688
1252.0, 0.009587754297518463
1253.0, 0.01890736015640971
1254.0, 0.008753348688407114
1255.0, 0.02497507128005043
1256.0, 0.03411717870091827
1257.0, 0.0281366223167566
1258.0, 0.018519027372975762
1259.0, 0.011427470876303433
1260.0, 0.004838466027837249
1261.0, 0.007520399337182952
1262.0, 0.012981409829579807
1263.0, 0.0187809105640298
1264.0, 0.00789172710137334
1265, 0.0
1266, 0.0
1267, 0.0
1268, 0.0
1269, 0.0
1270, 0.0
1271, 0.0
1272, 0.0
1273, 0.0
1274, 0.0
1275, 0.0
1276, 0.0
1277, 0.0
1278, 0.0
1279, 0.0
1280, 0.0
1281, 0.0
1282, 0.0
1283, 0.0
1284, 0.0
1285, 0.0
1286, 0.0
1287, 0.0
1288, 0.0
1289, 0.0
1290, 0.0
1291, 0.0
1292, 0.0
1293, 0.0
1294, 0.0
1295, 0.0
1296, 0.0
1297, 0.0
1298, 0.0
1299, 0.0
1300, 0.0
1301, 0.0
1302, 0.0
1303, 0.0
1304, 0.0
1305, 0.0
1306, 0.0
1307, 0.0
1308, 0.0
1309, 0.0
1310, 0.0
1311, 0.0
1312, 0.0
1313, 0.0
1314, 0.0
1315, 0.0
1316, 0.0
1317, 0.0
1318, 0.0
1319, 0.0
1320, 0.0
1321, 0.0
1322, 0.0
1323, 0.0
1324, 0.0
1325, 0.0
1326, 0.0
1327, 0.0
1328, 0.0
1329, 0.0
1330, 0.0
1331, 0.0
1332, 0.0
1333, 0.0
1334, 0.0
1335, 0.0
1336, 0.0
1337, 0.0
1338, 0.0
1339, 0.0
1340, 0.0
1341, 0.0
1342, 0.0
1343, 0.0
1344, 0.0
1345, 0.0
1346, 0.0
1347, 0.0
1348, 0.0
1349, 0.0
1350, 0.0
1351, 0.0
1352, 0.0
1353, 0.0
1354, 0.0
1355, 0.0
1356, 0.0
1357, 0.0
1358, 0.0
1359, 0.0
1360, 0.0
1361, 0.0
1362, 0.0
1363, 0.0
1364, 0.0
1365, 0.0
1366, 0.0
1367, 0.0
1368, 0.0
1369, 0.0
1370, 0.0
1371, 0.0
1372, 0.0
1373, 0.0
1374, 0.0
1375, 0.0
1376, 0.0
1377, 0.0
1378, 0.0
1379, 0.0
1380, 0.0
1381, 0.0
1382, 0.0
1383, 0.0
1384, 0.0
1385, 0.0
1386, 0.0
1387, 0.0
1388, 0.0
1389, 0.0
1390, 0.0
1391, 0.0
1392, 0.0
1393, 0.0
1394, 0.0
1395, 0.0
1396, 0.0
1397, 0.0
1398, 0.0
1399, 0.0
1400, 0.0
1401, 0.0
1402, 0.0
1403, 0.0
1404, 0.0
1405, 0.0
1406, 0.0
1407, 0.0
1408, 0.0
1409, 0.0
1410, 0.0
1411, 0.0
1412, 0.0
1413, 0.0
1414, 0.0
1415, 0.0
1416, 0.0
1417, 0.0
1418, 0.0
1419, 0.0
1420, 0.0
1421, 0.0
1422, 0.0
1423, 0.0
1424, 0.0
1425, 0.0
1426, 0.0
1427, 0.0
1428, 0.0
1429, 0.0
1430, 0.0
1431, 0.0
1432, 0.0
1433, 0.0
1434, 0.0
1435, 0.0
1436, 0.0
1437, 0.0
1438, 0.0
1439, 0.0
1440, 0.0
1441, 0.0
1442, 0.0
1443, 0.0
1444, 0.0
1445, 0.0
1446, 0.0
1447, 0.0
1448, 0.0
1449, 0.0
1450, 0.0
1451, 0.0
1452, 0.0
1453, 0.0
1454, 0.0
1455, 0.0
1456, 0.0
1457, 0.0
1458, 0.0
1459, 0.0
1460, 0.0
1461, 0.0
1462, 0.0
1463, 0.0
1464, 0.0
1465, 0.0
1466, 0.0
1467, 0.0
1468, 0.0
1469, 0.0
1470, 0.0
1471, 0.0
1472, 0.0
1473, 0.0
1474, 0.0
1475, 0.0
1476, 0.0
1477, 0.0
1478, 0.0
1479, 0.0
1480, 0.0
1481, 0.0
1482, 0.0
1483, 0.0
1484, 0.0
1485, 0.0
1486, 0.0
1487, 0.0
1488, 0.0
1489, 0.0
1490, 0.0
1491, 0.0
1492, 0.0
1493, 0.0
1494, 0.0
1495, 0.0
1496, 0.0
1497, 0.0
1498, 0.0
1499, 0.0
1500, 0.0
1501, 0.0
1502, 0.0
1503, 0.0
1504, 0.0
1505, 0.0
1506, 0.0
1507, 0.0
1508, 0.0
1509, 0.0
1510, 0.0
1511, 0.0
1512, 0.0
1513, 0.0
1514, 0.0
1515, 0.0
1516, 0.0
1517, 0.0
1518, 0.0
1519, 0.0
1520, 0.0
1521, 0.0
1522, 0.0
1523, 0.0
1524, 0.0
1525, 0.0
1526, 0.0
1527, 0.0
1528, 0.0
1529, 0.0
1530, 0.0
1531, 0.0
1532, 0.0
1533, 0.0
1534, 0.0
1535, 0.0
1536, 0.0
1537, 0.0
1538, 0.0
1539, 0.0
1540, 0.0
1541, 0.0
1542, 0.0
1543, 0.0
1544, 0.0
1545, 0.0
1546, 0.0
1547, 0.0
1548, 0.0
1549, 0.0
1550, 0.0
1551, 0.0
1552, 0.0
1553, 0.0
1554, 0.0
1555, 0.0
1556, 0.0
1557, 0.0
1558, 0.0
1559, 0.0
1560, 0.0
1561, 0.0
1562, 0.0
1563, 0.0
1564, 0.0
1565, 0.0
1566, 0.0
1567, 0.0
1568, 0.0
1569, 0.0
1570, 0.0
1571, 0.0
1572, 0.0
1573, 0.0
1574, 0.0
1575, 0.0
1576, 0.0
1577, 0.0
1578, 0.0
1579, 0.0
1580, 0.0
1581, 0.0
1582, 0.0
1583, 0.0
1584, 0.0
1585, 0.0
1586, 0.0
1587, 0.0
1588, 0.0
1589, 0.0
1590, 0.0
1591, 0.0
1592, 0.0
1593, 0.0
1594, 0.0
1595, 0.0
1596, 0.0
1597, 0.0
1598, 0.0
1599, 0.0
