30, 0.0
31, 0.0
32, 0.0
33, 0.0
34, 0.0
35, 0.0
36, 0.0
37, 0.0
38, 0.0
39, 0.0
40, 0.0
41, 0.0
42, 0.0
43, 0.0
44, 0.0
45, 0.0
46, 0.0
47, 0.0
48, 0.0
49, 0.0
50, 0.0
51, 0.0
52, 0.0
53, 0.0
54, 0.0
55, 0.0
56, 0.0
57, 0.0
58, 0.0
59, 0.0
60, 0.0
61, 0.0
62, 0.0
63, 0.0
64, 0.0
65, 0.0
66, 0.0
67, 0.0
68, 0.0
69, 0.0
70, 0.0
71, 0.0
72, 0.0
73, 0.0
74, 0.0
75, 0.0
76, 0.0
77, 0.0
78, 0.0
79, 0.0
80, 0.0
81, 0.0
82, 0.0
83, 0.0
84, 0.0
85, 0.0
86, 0.0
87, 0.0
88, 0.0
89, 0.0
90, 0.0
91, 0.0
92, 0.0
93, 0.0
94, 0.0
95, 0.0
96, 0.0
97, 0.0
98, 0.0
99, 0.0
100, 0.0
101, 0.0
102, 0.0
103, 0.0
104, 0.0
105, 0.0
106, 0.0
107, 0.0
108, 0.0
109, 0.0
110, 0.0
111, 0.0
112, 0.0
113, 0.0
114, 0.0
115, 0.0
116, 0.0
117, 0.0
118, 0.0
119, 0.0
120, 0.0
121.0, 0.002290853134338423
122.0, 0.006372801843093884
123.0, 0.005453698188624797
124.0, 0.00938134167545534
125.0, 0.014803179601895224
126.0, 0.01929617665154918
127.0, 0.02233947958694086
128.0, 0.02722542507233757
129.0, 0.03175705094552517
130.0, 0.026027238867844443
131.0, 0.02663043203320012
132.0, 0.024873365344207074
133.0, 0.016358280457157457
134.0, 0.012383639248772726
135.0, 0.007576268027260693
136.0, 0.0028720211968646797
137.0, 0.0004125743058619542
138.0, 0.000788617717130953
139.0, 0.001791382002408191
140.0, 0.002752352818849113
141.0, 0.0018106001498603525
142.0, 0.002215580746616318
143.0, 0.002988930213932561
144.0, 0.0030942990221779288
145.0, 0.009530373809403346
146.0, 0.012440178302771172
147.0, 0.012169110881939116
148.0, 0.016257962457111544
149.0, 0.019173407185000952
150.0, 0.023030196487753993
151.0, 0.029205136259127885
152.0, 0.03064252387326725
153.0, 0.034150367227742784
154.0, 0.03942925242923903
155.0, 0.0458658203561947
156.0, 0.05051404309643938
157.0, 0.057388793407994694
158.0, 0.0670665650170909
159.0, 0.07006426013482991
160.0, 0.07548889755877707
161.0, 0.08287675875868661
162.0, 0.09220182889684911
163.0, 0.10411911915972859
164.0, 0.11599531196213511
165.0, 0.1282199660388726
166.0, 0.1439652266720643
167.0, 0.16188896535914443
168.0, 0.18118132965882247
169.0, 0.20159912407213035
170.0, 0.22136239863647403
171.0, 0.24567658293898326
172.0, 0.2734085756517904
173.0, 0.3031419065078293
174.0, 0.347752900324085
175.0, 0.39140527540643977
176.0, 0.4317394468647203
177.0, 0.47614710588940995
178.0, 0.5095634592945679
179.0, 0.5388203645986746
180.0, 0.5684729660425226
181.0, 0.5680133298276067
182.0, 0.549344057192603
183.0, 0.5171666741924772
184.0, 0.4804077687428063
185.0, 0.4275218290857385
186.0, 0.37637297478477233
187.0, 0.33195414893410474
188.0, 0.2854392503066906
189.0, 0.24950509705299
190.0, 0.2197544329611333
191.0, 0.192840060672385
192.0, 0.17708127447634792
193.0, 0.16402011030788186
194.0, 0.15192301667465843
195.0, 0.13728839762856324
196.0, 0.12887146881463857
197.0, 0.1197281763511737
198.0, 0.10756073533152843
199.0, 0.10396610986321765
200.0, 0.09583083666551812
201.0, 0.0861920628343476
202.0, 0.07867039219248695
203.0, 0.07491238932514015
204.0, 0.07122560699439028
205.0, 0.0678581491616774
206.0, 0.06777794769041126
207.0, 0.06783876967853938
208.0, 0.07094537607357751
209.0, 0.07851014872525743
210.0, 0.08626377829962073
211.0, 0.09257783974156986
212.0, 0.10054761230151248
213.0, 0.11480420859938979
214.0, 0.12820900889134038
215.0, 0.14554932394981618
216.0, 0.16581807986986405
217.0, 0.18239813299357474
218.0, 0.19924879175300025
219.0, 0.2186727629626478
220.0, 0.24107867592473342
221.0, 0.24381385496286886
222.0, 0.24655134880319404
223.0, 0.24364900344683976
224.0, 0.2266637895144213
225.0, 0.2108052668570843
226.0, 0.19016288817906357
227.0, 0.1663558343586411
228.0, 0.14751066302338986
229.0, 0.1306396245751461
230.0, 0.11355962680225165
231.0, 0.09602374916752734
232.0, 0.08795476991949036
233.0, 0.07615282049887988
234.0, 0.0643404183028338
235.0, 0.056451384407999114
236.0, 0.04819624967581412
237.0, 0.04161697010619207
238.0, 0.03649746017148416
239.0, 0.03202143616241815
240.0, 0.024895271093267602
241.0, 0.02152563359775656
242.0, 0.022614639305988633
243.0, 0.015914595564970824
244.0, 0.014654778895409157
245.0, 0.014806419087473868
246.0, 0.013500576606623871
247.0, 0.0135993716099377
248.0, 0.015119700190186321
249.0, 0.01698869258657208
250.0, 0.017080084872278026
251.0, 0.022554439346393958
252.0, 0.027387898718062395
253.0, 0.031306973828434205
254.0, 0.038880941561835185
255.0, 0.04948454247903011
256.0, 0.059692928549099286
257.0, 0.06800323046810695
258.0, 0.08166877393833528
259.0, 0.08707229793857182
260.0, 0.08783741297331336
261.0, 0.08767578239483195
262.0, 0.07576362527051435
263.0, 0.06419934300997665
264.0, 0.053730986520912835
265.0, 0.04353905588378453
266.0, 0.03519259149505169
267.0, 0.0285483931049046
268.0, 0.0232406571443836
269.0, 0.01589933872489475
270.0, 0.012536325907009786
271.0, 0.010121862547796293
272.0, 0.006742053878448256
273.0, 0.003835056825256887
274.0, 0.002846630268082644
275.0, 0.00261605503452407
276.0, 0.0013838415199722708
277.0, 0.0015851326498317628
278.0, 0.0015241953121882025
279.0, 0.0013583009403921888
280.0, 0.0024293076707699573
281.0, 0.0013798545190918726
282.0, 0.0016014488314159423
283.0, 0.003653218331720982
284.0, 0.001252134706921031
285.0, 0.0032180449722213358
286.0, 0.0048159302275861985
287.0, 0.0025967983716650572
288.0, 0.004050371463992925
289.0, 0.004420957896637693
290.0, 0.004412304012821101
291.0, 0.005181888409430375
292.0, 0.007021186147853183
293.0, 0.006456403784060189
294.0, 0.004701906638060626
295.0, 0.007293057039149591
296.0, 0.006077047307643939
297.0, 0.004651804462073457
298.0, 0.003935377821605452
299.0, 0.002657775523423704
300.0, 0.0015302945630493849
301.0, 0.0016462232495520908
302.0, 0.0037271351164507144
303.0, 0.003033869126694767
304.0, 0.0016144214698075368
305.0, 0.001200318569049925
306.0, 0.004180007779381545
307.0, 0.005723162912745425
308.0, 0.00477355060640017
309.0, 0.0032962513242174043
310.0, 0.006494417867318046
311.0, 0.00553114597971242
312.0, 0.006112068572375487
313.0, 0.008956397523042697
314.0, 0.0114024560329683
315.0, 0.011382668851349718
316.0, 0.013586870834287957
317.0, 0.019551032198616477
318.0, 0.02002071098692723
319.0, 0.022091193315827064
320.0, 0.024623090691419717
321.0, 0.026730942782831942
322.0, 0.030477086987180546
323.0, 0.032432527796470455
324.0, 0.03337398840650922
325.0, 0.03448097615830122
326.0, 0.03889253622933803
327.0, 0.04017469834817331
328.0, 0.039714417749309526
329.0, 0.0432291909370699
330.0, 0.044125481692381695
331.0, 0.04516600318412496
332.0, 0.047409064266936106
333.0, 0.053225576787728275
334.0, 0.053098126435041186
335.0, 0.05490695006081446
336.0, 0.06152345451158148
337.0, 0.06504752565774681
338.0, 0.0720735981588812
339.0, 0.079089297688878
340.0, 0.08348538519628619
341.0, 0.08600453892343776
342.0, 0.09056968198914139
343.0, 0.09380371334003146
344.0, 0.09109178481836047
345.0, 0.09033278499013711
346.0, 0.08563459767413498
347.0, 0.07921858871446588
348.0, 0.07673122354256878
349.0, 0.07239438052884542
350.0, 0.0674697283410808
351.0, 0.06351586290118579
352.0, 0.06571463646038626
353.0, 0.06166685822308435
354.0, 0.06075849222556961
355.0, 0.06438740296859842
356.0, 0.06289154921429478
357.0, 0.06371328957169359
358.0, 0.06665500836684266
359.0, 0.0713441855565127
360.0, 0.07174354311989316
361.0, 0.07618079225120751
362.0, 0.08149049860546223
363.0, 0.08531711658003102
364.0, 0.08587323566074849
365.0, 0.0842578707284898
366.0, 0.07994654456018302
367.0, 0.07207114580394097
368.0, 0.06522468563891211
369.0, 0.05651403855664559
370.0, 0.04780917837721759
371.0, 0.04288158434401177
372.0, 0.038569547514848326
373.0, 0.03644409137434178
374.0, 0.036276032166827725
375.0, 0.03703869269219658
376.0, 0.036406932058257936
377.0, 0.03718401974760828
378.0, 0.0388021566552682
379.0, 0.03623507600935056
380.0, 0.03439481633766167
381.0, 0.03139064700124805
382.0, 0.026663220446631775
383.0, 0.020700948572347947
384.0, 0.02045014897739508
385.0, 0.018237440062802365
386.0, 0.011407180414747815
387.0, 0.012984674881707202
388.0, 0.009458250831797847
389.0, 0.00635366536038025
390.0, 0.007243983713294342
391.0, 0.007523139041820754
392.0, 0.005320445565318405
393.0, 0.004446464040921152
394.0, 0.008540127390006286
395.0, 0.004578486172030985
396.0, 0.004030942581480822
397.0, 0.004591497363978839
398.0, 0.0031297870500211025
399.0, 0.002058539268246865
400.0, 0.0013105035031027628
401.0, 0.0010813076605296359
402.0, 0.0017679446444890494
403.0, 0.0013209381238379046
404.0, 0.0008135079336350761
405.0, 0.0003918086396185659
406.0, 0.00015169979700693312
407.0, 0.0010075905305523868
408.0, 0.0016200463294342173
409.0, 0.0018267450099952703
410.0, 0.001739320118879137
411.0, 0.004083990136920171
412.0, 0.004398109084778845
413.0, 0.003454287681912966
414.0, 0.00829049894214215
415.0, 0.008418624258746952
416.0, 0.010713286746522627
417.0, 0.015689511155727403
418.0, 0.015505319438831466
419.0, 0.019605378139550305
420.0, 0.023875695553214178
421.0, 0.027021705066234705
422.0, 0.030411152186233942
423.0, 0.03815366691934538
424.0, 0.044047230035411306
425.0, 0.04644888804343573
426.0, 0.057560384125032955
427.0, 0.06509239500968923
428.0, 0.07350038751875865
429.0, 0.0849921345340621
430.0, 0.09554315417687495
431.0, 0.1024454808496357
432.0, 0.11041965765454144
433.0, 0.12235915086263656
434.0, 0.13266191320119763
435.0, 0.14514519552864452
436.0, 0.15803176723430135
437.0, 0.1700450620018364
438.0, 0.18468826393043145
439.0, 0.20667879643866016
440.0, 0.22562363317235137
441.0, 0.23217729335730453
442.0, 0.23993069552578117
443.0, 0.24634522888364466
444.0, 0.24700657885474375
445.0, 0.2372091822707486
446.0, 0.22761845548588272
447.0, 0.21441139876590332
448.0, 0.19910731005275936
449.0, 0.18345842345500657
450.0, 0.1656577255271302
451.0, 0.15051939209343213
452.0, 0.13835810486160313
453.0, 0.12954798367882633
454.0, 0.11409774724710278
455.0, 0.10474381762126586
456.0, 0.099406054041171
457.0, 0.09469710912248032
458.0, 0.09092220549363955
459.0, 0.08930936574897878
460.0, 0.08878469859577846
461.0, 0.08771402984622222
462.0, 0.09278419017540414
463.0, 0.09845499217158545
464.0, 0.10564306850584938
465.0, 0.11638389499341172
466.0, 0.13400315560941367
467.0, 0.1527677290689544
468.0, 0.17538753961033451
469.0, 0.2070832436150395
470.0, 0.23837593225444742
471.0, 0.27425387268974605
472.0, 0.3098652172166497
473.0, 0.33650007156908396
474.0, 0.3505087118866362
475.0, 0.35065447566505165
476.0, 0.3358037970175958
477.0, 0.303440846668667
478.0, 0.27445126704082773
479.0, 0.24276595369553217
480.0, 0.2112447359651755
481.0, 0.1854339270969458
482.0, 0.166185233249194
483.0, 0.14698581946263828
484.0, 0.1328294023004907
485.0, 0.1328581640240757
486.0, 0.1199366057339035
487.0, 0.11058073192400775
488.0, 0.10521775553516793
489.0, 0.10291612749353761
490.0, 0.09680512168173451
491.0, 0.09543043278561769
492.0, 0.09589290328211408
493.0, 0.09316872404712585
494.0, 0.09226297942819457
495.0, 0.09184354562015887
496.0, 0.09036366921056303
497.0, 0.08573062878279555
498.0, 0.08191457539891249
499.0, 0.07692181477830215
500.0, 0.07238362771399816
501.0, 0.0705104559318317
502.0, 0.06533141477273018
503.0, 0.06033448312598281
504.0, 0.05762890899890992
505.0, 0.05957693663513564
506.0, 0.05304134733865626
507.0, 0.05384232436747445
508.0, 0.056096424871441584
509.0, 0.05341360060959428
510.0, 0.05496299946149986
511.0, 0.05694524574893682
512.0, 0.05833457874309089
513.0, 0.05840481341417129
514.0, 0.06970633716387
515.0, 0.07415498539187264
516.0, 0.07998225065210415
517.0, 0.09327185540439066
518.0, 0.0969300663284189
519.0, 0.10481397316876939
520.0, 0.11964068242666075
521.0, 0.14219179771430232
522.0, 0.15351300564092732
523.0, 0.17322115708579822
524.0, 0.19965123457638767
525.0, 0.23155415986681005
526.0, 0.2650028573873634
527.0, 0.31290012205923895
528.0, 0.36562811483140667
529.0, 0.4208685277530944
530.0, 0.4969264324748001
531.0, 0.5789481193663398
532.0, 0.661156038502571
533.0, 0.7430093530907455
534.0, 0.8348244001514007
535.0, 0.9057955321133296
536.0, 0.9560374819280243
537.0, 0.98600513424329
538.0, 0.9979973071282169
539.0, 0.9569126000479986
540.0, 0.9118966216969344
541.0, 0.8621287892756445
542.0, 0.7632401201903389
543.0, 0.7028126330860229
544.0, 0.6367459985663761
545.0, 0.563255413227068
546.0, 0.4990774131742247
547.0, 0.45743655502628733
548.0, 0.40901876516281455
549.0, 0.3588308349724707
550.0, 0.32431031708854885
551.0, 0.28642164560687156
552.0, 0.2574536008340205
553.0, 0.23486067394046992
554.0, 0.2133483012293714
555.0, 0.1881106546643616
556.0, 0.16851869041661313
557.0, 0.15350023211210156
558.0, 0.14136799154391916
559.0, 0.1283131110575922
560.0, 0.11966793761241291
561.0, 0.11089209512342471
562.0, 0.09856859621424933
563.0, 0.0932348897631821
564.0, 0.08544780359158775
565.0, 0.07904377960027022
566.0, 0.07599973098038433
567.0, 0.07198037182018929
568.0, 0.06596000848263994
569.0, 0.060488344199513225
570.0, 0.056634964333059555
571.0, 0.05391257589903609
572.0, 0.05032139428208916
573.0, 0.04681191058969202
574.0, 0.043746382974832555
575.0, 0.041373379281575445
576.0, 0.038030923703104944
577.0, 0.03549832310808416
578.0, 0.03339099025255465
579.0, 0.029775519413109394
580.0, 0.027415053465905014
581.0, 0.024855061056604625
582.0, 0.02333599541995256
583.0, 0.025334460721384483
584.0, 0.020349701049046293
585.0, 0.021043767586275946
586.0, 0.022490918711882107
587.0, 0.018043433244939924
588.0, 0.01689451864306659
589.0, 0.015686635056076162
590.0, 0.013468683239620841
591.0, 0.01002062835201882
592.0, 0.01434327028867634
593.0, 0.014734698258213559
594.0, 0.014875133115992385
595.0, 0.016207763307923118
596.0, 0.014654889413094114
597.0, 0.015147587311212584
598.0, 0.018861217038929644
599.0, 0.02450228957973962
600.0, 0.025184786764330377
601.0, 0.03025896132911043
602.0, 0.03683600156463232
603.0, 0.042307934396379226
604.0, 0.041750051606714904
605.0, 0.05137157139116812
606.0, 0.05543620630344436
607.0, 0.05564837268427901
608.0, 0.057244435274204974
609.0, 0.0561276629490264
610.0, 0.05238291100179871
611.0, 0.046871873991226935
612.0, 0.040500424331630085
613.0, 0.03359222017263415
614.0, 0.03036996978597149
615.0, 0.027235442671094755
616.0, 0.022315594082222716
617.0, 0.018421887168881063
618.0, 0.01924748412662327
619.0, 0.016973582099087316
620.0, 0.011532946368462164
621.0, 0.014250288774181896
622.0, 0.013995718949976308
623.0, 0.013291394663566337
624.0, 0.013594899296468312
625.0, 0.01704866490553256
626.0, 0.015533420333046815
627.0, 0.01758072790124397
628.0, 0.01944773636257178
629.0, 0.015186079291934836
630.0, 0.012002776611311015
631.0, 0.012321487098003925
632.0, 0.010473725516847783
633.0, 0.0031822370263644463
634.0, 0.007300232431185721
635.0, 0.005903447682765364
636.0, 0.003764046236470819
637.0, 0.0035616642308953644
638.0, 0.0075489564046712304
639.0, 0.005138676633681964
640.0, 0.004794501734605463
641.0, 0.006732566774428988
642.0, 0.005973328870393305
643.0, 0.005235992940491959
644.0, 0.006492309884280364
645.0, 0.00784095545116662
646.0, 0.006263726392923543
647.0, 0.00856238085814374
648.0, 0.010385612483307723
649.0, 0.010164889684698574
650.0, 0.007380040909093421
651.0, 0.01048366763344221
652.0, 0.007034914956088439
653.0, 0.0060125953388241605
654.0, 0.009179621035779895
655.0, 0.0060945064677153694
656.0, 0.00509190668829319
657.0, 0.004764160784870372
658.0, 0.004228740642316357
659.0, 0.002205175553575787
660.0, 0.0012928628193063698
661.0, 0.0011286294715534444
662.0, 0.0013838530124949614
663.0, 0.0016983890711947526
664.0, 0.002955468592323372
665.0, 0.003360483492190611
666.0, 0.0023415615340295266
667.0, 0.0001897567010608265
668.0, 0.0017298987020443117
669.0, 0.002256929379715501
670.0, 0.002255475351943991
671.0, 0.0021739511338183678
672.0, 0.0029136957192480687
673.0, 0.004288939339205555
674.0, 0.0033591550752871736
675.0, 0.001605463103263693
676.0, 0.0019341663050664185
677.0, 0.004166148489996356
678.0, 0.003497987061801902
679.0, 0.0032441894718416493
680.0, 0.005566035126978392
681.0, 0.0040371994955456575
682.0, 0.005048703984142532
683.0, 0.006167802322987938
684.0, 0.00629279346151217
685.0, 0.004956595489209334
686.0, 0.008337514544876811
687.0, 0.009329064562007213
688.0, 0.009282701364898843
689.0, 0.012563532403138629
690.0, 0.01215567689521915
691.0, 0.012181336110481894
692.0, 0.012826083905427436
693.0, 0.013955496584029413
694.0, 0.013615726950054719
695.0, 0.014585375888535975
696.0, 0.01702052364621568
697.0, 0.019564512203913757
698.0, 0.01696653226493746
699.0, 0.021407805835188365
700.0, 0.02146810178667675
701.0, 0.019338218174200547
702.0, 0.021735919152104502
703.0, 0.023496592541527684
704.0, 0.022413281464349462
705.0, 0.021362401824416195
706.0, 0.02246400959650693
707.0, 0.02338649812971039
708.0, 0.023897808043475303
709.0, 0.024887879036398285
710.0, 0.02633315444925938
711.0, 0.027148208218878356
712.0, 0.025033635607512667
713.0, 0.023160935658813872
714.0, 0.02313628346090055
715.0, 0.02641097695388081
716.0, 0.02441992063502363
717.0, 0.024025413030305795
718.0, 0.024693895928197995
719.0, 0.025887410335882325
720.0, 0.02664035823098527
721.0, 0.025219371724927303
722.0, 0.02554264125023633
723.0, 0.026398500464188256
724.0, 0.022621595398844587
725.0, 0.02257207072436778
726.0, 0.024391895924279452
727.0, 0.025426735827221672
728.0, 0.02352072231995055
729.0, 0.024494636038470942
730.0, 0.02302658345745649
731.0, 0.021203519555427226
732.0, 0.02060715796711645
733.0, 0.023608953993165146
734.0, 0.0194046909705037
735.0, 0.017537039645828912
736.0, 0.017924287571194977
737.0, 0.018154841640622428
738.0, 0.016904784164193203
739.0, 0.013767549558689763
740.0, 0.01176204564078797
741.0, 0.012378553754334054
742.0, 0.012612605088090293
743.0, 0.01146599225491261
744.0, 0.011101852137295932
745.0, 0.011159533116165509
746.0, 0.009755011429886438
747.0, 0.007890520254441287
748.0, 0.009685532774903333
749.0, 0.010383845056041705
750.0, 0.006671565680439157
751.0, 0.008566951022922875
752.0, 0.008625510119653125
753.0, 0.0068212038556269144
754.0, 0.00496586129001108
755.0, 0.008021884212029703
756.0, 0.0051499111026066064
757.0, 0.004706552074436571
758.0, 0.005602905272082357
759.0, 0.005711951227737409
760.0, 0.004350406873842677
761.0, 0.00484166449257578
762.0, 0.003989217342927851
763.0, 0.001719612942422089
764.0, 0.002589318912197633
765.0, 0.00483334647845935
766.0, 0.0033882212255056093
767.0, 0.0012415702076242169
768.0, 0.002803815922196508
769.0, 0.002074993770253823
770.0, 0.0019645916606891778
771.0, 0.0015186642951561615
772.0, 0.0006486732147797629
773.0, 0.0009246681040425194
774.0, 0.0010216064700531062
775.0, 0.0012221030022940768
776.0, 0.001741721940647142
777.0, 0.0027386077648195286
778.0, 0.001481363473773967
779.0, 0.002933888754945984
780.0, 0.0029183412814995603
781.0, 0.00035779151650301456
782.0, 0.0003628151029120404
783.0, 0.0007005251508323388
784.0, 0.001253152451727702
785.0, 0.0013365450970033183
786.0, 0.00013389152209915918
787.0, 0.0023156490726769256
788.0, 0.0018870620797877462
789.0, 0.0007865440362785544
790.0, 0.000819741754712576
791.0, 0.004909905980803126
792.0, 0.003253050237914828
793.0, 0.0022598575549682607
794.0, 0.00220465462383105
795.0, 0.002015464286717615
796.0, 0.001930128035503903
797.0, 0.0014540335306436156
798.0, 0.001991416951740114
799.0, 0.0032678271188735144
800.0, 0.0016161059946628738
801.0, 0.00047749655189731945
802.0, 0.001020709915226647
803.0, 0.0017011068777994108
804.0, 0.0006826269145114327
805.0, 0.003391636602607148
806.0, 0.0023229895999169496
807.0, 0.0017663425777146812
808.0, 0.0027422764822537206
809.0, 0.002396652490616551
810.0, 0.0009133435647787335
811.0, 0.002238521606409659
812.0, 0.0033376355882825284
813.0, 0.001068782997165305
814.0, 0.0011124099327733867
815.0, 0.0017052889763456121
816.0, 0.0015280366671242462
817.0, 0.0006281772646302077
818.0, 0.00028878569236559043
819.0, 0.001403091701607499
820.0, 0.0018669301036355744
821.0, 0.0019778231855903275
822.0, 0.001962901211309485
823.0, 0.0007337807085116835
824.0, 0.0015728597241129248
825.0, 0.0012619981097745062
826.0, 0.00033009420674355404
827.0, 0.0012672571485882415
828.0, 0.001442178099958328
829.0, 0.0024646057335789597
830.0, 0.0025369910471390606
831.0, 0.0010618041986583233
832.0, 0.0004793054662109373
833.0, 0.001351657360363777
834.0, 0.0009906678985325884
835.0, 0.0006236315135629486
836.0, 0.002200864582006446
837.0, 0.0009790187267030139
838.0, 0.0013090962785818347
839.0, 0.003031467830255349
840.0, 0.004981369099859159
841.0, 0.004138284855700104
842.0, 0.004605100312290127
843.0, 0.0050111893605010215
844.0, 0.00490773013266125
845.0, 0.004275646222009599
846.0, 0.005152466223196041
847.0, 0.004878541764993379
848.0, 0.005286278873465057
849.0, 0.0060986193047222964
850.0, 0.005979734590306528
851.0, 0.004778377101615227
852.0, 0.005670696330772591
853.0, 0.006671552246506952
854.0, 0.006844013741475468
855.0, 0.007144290022758996
856.0, 0.00993056591033121
857.0, 0.010305190238128464
858.0, 0.01149039964447136
859.0, 0.016695810269918156
860.0, 0.015489865073190525
861.0, 0.015667164836648664
862.0, 0.016503499413832397
863.0, 0.016514589125207826
864.0, 0.013270561116111227
865.0, 0.012477806468148259
866.0, 0.01142212747361563
867.0, 0.011371541657228711
868.0, 0.012433332811125205
869.0, 0.011579732257210746
870.0, 0.010193626421456839
871.0, 0.00910902570930179
872.0, 0.00911625235309988
873.0, 0.010339330145009065
874.0, 0.006046237093263577
875.0, 0.01005649211705893
876.0, 0.011399757174761448
877.0, 0.00904236498942318
878.0, 0.008251856094232565
879.0, 0.011921074213801966
880.0, 0.008669024629227202
881.0, 0.0071993077611866236
882.0, 0.010711709713139306
883.0, 0.01047453691092953
884.0, 0.0096565702914521
885.0, 0.009405618283774429
886.0, 0.009314622207856534
887.0, 0.009044609427429406
888.0, 0.010673447849345801
889.0, 0.008740495093366498
890.0, 0.009176379541286826
891.0, 0.011506213899206853
892.0, 0.012128553954797415
893.0, 0.00902098038826853
894.0, 0.009370866369823035
895.0, 0.009819709582870798
896.0, 0.009040057949790533
897.0, 0.008153901473203495
898.0, 0.009919172478384156
899.0, 0.01042649596747881
900.0, 0.010739412702954598
901.0, 0.011858901366714273
902.0, 0.01328525064399258
903.0, 0.011779492090576982
904.0, 0.011009827042862127
905.0, 0.010464718075446943
906.0, 0.009235759697164836
907.0, 0.014647874025505265
908.0, 0.016880043485416888
909.0, 0.016885036163709136
910.0, 0.016524308136273987
911.0, 0.018619346820555348
912.0, 0.01915575834861509
913.0, 0.017403603718127977
914.0, 0.0182523538333978
915.0, 0.021945258037398732
916.0, 0.021364422474226073
917.0, 0.020783849484268344
918.0, 0.020800391000169508
919.0, 0.02120120032156831
920.0, 0.02214070537226438
921.0, 0.02557553551194923
922.0, 0.020802566485260313
923.0, 0.02154676461389344
924.0, 0.024220156061780462
925.0, 0.022773916971385897
926.0, 0.02414909442045399
927.0, 0.028626257970977034
928.0, 0.030972830379411734
929.0, 0.031146166728433962
930.0, 0.0316827256360556
931.0, 0.037346653361160824
932.0, 0.036871792388294036
933.0, 0.03976052368643304
934.0, 0.04601106668153708
935.0, 0.046284868059525856
936.0, 0.04718978486910912
937.0, 0.051180145809129954
938.0, 0.05377317136528573
939.0, 0.053931903964077446
940.0, 0.05736712551527537
941.0, 0.05948990687850674
942.0, 0.05961144348167222
943.0, 0.06204169377019394
944.0, 0.0680786870302175
945.0, 0.06690420321879349
946.0, 0.06841531465488872
947.0, 0.07006720049737628
948.0, 0.07179332830902467
949.0, 0.07366447404919778
950.0, 0.07351905622805685
951.0, 0.07413848482124347
952.0, 0.07385832249041352
953.0, 0.07330695863794666
954.0, 0.07363295254827364
955.0, 0.07132866890995453
956.0, 0.07267095361633497
957.0, 0.0743449914399189
958.0, 0.07521604314609555
959.0, 0.07535156492008853
960.0, 0.0781637005207149
961.0, 0.07927804824050044
962.0, 0.08084091658282033
963.0, 0.0837993389605936
964.0, 0.08810478549200892
965.0, 0.08335158653774158
966.0, 0.08759044545036786
967.0, 0.09198792449723193
968.0, 0.0921506552046807
969.0, 0.08990137280533121
970.0, 0.09454420629069826
971.0, 0.0939460308816711
972.0, 0.09375099085307173
973.0, 0.09630074871931969
974.0, 0.0955546257280842
975.0, 0.09529893489559256
976.0, 0.09729429282612956
977.0, 0.09863200492205844
978.0, 0.09855926035950532
979.0, 0.1038030552623161
980.0, 0.10446793975757925
981.0, 0.10706045149254989
982.0, 0.11069277440014892
983.0, 0.11418922002283916
984.0, 0.11937106299423758
985.0, 0.12004299876753176
986.0, 0.12419119012797658
987.0, 0.1280818164234897
988.0, 0.12803838764217046
989.0, 0.13214590858650319
990.0, 0.13242861919565707
991.0, 0.13001750809081808
992.0, 0.12819112829056337
993.0, 0.1288866596700385
994.0, 0.12117329766799174
995.0, 0.11739215482677318
996.0, 0.1132494915720239
997.0, 0.10707267925592438
998.0, 0.09922269323624136
999.0, 0.1002357696403365
1000.0, 0.09633360683764117
1001.0, 0.09277015414300749
1002.0, 0.09140848431137256
1003.0, 0.09189378736800954
1004.0, 0.08385715115289322
1005.0, 0.08047390901077528
1006.0, 0.07412809746766953
1007.0, 0.0650363136758445
1008.0, 0.057097027300599824
1009.0, 0.05942754026367481
1010.0, 0.05419908998492452
1011.0, 0.053055119208412126
1012.0, 0.05485957828580706
1013.0, 0.05348235857773051
1014.0, 0.05063910795689305
1015.0, 0.05293374819385778
1016.0, 0.051415084237934706
1017.0, 0.04755909412489495
1018.0, 0.04706043288061927
1019.0, 0.04804373492506895
1020.0, 0.04224178162531422
1021.0, 0.041387487169427806
1022.0, 0.042745804460021325
1023.0, 0.038215615791245786
1024.0, 0.03558622779880097
1025.0, 0.035166204727859765
1026.0, 0.031520688304718575
1027.0, 0.026852588259453455
1028.0, 0.025815768004232326
1029.0, 0.02204977269461374
1030.0, 0.020142235217595044
1031.0, 0.019804134850869196
1032.0, 0.019371071363424072
1033.0, 0.01680207198367258
1034.0, 0.012355304076548963
1035.0, 0.01580144525123489
1036.0, 0.013751253107168999
1037.0, 0.01051044225558747
1038.0, 0.014298560795179216
1039.0, 0.01214166018301615
1040.0, 0.011865294608126376
1041.0, 0.01247892255796703
1042.0, 0.012271857887142922
1043.0, 0.010210335909556549
1044.0, 0.01118970789561328
1045.0, 0.011786421636316163
1046.0, 0.011773501479546334
1047.0, 0.012897806404645079
1048.0, 0.015862424247626686
1049.0, 0.013462331726053803
1050.0, 0.01382605264173271
1051.0, 0.016293760266172526
1052.0, 0.0166460375746044
1053.0, 0.013588805974643344
1054.0, 0.02023748372579725
1055.0, 0.0175513903328209
1056.0, 0.017344647322893286
1057.0, 0.018849936206644487
1058.0, 0.02009461279441876
1059.0, 0.0215291586648113
1060.0, 0.02234385730715722
1061.0, 0.02447905461473862
1062.0, 0.026397100830591495
1063.0, 0.027456633598333197
1064.0, 0.029801283394495053
1065.0, 0.033645982968239486
1066.0, 0.032983634709237326
1067.0, 0.032755050929362664
1068.0, 0.034832712764529934
1069.0, 0.03513347170955971
1070.0, 0.03853465481263313
1071.0, 0.039351362672799685
1072.0, 0.03819872194884704
1073.0, 0.03719587026405715
1074.0, 0.03974437765115859
1075.0, 0.03890888934415119
1076.0, 0.03860338646249283
1077.0, 0.03964826571602094
1078.0, 0.03963794515194725
1079.0, 0.034500785748121106
1080.0, 0.03480296913628124
1081.0, 0.03729485353671722
1082.0, 0.035599487743522014
1083.0, 0.033067163600254565
1084.0, 0.03600548072226826
1085.0, 0.03266879516909959
1086.0, 0.033351383897147834
1087.0, 0.03451918385294751
1088.0, 0.03295053113964621
1089.0, 0.027663734237098905
1090.0, 0.02797130079240681
1091.0, 0.024250351589682577
1092.0, 0.023672544508489768
1093.0, 0.02456083784142124
1094.0, 0.023724211667852026
1095.0, 0.01833241321944461
1096.0, 0.017810997590263163
1097.0, 0.0186058884744114
1098.0, 0.017551907900848433
1099.0, 0.014588516353436692
1100.0, 0.014666130942425689
1101.0, 0.014076208832679427
1102.0, 0.00959241581110887
1103.0, 0.010040502325787178
1104.0, 0.013832120766922388
1105.0, 0.009801749720000256
1106.0, 0.013533209835622628
1107.0, 0.013469958867168704
1108.0, 0.009876098592048976
1109.0, 0.007598719712597412
1110.0, 0.011758360831577178
1111.0, 0.007960093462944276
1112.0, 0.007254184878437479
1113.0, 0.007667694344722553
1114.0, 0.006979469942599604
1115.0, 0.004536218048588717
1116.0, 0.006219158258181646
1117.0, 0.005217751729729538
1118.0, 0.004542773424506674
1119.0, 0.005956238340907819
1120.0, 0.007962209661869023
1121.0, 0.003021916718812452
1122.0, 0.005799796414543706
1123.0, 0.008523859742535467
1124.0, 0.008398315210821232
1125.0, 0.006234730605776887
1126.0, 0.006066953572607327
1127.0, 0.00501134793254884
1128.0, 0.003591196689297211
1129.0, 0.004649001010669516
1130.0, 0.004979252711927441
1131.0, 0.0004312744449729729
1132.0, 0.002416458862451405
1133.0, 0.0033566349724846877
1134.0, 0.002025779602694633
1135.0, 0.0016644836602466022
1136.0, 0.004312454834326191
1137.0, 0.005315985342630796
1138.0, 0.0022727432742588303
1139.0, 0.004704944558021867
1140.0, 0.005501534137813034
1141.0, 0.00244778807551538
1142.0, 0.0018296830079417075
1143.0, 0.005170458872409797
1144.0, 0.005148081064239972
1145.0, 0.005080332702850449
1146.0, 0.004354135949411262
1147.0, 0.0007762207049379379
1148.0, 0.00023367390781338685
1149.0, 0.0027544392402568283
1150.0, 0.002098386905459019
1151.0, 0.0009126720845080536
1152.0, 0.0022069194300611784
1153.0, 0.002656025700807145
1154.0, 0.0023857061421720498
1155.0, 0.0031252704692113407
1156.0, 0.0032453319260007957
1157.0, 0.0020112669992758576
1158.0, 0.0002985283065477909
1159.0, 0.0016243791362673737
1160.0, 0.0012481350540701432
1161.0, 0.0005470272296678265
1162.0, 0.0008660693969010074
1163.0, 0.002926694479729446
1164.0, 0.004000322779339195
1165.0, 0.0033387223013917515
1166.0, 0.0017311507466220392
1167.0, 0.0005342661491636859
1168.0, 0.0009429815597922246
1169.0, 0.0035008760560338676
1170.0, 0.0036698034992840925
1171.0, 0.0017159097171670066
1172.0, 0.002319503336768024
1173.0, 0.003994532301864329
1174.0, 0.0006675250026389456
1175.0, 0.001896349915864154
1176.0, 0.0017888587714544317
1177.0, 0.002519483368218136
1178.0, 0.0037180907477185384
1179.0, 0.003962308102184611
1180.0, 0.0012776748010857608
1181.0, 0.004140991685621434
1182.0, 0.004052895350151287
1183.0, 0.002330993097165239
1184.0, 0.0016985504524297489
1185.0, 0.004758105573060398
1186.0, 0.001130831457709844
1187.0, 0.0021516911521550918
1188.0, 0.003518941283282086
1189.0, 0.0032400434343927646
1190.0, 0.0014926581049735542
1191.0, 0.0029535483467940274
1192.0, 0.0012936798018613432
1193.0, 0.000340076568290761
1194.0, 0.0014269561658964251
1195.0, 0.002980010888435768
1196.0, 3.646432552379764e-05
1197.0, 0.0010366997030387339
1198.0, 0.0027630146189329685
1199.0, 0.00218347655268937
1200.0, 0.000888867667894308
1201.0, 0.0021355283430735117
1202.0, 0.004749975968250403
1203.0, 0.0017242709496963402
1204.0, 0.001864836536573235
1205.0, 0.0033154660942832865
1206.0, 0.0034163976936549103
1207.0, 0.0012345768375577179
1208.0, 0.004774002574182167
1209.0, 0.0025065778334860318
1210.0, 0.0016683502893966725
1211.0, 0.002892950004919204
1212.0, 0.0032359586697724508
1213.0, 0.0005450631557563769
1214.0, 0.0034816464034610724
1215.0, 0.00498024108183569
1216.0, 0.005634021489723843
1217.0, 0.006178980495806421
1218.0, 0.005930349325674279
1219.0, 0.001714206811988262
1220.0, 0.0028002410402685495
1221.0, 0.004647943409875146
1222.0, 0.004174559739222099
1223.0, 0.001425894172255563
1224.0, 0.0052016630071782845
1225.0, 0.005132464500465709
1226.0, 0.004425047614709233
1227.0, 0.005722185642015858
1228.0, 0.007873560520969039
1229.0, 0.006166345041296695
1230.0, 0.0030880276598228697
1231.0, 0.005528480690480518
1232.0, 0.005237428161935841
1233.0, 0.0044702055700787365
1234.0, 0.006295142484435062
1235.0, 0.0065991177849463655
1236.0, 0.003336189032727905
1237.0, 0.008566321092197552
1238.0, 0.008551094446394195
1239.0, 0.00452050706746872
1240.0, 0.007835396590583396
1241.0, 0.011152608611286072
1242.0, 0.005506977163517307
1243.0, 0.006752771882731859
1244.0, 0.007715401252750125
1245.0, 0.004152812799802778
1246.0, 0.004063191440949987
1247.0, 0.009234538082971805
1248.0, 0.006071105627215633
1249.0, 0.006616049107951195
1250.0, 0.009619586149589491
1251.0, 0.008944373648737979
1252.0, 0.0041323567183547735
1253.0, 0.008243572364888187
1254.0, 0.00808316957110611
1255.0, 0.005939990789135197
1256.0, 0.005663605712944369
1257.0, 0.009322610519224611
1258.0, 0.003574061498650705
1259.0, 0.006683741433730814
1260.0, 0.01116067002853957
1261.0, 0.009932591313098458
1262.0, 0.003950742445328246
1263.0, 0.00680605290794855
1264.0, 0.010120375367010572
1265.0, 0.008045311954243736
1266.0, 0.007612442328273409
1267.0, 0.00808241638277383
1268.0, 0.0067764075753763585
1269.0, 0.00686015697137152
1270.0, 0.010888988809661108
1271.0, 0.008795060789317674
1272.0, 0.007964174577596668
1273.0, 0.010273963183789345
1274.0, 0.01171903071471295
1275.0, 0.006884488790171152
1276.0, 0.011156102235751338
1277.0, 0.009292664618275827
1278.0, 0.006269180310859814
1279.0, 0.007351141030576444
1280.0, 0.012157814988833265
1281.0, 0.00425697032520397
1282.0, 0.005902839744116524
1283.0, 0.006668367173244972
1284.0, 0.005501577614316609
1285.0, 0.004844813568736146
1286.0, 0.007642487800863619
1287.0, 0.005182991192824706
1288.0, 0.003579021547524818
1289.0, 0.0064019054122756375
1290.0, 0.00881712627055094
1291.0, 0.005735165634028778
1292.0, 0.005691133983799136
1293.0, 0.006414429651662273
1294.0, 0.004083030601505052
1295.0, 0.004371076380336787
1296.0, 0.006812163707545901
1297.0, 0.006423606836832237
1298.0, 0.002479056468835652
1299.0, 0.009384965379673049
1300.0, 0.005498003383595043
1301.0, 0.001617721254783352
1302.0, 0.004150129831616329
1303.0, 0.008475559924474522
1304.0, 0.0019509991483968245
1305.0, 0.004460275113607219
1306.0, 0.008249640752437771
1307.0, 0.0064511479854239325
1308.0, 0.0015867096309636454
1309.0, 0.007389669052485191
1310.0, 0.009095291798811973
1311.0, 0.005897814259500828
1312.0, 0.008659772677540587
1313.0, 0.010216230136761392
1314.0, 0.006002293509325904
1315.0, 0.006814033446002395
1316.0, 0.010797617196526568
1317.0, 0.009349726918732726
1318.0, 0.01026530856595325
1319.0, 0.011002136848503664
1320.0, 0.008547916438802382
1321.0, 0.009264126119269321
1322.0, 0.011423720217668326
1323.0, 0.011385644545308361
1324.0, 0.00965871294408063
1325.0, 0.00898726224875361
1326.0, 0.010101442112004753
1327.0, 0.005007575749722633
1328.0, 0.0058145611507973175
1329.0, 0.008605114922522967
1330.0, 0.006819592971915291
1331.0, 0.004376775195231951
1332.0, 0.006717060974605629
1333.0, 0.00232401543314693
1334.0, 0.0017263246699773208
1335.0, 0.004833489422578718
1336.0, 0.004755939028143079
1337.0, 0.0022757597059898235
1338.0, 0.002436040616816635
1339.0, 0.004609794115265512
1340.0, 0.003003319727782065
1341.0, 0.0036288051991417323
1342.0, 0.005235227989383998
1343.0, 0.005121944925244131
1344.0, 0.0024335052992146364
1345.0, 0.006248880499332903
1346.0, 0.005463957073603882
1347.0, 0.004177129909987222
1348.0, 0.004327093219543255
1349.0, 0.0039288040320975305
1350.0, 0.0011117561569368032
1351.0, 0.007283630218037319
1352.0, 0.010172661356480558
1353.0, 0.005085049449563981
1354.0, 0.0041411846756387845
1355.0, 0.006405852526772837
1356.0, 0.0034192901421643226
1357.0, 0.005129670783036901
1358.0, 0.005300683930101917
1359.0, 0.0027745500504790803
1360.0, 0.0032087477510182954
1361.0, 0.006639883633305178
1362.0, 0.008046623992107031
1363.0, 0.0016321730725492806
1364.0, 0.005515120152607871
1365.0, 0.005709565006348202
1366.0, 0.0037278486496666935
1367.0, 0.004172393951433717
1368.0, 0.008327856029397094
1369.0, 0.0013207050746728006
1370.0, 0.0014735342743895186
1371.0, 0.00573060158139707
1372.0, 0.005444809288644906
1373.0, 0.0025855824069308353
1374.0, 0.00438308388456809
1375.0, 0.011513269532571594
1376.0, 0.003170571334670845
1377.0, 0.006963779220437371
1378.0, 0.007808936831125644
1379.0, 0.00467761561595948
1380.0, 0.00453863804080012
1381.0, 0.009993585634917614
1382.0, 0.008932505026158898
1383.0, 0.010321921065691669
1384.0, 0.011184709156132339
1385.0, 0.009608987963346248
1386.0, 0.0069566368591301875
1387.0, 0.009579651551837435
1388.0, 0.012096106215938493
1389.0, 0.008541068989007042
1390.0, 0.008699263321560492
1391.0, 0.008267985672581333
1392.0, 0.005181114014900186
1393.0, 0.009817959898311742
1394.0, 0.013604290178591941
1395.0, 0.00701149660475572
1396.0, 0.0069343062376101584
1397.0, 0.009757235754662776
1398.0, 0.008324251008083938
1399.0, 0.0015374217732955077
1400.0, 0.008808378408538061
1401.0, 0.008559929467733332
1402.0, 0.004068087902926949
1403.0, 0.0038119500681473217
1404.0, 0.007086608600638951
1405.0, 0.005060429783083029
1406.0, 0.004306967349991193
1407.0, 0.005933009997582427
1408.0, 0.003830186138645093
1409.0, 0.0027438609205355548
1410.0, 0.00540509207567088
1411.0, 0.008946234708831127
1412.0, 0.0006245412897178089
1413.0, 0.006778566799930335
1414.0, 0.006828251422392715
1415.0, 0.004060081147572896
1416.0, 0.004924176707456901
1417.0, 0.010347296734677517
1418.0, 0.007004896704163167
1419.0, 0.0032962331804957785
1420.0, 0.004829100276275703
1421.0, 0.002782237388828261
1422.0, 0.0007407765959110124
1423.0, 0.002880157968721175
1424.0, 0.006014507824591572
1425.0, 0.0007013383682388835
1426, 0.0
1427, 0.0
1428, 0.0
1429, 0.0
1430, 0.0
1431, 0.0
1432, 0.0
1433, 0.0
1434, 0.0
1435, 0.0
1436, 0.0
1437, 0.0
1438, 0.0
1439, 0.0
1440, 0.0
1441, 0.0
1442, 0.0
1443, 0.0
1444, 0.0
1445, 0.0
1446, 0.0
1447, 0.0
1448, 0.0
1449, 0.0
1450, 0.0
1451, 0.0
1452, 0.0
1453, 0.0
1454, 0.0
1455, 0.0
1456, 0.0
1457, 0.0
1458, 0.0
1459, 0.0
1460, 0.0
1461, 0.0
1462, 0.0
1463, 0.0
1464, 0.0
1465, 0.0
1466, 0.0
1467, 0.0
1468, 0.0
1469, 0.0
1470, 0.0
1471, 0.0
1472, 0.0
1473, 0.0
1474, 0.0
1475, 0.0
1476, 0.0
1477, 0.0
1478, 0.0
1479, 0.0
1480, 0.0
1481, 0.0
1482, 0.0
1483, 0.0
1484, 0.0
1485, 0.0
1486, 0.0
1487, 0.0
1488, 0.0
1489, 0.0
1490, 0.0
1491, 0.0
1492, 0.0
1493, 0.0
1494, 0.0
1495, 0.0
1496, 0.0
1497, 0.0
1498, 0.0
1499, 0.0
1500, 0.0
1501, 0.0
1502, 0.0
1503, 0.0
1504, 0.0
1505, 0.0
1506, 0.0
1507, 0.0
1508, 0.0
1509, 0.0
1510, 0.0
1511, 0.0
1512, 0.0
1513, 0.0
1514, 0.0
1515, 0.0
1516, 0.0
1517, 0.0
1518, 0.0
1519, 0.0
1520, 0.0
1521, 0.0
1522, 0.0
1523, 0.0
1524, 0.0
1525, 0.0
1526, 0.0
1527, 0.0
1528, 0.0
1529, 0.0
1530, 0.0
1531, 0.0
1532, 0.0
1533, 0.0
1534, 0.0
1535, 0.0
1536, 0.0
1537, 0.0
1538, 0.0
1539, 0.0
1540, 0.0
1541, 0.0
1542, 0.0
1543, 0.0
1544, 0.0
1545, 0.0
1546, 0.0
1547, 0.0
1548, 0.0
1549, 0.0
1550, 0.0
1551, 0.0
1552, 0.0
1553, 0.0
1554, 0.0
1555, 0.0
1556, 0.0
1557, 0.0
1558, 0.0
1559, 0.0
1560, 0.0
1561, 0.0
1562, 0.0
1563, 0.0
1564, 0.0
1565, 0.0
1566, 0.0
1567, 0.0
1568, 0.0
1569, 0.0
1570, 0.0
1571, 0.0
1572, 0.0
1573, 0.0
1574, 0.0
1575, 0.0
1576, 0.0
1577, 0.0
1578, 0.0
1579, 0.0
1580, 0.0
1581, 0.0
1582, 0.0
1583, 0.0
1584, 0.0
1585, 0.0
1586, 0.0
1587, 0.0
1588, 0.0
1589, 0.0
1590, 0.0
1591, 0.0
1592, 0.0
1593, 0.0
1594, 0.0
1595, 0.0
1596, 0.0
1597, 0.0
1598, 0.0
1599, 0.0
