30, 0.0
31, 0.0
32, 0.0
33, 0.0
34, 0.0
35, 0.0
36, 0.0
37, 0.0
38, 0.0
39, 0.0
40, 0.0
41, 0.0
42, 0.0
43, 0.0
44, 0.0
45, 0.0
46, 0.0
47, 0.0
48, 0.0
49, 0.0
50, 0.0
51, 0.0
52, 0.0
53, 0.0
54, 0.0
55, 0.0
56, 0.0
57, 0.0
58, 0.0
59, 0.0
60, 0.0
61, 0.0
62, 0.0
63, 0.0
64, 0.0
65, 0.0
66, 0.0
67, 0.0
68, 0.0
69, 0.0
70, 0.0
71, 0.0
72, 0.0
73, 0.0
74, 0.0
75, 0.0
76, 0.0
77, 0.0
78, 0.0
79, 0.0
80, 0.0
81, 0.0
82, 0.0
83, 0.0
84, 0.0
85, 0.0
86, 0.0
87, 0.0
88, 0.0
89, 0.0
90, 0.0
91, 0.0
92, 0.0
93, 0.0
94, 0.0
95, 0.0
96, 0.0
97, 0.0
98, 0.0
99, 0.0
100, 0.0
101, 0.0
102, 0.0
103, 0.0
104, 0.0
105, 0.0
106, 0.0
107, 0.0
108, 0.0
109, 0.0
110, 0.0
111, 0.0
112, 0.0
113, 0.0
114, 0.0
115, 0.0
116, 0.0
117, 0.0
118, 0.0
119, 0.0
120, 0.0
121, 0.0
122, 0.0
123, 0.0
124, 0.0
125, 0.0
126, 0.0
127, 0.0
128, 0.0
129, 0.0
130, 0.0
131, 0.0
132, 0.0
133, 0.0
134, 0.0
135, 0.0
136, 0.0
137, 0.0
138, 0.0
139, 0.0
140.0, 0.0010601241192589286
141.0, 0.0068266298055164034
142.0, 0.004929187781462607
143.0, 0.007722566017565914
144.0, 0.012041018959002846
145.0, 0.011158698658593173
146.0, 0.01683324974152597
147.0, 0.016833661254422597
148.0, 0.01770729740949981
149.0, 0.017756175639437054
150.0, 0.014771946857305188
151.0, 0.0070656707870912034
152.0, 0.0034790773799251006
153.0, 0.004339259678399751
154.0, 0.0014128308424276312
155.0, 0.003210130671066663
156.0, 0.0023704900934624737
157.0, 0.0011687848046249402
158.0, 0.001262736815459057
159.0, 0.0007605977941518749
160.0, 0.0036853117871020542
161.0, 0.008112428601116987
162.0, 0.012683834609951554
163.0, 0.02266090180727474
164.0, 0.02732394861988681
165.0, 0.030299433190654042
166.0, 0.036814709249147676
167.0, 0.049837827944840575
168.0, 0.06259374681313913
169.0, 0.06956138571129197
170.0, 0.07573906994953263
171.0, 0.08875726783774349
172.0, 0.10018670497514354
173.0, 0.10627518620785703
174.0, 0.1111183394021803
175.0, 0.11856765560095417
176.0, 0.1254748496454417
177.0, 0.1370453876507259
178.0, 0.14419396781874427
179.0, 0.14582105372964183
180.0, 0.15469834443161512
181.0, 0.1596958629407202
182.0, 0.1590449207095168
183.0, 0.15711440604927154
184.0, 0.15937965947856925
185.0, 0.16285091990516837
186.0, 0.16602348234653522
187.0, 0.16700454339120968
188.0, 0.16559802754244823
189.0, 0.16759633988154524
190.0, 0.18193780098436999
191.0, 0.1917922937418175
192.0, 0.19302271050758188
193.0, 0.20597514772996278
194.0, 0.2149601689199053
195.0, 0.2213931451812486
196.0, 0.2249680447833464
197.0, 0.2232373736072451
198.0, 0.2211524449748806
199.0, 0.2182540737737462
200.0, 0.212526011896492
201.0, 0.20351526720165083
202.0, 0.1942031006885292
203.0, 0.1774265123101147
204.0, 0.16476522671437874
205.0, 0.15944514046479666
206.0, 0.15242731709041013
207.0, 0.14052604685491882
208.0, 0.13070879408072628
209.0, 0.122090116382309
210.0, 0.11076153084580484
211.0, 0.10058405768496384
212.0, 0.09694020176431846
213.0, 0.09225204395526007
214.0, 0.08429153493300613
215.0, 0.08231762073274465
216.0, 0.07809329956421986
217.0, 0.07411227440531122
218.0, 0.0726895721907736
219.0, 0.07362840789457034
220.0, 0.06773792887609928
221.0, 0.06433212097975823
222.0, 0.065819685156212
223.0, 0.06921526547192204
224.0, 0.06981560405345087
225.0, 0.07293713863158786
226.0, 0.07427816733126179
227.0, 0.07248749553355512
228.0, 0.06911932515096618
229.0, 0.06471111248974604
230.0, 0.05901373402139712
231.0, 0.055805471797206206
232.0, 0.05638936546822423
233.0, 0.0476841787755579
234.0, 0.04487322426544814
235.0, 0.04434824356017309
236.0, 0.041652131081169975
237.0, 0.034873848146133854
238.0, 0.03406640573161625
239.0, 0.029547901982792592
240.0, 0.024557739929627797
241.0, 0.024160326454398435
242.0, 0.020850528413774327
243.0, 0.018180359456722125
244.0, 0.01738549723835848
245.0, 0.01658958401234431
246.0, 0.019625061584770485
247.0, 0.016983760129831417
248.0, 0.01721654632926372
249.0, 0.017623652993478008
250.0, 0.017918705055062392
251.0, 0.018288417082594946
252.0, 0.018399763419468605
253.0, 0.018529393577408525
254.0, 0.018033183340095106
255.0, 0.018186382249501993
256.0, 0.01572570108830588
257.0, 0.015383202264885446
258.0, 0.014785530730498988
259.0, 0.01092236851541007
260.0, 0.010924071883871385
261.0, 0.010650628468560139
262.0, 0.009723872539016834
263.0, 0.00948003474091299
264.0, 0.01114635237276013
265.0, 0.00999692086071191
266.0, 0.006217323476601262
267.0, 0.004105001797999101
268.0, 0.005253361685461805
269.0, 0.003648723898340687
270.0, 0.0033641414541728657
271.0, 0.005763316496209032
272.0, 0.00695932115052484
273.0, 0.002010129404159675
274.0, 0.0013627935482799429
275.0, 0.0007300074259256267
276.0, 3.5902753844817606e-05
277.0, 0.0007652815102688238
278.0, 0.002955999089345995
279.0, 0.002287632219792771
280.0, 0.004226537114253128
281.0, 0.002171507842174602
282.0, 0.001663786312738625
283.0, 0.0008365991459604165
284.0, 0.0009865720452089384
285.0, 0.0024951241918028237
286.0, 0.0011044443277979238
287.0, 0.00036059748612271846
288.0, 0.0008406884258278822
289.0, 0.0011269102449669383
290.0, 0.002503896127303046
291.0, 0.0040387000228474385
292.0, 0.0010721249431983246
293.0, 0.0014432674348260448
294.0, 0.004188526016664024
295.0, 0.002793629509334115
296.0, 0.0027482656736109398
297.0, 0.0019088655136145754
298.0, 0.003199593580569844
299.0, 0.008315221225630758
300.0, 0.0134964056786389
301.0, 0.012899713433482202
302.0, 0.01640881668572997
303.0, 0.021051037846623984
304.0, 0.02478892580234881
305.0, 0.027586578048143295
306.0, 0.02926386360226214
307.0, 0.03230787398577948
308.0, 0.03658892499234306
309.0, 0.04070959151300548
310.0, 0.043381771403467724
311.0, 0.04498676603927684
312.0, 0.04845009914789915
313.0, 0.051112229957888784
314.0, 0.05202309964824531
315.0, 0.05451187991195774
316.0, 0.05528827553753236
317.0, 0.057161604253436804
318.0, 0.05896135603183014
319.0, 0.0581673914223206
320.0, 0.05528446970598058
321.0, 0.05440037164365488
322.0, 0.05412870709823469
323.0, 0.05357691098454674
324.0, 0.052715989350629246
325.0, 0.0460439294137256
326.0, 0.046211201796834495
327.0, 0.04496945188206061
328.0, 0.039725397649294676
329.0, 0.040978277558617514
330.0, 0.038712603167666615
331.0, 0.03366687394532937
332.0, 0.030936670353289758
333.0, 0.031595784530476144
334.0, 0.02653459119653321
335.0, 0.022019160000188942
336.0, 0.021193579993071185
337.0, 0.021440717852019727
338.0, 0.019263040329998746
339.0, 0.017015891149121828
340.0, 0.018786628734699228
341.0, 0.019556138144524223
342.0, 0.017746486062642768
343.0, 0.01843312087870322
344.0, 0.022382264032628375
345.0, 0.02146194288534323
346.0, 0.018868409159914123
347.0, 0.020636240387424266
348.0, 0.026774976835655055
349.0, 0.027168725058973116
350.0, 0.028550258028462512
351.0, 0.02934986608110485
352.0, 0.028770338763442004
353.0, 0.03548205640633198
354.0, 0.039534286863445095
355.0, 0.04277902100490699
356.0, 0.044946000181093335
357.0, 0.044867690137036974
358.0, 0.04603892020635106
359.0, 0.04763214211705669
360.0, 0.049596430558001024
361.0, 0.05169977212661829
362.0, 0.05423731828165306
363.0, 0.06157357574300506
364.0, 0.05767516598123873
365.0, 0.05696089234143034
366.0, 0.06244946976890892
367.0, 0.06337824431838149
368.0, 0.0650435022710746
369.0, 0.0688562013817623
370.0, 0.07024343610783618
371.0, 0.06947932779753474
372.0, 0.07463587339066148
373.0, 0.07742207667427287
374.0, 0.08013931086120227
375.0, 0.08096006044932315
376.0, 0.07978332121029107
377.0, 0.0816498618441764
378.0, 0.08167275402304847
379.0, 0.07860848087797151
380.0, 0.0739403653129699
381.0, 0.0684962420516586
382.0, 0.06123582687428323
383.0, 0.06228421858892927
384.0, 0.05917465401508395
385.0, 0.0516249091343211
386.0, 0.047281287606289794
387.0, 0.04653880808984406
388.0, 0.04533444677416666
389.0, 0.03958731691433901
390.0, 0.032209109828844416
391.0, 0.028264419332265152
392.0, 0.030095443195929345
393.0, 0.02556433383742492
394.0, 0.023449514452323093
395.0, 0.02462872596131988
396.0, 0.024215213687714524
397.0, 0.02166616908973213
398.0, 0.021478915040779645
399.0, 0.022126851685332353
400.0, 0.022115915535388518
401.0, 0.02166447023969661
402.0, 0.02277494612167113
403.0, 0.022606763487816955
404.0, 0.022402959625301113
405.0, 0.023174488453711804
406.0, 0.02404029943578701
407.0, 0.017205957892909456
408.0, 0.016661043890033703
409.0, 0.017810413968029893
410.0, 0.016768427191676136
411.0, 0.014765663951831723
412.0, 0.01031258043094116
413.0, 0.004117697950497263
414.0, 0.0017905293512240686
415.0, 0.0035947392289615338
416.0, 0.004958886684478515
417.0, 0.00538041154955072
418.0, 0.001446512536120032
419.0, 0.0017436096855388678
420.0, 0.0021894163255443393
421.0, 0.0021245795122481984
422.0, 0.003963367594905127
423.0, 0.0034517962426218853
424.0, 0.0016824380665046573
425.0, 0.0007791096645907769
426.0, 0.001215450568799294
427.0, 0.001874483876664352
428.0, 0.0017456168469171557
429.0, 0.0005793070073514433
430.0, 0.001439294611041636
431.0, 0.005305976702919643
432.0, 0.011260087283402283
433.0, 0.0130899390640861
434.0, 0.0130943359467298
435.0, 0.014853371814401875
436.0, 0.019523168755270673
437.0, 0.02239588092036648
438.0, 0.02636470086376251
439.0, 0.02813816196343971
440.0, 0.02919305481877254
441.0, 0.033300690295444156
442.0, 0.03702013046769171
443.0, 0.0377968997563892
444.0, 0.03875398529752409
445.0, 0.0415580679663327
446.0, 0.04455764104222271
447.0, 0.03889478441722599
448.0, 0.04129234713651237
449.0, 0.04207364444148593
450.0, 0.040809061085540096
451.0, 0.04024362238764965
452.0, 0.03296371665623429
453.0, 0.03236736558984835
454.0, 0.03011416388581647
455.0, 0.026175636897528665
456.0, 0.026051482678680734
457.0, 0.028005467439053026
458.0, 0.02443124885072901
459.0, 0.022564411933286545
460.0, 0.022164177769367938
461.0, 0.02123567526363054
462.0, 0.022775808723872863
463.0, 0.02213543120178304
464.0, 0.02394787833215815
465.0, 0.024941404988205327
466.0, 0.023479813591517937
467.0, 0.02379209636522792
468.0, 0.023259027414803516
469.0, 0.025622728766604128
470.0, 0.028880195791313183
471.0, 0.031173504426867785
472.0, 0.032740849643527185
473.0, 0.033323051465
474.0, 0.03525078945784118
475.0, 0.0368743825174757
476.0, 0.03868151597353743
477.0, 0.04206281352735562
478.0, 0.0426299156181255
479.0, 0.04590278405074646
480.0, 0.051395800319375004
481.0, 0.05636968523201377
482.0, 0.05872831206330697
483.0, 0.05808353948784854
484.0, 0.06636004514190467
485.0, 0.07232279878087745
486.0, 0.07480527948562679
487.0, 0.07740387505804734
488.0, 0.07998497120421763
489.0, 0.08088851865537566
490.0, 0.08028610398318635
491.0, 0.0792657167110831
492.0, 0.07725256013831024
493.0, 0.07270640013835339
494.0, 0.07077682709699196
495.0, 0.06633302780183077
496.0, 0.06186986514794961
497.0, 0.05819770675333468
498.0, 0.052213576491875975
499.0, 0.04170626083090964
500.0, 0.037264676600565705
501.0, 0.0332647307629137
502.0, 0.02747802150509216
503.0, 0.021417415583749252
504.0, 0.016674122502416965
505.0, 0.015883108165936445
506.0, 0.013504555013906601
507.0, 0.0106525924344513
508.0, 0.008911024433674712
509.0, 0.005217272483476836
510.0, 0.004941822287509442
511.0, 0.006192175532385572
512.0, 0.003917064590419542
513.0, 0.0015345310096791208
514.0, 0.004099825341694126
515.0, 0.0017335223247125567
516.0, 0.0007773949929615764
517.0, 0.0005255279244982018
518.0, 0.0018172424517705515
519.0, 0.0008510706566218563
520.0, 0.00041264566240752955
521.0, 0.0017899585062000828
522.0, 0.0021149128024344726
523.0, 0.002221203974229439
524.0, 0.0030669143297311994
525.0, 0.0014875265182667985
526.0, 0.000839308410560464
527.0, 0.0015242878254294666
528.0, 0.0022430688608283786
529.0, 0.0011819686606561654
530.0, 0.00310638971289608
531.0, 0.004206097981140437
532.0, 0.004645903067950983
533.0, 0.003728435272239959
534.0, 0.0020262389416408027
535.0, 0.0021570529119877622
536.0, 0.0073253139357230814
537.0, 0.013061176911821156
538.0, 0.014297098932811612
539.0, 0.01418839094202005
540.0, 0.015547507467999572
541.0, 0.017382593589730884
542.0, 0.020047040642252028
543.0, 0.02143081242597318
544.0, 0.024353762321733315
545.0, 0.02761875460434791
546.0, 0.028736987409546416
547.0, 0.030020409104785702
548.0, 0.030384501032384294
549.0, 0.03286479587540788
550.0, 0.03465824284378258
551.0, 0.03396004355815735
552.0, 0.03281860399474462
553.0, 0.0311239388810889
554.0, 0.02963509268375965
555.0, 0.02823794508144682
556.0, 0.02793472760468818
557.0, 0.02743564465597614
558.0, 0.021192028311716606
559.0, 0.026050491784292803
560.0, 0.022872737991630487
561.0, 0.0196539305740889
562.0, 0.02230423076036588
563.0, 0.019621709141438633
564.0, 0.020948175566379734
565.0, 0.02270646434170339
566.0, 0.022377367537081243
567.0, 0.02010779519740748
568.0, 0.01788389226177988
569.0, 0.018607487251241256
570.0, 0.018512240469918523
571.0, 0.018204864286406584
572.0, 0.01833899136098679
573.0, 0.01799709833285009
574.0, 0.016354178871837165
575.0, 0.018832586840842845
576.0, 0.017887077739516748
577.0, 0.016873116101905103
578.0, 0.016267058242878638
579.0, 0.014642810118938301
580.0, 0.012252100748289424
581.0, 0.008614129915643599
582.0, 0.010686278785312095
583.0, 0.011468161393441572
584.0, 0.009805561094505248
585.0, 0.010692801104569778
586.0, 0.009945377163150228
587.0, 0.010671704905968622
588.0, 0.011582779389995149
589.0, 0.010929258352125548
590.0, 0.009735182505155841
591.0, 0.010846747406653633
592.0, 0.013984800559297308
593.0, 0.010812617102429608
594.0, 0.009806786252653068
595.0, 0.011878819377318913
596.0, 0.013009394167144089
597.0, 0.014213565206958418
598.0, 0.013117783325590543
599.0, 0.020448565791532123
600.0, 0.02516949334211389
601.0, 0.021938345693328924
602.0, 0.01913301060438183
603.0, 0.025479678576399968
604.0, 0.02922023699389853
605.0, 0.03021790430472231
606.0, 0.03158571914842837
607.0, 0.03381508826998901
608.0, 0.03453189998932561
609.0, 0.03387315599435196
610.0, 0.03564522438622877
611.0, 0.039299159983501884
612.0, 0.04214352086320236
613.0, 0.04191828534118819
614.0, 0.03919233269172881
615.0, 0.04026843964971873
616.0, 0.04618783545043323
617.0, 0.04671394347007896
618.0, 0.04363013670118896
619.0, 0.04427181821505187
620.0, 0.04501119874240139
621.0, 0.04809972129974184
622.0, 0.048238212916691794
623.0, 0.050918024607609115
624.0, 0.053856046192013216
625.0, 0.04930653931884862
626.0, 0.05040469707565112
627.0, 0.04825245039360007
628.0, 0.04992778549149711
629.0, 0.05300433693181766
630.0, 0.05399264417204595
631.0, 0.05303558261182921
632.0, 0.04773984003564008
633.0, 0.0486678121653139
634.0, 0.051552531553846634
635.0, 0.05131478267489903
636.0, 0.047652087174884894
637.0, 0.04390464047798362
638.0, 0.04100314856871069
639.0, 0.04046426747629524
640.0, 0.0377889018555254
641.0, 0.034595281877792844
642.0, 0.03191757834740881
643.0, 0.026983444419430125
644.0, 0.027561172686413355
645.0, 0.02557142890523352
646.0, 0.021369334996744017
647.0, 0.01802398006049749
648.0, 0.01756823698522325
649.0, 0.020020871075922923
650.0, 0.020601337478041694
651.0, 0.017723431390491602
652.0, 0.014971664454634511
653.0, 0.015094310900876559
654.0, 0.01610314299384617
655.0, 0.01342024174222832
656.0, 0.011258199603795389
657.0, 0.007168869788426607
658.0, 0.006256301758388144
659.0, 0.008160926874194332
660.0, 0.008777270380730414
661.0, 0.0062745520440587775
662.0, 0.002980982553924987
663.0, 0.003119292597156111
664.0, 0.005928029105906766
665.0, 0.0067440260612289145
666.0, 0.005200869907775865
667.0, 0.008254907256916607
668.0, 0.006794307721543357
669.0, 0.008651993587303144
670.0, 0.00796846899822703
671.0, 0.00530578850233865
672.0, 0.004936755071333174
673.0, 0.00505795916872905
674.0, 0.004810101056955675
675.0, 0.005458322981075193
676.0, 0.0026305889128982983
677.0, 0.00022773744301510522
678.0, 0.0007311594247652103
679.0, 0.0051602111435456776
680.0, 0.0013308164434387827
681.0, 0.0010307747577842617
682.0, 0.0009445355998990329
683.0, 0.0028365505954368315
684.0, 0.002651254620335409
685.0, 0.0023345403224771084
686.0, 0.006823549393820256
687.0, 0.0021011561771801194
688.0, 0.0026183758423941627
689.0, 0.00023843287449975056
690.0, 0.00013237583614846842
691.0, 0.0010735405717311873
692.0, 0.0016786401044275952
693.0, 0.0016965801064870957
694.0, 0.0017952433988487207
695.0, 0.0013761436903825955
696.0, 0.0005999047692751371
697.0, 0.0008164223553194987
698.0, 0.0023345348199810194
699.0, 0.0024454502473542678
700.0, 0.00044962115062049463
701.0, 0.0020724715397597935
702.0, 0.004583091870454215
703.0, 0.0017878455712518856
704.0, 0.002209183592686672
705.0, 0.0014395080037256508
706.0, 0.00027075751024383833
707.0, 0.00053080973911205
708.0, 0.0007384411452867194
709.0, 0.003597115027311255
710.0, 0.004327790980529016
711.0, 0.0011036328466520963
712.0, 0.0006689629248332783
713.0, 0.0020676262201015034
714.0, 0.0022830148151168806
715.0, 0.0009127702687545601
716.0, 8.348787574456647e-05
717.0, 0.0011895132024900958
718.0, 0.0013683323973172293
719.0, 0.006162629093042167
720.0, 0.005628221794997287
721.0, 0.0011661390362769108
722.0, 0.0019615317892947054
723.0, 0.0033679982916833074
724.0, 0.0013975125592607085
725.0, 0.00021898311749014079
726.0, 0.0019136126592706089
727.0, 0.005924924652578553
728.0, 0.009860295079528939
729.0, 0.009829343810174473
730.0, 0.005424723180318384
731.0, 0.005308693922257067
732.0, 0.004626014488665214
733.0, 0.002054971068603469
734.0, 0.0006928163133635474
735.0, 0.0025162856867972858
736.0, 0.004054289771174038
737.0, 0.0010365474628837373
738.0, 0.002089391422479113
739.0, 0.004530129201948106
740.0, 0.0032598155726645275
741.0, 0.0024841511186702654
742.0, 0.001306419546964527
743.0, 0.0030739000556539624
744.0, 0.0027111705384347965
745.0, 0.0020914778457282214
746.0, 0.0031104248600595324
747.0, 0.005090284797062252
748.0, 0.005463018756834829
749.0, 0.004026036933940323
750.0, 0.0013011522080713476
751.0, 0.004343454688123592
752.0, 0.007404710542517194
753.0, 0.008326483561001925
754.0, 0.003829690634963801
755.0, 0.002800046312530883
756.0, 0.002727513991741311
757.0, 0.008120574437618563
758.0, 0.008728907257767347
759.0, 0.005226756079459522
760.0, 0.004690730359832713
761.0, 0.0026794139050477653
762.0, 0.002030714633329356
763.0, 0.0015331063906246134
764.0, 0.0031527610863536235
765.0, 0.0008021271411584685
766.0, 0.0014955066136607264
767.0, 0.0005586495810224055
768.0, 0.00564118937868985
769.0, 0.0036963542717509943
770.0, 0.004312734455328763
771.0, 0.006088322804611215
772.0, 0.008060726890739188
773.0, 0.008887022816883841
774.0, 0.0049180761203237115
775.0, 0.005880268147873764
776.0, 0.005688917731403201
777.0, 0.006586416078831507
778.0, 0.0074160800569708415
779.0, 0.007058509259151548
780.0, 0.00752763244630201
781.0, 0.010686686480365382
782.0, 0.012500988915783872
783.0, 0.010566756447287324
784.0, 0.011185054052460173
785.0, 0.013066939360719254
786.0, 0.015544794115354352
787.0, 0.019959645320974984
788.0, 0.02002217021985229
789.0, 0.018148453624103014
790.0, 0.018573813494428014
791.0, 0.023249928342763314
792.0, 0.027133026129600977
793.0, 0.027892740556690665
794.0, 0.030289669543180638
795.0, 0.03230623955408821
796.0, 0.03460013563592582
797.0, 0.040269597471662186
798.0, 0.044588439418139884
799.0, 0.047269082505168196
800.0, 0.05084520005165783
801.0, 0.053895277906666046
802.0, 0.05440020223885411
803.0, 0.05808206361584698
804.0, 0.06577112283341968
805.0, 0.07146042753071799
806.0, 0.07599055002340627
807.0, 0.0829604402248751
808.0, 0.08794913590723256
809.0, 0.09471353130075134
810.0, 0.10928464175159903
811.0, 0.11770404213436768
812.0, 0.12747967308792613
813.0, 0.1412458087781443
814.0, 0.15159245051982553
815.0, 0.1633473572113246
816.0, 0.1798288564277764
817.0, 0.19746545581989494
818.0, 0.22021594788269733
819.0, 0.2457593877591564
820.0, 0.2686512556850105
821.0, 0.2914021371379447
822.0, 0.3259728339509222
823.0, 0.3549586200632947
824.0, 0.38935614733714696
825.0, 0.41954323981359154
826.0, 0.452379103163979
827.0, 0.4920082859279598
828.0, 0.5337454394842132
829.0, 0.5845332012458825
830.0, 0.6286975418204717
831.0, 0.6787731614464936
832.0, 0.7328713364139381
833.0, 0.7884615139923141
834.0, 0.843256178430745
835.0, 0.8902404958331251
836.0, 0.9226335703493657
837.0, 0.9629881838110319
838.0, 0.9723245473924496
839.0, 0.9845704131363688
840.0, 0.9931703603181024
841.0, 0.9904708713645345
842.0, 0.9927293089073925
843.0, 0.9992798758242539
844.0, 0.9854824629584077
845.0, 0.9648920245343208
846.0, 0.9202533537979751
847.0, 0.8556469368213077
848.0, 0.7795037022857296
849.0, 0.6915522060546344
850.0, 0.5935044020316861
851.0, 0.5008686960211256
852.0, 0.42133168758772227
853.0, 0.3520960899056366
854.0, 0.29340287716959046
855.0, 0.24867283065715945
856.0, 0.21505654656388723
857.0, 0.18278230647457067
858.0, 0.15647096552071904
859.0, 0.13955082780734168
860.0, 0.12620199342754915
861.0, 0.1121180082478478
862.0, 0.09703930478703159
863.0, 0.08407059665938076
864.0, 0.07766466250375265
865.0, 0.07413669259963053
866.0, 0.06665655663871699
867.0, 0.06070331163480954
868.0, 0.05544319755984524
869.0, 0.05059382333056827
870.0, 0.04508903491696922
871.0, 0.03615783172323244
872.0, 0.028453247399730812
873.0, 0.025893825922076157
874.0, 0.02746757755274331
875.0, 0.026118984166509988
876.0, 0.0213408241676984
877.0, 0.018030924671310837
878.0, 0.017663481543249843
879.0, 0.015985289723615913
880.0, 0.011248235747950919
881.0, 0.011248743380499976
882.0, 0.013133723439041227
883.0, 0.010407465773252963
884.0, 0.008483232097428475
885.0, 0.009970964404987062
886.0, 0.007634106705901263
887.0, 0.005575970521215101
888.0, 0.007293737797407099
889.0, 0.00619630065212796
890.0, 0.0049939563510163106
891.0, 0.003987800008008772
892.0, 0.0035238991338762547
893.0, 0.0036421665901477554
894.0, 0.002339676161155624
895.0, 0.0078088147903839595
896.0, 0.010580595049945777
897.0, 0.009096955741922177
898.0, 0.0029578783811411435
899.0, 0.0019740603924396413
900.0, 0.006195256875100539
901.0, 0.0032388983288829365
902.0, 0.001785896388660044
903.0, 0.000595792990258523
904.0, 0.002085287266897386
905.0, 0.0021436548616327435
906.0, 0.0004992586833343482
907.0, 0.0016039041543876133
908.0, 0.00029146912122866305
909.0, 0.0008685459210069263
910.0, 0.0002930663392626045
911.0, 0.0012783759816248407
912.0, 0.0032252074543892614
913.0, 0.0033957610426974824
914.0, 0.003511319436078339
915.0, 0.0019673647367230377
916.0, 0.0009790301213765077
917.0, 0.005611145801885319
918.0, 0.0006867469975809574
919.0, 0.0008269095872084353
920.0, 0.0008188556511774987
921.0, 0.0009181006061396816
922.0, 0.001338273636862434
923.0, 0.002715477072499587
924.0, 0.002009047528990331
925.0, 0.0035816118092881657
926.0, 0.0015237661640823796
927.0, 0.004657386874090525
928.0, 0.001121022641814868
929.0, 0.0022072895894388518
930.0, 0.0005033107969315562
931.0, 0.0009972887625355291
932.0, 0.003254104038978676
933.0, 0.00024434435789583506
934.0, 0.0006976261804530551
935.0, 0.0019813491682212606
936.0, 0.001136705066726336
937.0, 0.0008702308377818019
938.0, 0.004110525870867068
939.0, 0.006592815178648489
940.0, 0.001956932696887693
941.0, 0.006406923248023595
942.0, 0.0026110004674963607
943.0, 0.0047227867296998575
944.0, 0.011597380721321398
945.0, 0.014601926047622327
946.0, 0.014011617016239581
947.0, 0.015744831973210353
948.0, 0.021433478661644315
949.0, 0.02635148146854623
950.0, 0.0332106804743183
951.0, 0.03659831472085963
952.0, 0.039807323357950765
953.0, 0.04399758865838184
954.0, 0.04889878409186859
955.0, 0.0576669259787578
956.0, 0.07021407029499772
957.0, 0.07233429109347674
958.0, 0.0798294388298363
959.0, 0.09063658095837772
960.0, 0.0974794707079046
961.0, 0.10528972519796777
962.0, 0.11344299033627904
963.0, 0.1198552372016286
964.0, 0.12935719821602437
965.0, 0.1367893008517219
966.0, 0.14333914797373182
967.0, 0.14965610967835113
968.0, 0.16001784589444845
969.0, 0.17336963781686213
970.0, 0.18854934723021166
971.0, 0.20657358337381335
972.0, 0.22817112885499663
973.0, 0.2526554662084167
974.0, 0.2781706841569383
975.0, 0.30431630712187707
976.0, 0.33453889600247705
977.0, 0.3674304583499801
978.0, 0.3992321019289708
979.0, 0.43411874082356305
980.0, 0.47547653663032413
981.0, 0.5161130167992727
982.0, 0.5583801899284305
983.0, 0.5901715536314461
984.0, 0.6119427657712827
985.0, 0.6221098063603124
986.0, 0.6029270696942146
987.0, 0.5548927640458563
988.0, 0.494167964328723
989.0, 0.4384710360286359
990.0, 0.4040092371934857
991.0, 0.3933669692417297
992.0, 0.3914439641587767
993.0, 0.40187636772632435
994.0, 0.41846770790933213
995.0, 0.42898911678727913
996.0, 0.4351831231889755
997.0, 0.43768058659521053
998.0, 0.4169014649938638
999.0, 0.38289396489299327
1000.0, 0.3442818221353846
1001.0, 0.31108506185123663
1002.0, 0.2782667618300589
1003.0, 0.24927622655940956
1004.0, 0.233821673098648
1005.0, 0.22799850717712236
1006.0, 0.2202824533855244
1007.0, 0.22340425907715936
1008.0, 0.23148491545512204
1009.0, 0.25066193026521744
1010.0, 0.2640182646187849
1011.0, 0.27664443328146465
1012.0, 0.29664499819798795
1013.0, 0.31875617802077894
1014.0, 0.3374335344065085
1015.0, 0.36060691855324456
1016.0, 0.3812946678807044
1017.0, 0.38824671229428614
1018.0, 0.3960465131384556
1019.0, 0.40053387118176337
1020.0, 0.397941030251256
1021.0, 0.3880294094792687
1022.0, 0.37231113391492876
1023.0, 0.3534709561241831
1024.0, 0.3310579691892725
1025.0, 0.29780780530785367
1026.0, 0.26382467302312873
1027.0, 0.2380184839361624
1028.0, 0.21407003392278298
1029.0, 0.1887050975636657
1030.0, 0.16766812183795016
1031.0, 0.15315507831085493
1032.0, 0.13917678450854046
1033.0, 0.12495301917919553
1034.0, 0.11077901287309425
1035.0, 0.10297712310159655
1036.0, 0.09832295223926198
1037.0, 0.08800466335904607
1038.0, 0.08384420652614649
1039.0, 0.08106321898579884
1040.0, 0.07253440491262028
1041.0, 0.06680276420480616
1042.0, 0.06459677177822112
1043.0, 0.06361420116320413
1044.0, 0.060056668671061894
1045.0, 0.050970090062489704
1046.0, 0.04838854806752333
1047.0, 0.04314537613259411
1048.0, 0.03580864924996711
1049.0, 0.031174513941743674
1050.0, 0.025592816293262415
1051.0, 0.020420581011822998
1052.0, 0.016016585866442383
1053.0, 0.01364345563296116
1054.0, 0.007839195864156014
1055.0, 0.002236239046597515
1056.0, 0.002987793135181817
1057.0, 0.0026474832347387687
1058.0, 0.0017984189156911258
1059.0, 0.003413156880985051
1060.0, 0.0031965992192219315
1061.0, 0.003707817391860635
1062.0, 0.006586151083092916
1063.0, 0.004047076450587493
1064.0, 0.003502350328399145
1065.0, 0.005303205374414516
1066.0, 0.004299559070081575
1067.0, 0.002727883001453217
1068.0, 0.0028073455713861846
1069.0, 0.0020269777621469507
1070.0, 0.0037102484688992733
1071.0, 0.0057551715693214935
1072.0, 0.003790445254830736
1073.0, 0.009121764632654746
1074.0, 0.014947234012514436
1075.0, 0.015018351181516074
1076.0, 0.01805435778204986
1077.0, 0.02479104271557873
1078.0, 0.028104489899007098
1079.0, 0.0315473070881671
1080.0, 0.038222034032164925
1081.0, 0.03896574735500784
1082.0, 0.04331729164678481
1083.0, 0.04661942721285476
1084.0, 0.04513263428402462
1085.0, 0.04660284405468606
1086.0, 0.048221891539175346
1087.0, 0.04495008918745691
1088.0, 0.044527009968874535
1089.0, 0.04503982759160282
1090.0, 0.03601894616998239
1091.0, 0.03813706507996447
1092.0, 0.03922670933683121
1093.0, 0.03705675515858815
1094.0, 0.03855278340821279
1095.0, 0.04252813107458871
1096.0, 0.043949197944357574
1097.0, 0.04446749755069195
1098.0, 0.04927213119694097
1099.0, 0.05236124142951872
1100.0, 0.04997312665800746
1101.0, 0.050074898421157
1102.0, 0.04867288282103266
1103.0, 0.0497974687695994
1104.0, 0.050484629454408944
1105.0, 0.050671641710213745
1106.0, 0.04841918552425868
1107.0, 0.04246366207602552
1108.0, 0.038030705720255485
1109.0, 0.03519543383933904
1110.0, 0.03291110405546337
1111.0, 0.0296601305361462
1112.0, 0.02407797851933579
1113.0, 0.022449087789914553
1114.0, 0.0219395752888763
1115.0, 0.021892578036436575
1116.0, 0.022235993106367327
1117.0, 0.02014953522988878
1118.0, 0.016423182547019136
1119.0, 0.014468223424898402
1120.0, 0.01393690928329941
1121.0, 0.010063746469718044
1122.0, 0.010403412540802919
1123.0, 0.009523522515455839
1124.0, 0.011355747509801816
1125.0, 0.010523676654088994
1126.0, 0.010408605021008526
1127.0, 0.01102386795871289
1128.0, 0.006557236712082364
1129.0, 0.00869457389179034
1130.0, 0.006483628221541367
1131.0, 0.011016248430153308
1132.0, 0.007507057404487077
1133.0, 0.011349738197442637
1134.0, 0.014658654281018417
1135.0, 0.012564841018710943
1136.0, 0.008837477111840925
1137.0, 0.009669515151463588
1138.0, 0.012928898688182706
1139.0, 0.011994780074867062
1140.0, 0.014443427341800822
1141.0, 0.008640407375791324
1142.0, 0.009169424393199451
1143.0, 0.009189591116021668
1144.0, 0.009511749078371197
1145.0, 0.00815303543626843
1146.0, 0.0059362072856350995
1147.0, 0.0063083097360106186
1148.0, 0.008613530951995619
1149.0, 0.010181100998399497
1150.0, 0.012078039478385169
1151.0, 0.011461887929889265
1152.0, 0.010552199637299423
1153.0, 0.010844472513474526
1154.0, 0.012549427591555118
1155.0, 0.016773791151665964
1156.0, 0.01644149146201567
1157.0, 0.014858133669006802
1158.0, 0.016207352793044055
1159.0, 0.016156050383755928
1160.0, 0.014188675520076386
1161.0, 0.01709717644805545
1162.0, 0.014580845698246735
1163.0, 0.017586491223332317
1164.0, 0.016753551587279574
1165.0, 0.012852823317985339
1166.0, 0.011312724199326673
1167.0, 0.008258891868045631
1168.0, 0.006794829855396485
1169.0, 0.007939693009715943
1170.0, 0.006852333833737354
1171.0, 0.003629323016638263
1172.0, 0.001427891894840883
1173.0, 0.0010590380682166936
1174.0, 0.007150653845599314
1175.0, 0.00594204314058928
1176.0, 0.009339730432115523
1177.0, 0.00841352682260186
1178.0, 0.0029821425133907302
1179.0, 0.0009341648156049
1180.0, 0.0015687104362586365
1181.0, 0.00042086244140745826
1182.0, 0.0014789127950170572
1183.0, 0.0026617168329080058
1184.0, 0.0030311481593900402
1185.0, 0.0002938173681521326
1186.0, 0.005804412216132286
1187.0, 0.0016525912859859167
1188.0, 0.0011636905877514113
1189.0, 0.004230188543661732
1190.0, 0.0017719303420921605
1191.0, 0.0015824612686473082
1192.0, 0.0016411109588275001
1193.0, 0.0021464483722643942
1194.0, 0.0024996470276642284
1195.0, 0.0026329035272446705
1196.0, 0.0011992487508404584
1197.0, 0.0026960674373347738
1198.0, 0.003174223890586205
1199.0, 0.0035757377981927353
1200.0, 0.0011559249175867555
1201.0, 0.0013201084421365877
1202.0, 0.0004259942262735179
1203.0, 0.0016229499515815625
1204.0, 0.002973188416658242
1205.0, 0.002523564111213621
1206.0, 0.000973790588133465
1207.0, 0.0033701811360123527
1208.0, 0.0008964020999559219
1209.0, 0.001620751921827752
1210.0, 0.0033971240606515928
1211.0, 0.0016641491844614307
1212.0, 0.0003413647097408339
1213.0, 0.0032542299819942684
1214.0, 0.006410620599348698
1215.0, 0.005198903350517944
1216.0, 0.005113060048859655
1217.0, 0.006666755646501224
1218.0, 0.004279737297643721
1219.0, 0.008397102696155736
1220.0, 0.008581250168829649
1221.0, 0.005766662361754638
1222.0, 0.005049873330667758
1223.0, 0.00875646590984907
1224.0, 0.008948768145414895
1225.0, 0.004591014340433237
1226.0, 0.004148210181193203
1227.0, 0.0025588851079448778
1228.0, 0.003983309878447444
1229.0, 0.008718258659460461
1230.0, 0.008508434662859403
1231.0, 0.010797586581232107
1232.0, 0.0071126725302675465
1233.0, 0.010131757410418307
1234.0, 0.01099891208165133
1235.0, 0.007915378192002978
1236.0, 0.009875401549983103
1237.0, 0.00998933609957648
1238.0, 0.009128304714217118
1239.0, 0.0073688928063288086
1240.0, 0.007207731556212388
1241.0, 0.009331246354296436
1242.0, 0.01051949134152555
1243.0, 0.011880848442739659
1244.0, 0.010903076065333708
1245.0, 0.008292367729696746
1246.0, 0.012307664092553681
1247.0, 0.01103902226117972
1248.0, 0.009170552678905748
1249.0, 0.007721055601347857
1250.0, 0.006857119841762289
1251.0, 0.0060990300542981
1252.0, 0.006739056046820269
1253.0, 0.00578824528744695
1254.0, 0.003945147697507134
1255.0, 0.0041442287498039375
1256.0, 0.006042242698554327
1257.0, 0.008549857369318509
1258.0, 0.005319899689442041
1259.0, 0.006865503748923621
1260.0, 0.0047662420689969535
1261.0, 0.003054043162507745
1262.0, 0.0021497789926081625
1263.0, 0.004074604895542527
1264.0, 0.006041880094258394
1265.0, 0.00333331202790727
1266.0, 0.0012346475079051836
1267.0, 0.0032039541966055554
1268.0, 0.006776041786311786
1269.0, 0.008235233465624743
1270.0, 0.006886476178629693
1271.0, 0.00812043172841205
1272.0, 0.008205080865819291
1273.0, 0.007892339456036004
1274.0, 0.008727053168637604
1275.0, 0.00837674671622789
1276.0, 0.006602281444042631
1277.0, 0.0035229236808924274
1278.0, 0.00315751404493902
1279.0, 0.005004589537214233
1280.0, 0.0060742690031338285
1281.0, 0.002572377675098443
1282.0, 0.0005571131189261977
1283.0, 0.003692721802198074
1284.0, 0.00623896755121341
1285.0, 0.005346476197630184
1286.0, 0.008599518628296382
1287.0, 0.0042800902613350355
1288.0, 0.00033941079064137936
1289.0, 0.003854872911818603
1290.0, 0.0032978260602173305
1291.0, 0.006772728675350872
1292.0, 0.0019740960974107304
1293.0, 0.0009552327086912525
1294.0, 0.0010579510473861155
1295.0, 0.0017937312803005272
1296.0, 0.0032849691999475607
1297.0, 0.0011384842292083595
1298, 0.0
1299, 0.0
1300, 0.0
1301, 0.0
1302, 0.0
1303, 0.0
1304, 0.0
1305, 0.0
1306, 0.0
1307, 0.0
1308, 0.0
1309, 0.0
1310, 0.0
1311, 0.0
1312, 0.0
1313, 0.0
1314, 0.0
1315, 0.0
1316, 0.0
1317, 0.0
1318, 0.0
1319, 0.0
1320, 0.0
1321, 0.0
1322, 0.0
1323, 0.0
1324, 0.0
1325, 0.0
1326, 0.0
1327, 0.0
1328, 0.0
1329, 0.0
1330, 0.0
1331, 0.0
1332, 0.0
1333, 0.0
1334, 0.0
1335, 0.0
1336, 0.0
1337, 0.0
1338, 0.0
1339, 0.0
1340, 0.0
1341, 0.0
1342, 0.0
1343, 0.0
1344, 0.0
1345, 0.0
1346, 0.0
1347, 0.0
1348, 0.0
1349, 0.0
1350, 0.0
1351, 0.0
1352, 0.0
1353, 0.0
1354, 0.0
1355, 0.0
1356, 0.0
1357, 0.0
1358, 0.0
1359, 0.0
1360, 0.0
1361, 0.0
1362, 0.0
1363, 0.0
1364, 0.0
1365, 0.0
1366, 0.0
1367, 0.0
1368, 0.0
1369, 0.0
1370, 0.0
1371, 0.0
1372, 0.0
1373, 0.0
1374, 0.0
1375, 0.0
1376, 0.0
1377, 0.0
1378, 0.0
1379, 0.0
1380, 0.0
1381, 0.0
1382, 0.0
1383, 0.0
1384, 0.0
1385, 0.0
1386, 0.0
1387, 0.0
1388, 0.0
1389, 0.0
1390, 0.0
1391, 0.0
1392, 0.0
1393, 0.0
1394, 0.0
1395, 0.0
1396, 0.0
1397, 0.0
1398, 0.0
1399, 0.0
1400, 0.0
1401, 0.0
1402, 0.0
1403, 0.0
1404, 0.0
1405, 0.0
1406, 0.0
1407, 0.0
1408, 0.0
1409, 0.0
1410, 0.0
1411, 0.0
1412, 0.0
1413, 0.0
1414, 0.0
1415, 0.0
1416, 0.0
1417, 0.0
1418, 0.0
1419, 0.0
1420, 0.0
1421, 0.0
1422, 0.0
1423, 0.0
1424, 0.0
1425, 0.0
1426, 0.0
1427, 0.0
1428, 0.0
1429, 0.0
1430, 0.0
1431, 0.0
1432, 0.0
1433, 0.0
1434, 0.0
1435, 0.0
1436, 0.0
1437, 0.0
1438, 0.0
1439, 0.0
1440, 0.0
1441, 0.0
1442, 0.0
1443, 0.0
1444, 0.0
1445, 0.0
1446, 0.0
1447, 0.0
1448, 0.0
1449, 0.0
1450, 0.0
1451, 0.0
1452, 0.0
1453, 0.0
1454, 0.0
1455, 0.0
1456, 0.0
1457, 0.0
1458, 0.0
1459, 0.0
1460, 0.0
1461, 0.0
1462, 0.0
1463, 0.0
1464, 0.0
1465, 0.0
1466, 0.0
1467, 0.0
1468, 0.0
1469, 0.0
1470, 0.0
1471, 0.0
1472, 0.0
1473, 0.0
1474, 0.0
1475, 0.0
1476, 0.0
1477, 0.0
1478, 0.0
1479, 0.0
1480, 0.0
1481, 0.0
1482, 0.0
1483, 0.0
1484, 0.0
1485, 0.0
1486, 0.0
1487, 0.0
1488, 0.0
1489, 0.0
1490, 0.0
1491, 0.0
1492, 0.0
1493, 0.0
1494, 0.0
1495, 0.0
1496, 0.0
1497, 0.0
1498, 0.0
1499, 0.0
1500, 0.0
1501, 0.0
1502, 0.0
1503, 0.0
1504, 0.0
1505, 0.0
1506, 0.0
1507, 0.0
1508, 0.0
1509, 0.0
1510, 0.0
1511, 0.0
1512, 0.0
1513, 0.0
1514, 0.0
1515, 0.0
1516, 0.0
1517, 0.0
1518, 0.0
1519, 0.0
1520, 0.0
1521, 0.0
1522, 0.0
1523, 0.0
1524, 0.0
1525, 0.0
1526, 0.0
1527, 0.0
1528, 0.0
1529, 0.0
1530, 0.0
1531, 0.0
1532, 0.0
1533, 0.0
1534, 0.0
1535, 0.0
1536, 0.0
1537, 0.0
1538, 0.0
1539, 0.0
1540, 0.0
1541, 0.0
1542, 0.0
1543, 0.0
1544, 0.0
1545, 0.0
1546, 0.0
1547, 0.0
1548, 0.0
1549, 0.0
1550, 0.0
1551, 0.0
1552, 0.0
1553, 0.0
1554, 0.0
1555, 0.0
1556, 0.0
1557, 0.0
1558, 0.0
1559, 0.0
1560, 0.0
1561, 0.0
1562, 0.0
1563, 0.0
1564, 0.0
1565, 0.0
1566, 0.0
1567, 0.0
1568, 0.0
1569, 0.0
1570, 0.0
1571, 0.0
1572, 0.0
1573, 0.0
1574, 0.0
1575, 0.0
1576, 0.0
1577, 0.0
1578, 0.0
1579, 0.0
1580, 0.0
1581, 0.0
1582, 0.0
1583, 0.0
1584, 0.0
1585, 0.0
1586, 0.0
1587, 0.0
1588, 0.0
1589, 0.0
1590, 0.0
1591, 0.0
1592, 0.0
1593, 0.0
1594, 0.0
1595, 0.0
1596, 0.0
1597, 0.0
1598, 0.0
1599, 0.0
