30, 0.0
31, 0.0
32, 0.0
33, 0.0
34, 0.0
35, 0.0
36, 0.0
37, 0.0
38, 0.0
39, 0.0
40, 0.0
41, 0.0
42, 0.0
43, 0.0
44, 0.0
45, 0.0
46, 0.0
47, 0.0
48, 0.0
49, 0.0
50, 0.0
51, 0.0
52, 0.0
53, 0.0
54, 0.0
55, 0.0
56, 0.0
57, 0.0
58, 0.0
59, 0.0
60, 0.0
61, 0.0
62, 0.0
63, 0.0
64, 0.0
65, 0.0
66, 0.0
67, 0.0
68, 0.0
69, 0.0
70, 0.0
71, 0.0
72, 0.0
73, 0.0
74, 0.0
75, 0.0
76, 0.0
77, 0.0
78, 0.0
79, 0.0
80, 0.0
81, 0.0
82, 0.0
83, 0.0
84, 0.0
85, 0.0
86, 0.0
87, 0.0
88, 0.0
89, 0.0
90, 0.0
91, 0.0
92, 0.0
93, 0.0
94, 0.0
95, 0.0
96, 0.0
97, 0.0
98, 0.0
99, 0.0
100, 0.0
101, 0.0
102, 0.0
103, 0.0
104, 0.0
105, 0.0
106, 0.0
107, 0.0
108, 0.0
109, 0.0
110, 0.0
111, 0.0
112, 0.0
113, 0.0
114, 0.0
115, 0.0
116, 0.0
117, 0.0
118, 0.0
119, 0.0
120, 0.0
121, 0.0
122, 0.0
123.0, 0.003468877821274223
124.0, 0.007597313701545756
125.0, 0.014091748582230845
126.0, 0.005452690250754881
127.0, 0.006590058775287049
128.0, 0.011030953456462683
129.0, 0.025015122306416934
130.0, 0.048056712048887014
131.0, 0.05726115951968599
132.0, 0.07202055324468531
133.0, 0.08263277506608462
134.0, 0.08016744066523646
135.0, 0.0683634798337995
136.0, 0.07945808402089743
137.0, 0.07313918713082795
138.0, 0.0604767848319879
139.0, 0.05821823141748789
140.0, 0.058527156585013174
141.0, 0.054598507156223025
142.0, 0.0539219277408158
143.0, 0.05956365961990828
144.0, 0.07035291084339972
145.0, 0.09007716990582527
146.0, 0.10533212147013292
147.0, 0.11946375631379275
148.0, 0.1399915076193882
149.0, 0.16103427738124262
150.0, 0.1761232138390693
151.0, 0.18505384317407816
152.0, 0.19050458957694139
153.0, 0.19470733136333826
154.0, 0.19482731298034978
155.0, 0.1834019476521963
156.0, 0.17212226384686038
157.0, 0.16776636667421863
158.0, 0.15256092536296903
159.0, 0.15180301807743185
160.0, 0.1486370548943541
161.0, 0.142404979126728
162.0, 0.15031466725108603
163.0, 0.1557544323059543
164.0, 0.16745494368010794
165.0, 0.17106939553737135
166.0, 0.15852820017032881
167.0, 0.1744606944530924
168.0, 0.17907277964541699
169.0, 0.17686705908616968
170.0, 0.1747618513241111
171.0, 0.1688036264813521
172.0, 0.1703087903535191
173.0, 0.1724968567468507
174.0, 0.169397807205574
175.0, 0.15879475163365459
176.0, 0.15106167600308593
177.0, 0.1597365267172459
178.0, 0.16570316891637646
179.0, 0.1592055671533325
180.0, 0.15291900388722227
181.0, 0.14228007757809188
182.0, 0.14310621138421192
183.0, 0.14520414613470778
184.0, 0.1393087673809065
185.0, 0.1432453654401797
186.0, 0.12904624905998588
187.0, 0.11639475311546146
188.0, 0.11838425262866277
189.0, 0.13082482064015846
190.0, 0.13539911240183455
191.0, 0.11890424091213303
192.0, 0.10227617705469255
193.0, 0.09988022425104658
194.0, 0.09560395905579235
195.0, 0.09479667199140442
196.0, 0.09682088837106075
197.0, 0.09903364388103013
198.0, 0.09889468874816797
199.0, 0.09562403503640732
200.0, 0.09308331796997704
201.0, 0.08946075682443455
202.0, 0.08258307656939601
203.0, 0.07268341820412531
204.0, 0.06881368950998706
205.0, 0.06833943589760415
206.0, 0.06741629809397451
207.0, 0.06275307842407553
208.0, 0.05220464425715331
209.0, 0.06148742232661492
210.0, 0.06142947149429242
211.0, 0.046848441163937646
212.0, 0.040744221181524126
213.0, 0.03151107103390892
214.0, 0.029497714727464763
215.0, 0.0363793872129018
216.0, 0.043825344959017375
217.0, 0.03868180664846604
218.0, 0.03713522424293541
219.0, 0.032681503075330624
220.0, 0.027640821788801433
221.0, 0.026145177236024247
222.0, 0.016414572786978117
223.0, 0.010761532625520365
224.0, 0.018284351527439083
225.0, 0.028298362256287974
226.0, 0.021430786997269694
227.0, 0.020738575338479597
228.0, 0.012349500041892817
229.0, 0.003986395509501796
230.0, 0.004053585997622344
231.0, 0.006164974930119675
232.0, 0.006425141924741525
233.0, 0.004093903364347833
234.0, 0.004337152111333983
235.0, 0.004423910958168219
236.0, 0.008969166339700374
237.0, 0.005208604998537728
238.0, 0.006046877792443696
239.0, 0.009215998733434535
240.0, 0.004902264385048084
241.0, 0.003802830974089246
242.0, 0.00230203965349315
243.0, 0.007277853613476854
244.0, 0.005996893713493925
245.0, 0.01052790023099463
246.0, 0.009894451253583918
247.0, 0.006298971633229434
248.0, 0.00490268777682716
249.0, 0.012637710163094718
250.0, 0.007070861307099342
251.0, 0.0036997181016814656
252.0, 0.004634819464585677
253.0, 0.004977763664690195
254.0, 0.007133468993490173
255.0, 0.009772415300685523
256.0, 0.005345621241664395
257.0, 0.008266997247039146
258.0, 0.006494975436591666
259.0, 0.0079163350347399
260.0, 0.01264222946159957
261.0, 0.017586239401628047
262.0, 0.009305052668289713
263.0, 0.009522391953737172
264.0, 0.014334401192403508
265.0, 0.004075094372145339
266.0, 0.008466994009391242
267.0, 0.006717066218530934
268.0, 0.00969804104602598
269.0, 0.0101498508613469
270.0, 0.007559103338125203
271.0, 0.008017998538286757
272.0, 0.006518152561659709
273.0, 0.010893666675076253
274.0, 0.008848785679231185
275.0, 0.01345379793516058
276.0, 0.015818245105529462
277.0, 0.015331305198486385
278.0, 0.017393156712349655
279.0, 0.014068768781189876
280.0, 0.017167680832369313
281.0, 0.019450716916069397
282.0, 0.01931261959929953
283.0, 0.01902841223023034
284.0, 0.01942129948766537
285.0, 0.031659888297668574
286.0, 0.03569232084551608
287.0, 0.040459362276574436
288.0, 0.05647272077638827
289.0, 0.048182104811667396
290.0, 0.04875180542598978
291.0, 0.05611343452501015
292.0, 0.0613966025612432
293.0, 0.06410461527835086
294.0, 0.07070406606955162
295.0, 0.07158246781058786
296.0, 0.0758969073081467
297.0, 0.0847733645114446
298.0, 0.09230136732010424
299.0, 0.09646188216108673
300.0, 0.09295897128876486
301.0, 0.10072669502881505
302.0, 0.11049223592228784
303.0, 0.10229487471177895
304.0, 0.10065134131286363
305.0, 0.10385444551657269
306.0, 0.11512379756677661
307.0, 0.12603378949049424
308.0, 0.12139517963806302
309.0, 0.10162530604997702
310.0, 0.11786270643936028
311.0, 0.12526037139686447
312.0, 0.11684370334226436
313.0, 0.12313496874626416
314.0, 0.12249216008581304
315.0, 0.12549155728296327
316.0, 0.1306272269908788
317.0, 0.1316164808516417
318.0, 0.12452821295189655
319.0, 0.13129679528951319
320.0, 0.13065774305164518
321.0, 0.12337809227371861
322.0, 0.12157525882282794
323.0, 0.13766316838846918
324.0, 0.13986780535191062
325.0, 0.13888961789271245
326.0, 0.13794432154041716
327.0, 0.13768550199396723
328.0, 0.14148262405315268
329.0, 0.1476234621983478
330.0, 0.1374796206589646
331.0, 0.13077570498572008
332.0, 0.12947603701971788
333.0, 0.1276950147403292
334.0, 0.1391298702063062
335.0, 0.13618797397391663
336.0, 0.13365010287450305
337.0, 0.1206703635781131
338.0, 0.09617498089182486
339.0, 0.10788245911005097
340.0, 0.11585616573698362
341.0, 0.10556054521098095
342.0, 0.10054220863267264
343.0, 0.10861931952359938
344.0, 0.09592785987394979
345.0, 0.08909775898023004
346.0, 0.08394673403074404
347.0, 0.07667072973290248
348.0, 0.07201099931073615
349.0, 0.07605738715458865
350.0, 0.06381525574877123
351.0, 0.06691071205468656
352.0, 0.06095137818006813
353.0, 0.0437477210678564
354.0, 0.04761377890608674
355.0, 0.03997197680208296
356.0, 0.04550840527089064
357.0, 0.04322088812266405
358.0, 0.031391091976045
359.0, 0.03587558152212654
360.0, 0.04868592779937011
361.0, 0.03868621400426694
362.0, 0.03390256150658038
363.0, 0.03526597860639298
364.0, 0.02152388985644216
365.0, 0.02494093350133362
366.0, 0.02856006659325239
367.0, 0.02801950434953656
368.0, 0.02074278218590463
369.0, 0.011390769793770565
370.0, 0.01581197352656078
371.0, 0.005820443480385818
372.0, 0.0051277002803600345
373.0, 0.009216224058002043
374.0, 0.010001003844508612
375.0, 0.0056534239085621815
376.0, 0.008400275675772445
377.0, 0.007528733424350554
378.0, 0.006675147309911913
379.0, 0.004921164963465358
380.0, 0.004638181184075619
381.0, 0.0054550247521209455
382.0, 0.0044620994624524155
383.0, 0.007826922746071215
384.0, 0.005710107854752281
385.0, 0.006611890122624188
386.0, 0.003842052201333881
387.0, 0.004537372350911333
388.0, 0.005269969902102601
389.0, 0.005846370564809967
390.0, 0.004425946415263231
391.0, 0.004059497113792636
392.0, 0.008911088718157874
393.0, 0.024369199198293064
394.0, 0.027040835743545676
395.0, 0.017776409653480506
396.0, 0.020828317042814515
397.0, 0.02301981626044802
398.0, 0.02398566597172006
399.0, 0.017850658963810884
400.0, 0.016718519531538207
401.0, 0.02817393933728506
402.0, 0.03490843380121222
403.0, 0.03752873955449035
404.0, 0.036960163378085706
405.0, 0.040706618826176086
406.0, 0.046665492090452995
407.0, 0.04528751851731202
408.0, 0.06204038649642051
409.0, 0.05664510286244636
410.0, 0.05730829073181713
411.0, 0.0705737253975109
412.0, 0.07367156252238174
413.0, 0.06955248086758878
414.0, 0.07777168691138267
415.0, 0.08574438916792854
416.0, 0.08438922845362558
417.0, 0.08205533051284246
418.0, 0.09449910061793908
419.0, 0.0922072264715747
420.0, 0.10329423756217343
421.0, 0.11443782115662716
422.0, 0.11155014955373191
423.0, 0.10071760065428301
424.0, 0.11865576750767318
425.0, 0.1351043127708317
426.0, 0.13375393926606896
427.0, 0.1318039458411024
428.0, 0.1437153120332963
429.0, 0.149981380409236
430.0, 0.13893372902592704
431.0, 0.15265061719252782
432.0, 0.1618746011200203
433.0, 0.16040131280900044
434.0, 0.16667119814713202
435.0, 0.16737713722951128
436.0, 0.1731935963555969
437.0, 0.1660225682092967
438.0, 0.1580922678489139
439.0, 0.15670246339226646
440.0, 0.13824077915867175
441.0, 0.14855086366551826
442.0, 0.14026120005787873
443.0, 0.13384598323276417
444.0, 0.13443335742981585
445.0, 0.12779618026181871
446.0, 0.1285575464242087
447.0, 0.1248356050610308
448.0, 0.12524579703811325
449.0, 0.12412415014236233
450.0, 0.11947428897678551
451.0, 0.12041169934613756
452.0, 0.13696965454266094
453.0, 0.12535156021295082
454.0, 0.11490405594577331
455.0, 0.11319455972780572
456.0, 0.11332271579290609
457.0, 0.11927754815552939
458.0, 0.11764838630700476
459.0, 0.1216734170336074
460.0, 0.12718757905970998
461.0, 0.13187812765647036
462.0, 0.1363465397848566
463.0, 0.12654237786602707
464.0, 0.13504231088610574
465.0, 0.1393908805044933
466.0, 0.13191610418286057
467.0, 0.1259472320532836
468.0, 0.139729588503388
469.0, 0.12694438078723425
470.0, 0.1319744268614464
471.0, 0.1338583892247342
472.0, 0.12873645095507044
473.0, 0.12580575974458816
474.0, 0.1260531048260933
475.0, 0.13467722357650472
476.0, 0.12593362288521762
477.0, 0.11365145047024758
478.0, 0.10410944191481047
479.0, 0.0967140204227836
480.0, 0.09417850715905145
481.0, 0.09811363298868096
482.0, 0.09232444344763004
483.0, 0.08852744724723653
484.0, 0.08700695123079051
485.0, 0.07338207013133796
486.0, 0.0719821670649039
487.0, 0.05916464905861626
488.0, 0.05625887306634995
489.0, 0.06477166091253767
490.0, 0.0653116039292193
491.0, 0.05162225406656179
492.0, 0.061114857715461046
493.0, 0.0402758200266016
494.0, 0.04182287020474841
495.0, 0.04519687114571364
496.0, 0.03096051711182238
497.0, 0.028689945535366985
498.0, 0.03398490729494874
499.0, 0.038002074254116204
500.0, 0.030167968715809318
501.0, 0.02270614259355537
502.0, 0.024334857856736277
503.0, 0.024689903807013972
504.0, 0.019436456310104062
505.0, 0.022486438066886223
506.0, 0.023090812745370143
507.0, 0.024293026708201663
508.0, 0.024140364874173915
509.0, 0.004671012717672616
510.0, 0.02290427191433109
511.0, 0.015908211635716683
512.0, 0.013892657100168364
513.0, 0.0154981555820405
514.0, 0.011194567302897437
515.0, 0.01796866211876696
516.0, 0.01628160804358907
517.0, 0.0069409840829664105
518.0, 0.006074661120382428
519.0, 0.008598217592257413
520.0, 0.01030856544756444
521.0, 0.006155014845576581
522.0, 0.005936881516742245
523.0, 0.010259714069217088
524.0, 0.006676184953488739
525.0, 0.007421646056278142
526.0, 0.006751899848996845
527.0, 0.01635723243871092
528.0, 0.006897156154161005
529.0, 0.005251408526648833
530.0, 0.011819565075281924
531.0, 0.01805274702530381
532.0, 0.018908924543271352
533.0, 0.02174491716444352
534.0, 0.02380463298079209
535.0, 0.005533359317338896
536.0, 0.011556077026937839
537.0, 0.015982337107696226
538.0, 0.008484687057920414
539.0, 0.013109930841809938
540.0, 0.006376923094175102
541.0, 0.021551290167562877
542.0, 0.011207394122343128
543.0, 0.007544022848500347
544.0, 0.004869978251597917
545.0, 0.009889986257547848
546.0, 0.023526840831626417
547.0, 0.005973440112513151
548.0, 0.013761019942362633
549.0, 0.0184871310605134
550.0, 0.016334768798915517
551.0, 0.008908345915608998
552.0, 0.006033104670052621
553.0, 0.01434369320290664
554.0, 0.019994860700913622
555.0, 0.026064648678171782
556.0, 0.03063881211996009
557.0, 0.03194133646399187
558.0, 0.0355710228996198
559.0, 0.04145707322737218
560.0, 0.034529716137343965
561.0, 0.04952660619947205
562.0, 0.05859567506756914
563.0, 0.0513091561167608
564.0, 0.054925112874234044
565.0, 0.06859093541955835
566.0, 0.0586737232271983
567.0, 0.07185980005659401
568.0, 0.10216562471861634
569.0, 0.1181219435238256
570.0, 0.11543552309663865
571.0, 0.12035057319922234
572.0, 0.13871121602000613
573.0, 0.14534481544545327
574.0, 0.16138361631449263
575.0, 0.17297977084947486
576.0, 0.1744433469191238
577.0, 0.19407037686808035
578.0, 0.2126581240359172
579.0, 0.21104068880286175
580.0, 0.21908662107083088
581.0, 0.24902808789965863
582.0, 0.27698414315985065
583.0, 0.28432091130469683
584.0, 0.3050887580178667
585.0, 0.3318349476544511
586.0, 0.36978563303565803
587.0, 0.38995564693280454
588.0, 0.40188599336083425
589.0, 0.42987466309972194
590.0, 0.4586766792583999
591.0, 0.49211150705199513
592.0, 0.5146810440534736
593.0, 0.5530231044246624
594.0, 0.5888004910394701
595.0, 0.6011506627055248
596.0, 0.6188058818926033
597.0, 0.6658830239655459
598.0, 0.7172844064220204
599.0, 0.7431177565836499
600.0, 0.77748744281928
601.0, 0.8158939674193908
602.0, 0.8369689643127527
603.0, 0.8603724475827009
604.0, 0.8809670403196975
605.0, 0.9036503669654021
606.0, 0.9353817443883717
607.0, 0.9614469508187072
608.0, 0.9663452036252906
609.0, 0.9610623774651837
610.0, 0.9710322385726218
611.0, 0.9681222502887901
612.0, 0.9758137572232609
613.0, 0.9942868668372202
614.0, 0.99124506667974
615.0, 0.9633556293765995
616.0, 0.9484185761447562
617.0, 0.920486356521857
618.0, 0.9177707473118618
619.0, 0.895315651759103
620.0, 0.8572571904434537
621.0, 0.8283755363181948
622.0, 0.8089001600731099
623.0, 0.7771797860280797
624.0, 0.7450083855280136
625.0, 0.7131664756744159
626.0, 0.685374487405115
627.0, 0.6457441134645681
628.0, 0.6069490468301107
629.0, 0.5850703053218486
630.0, 0.5602554483864752
631.0, 0.5321699690815758
632.0, 0.4978450352819043
633.0, 0.47182729717641614
634.0, 0.44850367258508295
635.0, 0.42524408032204164
636.0, 0.4071149239685072
637.0, 0.3827252731399572
638.0, 0.36258957902317157
639.0, 0.3466718924470009
640.0, 0.34120005106880147
641.0, 0.3297757516605867
642.0, 0.3054191096185102
643.0, 0.2850924829765563
644.0, 0.2820727786299101
645.0, 0.28299115867879976
646.0, 0.2822112955138249
647.0, 0.2591426141443882
648.0, 0.23750385563960794
649.0, 0.24475216131229224
650.0, 0.2555291368777437
651.0, 0.24242779054832542
652.0, 0.2532890541497948
653.0, 0.2483232357450204
654.0, 0.23657872275388833
655.0, 0.23517668699028776
656.0, 0.2429641499761961
657.0, 0.2468968222073652
658.0, 0.2541412107085818
659.0, 0.2523518187773194
660.0, 0.2519591695494162
661.0, 0.2637715163330533
662.0, 0.27201323216237
663.0, 0.2660628059300665
664.0, 0.2590915191573302
665.0, 0.26854189115979893
666.0, 0.2693258409029297
667.0, 0.2458906311839164
668.0, 0.2520542723188599
669.0, 0.2505881748253552
670.0, 0.2362727530045015
671.0, 0.24353974092047795
672.0, 0.24366963613394627
673.0, 0.23905633195103534
674.0, 0.2415905497840765
675.0, 0.233672251842327
676.0, 0.22761890234253984
677.0, 0.23058366244348633
678.0, 0.2262140309180001
679.0, 0.21620065599728736
680.0, 0.20567881391301338
681.0, 0.20573631124100547
682.0, 0.19677813574885172
683.0, 0.1846075899962991
684.0, 0.16764202195487657
685.0, 0.15013629248084048
686.0, 0.15497686218973983
687.0, 0.14276527283964296
688.0, 0.12960692505334975
689.0, 0.13267600493922824
690.0, 0.13044106318132784
691.0, 0.11530520633455847
692.0, 0.09973481733065136
693.0, 0.08720951565201608
694.0, 0.06651205616485438
695.0, 0.08150852082730992
696.0, 0.06908083592679096
697.0, 0.06337781321475992
698.0, 0.06798679196677981
699.0, 0.061946735798925665
700.0, 0.04730360786996734
701.0, 0.044367281418410925
702.0, 0.03327896271353199
703.0, 0.021985893878911967
704.0, 0.02648600160448973
705.0, 0.028674483022212812
706.0, 0.02288112803572222
707.0, 0.014745893010473294
708.0, 0.004058515214461636
709.0, 0.006552436864952437
710.0, 0.004669800126490515
711.0, 0.0072036841173553886
712.0, 0.005367781731954157
713.0, 0.00492059641888183
714.0, 0.009544356135645702
715.0, 0.012638607473273944
716.0, 0.01576441422731198
717.0, 0.009289733424508192
718.0, 0.009139030460415035
719.0, 0.005540348572079929
720.0, 0.0051926624030692314
721.0, 0.005179182961279672
722.0, 0.011834039316886136
723.0, 0.01256434491301317
724.0, 0.01453338524502787
725.0, 0.009791522160158777
726.0, 0.004519150232807966
727.0, 0.004397948291074044
728.0, 0.013529513899268375
729.0, 0.02309187328431775
730.0, 0.020630487757467605
731.0, 0.018805192181172388
732.0, 0.005316692736068758
733.0, 0.005410279876310218
734.0, 0.014766273422710847
735.0, 0.016030707207152058
736.0, 0.0036331295518545505
737.0, 0.004767326392270871
738.0, 0.009653957014414405
739.0, 0.025536573068707866
740.0, 0.005365935985241469
741.0, 0.01241644512025535
742.0, 0.007295577545973162
743.0, 0.00980120357313526
744.0, 0.019461012905898998
745.0, 0.017802872830736303
746.0, 0.021483094244297864
747.0, 0.014270819123896075
748.0, 0.02188177960055937
749.0, 0.0322152394104094
750.0, 0.026745333697394475
751.0, 0.023111506272728687
752.0, 0.017312563253014997
753.0, 0.012316754194890662
754.0, 0.016397584994463272
755.0, 0.013179039802957706
756.0, 0.0250644932315717
757.0, 0.035509037023286776
758.0, 0.027130555409501413
759.0, 0.025648631470038683
760.0, 0.030175923015089895
761.0, 0.0351466883366355
762.0, 0.04274000753646544
763.0, 0.040188069969656015
764.0, 0.033402995524012186
765.0, 0.046485098005336234
766.0, 0.04966840362583726
767.0, 0.049351434461997454
768.0, 0.04368946276711542
769.0, 0.04484952117241671
770.0, 0.0602115229271991
771.0, 0.05161895354601493
772.0, 0.05735889025784869
773.0, 0.04914215534501685
774.0, 0.0451345823189415
775.0, 0.0569334194730299
776.0, 0.06164500884720734
777.0, 0.05528166451355681
778.0, 0.051522930838497356
779.0, 0.049625051956461
780.0, 0.048092778852654235
781.0, 0.038091525244236486
782.0, 0.04034471756997849
783.0, 0.05483467233604498
784.0, 0.05548856977089227
785.0, 0.0459527750788754
786.0, 0.04678880052877462
787.0, 0.04928017651139015
788.0, 0.03922202969293488
789.0, 0.04883950413944017
790.0, 0.03894514185802235
791.0, 0.03724349382843105
792.0, 0.034987699067112354
793.0, 0.03451027396241453
794.0, 0.03461975533361981
795.0, 0.025477282348760077
796.0, 0.023867800727934305
797.0, 0.03252686440327749
798.0, 0.029804230470245205
799.0, 0.051081520108201536
800.0, 0.05158106589441064
801.0, 0.03943543018943999
802.0, 0.031164448955627505
803.0, 0.035213416377479344
804.0, 0.047046958482629575
805.0, 0.03727250797999621
806.0, 0.02388041460734451
807.0, 0.021704001001670786
808.0, 0.03188476350807698
809.0, 0.03703704993621659
810.0, 0.032268038137718925
811.0, 0.026179140732630418
812.0, 0.02930401429465625
813.0, 0.034616865070335595
814.0, 0.02220883230646615
815.0, 0.029138149585943244
816.0, 0.03158258591735969
817.0, 0.023109745101822912
818.0, 0.01916877506170738
819.0, 0.020556380901708717
820.0, 0.023064517403833695
821.0, 0.0300190768103248
822.0, 0.0360581922134978
823.0, 0.021023961889226107
824.0, 0.018061894370772946
825.0, 0.01935180495538132
826.0, 0.01778833982434304
827.0, 0.01991969819289023
828.0, 0.0199617668174445
829.0, 0.0228508832669248
830.0, 0.0268320286875945
831.0, 0.013052100233769862
832.0, 0.02394066566187038
833.0, 0.022532187224149625
834.0, 0.02145847325373522
835.0, 0.02797407535687051
836.0, 0.02907434389722367
837.0, 0.02845358014904719
838.0, 0.030258724370562214
839.0, 0.024782888796634525
840.0, 0.0163656913378292
841.0, 0.02734707589592638
842.0, 0.025284508915118943
843.0, 0.027028449106736033
844.0, 0.013544716430177
845.0, 0.013217903584843982
846.0, 0.020850714451764552
847.0, 0.029036206480495035
848.0, 0.030929549105976537
849.0, 0.01522822420459762
850.0, 0.01673006886270656
851.0, 0.02685393688723359
852.0, 0.031162455413853162
853.0, 0.025856067845841945
854.0, 0.0214809593356177
855.0, 0.01844235817805427
856.0, 0.015596123179564072
857.0, 0.01479946866617192
858.0, 0.01460478479496111
859.0, 0.015935186931444096
860.0, 0.028683831094015486
861.0, 0.014527382833169799
862.0, 0.019060666133374007
863.0, 0.01606301776195443
864.0, 0.016874599464116943
865.0, 0.01258161302722868
866.0, 0.006621657847772445
867.0, 0.012494311851719224
868.0, 0.011414780212795789
869.0, 0.009724261247279379
870.0, 0.01609206921086334
871.0, 0.005913526689863106
872.0, 0.026815855635889348
873.0, 0.02536093779336422
874.0, 0.015360002026610121
875.0, 0.014515669060331363
876.0, 0.008120514712275102
877.0, 0.005767736280044111
878.0, 0.011848577119629363
879.0, 0.009831977012476074
880.0, 0.008799860844186625
881.0, 0.024501089669075084
882.0, 0.01751794520890053
883.0, 0.015151232762732576
884.0, 0.019998961665470365
885.0, 0.015905963076598254
886.0, 0.009259015698776445
887.0, 0.012903088218267961
888.0, 0.015543328068374686
889.0, 0.016680309080258124
890.0, 0.0051166795412982665
891.0, 0.013748184007740869
892.0, 0.009701492609791203
893.0, 0.012288776024521293
894.0, 0.01234411592237815
895.0, 0.016652357218447603
896.0, 0.022515909830319335
897.0, 0.020444896192486087
898.0, 0.027372552012605307
899.0, 0.02212968342515402
900.0, 0.008748042999295678
901.0, 0.01440094401255019
902.0, 0.02103333602634931
903.0, 0.01340216897727256
904.0, 0.004747483163851255
905.0, 0.005531499758253028
906.0, 0.012471093399538322
907.0, 0.015360090034016262
908.0, 0.010776940090386041
909.0, 0.012645594799170911
910.0, 0.0038017076294974703
911.0, 0.01271310517376932
912.0, 0.026283495105504224
913.0, 0.019526457914983912
914.0, 0.01713985405740686
915.0, 0.012147567551393415
916.0, 0.006294014226559697
917.0, 0.0134047174919614
918.0, 0.02047628390809527
919.0, 0.01474386148466231
920.0, 0.009490865189754059
921.0, 0.012448011585478806
922.0, 0.01426931427771125
923.0, 0.005104346681208379
924.0, 0.006930070255668718
925.0, 0.006187240002122737
926.0, 0.006556775011340022
927.0, 0.018980733901435884
928.0, 0.01706049994653686
929.0, 0.006847685598368661
930.0, 0.01629398968979601
931.0, 0.010296852243970367
932.0, 0.02291714616992317
933.0, 0.014194358450227729
934.0, 0.008123863812424617
935.0, 0.009787652813109057
936.0, 0.016206411701801746
937.0, 0.022101740984593582
938.0, 0.006896482850502403
939.0, 0.009684570397305282
940.0, 0.03410726524433077
941.0, 0.01826625254249988
942.0, 0.004845508843971183
943.0, 0.00457309112750193
944.0, 0.009804233829705291
945.0, 0.006280804606191269
946.0, 0.010084392217564032
947.0, 0.021549497129565935
948.0, 0.02234054561043447
949.0, 0.011865984289988977
950.0, 0.009692228639710932
951.0, 0.019457192893118057
952.0, 0.015058082610601193
953.0, 0.00568767780410244
954.0, 0.006743413516131768
955.0, 0.02510505408522936
956.0, 0.02438662864858072
957.0, 0.009567219596272453
958.0, 0.004863997941216574
959.0, 0.010192862647914682
960.0, 0.006589617123932828
961.0, 0.006361385103894716
962.0, 0.014239568121575993
963.0, 0.014049861698688895
964.0, 0.013645483159428562
965.0, 0.007383856034424922
966.0, 0.005549045650051055
967.0, 0.015066561017573333
968.0, 0.00839035496808901
969.0, 0.01660061259073832
970.0, 0.018361944167128094
971.0, 0.01533467677494432
972.0, 0.020447503266731986
973.0, 0.022495046003484693
974.0, 0.014557391506515886
975.0, 0.014400251283294915
976.0, 0.018701195793984007
977.0, 0.01413092746041091
978.0, 0.01401143578833936
979.0, 0.02303986919341476
980.0, 0.004261827603625232
981.0, 0.0054928196070633635
982.0, 0.010374384195377093
983.0, 0.013801187833994717
984.0, 0.022009124805488067
985.0, 0.02074463688267839
986.0, 0.007176596291013581
987.0, 0.013143759762750359
988.0, 0.014209429293922304
989.0, 0.016152261325772535
990.0, 0.024114485481502513
991.0, 0.014571209523995456
992.0, 0.018319979348206495
993.0, 0.01891620670282225
994.0, 0.011797784584710534
995.0, 0.009269588827963618
996.0, 0.01153823869705244
997.0, 0.020711673728674156
998.0, 0.02755469734231956
999.0, 0.018144432444601014
1000.0, 0.014582270053962761
1001.0, 0.015917458433547055
1002.0, 0.020229708168771357
1003.0, 0.009982190680156669
1004.0, 0.02001589815117091
1005.0, 0.012648668333451234
1006.0, 0.004508725622945932
1007.0, 0.013222692494452902
1008.0, 0.022261709562802205
1009.0, 0.026383924108395403
1010.0, 0.027460127418920205
1011.0, 0.028082060745301327
1012.0, 0.026317302923377063
1013.0, 0.010095796981975358
1014.0, 0.01012325296768123
1015.0, 0.008979980905774563
1016.0, 0.014561600813231542
1017.0, 0.02483562544374325
1018.0, 0.0296706186539178
1019.0, 0.018458925036836944
1020.0, 0.005596418280164202
1021.0, 0.010172165850176577
1022.0, 0.01760952155046239
1023.0, 0.018640119173083367
1024.0, 0.02403799483310158
1025.0, 0.030086928586916167
1026.0, 0.018173481584278586
1027.0, 0.004140674213389593
1028.0, 0.012680865944431062
1029.0, 0.021679111382886654
1030.0, 0.014582688435248074
1031.0, 0.013746075022323476
1032.0, 0.02133925626313153
1033.0, 0.02044073622813288
1034.0, 0.02170414706195134
1035.0, 0.012752669296133055
1036.0, 0.003631610849995914
1037.0, 0.006664171329197928
1038.0, 0.014444084628695663
1039.0, 0.015446300198075318
1040.0, 0.00494444841372063
1041.0, 0.006785903945422964
1042.0, 0.021370133535598662
1043.0, 0.012677484893195453
1044.0, 0.01807506755952324
1045.0, 0.019607765955601764
1046.0, 0.01202317543411759
1047.0, 0.013338643168179346
1048.0, 0.01334447742913689
1049.0, 0.011029804289015703
1050.0, 0.017334824947826157
1051.0, 0.01817113175527518
1052.0, 0.012119235127675737
1053.0, 0.01691770677042993
1054.0, 0.011618248834375969
1055.0, 0.0077374325303300635
1056.0, 0.017468778528408207
1057.0, 0.008782376630786732
1058.0, 0.025976275288948462
1059.0, 0.02953628467034872
1060.0, 0.024240748106440065
1061.0, 0.005536932910716957
1062.0, 0.010952727552649678
1063.0, 0.013838131859457264
1064.0, 0.009374453170138344
1065.0, 0.00969986269564829
1066.0, 0.009064000197099378
1067.0, 0.015216722517665204
1068.0, 0.017768632558562616
1069.0, 0.022704679353680958
1070.0, 0.02962732424054895
1071.0, 0.015057473730556003
1072.0, 0.01471653747218957
1073.0, 0.021080190420005872
1074.0, 0.014966261949267994
1075.0, 0.014468670392988258
1076.0, 0.028953739287416225
1077.0, 0.019341357817617658
1078.0, 0.006037479569067055
1079.0, 0.016575172107828894
1080.0, 0.02249653212933267
1081.0, 0.018741464393435565
1082.0, 0.011617692346527424
1083.0, 0.004392807787829102
1084.0, 0.013737809812542877
1085.0, 0.030252063781506557
1086.0, 0.017940061153573855
1087.0, 0.014199249169174878
1088.0, 0.025054834896559557
1089.0, 0.024166742684638875
1090.0, 0.004981868381292336
1091.0, 0.013826324865838078
1092.0, 0.02375651276777421
1093.0, 0.015302830908749926
1094.0, 0.01570671000741986
1095.0, 0.02011693607618536
1096.0, 0.01734665792317522
1097.0, 0.016176794512752474
1098.0, 0.006735287131098818
1099.0, 0.005612350419515923
1100.0, 0.014312006816506436
1101.0, 0.015927806084755344
1102.0, 0.02547351502552484
1103.0, 0.01367197241183758
1104.0, 0.024498945494098076
1105.0, 0.018625072336927496
1106.0, 0.010809557592654468
1107.0, 0.02034141508855262
1108.0, 0.021395801973379053
1109.0, 0.015723367210701094
1110.0, 0.015127433011185047
1111.0, 0.01844999628132698
1112.0, 0.015768619365334642
1113.0, 0.01275790378842693
1114.0, 0.009226083374632153
1115.0, 0.009219457969885327
1116.0, 0.006085648347774251
1117.0, 0.005673394336482503
1118.0, 0.011744426394408168
1119.0, 0.007756313156500731
1120.0, 0.00993633988331318
1121.0, 0.014802113576759125
1122.0, 0.004589872285312505
1123.0, 0.013241805424815883
1124.0, 0.009290584612935495
1125.0, 0.011619963562936427
1126.0, 0.024463990554325268
1127.0, 0.004901303474950276
1128.0, 0.01077314518761922
1129.0, 0.02419587700619704
1130.0, 0.020023787203141897
1131.0, 0.017566223225892692
1132.0, 0.017338012379131157
1133.0, 0.01666625094088231
1134.0, 0.013154823374593434
1135.0, 0.015968585216045134
1136.0, 0.01799169561496838
1137.0, 0.01477618796928384
1138.0, 0.021097893459724452
1139.0, 0.020984602300987917
1140.0, 0.020536881584117178
1141.0, 0.017543800676501135
1142.0, 0.010305032297243546
1143.0, 0.013427772366122479
1144.0, 0.014358956031358849
1145.0, 0.020932560424278362
1146.0, 0.01330200684300126
1147.0, 0.01027735747860148
1148.0, 0.02635104704669866
1149.0, 0.02402660825552608
1150.0, 0.012604340873186176
1151.0, 0.00623748486163551
1152.0, 0.004127642502085035
1153.0, 0.017007734088143267
1154.0, 0.021005414821154193
1155.0, 0.014435601192510084
1156.0, 0.0182860117146265
1157.0, 0.016613085474389024
1158.0, 0.009476183622623143
1159.0, 0.014317239952129983
1160.0, 0.008760548124329708
1161.0, 0.007701681614788393
1162.0, 0.011281610487792759
1163.0, 0.01173353808519492
1164.0, 0.027855193687361602
1165.0, 0.01757533084913614
1166.0, 0.013931481958502218
1167.0, 0.0106770852729567
1168.0, 0.021686631971044697
1169.0, 0.0036933984281018175
1170.0, 0.008823702375581912
1171.0, 0.016901343312669036
1172.0, 0.007485115986620499
1173.0, 0.023731718113273733
1174.0, 0.023390902814907185
1175.0, 0.008685506757291087
1176.0, 0.0121104648484352
1177.0, 0.013013682356206459
1178.0, 0.019349015568116627
1179.0, 0.012571985893407378
1180.0, 0.01311400737833694
1181.0, 0.016507236166900086
1182.0, 0.013752132656417384
1183.0, 0.015737486239132424
1184.0, 0.012980837648503076
1185.0, 0.016359990195309516
1186.0, 0.012663418230558264
1187.0, 0.006494424001721896
1188.0, 0.013609582638940665
1189.0, 0.003597189678432294
1190.0, 0.022181260526828485
1191.0, 0.010542280585273168
1192.0, 0.006220052063064939
1193.0, 0.004386996669959538
1194.0, 0.006193949992219343
1195.0, 0.009316938957905311
1196.0, 0.01775166408961022
1197.0, 0.005941985957494335
1198.0, 0.015453221181454325
1199.0, 0.01787737533743135
1200.0, 0.014880667015182775
1201.0, 0.02072009645943425
1202.0, 0.017085015975844883
1203.0, 0.006421778177427803
1204.0, 0.008562902267282577
1205.0, 0.017350327963979575
1206.0, 0.016034395996934556
1207.0, 0.013834778009227076
1208.0, 0.010129187458431863
1209.0, 0.011829484733745215
1210.0, 0.02009301952421862
1211.0, 0.014169832602667068
1212.0, 0.009241463791419949
1213.0, 0.007878368475096754
1214.0, 0.021350590635050994
1215.0, 0.007637058227097905
1216.0, 0.01280150058912743
1217.0, 0.012697053398168963
1218.0, 0.015353992495019082
1219.0, 0.024839508161010944
1220.0, 0.02065529840916223
1221.0, 0.01186517765708029
1222.0, 0.029961956750286872
1223.0, 0.017203471034352907
1224.0, 0.012103047690833871
1225.0, 0.01900826011196292
1226.0, 0.019315107917751588
1227.0, 0.01907104350537636
1228.0, 0.015638664748376413
1229.0, 0.011977076631168461
1230.0, 0.01147995956348909
1231.0, 0.014737054650255623
1232.0, 0.016487644346778473
1233.0, 0.010094730803915479
1234.0, 0.004004988507935597
1235.0, 0.008680651745214919
1236.0, 0.011069434769134868
1237.0, 0.006637078842247911
1238.0, 0.009422683222912457
1239.0, 0.009975277630686282
1240.0, 0.003361545756104145
1241, 0.0
1242, 0.0
1243, 0.0
1244, 0.0
1245, 0.0
1246, 0.0
1247, 0.0
1248, 0.0
1249, 0.0
1250, 0.0
1251, 0.0
1252, 0.0
1253, 0.0
1254, 0.0
1255, 0.0
1256, 0.0
1257, 0.0
1258, 0.0
1259, 0.0
1260, 0.0
1261, 0.0
1262, 0.0
1263, 0.0
1264, 0.0
1265, 0.0
1266, 0.0
1267, 0.0
1268, 0.0
1269, 0.0
1270, 0.0
1271, 0.0
1272, 0.0
1273, 0.0
1274, 0.0
1275, 0.0
1276, 0.0
1277, 0.0
1278, 0.0
1279, 0.0
1280, 0.0
1281, 0.0
1282, 0.0
1283, 0.0
1284, 0.0
1285, 0.0
1286, 0.0
1287, 0.0
1288, 0.0
1289, 0.0
1290, 0.0
1291, 0.0
1292, 0.0
1293, 0.0
1294, 0.0
1295, 0.0
1296, 0.0
1297, 0.0
1298, 0.0
1299, 0.0
1300, 0.0
1301, 0.0
1302, 0.0
1303, 0.0
1304, 0.0
1305, 0.0
1306, 0.0
1307, 0.0
1308, 0.0
1309, 0.0
1310, 0.0
1311, 0.0
1312, 0.0
1313, 0.0
1314, 0.0
1315, 0.0
1316, 0.0
1317, 0.0
1318, 0.0
1319, 0.0
1320, 0.0
1321, 0.0
1322, 0.0
1323, 0.0
1324, 0.0
1325, 0.0
1326, 0.0
1327, 0.0
1328, 0.0
1329, 0.0
1330, 0.0
1331, 0.0
1332, 0.0
1333, 0.0
1334, 0.0
1335, 0.0
1336, 0.0
1337, 0.0
1338, 0.0
1339, 0.0
1340, 0.0
1341, 0.0
1342, 0.0
1343, 0.0
1344, 0.0
1345, 0.0
1346, 0.0
1347, 0.0
1348, 0.0
1349, 0.0
1350, 0.0
1351, 0.0
1352, 0.0
1353, 0.0
1354, 0.0
1355, 0.0
1356, 0.0
1357, 0.0
1358, 0.0
1359, 0.0
1360, 0.0
1361, 0.0
1362, 0.0
1363, 0.0
1364, 0.0
1365, 0.0
1366, 0.0
1367, 0.0
1368, 0.0
1369, 0.0
1370, 0.0
1371, 0.0
1372, 0.0
1373, 0.0
1374, 0.0
1375, 0.0
1376, 0.0
1377, 0.0
1378, 0.0
1379, 0.0
1380, 0.0
1381, 0.0
1382, 0.0
1383, 0.0
1384, 0.0
1385, 0.0
1386, 0.0
1387, 0.0
1388, 0.0
1389, 0.0
1390, 0.0
1391, 0.0
1392, 0.0
1393, 0.0
1394, 0.0
1395, 0.0
1396, 0.0
1397, 0.0
1398, 0.0
1399, 0.0
1400, 0.0
1401, 0.0
1402, 0.0
1403, 0.0
1404, 0.0
1405, 0.0
1406, 0.0
1407, 0.0
1408, 0.0
1409, 0.0
1410, 0.0
1411, 0.0
1412, 0.0
1413, 0.0
1414, 0.0
1415, 0.0
1416, 0.0
1417, 0.0
1418, 0.0
1419, 0.0
1420, 0.0
1421, 0.0
1422, 0.0
1423, 0.0
1424, 0.0
1425, 0.0
1426, 0.0
1427, 0.0
1428, 0.0
1429, 0.0
1430, 0.0
1431, 0.0
1432, 0.0
1433, 0.0
1434, 0.0
1435, 0.0
1436, 0.0
1437, 0.0
1438, 0.0
1439, 0.0
1440, 0.0
1441, 0.0
1442, 0.0
1443, 0.0
1444, 0.0
1445, 0.0
1446, 0.0
1447, 0.0
1448, 0.0
1449, 0.0
1450, 0.0
1451, 0.0
1452, 0.0
1453, 0.0
1454, 0.0
1455, 0.0
1456, 0.0
1457, 0.0
1458, 0.0
1459, 0.0
1460, 0.0
1461, 0.0
1462, 0.0
1463, 0.0
1464, 0.0
1465, 0.0
1466, 0.0
1467, 0.0
1468, 0.0
1469, 0.0
1470, 0.0
1471, 0.0
1472, 0.0
1473, 0.0
1474, 0.0
1475, 0.0
1476, 0.0
1477, 0.0
1478, 0.0
1479, 0.0
1480, 0.0
1481, 0.0
1482, 0.0
1483, 0.0
1484, 0.0
1485, 0.0
1486, 0.0
1487, 0.0
1488, 0.0
1489, 0.0
1490, 0.0
1491, 0.0
1492, 0.0
1493, 0.0
1494, 0.0
1495, 0.0
1496, 0.0
1497, 0.0
1498, 0.0
1499, 0.0
1500, 0.0
1501, 0.0
1502, 0.0
1503, 0.0
1504, 0.0
1505, 0.0
1506, 0.0
1507, 0.0
1508, 0.0
1509, 0.0
1510, 0.0
1511, 0.0
1512, 0.0
1513, 0.0
1514, 0.0
1515, 0.0
1516, 0.0
1517, 0.0
1518, 0.0
1519, 0.0
1520, 0.0
1521, 0.0
1522, 0.0
1523, 0.0
1524, 0.0
1525, 0.0
1526, 0.0
1527, 0.0
1528, 0.0
1529, 0.0
1530, 0.0
1531, 0.0
1532, 0.0
1533, 0.0
1534, 0.0
1535, 0.0
1536, 0.0
1537, 0.0
1538, 0.0
1539, 0.0
1540, 0.0
1541, 0.0
1542, 0.0
1543, 0.0
1544, 0.0
1545, 0.0
1546, 0.0
1547, 0.0
1548, 0.0
1549, 0.0
1550, 0.0
1551, 0.0
1552, 0.0
1553, 0.0
1554, 0.0
1555, 0.0
1556, 0.0
1557, 0.0
1558, 0.0
1559, 0.0
1560, 0.0
1561, 0.0
1562, 0.0
1563, 0.0
1564, 0.0
1565, 0.0
1566, 0.0
1567, 0.0
1568, 0.0
1569, 0.0
1570, 0.0
1571, 0.0
1572, 0.0
1573, 0.0
1574, 0.0
1575, 0.0
1576, 0.0
1577, 0.0
1578, 0.0
1579, 0.0
1580, 0.0
1581, 0.0
1582, 0.0
1583, 0.0
1584, 0.0
1585, 0.0
1586, 0.0
1587, 0.0
1588, 0.0
1589, 0.0
1590, 0.0
1591, 0.0
1592, 0.0
1593, 0.0
1594, 0.0
1595, 0.0
1596, 0.0
1597, 0.0
1598, 0.0
1599, 0.0
