30, 0.0
31, 0.0
32, 0.0
33, 0.0
34, 0.0
35, 0.0
36, 0.0
37, 0.0
38, 0.0
39, 0.0
40, 0.0
41, 0.0
42, 0.0
43, 0.0
44, 0.0
45, 0.0
46, 0.0
47, 0.0
48, 0.0
49, 0.0
50, 0.0
51, 0.0
52, 0.0
53, 0.0
54, 0.0
55, 0.0
56, 0.0
57, 0.0
58, 0.0
59, 0.0
60, 0.0
61, 0.0
62, 0.0
63, 0.0
64, 0.0
65, 0.0
66, 0.0
67, 0.0
68, 0.0
69, 0.0
70, 0.0
71, 0.0
72, 0.0
73, 0.0
74, 0.0
75, 0.0
76, 0.0
77, 0.0
78, 0.0
79, 0.0
80, 0.0
81, 0.0
82, 0.0
83, 0.0
84, 0.0
85, 0.0
86, 0.0
87, 0.0
88, 0.0
89, 0.0
90, 0.0
91, 0.0
92, 0.0
93, 0.0
94.0, 0.00034704804649235356
95.0, 0.0007983156606677733
96.0, 0.0007140148802001493
97.0, 0.0007027663504790371
98.0, 0.0007609637540967137
99.0, 0.0010094326264954222
100.0, 0.0009300923175011545
101.0, 0.0001531572720490628
102.0, 0.0004236010552995641
103.0, 0.0007887535512112009
104.0, 0.005340347142078761
105.0, 0.014027725003387984
106.0, 0.025767090857051502
107.0, 0.039309038373495725
108.0, 0.05446250958053683
109.0, 0.065645325492394
110.0, 0.0645982783234615
111.0, 0.05229753120269346
112.0, 0.04005366461442767
113.0, 0.038972961931048336
114.0, 0.047240123879115255
115.0, 0.057135069166867426
116.0, 0.06531612783893197
117.0, 0.0707451005319388
118.0, 0.07075443089564376
119.0, 0.05909411770593634
120.0, 0.04690526626516454
121.0, 0.03717569047986364
122.0, 0.029548349500966284
123.0, 0.019804243666167256
124.0, 0.013346093114696343
125.0, 0.007001969886748198
126.0, 0.0028335877085673734
127.0, 0.0013203507638603076
128.0, 0.0006396389441660402
129.0, 0.0013514083412383975
130.0, 0.002374898923947536
131.0, 0.002591342828095987
132.0, 0.0019076251909787604
133.0, 0.001069071891717684
134.0, 0.00248400987537529
135.0, 0.0038280582780443133
136.0, 0.006177288411527506
137.0, 0.00873851435466903
138.0, 0.011142237946471725
139.0, 0.015011928535744177
140.0, 0.017774466133892105
141.0, 0.021101579772951674
142.0, 0.02465749327579877
143.0, 0.028661591382095994
144.0, 0.03387033395353984
145.0, 0.039214721378199355
146.0, 0.0468332717467947
147.0, 0.05078960703121121
148.0, 0.05181005818433121
149.0, 0.05269533281853608
150.0, 0.05282095068676135
151.0, 0.06268799670388683
152.0, 0.0706976095171061
153.0, 0.0773806878553512
154.0, 0.08292700856558032
155.0, 0.08443461331438686
156.0, 0.08245636949101894
157.0, 0.07518456928884497
158.0, 0.06408826457306041
159.0, 0.0502143883648227
160.0, 0.03498377848594337
161.0, 0.02523134426484771
162.0, 0.017380306438349542
163.0, 0.012537504009084542
164.0, 0.009819441839057058
165.0, 0.008130881551089979
166.0, 0.00720212440800493
167.0, 0.005991315158669117
168.0, 0.00614070993420699
169.0, 0.006346731282012985
170.0, 0.0062301362051724605
171.0, 0.006433448192999026
172.0, 0.008379875636830328
173.0, 0.007785526192430794
174.0, 0.00871914560873151
175.0, 0.010469128730814825
176.0, 0.011393065242576396
177.0, 0.011666842751113116
178.0, 0.012970968870345725
179.0, 0.015312319596115263
180.0, 0.01757197320359042
181.0, 0.01861081276261294
182.0, 0.017911791893356968
183.0, 0.022614307095676158
184.0, 0.02720621307034543
185.0, 0.029604950138835746
186.0, 0.033017962855031786
187.0, 0.040258470171412014
188.0, 0.04634546135622077
189.0, 0.05296349997081083
190.0, 0.05921744141644691
191.0, 0.06565534475905334
192.0, 0.07291187384881095
193.0, 0.08138627324918177
194.0, 0.08914776033641729
195.0, 0.09489666266423771
196.0, 0.1011799956254415
197.0, 0.10781043940507604
198.0, 0.11438468982593313
199.0, 0.12330535961254231
200.0, 0.12994378834248926
201.0, 0.137956972734883
202.0, 0.14510722975261148
203.0, 0.14883426539442593
204.0, 0.1472410496942504
205.0, 0.14115016868770738
206.0, 0.13620752743356268
207.0, 0.1351102014598522
208.0, 0.13810380120072085
209.0, 0.1440723406935525
210.0, 0.15093630434890193
211.0, 0.15298569136049903
212.0, 0.15204025426027942
213.0, 0.15070689643189406
214.0, 0.14782577425896357
215.0, 0.1397274674787326
216.0, 0.1313817553225758
217.0, 0.1305839945337677
218.0, 0.12078573680490319
219.0, 0.10823341308964464
220.0, 0.10083177455996573
221.0, 0.09608007065697019
222.0, 0.09158281516043197
223.0, 0.09385899935004248
224.0, 0.09381623349877562
225.0, 0.09333233061776115
226.0, 0.09932129886054553
227.0, 0.10082011336416262
228.0, 0.10536846577673505
229.0, 0.11131837289271482
230.0, 0.1187897697568146
231.0, 0.12774092279221128
232.0, 0.13739632511045416
233.0, 0.14242787385174807
234.0, 0.1513453342028012
235.0, 0.15745952674265562
236.0, 0.16187099179779693
237.0, 0.1679674656257142
238.0, 0.17401661097332574
239.0, 0.17902802994921468
240.0, 0.18279161998433505
241.0, 0.18649119585900814
242.0, 0.19009604181466064
243.0, 0.1925103813586925
244.0, 0.1953218806149673
245.0, 0.1965861938653828
246.0, 0.1973243685857898
247.0, 0.19819375777673637
248.0, 0.20057393261369835
249.0, 0.20725749044234923
250.0, 0.2160190588074614
251.0, 0.22937831570061665
252.0, 0.24432909251917279
253.0, 0.2603015360012622
254.0, 0.27833115399593467
255.0, 0.29999461529832816
256.0, 0.32735550606493735
257.0, 0.3519896246731289
258.0, 0.37682257159102645
259.0, 0.4031009083684705
260.0, 0.42792560569335103
261.0, 0.43701217166234435
262.0, 0.44673379544851427
263.0, 0.4532392104395019
264.0, 0.4561942549456109
265.0, 0.45584614684609387
266.0, 0.45154964824437477
267.0, 0.44304489553543724
268.0, 0.42869697745166047
269.0, 0.40926919012276597
270.0, 0.38754970780646886
271.0, 0.36557829221751015
272.0, 0.33905598504117956
273.0, 0.31311113791146983
274.0, 0.2892084247036538
275.0, 0.2630407110173677
276.0, 0.2366760032054541
277.0, 0.21618582988869509
278.0, 0.1915404589781028
279.0, 0.17276924095650611
280.0, 0.15511437025260177
281.0, 0.13869147118338038
282.0, 0.12399652192225123
283.0, 0.11062304480609367
284.0, 0.09711477589845498
285.0, 0.08853060618077149
286.0, 0.0788548930031067
287.0, 0.06864676335934915
288.0, 0.060350655314227446
289.0, 0.05488809358969768
290.0, 0.04760180265115913
291.0, 0.041643544476636006
292.0, 0.03660598839209101
293.0, 0.03245144367838931
294.0, 0.028768957689125803
295.0, 0.022608334999865844
296.0, 0.02001540689588096
297.0, 0.017348702322749765
298.0, 0.014600640232718214
299.0, 0.012116391940906492
300.0, 0.010207259026287463
301.0, 0.00897980140136214
302.0, 0.007346350496028013
303.0, 0.0059262923560394355
304.0, 0.0036413227271795776
305.0, 0.0014054923797742372
306.0, 0.0022068085729253745
307.0, 0.0004570859917405151
308.0, 0.0020945143096520774
309.0, 0.0025518738329733228
310.0, 0.001536600331612563
311.0, 0.0004250863334459377
312.0, 0.0010951270776918963
313.0, 0.0009601745375678859
314.0, 0.0008391800105333263
315.0, 0.0010410888264737181
316.0, 0.0015066295754089856
317.0, 0.0018115973604565397
318.0, 0.0010938464546924778
319.0, 0.0023206065558776384
320.0, 0.0021176905807030267
321.0, 0.0019991490821904844
322.0, 0.0017344924433480337
323.0, 0.0008546000405620789
324.0, 0.001323324364757006
325.0, 0.0029108972531165078
326.0, 0.004270042052734708
327.0, 0.004460757574938843
328.0, 0.004663765577744995
329.0, 0.00644323211069037
330.0, 0.0070971178705444005
331.0, 0.008916800064269939
332.0, 0.010155909373655368
333.0, 0.011615128921348954
334.0, 0.013633881059726854
335.0, 0.015837066414290616
336.0, 0.017321972954577557
337.0, 0.018743037779915837
338.0, 0.02232417160477836
339.0, 0.025383140364513033
340.0, 0.027230234827047714
341.0, 0.029718698028273757
342.0, 0.03382584746664416
343.0, 0.037662014940629665
344.0, 0.04095828853490532
345.0, 0.044231511834555565
346.0, 0.04823963722881628
347.0, 0.05363033040780745
348.0, 0.05985120782303972
349.0, 0.06860647390476766
350.0, 0.07589692429295061
351.0, 0.0840846235185629
352.0, 0.0943064392401991
353.0, 0.10499159735775705
354.0, 0.1195999731526806
355.0, 0.1310948985098166
356.0, 0.14338149978471817
357.0, 0.1571807003583564
358.0, 0.17187654306516675
359.0, 0.18629292958433377
360.0, 0.20130068900557307
361.0, 0.2136323468051251
362.0, 0.2252600518787469
363.0, 0.23752569507204827
364.0, 0.24880395543953357
365.0, 0.2547251013082068
366.0, 0.2619353186500655
367.0, 0.2624259748778576
368.0, 0.2624001037957086
369.0, 0.26019171740392255
370.0, 0.2542359015788027
371.0, 0.2459563726828547
372.0, 0.23790702149272472
373.0, 0.22781029875686973
374.0, 0.21722624403686508
375.0, 0.2051492311674047
376.0, 0.19246590797400828
377.0, 0.18252052841056432
378.0, 0.1699847663903802
379.0, 0.1600817056617641
380.0, 0.1515149990778433
381.0, 0.1416781477435697
382.0, 0.1311038813513908
383.0, 0.12385010532430159
384.0, 0.11674851715866821
385.0, 0.10951314239818737
386.0, 0.10238086347260822
387.0, 0.0962387162320039
388.0, 0.0915111198620452
389.0, 0.08747553459764208
390.0, 0.07984947253463
391.0, 0.07499354797161671
392.0, 0.06974288706987043
393.0, 0.06597830748646397
394.0, 0.06364301820221872
395.0, 0.06031595056670639
396.0, 0.057371147597263236
397.0, 0.05506896687265096
398.0, 0.051107790097879496
399.0, 0.048717793240938785
400.0, 0.04746378081398073
401.0, 0.04394840099413048
402.0, 0.040366245349976716
403.0, 0.04181894511995223
404.0, 0.04089204261882778
405.0, 0.038521646716109297
406.0, 0.035833304701825296
407.0, 0.0332890477648047
408.0, 0.031168418161380745
409.0, 0.03031829392731685
410.0, 0.029342179254412716
411.0, 0.02948483044274176
412.0, 0.029534666257724666
413.0, 0.028347341982482507
414.0, 0.029721578497787705
415.0, 0.029080427382047726
416.0, 0.029120047043792834
417.0, 0.031204722500491337
418.0, 0.03376801454761329
419.0, 0.03541345653497478
420.0, 0.038242610625859236
421.0, 0.04064759618428786
422.0, 0.04401221358381215
423.0, 0.04783534774508234
424.0, 0.05199907788640826
425.0, 0.056477117060962395
426.0, 0.061197038709904186
427.0, 0.06707579168455846
428.0, 0.07220903673841816
429.0, 0.07745036145823474
430.0, 0.08371585073367194
431.0, 0.0907383848670688
432.0, 0.09724265103573339
433.0, 0.10547759092066845
434.0, 0.11080482981332947
435.0, 0.11639515859397502
436.0, 0.12046123271738544
437.0, 0.12277181138391895
438.0, 0.12508037322825538
439.0, 0.12821615285844412
440.0, 0.12731638270263176
441.0, 0.12724264766310303
442.0, 0.12515524019456764
443.0, 0.1215590005860784
444.0, 0.11882806844798105
445.0, 0.1171183386400974
446.0, 0.10878127712536659
447.0, 0.10344805350471649
448.0, 0.09780274601735978
449.0, 0.09162421251522224
450.0, 0.08523110654006452
451.0, 0.07747984167755095
452.0, 0.07313627569193103
453.0, 0.06669647380065202
454.0, 0.0609561342660625
455.0, 0.057136727323230004
456.0, 0.05395977558642559
457.0, 0.04858905130718162
458.0, 0.043526855923060256
459.0, 0.04079433095049752
460.0, 0.03831757257888419
461.0, 0.035224926493613994
462.0, 0.0324271826496566
463.0, 0.030726681525051584
464.0, 0.026332173484860777
465.0, 0.024818091932569123
466.0, 0.022113886855422163
467.0, 0.01888290930250116
468.0, 0.01587167556324381
469.0, 0.013559988693395628
470.0, 0.012045920769285446
471.0, 0.011857543828565966
472.0, 0.009910698378662037
473.0, 0.009588761455397492
474.0, 0.008986846928300467
475.0, 0.007461055016307138
476.0, 0.007076117220284353
477.0, 0.006333662129524318
478.0, 0.005571841896477876
479.0, 0.004160138752563343
480.0, 0.0034631430409410345
481.0, 0.0037250701155579495
482.0, 0.003941307313441816
483.0, 0.0025569739627460913
484.0, 0.0016342968910122984
485.0, 0.0007579243788647932
486.0, 0.0005812485995624095
487.0, 0.0009916066846102113
488.0, 0.001274047276797036
489.0, 0.0006590194562112993
490.0, 0.0016774341213440594
491.0, 0.002023646741493663
492.0, 0.0019694252148490317
493.0, 0.0012279395104576468
494.0, 0.0011866071228762258
495.0, 0.0030895711964208966
496.0, 0.0021944689121486914
497.0, 0.0014909568387228016
498.0, 0.001289300025884539
499.0, 0.0008522021165283522
500.0, 0.0004033250247993183
501.0, 0.0002650165038670319
502.0, 0.00011916688328740386
503.0, 0.0009599355666236153
504.0, 0.0009853500550857106
505.0, 0.00044235866099444734
506.0, 0.00044249134172891463
507.0, 0.0006942433729809957
508.0, 0.00017215041584406912
509.0, 0.000979310295692373
510.0, 0.0008214076592222716
511.0, 0.000848025306592198
512.0, 0.0009693546507101514
513.0, 0.001243983671405684
514.0, 0.0013749457682694136
515.0, 0.000506303296860523
516.0, 0.0007412699502522861
517.0, 0.0007035288956474864
518.0, 0.0005643403110555727
519.0, 0.0009859025063692459
520.0, 0.0014417216341813424
521.0, 0.001243245516866766
522.0, 0.0031684336941099085
523.0, 0.0005863781368514475
524.0, 0.00010029830756123396
525.0, 0.0007354183909366637
526.0, 0.001492318721474448
527.0, 0.0019665654894351725
528.0, 0.002414467371390594
529.0, 0.002432245854069994
530.0, 0.0023804784995365967
531.0, 0.0020229917401054206
532.0, 0.0017338719121630154
533.0, 0.0015750083449576886
534.0, 0.0015085196893966108
535.0, 0.00205492206708738
536.0, 0.001955446378152119
537.0, 0.0017954207600758732
538.0, 0.001033746102148845
539.0, 0.000690661321648119
540.0, 0.0009799601221942066
541.0, 0.0012086451429972442
542.0, 0.00433176833647304
543.0, 0.0020054903605551473
544.0, 0.0022169304669989033
545.0, 0.001961930130935395
546.0, 0.002180624392186054
547.0, 0.0037144433062301233
548.0, 0.0029123722902386
549.0, 0.0035046154105585234
550.0, 0.004907134435150228
551.0, 0.005387531062217954
552.0, 0.005693635952742305
553.0, 0.005763106315565271
554.0, 0.005120225515902943
555.0, 0.005129085003672757
556.0, 0.004632079080944142
557.0, 0.004194039759443903
558.0, 0.005193172926172068
559.0, 0.005151056017882165
560.0, 0.00413171362706934
561.0, 0.005470186609048251
562.0, 0.007156118247716024
563.0, 0.00713508413842768
564.0, 0.006986848477836455
565.0, 0.00674932335185176
566.0, 0.006305381981331664
567.0, 0.005955541679656461
568.0, 0.006373189564655768
569.0, 0.005612184343951613
570.0, 0.006610111188338685
571.0, 0.007449970807541713
572.0, 0.006593160463158882
573.0, 0.005577257710303317
574.0, 0.006143752584774314
575.0, 0.0063430237873252655
576.0, 0.006281551467475262
577.0, 0.005588743393453912
578.0, 0.003486313436066654
579.0, 0.0015094558166136962
580.0, 0.0006394076979185419
581.0, 0.0007053238982347765
582.0, 0.001027459242371972
583.0, 0.00041589271587933244
584.0, 0.001534759766075645
585.0, 0.0020274303676634095
586.0, 0.001755711753629738
587.0, 0.0016474845092688958
588.0, 0.002146033164889822
589.0, 0.00077329043154685
590.0, 0.002127488797313403
591.0, 0.0008828865846635936
592.0, 0.0009325373190893996
593.0, 0.0012994997380362818
594.0, 0.000994226660048422
595.0, 0.0012213295522359611
596.0, 0.002336899567584242
597.0, 0.0016953691954162031
598.0, 0.0005547451864191832
599.0, 0.0009234177060581735
600.0, 0.0016840696025680773
601.0, 0.0014197019596547246
602.0, 0.0006203155532682669
603.0, 0.0015627299492188217
604.0, 0.001142349137227966
605.0, 0.0008538292575812818
606.0, 0.00042883394691732227
607.0, 0.0007329872777542391
608.0, 0.001740668485944862
609.0, 0.001541567468776004
610.0, 0.00016494395384872242
611.0, 0.00017378467328936804
612.0, 0.0004544946618731449
613.0, 0.0006652350117024259
614.0, 0.0004994037863426218
615.0, 0.0003502646112650257
616.0, 0.0012732020733040163
617.0, 0.0015618988244507715
618.0, 0.0007692095066844137
619.0, 0.0007916518158522222
620.0, 0.0014853246703024278
621.0, 0.002187086825294756
622.0, 0.0020976075552859175
623.0, 0.001131741633126314
624.0, 0.003869315953940115
625.0, 0.0014431034496608607
626.0, 0.0019311508617321574
627.0, 0.0031825364595551467
628.0, 0.0028888698475270733
629.0, 0.0016797939916683713
630.0, 0.0027811988134685216
631.0, 0.0026073459651326245
632.0, 0.0024400991514503113
633.0, 0.0032550259222888654
634.0, 0.002814391736875388
635.0, 0.0026346549233548094
636.0, 0.0035910235280472167
637.0, 0.0030018989200587226
638.0, 0.00018080393743704747
639.0, 0.0006246586084187555
640.0, 0.000729274889928939
641.0, 0.001006899851393669
642.0, 0.0011921546810738448
643.0, 0.0012285348269910528
644.0, 0.0017036350402272417
645.0, 0.0019305199966632583
646.0, 0.0017629032232548824
647.0, 0.0018145245303265861
648.0, 0.002198328196840977
649.0, 0.0019040728660479774
650.0, 0.0013023120598252193
651.0, 0.0022455745808768928
652.0, 0.004352073026483901
653.0, 0.002776719748631159
654.0, 0.0030358238500416313
655.0, 0.0041034975116993055
656.0, 0.003161635444496368
657.0, 0.000980602885405305
658.0, 0.001034302397778779
659.0, 0.0027807521210416156
660.0, 0.004749035004097629
661.0, 0.0046951320528025794
662.0, 0.00211312247591451
663.0, 0.002164251507880161
664.0, 0.003708332448120825
665.0, 0.002361484227631197
666.0, 0.0006967104357203292
667.0, 0.0019570902445124176
668.0, 0.001974373124243291
669.0, 0.0014560569259149175
670.0, 0.0026236823466385764
671.0, 0.004070988399194631
672.0, 0.004136761001909839
673.0, 0.004554389182668846
674.0, 0.0034742786560265177
675.0, 0.005252504740388477
676.0, 0.005987172528764345
677.0, 0.006231967136197851
678.0, 0.005929963385395433
679.0, 0.005958694414929448
680.0, 0.007837342145633454
681.0, 0.008132718447225431
682.0, 0.0078079028136196355
683.0, 0.009068972732790092
684.0, 0.008965880665321033
685.0, 0.008055850317301837
686.0, 0.007578691854630662
687.0, 0.007965723877472809
688.0, 0.00900667874019993
689.0, 0.009322975863675196
690.0, 0.0077155769622688
691.0, 0.009714524625905305
692.0, 0.012053506096188719
693.0, 0.012368126637375899
694.0, 0.011168462687249102
695.0, 0.010756713643568068
696.0, 0.014725293594928562
697.0, 0.015432330581757749
698.0, 0.015530107185617729
699.0, 0.016922466191829164
700.0, 0.017398825325565814
701.0, 0.01655081784182939
702.0, 0.017449302281404504
703.0, 0.019559271471871382
704.0, 0.017948796153551702
705.0, 0.018092013887175233
706.0, 0.019698124036485316
707.0, 0.021502796037690643
708.0, 0.022284394236500877
709.0, 0.022038489691547494
710.0, 0.022657149319275927
711.0, 0.026027475311352657
712.0, 0.02507783963414157
713.0, 0.023737642437598
714.0, 0.027842532430273497
715.0, 0.0302517426752528
716.0, 0.028537773906601515
717.0, 0.030940189067542603
718.0, 0.02916158121859285
719.0, 0.032414368906330766
720.0, 0.03339787202263113
721.0, 0.034705814945560326
722.0, 0.03471504395265837
723.0, 0.034164187333714326
724.0, 0.03538048429021604
725.0, 0.03777262528570886
726.0, 0.038906409139974014
727.0, 0.04058811355374607
728.0, 0.042338666499547525
729.0, 0.04332692481641433
730.0, 0.04228741344055032
731.0, 0.0414168904216866
732.0, 0.04425553179879411
733.0, 0.045026547658353094
734.0, 0.04354273970453319
735.0, 0.046559536770252555
736.0, 0.04666128684773164
737.0, 0.04703782076809705
738.0, 0.047901766929780966
739.0, 0.048964256013402326
740.0, 0.053409659366296984
741.0, 0.053131247088750395
742.0, 0.05329831628992173
743.0, 0.05679167985472608
744.0, 0.05703910615267718
745.0, 0.05827188891131503
746.0, 0.0618352805209022
747.0, 0.06367762443916658
748.0, 0.06309916619056198
749.0, 0.06646544098691501
750.0, 0.06687687035414457
751.0, 0.06925087338565356
752.0, 0.07144216415526453
753.0, 0.07364495066099433
754.0, 0.07625889295613347
755.0, 0.07829210076844068
756.0, 0.07971432011798382
757.0, 0.08238499336312949
758.0, 0.08543334291702327
759.0, 0.08741278545018369
760.0, 0.09256454463096377
761.0, 0.09779535613952255
762.0, 0.10043540951938672
763.0, 0.10508953341465084
764.0, 0.11143299803219099
765.0, 0.11392152561749107
766.0, 0.12233749143135841
767.0, 0.1283285901266925
768.0, 0.13567295812523844
769.0, 0.1438338141935712
770.0, 0.15176009579096675
771.0, 0.16527769569346729
772.0, 0.17789838778059125
773.0, 0.1880965834458243
774.0, 0.20351423167738786
775.0, 0.21686254858096596
776.0, 0.23475094650897402
777.0, 0.2564765153690348
778.0, 0.2771732436310575
779.0, 0.3025390268521405
780.0, 0.3299784202315419
781.0, 0.36392433688792575
782.0, 0.3935791162856653
783.0, 0.42924665151362407
784.0, 0.47389776295140384
785.0, 0.5192452508527221
786.0, 0.5599881085384512
787.0, 0.6097967870751448
788.0, 0.6650635290571825
789.0, 0.7186644356475596
790.0, 0.7698592598205426
791.0, 0.8182046843795391
792.0, 0.8648130011368547
793.0, 0.9053706146117992
794.0, 0.9360688889404577
795.0, 0.9652455153062133
796.0, 0.992498699335408
797.0, 0.9989627268614877
798.0, 0.9985236724405612
799.0, 0.9885295684250135
800.0, 0.971421148937546
801.0, 0.948455485192083
802.0, 0.918538918012142
803.0, 0.8823898142191179
804.0, 0.8382466356154731
805.0, 0.8009676388328026
806.0, 0.7646064764171591
807.0, 0.7245076684445542
808.0, 0.6825289919941925
809.0, 0.6430573642726204
810.0, 0.6075288517075684
811.0, 0.5715146964790585
812.0, 0.5310624799786554
813.0, 0.49629556835645466
814.0, 0.46208490013181464
815.0, 0.4281376773070071
816.0, 0.39348393250409386
817.0, 0.3607242644817739
818.0, 0.33182795003336446
819.0, 0.30373797126850854
820.0, 0.27969293993961675
821.0, 0.25939751167245856
822.0, 0.23644015342142183
823.0, 0.21800733171626444
824.0, 0.20367295413754025
825.0, 0.19053873443947972
826.0, 0.17733108626165683
827.0, 0.1652095518616518
828.0, 0.15413106775637392
829.0, 0.1437243375767483
830.0, 0.1338009909884048
831.0, 0.12530626278740076
832.0, 0.11728332684542131
833.0, 0.10870095606771875
834.0, 0.10037148818084614
835.0, 0.09488092325195857
836.0, 0.09342078189189211
837.0, 0.08732020888235609
838.0, 0.08164845762409534
839.0, 0.07440580327135901
840.0, 0.07094318763406324
841.0, 0.06760263554261389
842.0, 0.06282368120566889
843.0, 0.05982534138860366
844.0, 0.05886706684544825
845.0, 0.05829548909523843
846.0, 0.05185729844286312
847.0, 0.052688086876014444
848.0, 0.050392585210018825
849.0, 0.047517466872896076
850.0, 0.04617818167349747
851.0, 0.04540221026724436
852.0, 0.04494340912957835
853.0, 0.04546059212178414
854.0, 0.04646179355676628
855.0, 0.04761375846421375
856.0, 0.04865884950872598
857.0, 0.049824578904595275
858.0, 0.051199598678595075
859.0, 0.05263895522917705
860.0, 0.05319371311414352
861.0, 0.051356546940354374
862.0, 0.054518929514921516
863.0, 0.052306157401945455
864.0, 0.04824992735332694
865.0, 0.04652316480542343
866.0, 0.04343871092908005
867.0, 0.040147944142008105
868.0, 0.03814253272041998
869.0, 0.03279586277370805
870.0, 0.027595629968158703
871.0, 0.026229378734340968
872.0, 0.02279147604151064
873.0, 0.019541571628546993
874.0, 0.016162592425016803
875.0, 0.012277774414004685
876.0, 0.009878982143911088
877.0, 0.009987889159441363
878.0, 0.008072195515726547
879.0, 0.008736434785319191
880.0, 0.004585905303417574
881.0, 0.0051417198388928765
882.0, 0.0032943534260477317
883.0, 0.0019872422871822578
884.0, 0.0019014567517291827
885.0, 0.0014197532411308975
886.0, 0.0006073342097291287
887.0, 0.00039289213532867
888.0, 0.0017948490892850312
889.0, 0.0015441084380244312
890.0, 0.0011884284468258398
891.0, 0.0013965920567361484
892.0, 0.0009018058856525626
893.0, 0.00018069949146006293
894.0, 0.0005080225039378313
895.0, 0.0012634391090908565
896.0, 0.0015126983960762944
897.0, 0.00033189812535785134
898.0, 0.0010721753921484976
899.0, 0.000880343467221113
900.0, 0.00048526163415443406
901.0, 0.0002306306756975309
902.0, 0.00017042979536879984
903.0, 0.0004413884718559183
904.0, 0.0009215587430895101
905.0, 0.0005392401076357707
906.0, 0.001821568995083586
907.0, 0.0016447713114317228
908.0, 0.0012070281862404859
909.0, 0.0006280097044509826
910.0, 0.00039718065635647895
911.0, 0.0006630854235318207
912.0, 0.0011931756611005147
913.0, 0.0021118800882680834
914.0, 0.0028574905642059353
915.0, 0.002280181228850052
916.0, 0.0005164894794208098
917.0, 0.0023638091880043527
918.0, 0.002551244283640231
919.0, 0.0017212518327192775
920.0, 0.001485752631291154
921.0, 0.0009283607939870418
922.0, 0.0008782366405375593
923.0, 0.003522303554788381
924.0, 0.0022755290320142806
925.0, 0.0006322498495006718
926.0, 0.0020864340764696165
927.0, 0.0016615543553432127
928.0, 0.0009756928122480697
929.0, 0.0016659001853799274
930.0, 0.0018418415234504083
931.0, 0.0017456744721959393
932.0, 0.00502262578389445
933.0, 0.0020381449964208907
934.0, 0.0040895216193705805
935.0, 0.0051933757730274754
936.0, 0.004052471959963579
937.0, 0.004370882386011662
938.0, 0.006368885433513897
939.0, 0.00744274220626165
940.0, 0.008352510705662708
941.0, 0.007313250604589105
942.0, 0.008645974623024045
943.0, 0.008594243536829405
944.0, 0.008998690157949582
945.0, 0.00925563006753535
946.0, 0.009614614416095965
947.0, 0.009562103921968684
948.0, 0.008851677508835505
949.0, 0.00861380394364992
950.0, 0.008089133681460251
951.0, 0.00850976971079686
952.0, 0.010282715350883487
953.0, 0.009834542287857266
954.0, 0.010501294443764672
955.0, 0.011000802697074917
956.0, 0.012115237570419404
957.0, 0.014331393416671622
958.0, 0.01479720820488031
959.0, 0.012413391892347221
960.0, 0.01375089366425088
961.0, 0.011802576347598206
962.0, 0.011068002709361589
963.0, 0.013284767998752799
964.0, 0.014212299649074802
965.0, 0.01372762384652216
966.0, 0.012827317840576674
967.0, 0.011259337179118993
968.0, 0.010208701948741107
969.0, 0.012893344408912526
970.0, 0.015707561237757364
971.0, 0.013533076574479653
972.0, 0.013626972354631743
973.0, 0.013564494230342528
974.0, 0.012236329444824395
975.0, 0.011110800140761469
976.0, 0.010996373769747748
977.0, 0.01049403875370686
978.0, 0.009418198355553268
979.0, 0.010475147950913921
980.0, 0.011424846780356122
981.0, 0.010818179323607353
982.0, 0.011097836242258364
983.0, 0.009037568026409561
984.0, 0.008217846922761427
985.0, 0.009142806305634892
986.0, 0.00907402529982376
987.0, 0.010160659083361636
988.0, 0.009900037580957019
989.0, 0.008806476687631076
990.0, 0.009491218731312702
991.0, 0.009194114729694801
992.0, 0.009152770825807753
993.0, 0.008036190546169462
994.0, 0.006961905494412228
995.0, 0.006916896244211477
996.0, 0.0067348257183948105
997.0, 0.006683412198589215
998.0, 0.010055925588545634
999.0, 0.007589068351546213
1000.0, 0.007541799781589975
1001.0, 0.006764402790609094
1002.0, 0.009236197744843019
1003.0, 0.010177618777582153
1004.0, 0.009630977214770232
1005.0, 0.009064333270187148
1006.0, 0.006455085753592123
1007.0, 0.004777622951057282
1008.0, 0.00550138764258374
1009.0, 0.002724077180956002
1010.0, 0.004204214806131698
1011.0, 0.0029086390194194714
1012.0, 0.0037479582523543453
1013.0, 0.0034702769521104274
1014.0, 0.0037960612713338836
1015.0, 0.005835315530354004
1016.0, 0.004618879610170707
1017.0, 0.0039995652082481705
1018.0, 0.006169595226094046
1019.0, 0.0015379178290220426
1020.0, 0.0004814652326368506
1021.0, 0.001575857231705253
1022.0, 0.0015890456959670779
1023.0, 0.0025980552617495167
1024.0, 0.004140111915957108
1025.0, 0.004145783672623388
1026.0, 0.003032693399898598
1027.0, 0.0018456156504527957
1028.0, 0.004676418552758013
1029.0, 0.003912742327207868
1030.0, 0.003970310737286303
1031.0, 0.0031051656995639797
1032.0, 0.0016540729414202212
1033.0, 0.0014535596904878218
1034.0, 0.0032715945988219856
1035.0, 0.005723622326040825
1036.0, 0.0069663638490068455
1037.0, 0.006469188029518267
1038.0, 0.001699381686484224
1039.0, 0.003466301599756593
1040.0, 0.0027177880095828276
1041.0, 0.0016585574499004283
1042.0, 0.0017466176642354895
1043.0, 0.0036046939229070875
1044.0, 0.0029896357534215856
1045.0, 0.0007490712981899757
1046.0, 0.001392276474641782
1047.0, 0.002084753182847115
1048.0, 0.0013315744598976075
1049.0, 0.004183158850556052
1050.0, 0.0008481582425364669
1051.0, 0.001847974852074895
1052.0, 0.0019130531816034621
1053.0, 0.002493634673364468
1054.0, 0.0034012615603036932
1055.0, 0.0037591043296266407
1056.0, 0.002840328387189547
1057.0, 0.001286066181308475
1058.0, 0.002882551023846566
1059.0, 0.00016617400487231268
1060.0, 0.00198790615525554
1061.0, 0.0008898837936380682
1062.0, 0.002120300760835629
1063.0, 0.001064163341761644
1064.0, 0.002134779624662268
1065.0, 0.004313600242711515
1066.0, 0.005084970757869877
1067.0, 0.004472786673111358
1068.0, 0.001690241072526935
1069.0, 0.0007570701889343189
1070.0, 0.0011197543549329302
1071.0, 0.002053592347054909
1072.0, 0.001559496977210312
1073.0, 0.0012092765176140619
1074.0, 0.0006229071762870864
1075.0, 0.0009434799910220618
1076.0, 0.002592554155374501
1077.0, 0.0030046517580434953
1078.0, 0.001545042006780481
1079.0, 0.0035119757472003364
1080.0, 0.0030913832584784145
1081.0, 0.00030956293605678394
1082.0, 0.0022192105129881443
1083.0, 0.0030094183494458844
1084.0, 0.003144100631518886
1085.0, 0.002800905651765274
1086.0, 0.002718958376220473
1087.0, 0.003125630655717105
1088.0, 0.0028870963600689005
1089.0, 0.0018664256925236874
1090.0, 0.0028006685586993542
1091.0, 0.002556676569838927
1092.0, 0.002751697626014038
1093.0, 0.000799880875920183
1094.0, 0.0021645962659793978
1095.0, 0.001828878815002129
1096.0, 0.0010696707962738333
1097.0, 0.0009484170507424273
1098.0, 0.0013572987858732754
1099.0, 0.0017812309732283848
1100.0, 0.0015821813344640665
1101.0, 0.0008294721062330831
1102.0, 0.001560014964123919
1103.0, 0.0019360578060525799
1104.0, 0.002185137436506097
1105.0, 0.0028895985859719634
1106.0, 0.0017770357378902807
1107.0, 0.00258440166116722
1108.0, 0.0019531258265592976
1109.0, 0.0005964283273391455
1110.0, 0.0028503634955722194
1111.0, 0.005925872085832064
1112.0, 0.0027032776175813975
1113.0, 0.0033216519973639537
1114.0, 0.004705272096981863
1115.0, 0.0022436672726734407
1116.0, 0.003991458461930321
1117.0, 0.005046031960163922
1118.0, 0.004377674501122028
1119.0, 0.005180706997895719
1120.0, 0.00618984138953693
1121.0, 0.004076946428370844
1122.0, 0.002027540372172811
1123.0, 0.004898924954176254
1124.0, 0.0030138603015281975
1125.0, 0.0051663604488178414
1126.0, 0.003852957075021246
1127.0, 0.0006797982308660818
1128.0, 0.0037074056523540323
1129.0, 0.00229923870395798
1130.0, 0.004105912040253868
1131.0, 0.004896124197802778
1132.0, 0.003358639859311856
1133.0, 0.001982410041859428
1134.0, 0.0004684427345426251
1135.0, 0.0022098931334901773
1136.0, 0.003945599595644023
1137.0, 0.0036717480552340216
1138.0, 0.004542977969896545
1139.0, 0.004044346608166527
1140.0, 0.004675743912554396
1141.0, 0.004726635154352475
1142.0, 0.005015363851097299
1143.0, 0.004513344790034984
1144.0, 0.0027351818962874277
1145.0, 0.001603408881536721
1146.0, 0.002503638529144492
1147.0, 0.003289022775360491
1148.0, 0.0004293628194748639
1149.0, 9.009936353556505e-05
1150.0, 0.0035700116691275716
1151.0, 0.0012679327192908377
1152.0, 0.002539024739324079
1153.0, 0.0019484496802946588
1154.0, 0.0023337486951446515
1155.0, 0.0035562416313284374
1156.0, 0.003857692897125934
1157.0, 0.003019967196222245
1158.0, 0.0016174492428480498
1159.0, 0.001991729459511516
1160.0, 0.0013963538370058877
1161.0, 9.391127048775634e-05
1162.0, 0.001180093257295408
1163.0, 0.004015223091423802
1164.0, 0.0034449494907190727
1165.0, 0.0033729001906933004
1166.0, 0.0023510929798242724
1167.0, 0.003592276125804922
1168.0, 0.004103046428469939
1169.0, 0.002484103380487625
1170.0, 0.0031344449147858488
1171.0, 0.0003875583412983383
1172.0, 0.0023024293159067365
1173.0, 0.0031545554316828226
1174.0, 0.0037607259824699794
1175.0, 0.005201714295783469
1176.0, 0.005439395412043519
1177.0, 0.00488728183107351
1178.0, 0.0052378596674381205
1179.0, 0.005233791933190008
1180.0, 0.004940090106805484
1181.0, 0.003911409287053599
1182.0, 0.0023410085764139395
1183.0, 0.0029558125647278603
1184.0, 0.0016910478769963694
1185.0, 0.0024349317842046483
1186.0, 0.0015625288700505452
1187.0, 0.0042190108098459755
1188.0, 0.004056881317860244
1189.0, 0.0045399164414964875
1190.0, 0.0041481040660368215
1191.0, 0.004090987557329571
1192.0, 0.0035520313136769813
1193.0, 0.002576145454063
1194.0, 0.0018843988105395081
1195.0, 0.0012663012806414073
1196.0, 0.0015190210798664058
1197.0, 0.0012560722987466223
1198.0, 0.0032565160345101474
1199.0, 0.0031744066510452657
1200.0, 0.0016411318563474488
1201.0, 0.0003835792305419816
1202.0, 0.000685219825221843
1203.0, 0.0006625153793740737
1204.0, 0.0010909530682709123
1205.0, 0.0013358701587867978
1206.0, 0.0022899974566616436
1207.0, 0.0029258757326656943
1208.0, 0.0014570666810388962
1209.0, 0.002646565646894554
1210.0, 0.001399516116031558
1211.0, 0.0033752981771699555
1212.0, 0.0022187797752021288
1213.0, 0.0025429347886345892
1214.0, 0.003031400925622999
1215.0, 0.0009352857553464328
1216.0, 0.0023412362448968715
1217.0, 0.002404198036731651
1218.0, 0.005346003697339412
1219.0, 0.005641148153815589
1220.0, 0.002505945971135196
1221.0, 0.005351497047653134
1222.0, 0.005377731430926612
1223.0, 0.002421455107984501
1224.0, 0.0027674865741730073
1225.0, 0.0020343884444331893
1226.0, 0.0010664312491958374
1227.0, 0.002154232267992771
1228.0, 0.0025347683424433126
1229.0, 0.004091675869079794
1230.0, 0.005491173395849072
1231.0, 0.003440257877529679
1232.0, 0.0017797706012077246
1233.0, 0.002051358200481202
1234.0, 0.0019647828995235784
1235.0, 0.0035221212229164345
1236.0, 0.005335674275439028
1237.0, 0.0017011087934746994
1238.0, 0.007228393995984907
1239.0, 0.010345728301455729
1240.0, 0.012149864489847215
1241.0, 0.012740388590371207
1242.0, 0.008849649968399204
1243.0, 0.008934845508317414
1244.0, 0.009196109490480752
1245.0, 0.008366003353318729
1246.0, 0.009406690956573387
1247.0, 0.008512818186101442
1248.0, 0.004056856606836856
1249.0, 0.0036562601549561787
1250.0, 0.0042033197473500695
1251.0, 0.00692505586645066
1252.0, 0.003795668228291425
1253.0, 0.005171899118742435
1254.0, 0.0035676214997627216
1255.0, 0.005999429817380729
1256.0, 0.006793099169019136
1257.0, 0.006015637991898546
1258.0, 0.006713578529849309
1259.0, 0.0062599852625071905
1260.0, 0.005400094555715231
1261.0, 0.004712465234261216
1262.0, 0.003814460800860994
1263.0, 0.003966647531026209
1264.0, 0.0033410077208344408
1265.0, 0.006279352212062142
1266.0, 0.006805475556774408
1267.0, 0.0036453090382635575
1268.0, 0.00399574689999791
1269.0, 0.002693167947752283
1270.0, 0.004380069970611101
1271.0, 0.006921364094663462
1272.0, 0.007522452500264548
1273.0, 0.007188476376862182
1274.0, 0.006291237193779861
1275.0, 0.005927191149137455
1276.0, 0.007930899885152061
1277.0, 0.010530609911002617
1278.0, 0.009277690247733533
1279.0, 0.006137304067510589
1280.0, 0.008784676042383545
1281.0, 0.005695523115202853
1282.0, 0.0041903410836409815
1283.0, 0.0044404334479743535
1284.0, 0.0069583850222135375
1285.0, 0.007088760958867507
1286.0, 0.005671464834808068
1287.0, 0.006463930191238295
1288.0, 0.006586191593517257
1289.0, 0.006802438265707423
1290.0, 0.007524738798997922
1291.0, 0.006942057223195244
1292.0, 0.006355735310381159
1293.0, 0.0071974794788886845
1294.0, 0.006431274263709975
1295.0, 0.007410739017332218
1296.0, 0.00648717988989193
1297.0, 0.010125458751517224
1298.0, 0.007229714257066843
1299.0, 0.00802370682462162
1300.0, 0.0070391410159436904
1301.0, 0.00653104409233891
1302.0, 0.005155920060942509
1303.0, 0.005841683308204928
1304.0, 0.006956108528249683
1305.0, 0.006616669431317474
1306.0, 0.006216564706478255
1307.0, 0.005843328045606724
1308.0, 0.004856375739443833
1309.0, 0.005425285323097681
1310.0, 0.005524345025958292
1311.0, 0.005304083916070777
1312.0, 0.007755078078370649
1313.0, 0.006657403657231603
1314.0, 0.00830555657683062
1315.0, 0.0053899234691065665
1316.0, 0.0076824099134253
1317.0, 0.006589710071378262
1318.0, 0.00688414592342643
1319.0, 0.006501865843277324
1320.0, 0.006491356643235905
1321.0, 0.006952585079460252
1322.0, 0.006715183954312578
1323.0, 0.005265927285370948
1324.0, 0.004597819228096958
1325.0, 0.006520201049259501
1326.0, 0.0040644418972811186
1327.0, 0.007270633228352872
1328.0, 0.006352184879577931
1329.0, 0.007343581416895282
1330.0, 0.005461684896196815
1331.0, 0.0057607326724880515
1332.0, 0.005346751452602016
1333.0, 0.0045106085261883665
1334.0, 0.003512207601766111
1335.0, 0.00291986651425695
1336.0, 0.002372856954090676
1337.0, 0.0019910374841085998
1338.0, 0.001660936398956125
1339.0, 0.0014158924377700556
1340.0, 0.0014115387048475709
1341.0, 0.0019052010613242714
1342.0, 0.003165161902588355
1343.0, 0.0027877088742107236
1344.0, 0.00467542727498094
1345.0, 0.005517553271818831
1346.0, 0.003825149928593934
1347.0, 0.007572004775774634
1348.0, 0.006654272294666223
1349.0, 0.006811829655720671
1350.0, 0.002102735471583971
1351.0, 0.003402734171703395
1352.0, 0.0021708719792091304
1353.0, 0.0013358928306033268
1354.0, 0.003352104649147231
1355.0, 0.00304037381016004
1356.0, 0.0022779725547660942
1357.0, 0.00244350672750323
1358.0, 0.0011710967775597414
1359.0, 0.00372565542249005
1360.0, 0.004230151119566036
1361.0, 0.004748779534650758
1362.0, 0.0027504325086323343
1363.0, 0.001733239823507352
1364.0, 0.002718424372810379
1365.0, 0.005426163215374926
1366.0, 0.0038440926278599076
1367.0, 0.005056835894282857
1368.0, 0.0021584291680686483
1369.0, 0.001921052596261629
1370.0, 0.0009444535018591862
1371.0, 0.0008966552463660598
1372.0, 0.0027808773008414756
1373.0, 0.0027869655042567056
1374.0, 0.0016501705165903676
1375.0, 0.0033385364794258085
1376.0, 0.00522382458727883
1377.0, 0.0030695564029672284
1378.0, 0.0007370380768648442
1379.0, 0.001448743317568652
1380.0, 0.0006605255737688449
1381.0, 0.0012812606534276414
1382.0, 0.001798202256454281
1383.0, 0.0036087160031692653
1384.0, 0.006246173274299304
1385.0, 0.004863279173576726
1386.0, 0.004228315380854756
1387.0, 0.0040989346280534515
1388.0, 0.003295252088615724
1389.0, 0.0036426877432080363
1390.0, 0.0019635861509006633
1391.0, 0.0021227421455823716
1392.0, 0.004356006658802912
1393.0, 0.004257637173197272
1394.0, 0.002443277452009928
1395.0, 0.0011552341546093485
1396.0, 0.00025406851410705606
1397.0, 0.0006637937675562372
1398.0, 0.0017888151257195708
1399.0, 0.00027838706119264107
1400.0, 0.0011784850147752066
1401.0, 0.0017115042609101095
1402.0, 0.0014362614648326902
1403.0, 0.0022163908602155437
1404.0, 0.0037093261257151694
1405.0, 0.002561901010379474
1406.0, 0.002069680495138054
1407.0, 0.0009653287674605332
1408.0, 0.004186772397799189
1409.0, 0.004327261013776545
1410.0, 0.004592247114634039
1411.0, 0.0053987117726602245
1412.0, 0.004049693361951629
1413.0, 0.0030900304550494427
1414.0, 0.0035308947746323345
1415.0, 0.003248339495288227
1416.0, 0.002695162623993107
1417.0, 0.002170720074653674
1418.0, 0.0032546864769889654
1419.0, 0.002562820419422034
1420.0, 0.0031516605190337063
1421.0, 0.0016169914107834937
1422.0, 0.0009206451379344671
1423.0, 0.0003032047299689434
1424.0, 0.0005552643787573564
1425.0, 0.0003941654278728332
1426.0, 0.004028301608788132
1427.0, 0.002818483214218242
1428.0, 0.0029135205393121836
1429.0, 0.004572353784596711
1430.0, 0.003756994504004897
1431.0, 0.002015529375171374
1432.0, 0.002056809295689226
1433.0, 0.0038479455911465035
1434.0, 0.002807950316398148
1435.0, 0.0017280949821437694
1436.0, 0.003946795474199267
1437.0, 0.0027606495165422434
1438.0, 0.0017282444040935942
1439.0, 0.002017166069401728
1440.0, 0.00127866412742811
1441.0, 0.005306928938834574
1442.0, 0.005700094253378241
1443.0, 0.0063328063595403895
1444.0, 0.0061871214595657885
1445.0, 0.004538164378936952
1446.0, 0.01018672117897041
1447.0, 0.006559361834214609
1448.0, 0.0076000007805338676
1449.0, 0.003544793303035628
1450.0, 0.005356033834182324
1451.0, 0.008103793286950729
1452.0, 0.007775793163151906
1453.0, 0.004999667304083182
1454.0, 0.004641682703094705
1455.0, 0.00327641961454697
1456.0, 0.004483605971782827
1457.0, 0.007443700242059963
1458.0, 0.007171012230668289
1459.0, 0.0070164164816635755
1460.0, 0.004782949222939778
1461.0, 0.003657954461333253
1462.0, 0.008648865021898973
1463.0, 0.007933561839445229
1464.0, 0.005215307874527101
1465.0, 0.008214549273218297
1466.0, 0.003285395471001714
1467.0, 0.003394040694168424
1468.0, 0.005162303527485054
1469.0, 0.007531307859441134
1470.0, 0.0031712057979227533
1471.0, 0.0037258892016046275
1472.0, 0.003786463893131656
1473.0, 0.003050227553248249
1474.0, 0.003539163579110627
1475.0, 0.0025026356433779837
1476.0, 0.0036379245790915437
1477.0, 0.004550579279576096
1478.0, 0.003864541974486759
1479.0, 0.0038767554102784214
1480.0, 0.0044509614637466425
1481.0, 0.005155277111204885
1482.0, 0.005358385064065834
1483.0, 0.004803983950949673
1484.0, 0.00412347646559633
1485.0, 0.0033559704606119763
1486.0, 0.004059803515460156
1487.0, 0.0038287502912295545
1488.0, 0.005145039330461293
1489.0, 0.004756566853721109
1490.0, 0.004216024574866175
1491.0, 0.0037984720619676903
1492.0, 0.004837072485756687
1493.0, 0.004006344767747834
1494.0, 0.005197385727557334
1495.0, 0.0010697294922150913
1496.0, 0.00363670564520627
1497.0, 0.00794427428061961
1498.0, 0.009596046579025264
1499.0, 0.006593341295711874
1500.0, 0.003917909860691305
1501.0, 0.0012957471977128403
1502.0, 0.0029679571915303665
1503.0, 0.005546251449442909
1504.0, 0.003480104808803488
1505.0, 0.0028523342514667526
1506.0, 0.003231502873785661
1507.0, 0.0028878838306329283
1508.0, 0.002943516970897671
1509.0, 0.002758739236457853
1510.0, 0.002898887527777045
1511.0, 0.002992602168383829
1512.0, 0.0020991392411355138
1513.0, 0.0024648663152220087
1514.0, 0.003806815608359321
1515.0, 0.005307517350889263
1516.0, 0.002998808439012131
1517.0, 0.0009027858141995944
1518.0, 0.003471864428892253
1519.0, 0.000397131860326494
1520.0, 0.0012844612367523423
1521.0, 0.004525354135145687
1522.0, 0.003036040047213747
1523.0, 0.0028376616621424316
1524.0, 0.0033022781758007213
1525.0, 0.0032942083239753707
1526.0, 0.0035293980129642295
1527.0, 0.006018692137360602
1528.0, 0.004819573218709298
1529.0, 0.00450133629151292
1530.0, 0.0059397835175053065
1531.0, 0.0034382890972383543
1532.0, 0.0036769654268378185
1533.0, 0.002165071498109377
1534.0, 0.0007113052275185488
1535.0, 0.0047944912583306725
1536.0, 0.003968911264852066
1537.0, 0.0015761219762944047
1538.0, 0.004968201985318089
1539.0, 0.006480696758851713
1540.0, 0.002942347015412936
1541.0, 0.0021443747702364568
1542.0, 0.004925472610913978
1543.0, 0.004836559403821707
1544.0, 0.0038203031205629057
1545.0, 0.004762090899330724
1546.0, 0.004435722709626143
1547.0, 0.0076732034655643995
1548.0, 0.008208570317185082
1549.0, 0.005730695570276528
1550.0, 0.006300073865528737
1551.0, 0.010630965030612128
1552.0, 0.010638514579440386
1553.0, 0.010233899136094834
1554.0, 0.012794591225368586
1555.0, 0.011239694771329018
1556.0, 0.0058667981871461435
1557.0, 0.0066498785265068075
1558.0, 0.000889260275316803
1559.0, 0.0025200495075757027
1560.0, 0.0009691378320878807
1561.0, 0.00255876186622231
1562.0, 0.003838746517153683
1563.0, 0.004266462091573039
1564.0, 0.0024022306854101917
1565.0, 0.0021165932126345328
1566.0, 0.0034293742640806734
1567.0, 0.005931103662142041
1568.0, 0.0022121111511769053
1569.0, 0.0027947523590868763
1570.0, 0.0016020146954646678
1571, 0.0
1572, 0.0
1573, 0.0
1574, 0.0
1575, 0.0
1576, 0.0
1577, 0.0
1578, 0.0
1579, 0.0
1580, 0.0
1581, 0.0
1582, 0.0
1583, 0.0
1584, 0.0
1585, 0.0
1586, 0.0
1587, 0.0
1588, 0.0
1589, 0.0
1590, 0.0
1591, 0.0
1592, 0.0
1593, 0.0
1594, 0.0
1595, 0.0
1596, 0.0
1597, 0.0
1598, 0.0
1599, 0.0
