30, 0.0
31, 0.0
32, 0.0
33, 0.0
34, 0.0
35, 0.0
36, 0.0
37, 0.0
38, 0.0
39, 0.0
40, 0.0
41, 0.0
42, 0.0
43, 0.0
44, 0.0
45, 0.0
46, 0.0
47, 0.0
48, 0.0
49, 0.0
50, 0.0
51, 0.0
52, 0.0
53, 0.0
54, 0.0
55, 0.0
56, 0.0
57, 0.0
58, 0.0
59, 0.0
60, 0.0
61, 0.0
62, 0.0
63, 0.0
64, 0.0
65, 0.0
66, 0.0
67, 0.0
68, 0.0
69, 0.0
70, 0.0
71, 0.0
72, 0.0
73, 0.0
74, 0.0
75, 0.0
76, 0.0
77, 0.0
78, 0.0
79, 0.0
80, 0.0
81, 0.0
82, 0.0
83, 0.0
84, 0.0
85, 0.0
86, 0.0
87, 0.0
88, 0.0
89, 0.0
90, 0.0
91, 0.0
92, 0.0
93, 0.0
94, 0.0
95, 0.0
96, 0.0
97, 0.0
98, 0.0
99, 0.0
100, 0.0
101, 0.0
102, 0.0
103, 0.0
104, 0.0
105, 0.0
106, 0.0
107, 0.0
108, 0.0
109, 0.0
110, 0.0
111, 0.0
112, 0.0
113, 0.0
114, 0.0
115, 0.0
116, 0.0
117, 0.0
118, 0.0
119, 0.0
120, 0.0
121, 0.0
122, 0.0
123, 0.0
124, 0.0
125, 0.0
126, 0.0
127, 0.0
128, 0.0
129, 0.0
130, 0.0
131, 0.0
132, 0.0
133, 0.0
134, 0.0
135, 0.0
136, 0.0
137, 0.0
138, 0.0
139, 0.0
140, 0.0
141, 0.0
142, 0.0
143, 0.0
144, 0.0
145, 0.0
146, 0.0
147, 0.0
148, 0.0
149, 0.0
150, 0.0
151, 0.0
152, 0.0
153, 0.0
154, 0.0
155, 0.0
156, 0.0
157, 0.0
158, 0.0
159, 0.0
160.0, 0.00017933284582710062
161.0, 0.0008517551123214676
162.0, 0.005969384375260886
163.0, 0.03166710640444219
164.0, 0.05535435288838163
165.0, 0.05682634714318458
166.0, 0.060932878173824735
167.0, 0.0736445186869569
168.0, 0.06787079715574722
169.0, 0.06286440322896282
170.0, 0.06168150055784719
171.0, 0.05023383672090925
172.0, 0.035228789492689434
173.0, 0.023371711482244567
174.0, 0.013718374154675177
175.0, 0.013428494068098375
176.0, 0.014237092938590304
177.0, 0.0012356509138660658
178.0, 0.0033417797060871805
179.0, 0.011143314281501802
180.0, 0.019059882448170747
181.0, 0.03312496234015158
182.0, 0.05835857468935422
183.0, 0.08852575567520311
184.0, 0.12512516077548655
185.0, 0.16792508788025318
186.0, 0.2131711589049743
187.0, 0.2516577302157437
188.0, 0.3140826015395458
189.0, 0.3891993127171719
190.0, 0.45628134417848826
191.0, 0.5345082656476764
192.0, 0.6053813084772726
193.0, 0.6738673621397944
194.0, 0.7390096111988448
195.0, 0.7865456990351984
196.0, 0.8097289270848248
197.0, 0.8014670002153866
198.0, 0.7636039022721781
199.0, 0.7072878840027074
200.0, 0.6398699469032115
201.0, 0.5497445858577784
202.0, 0.45799340906661035
203.0, 0.3763332377043458
204.0, 0.3007299115983708
205.0, 0.22252699617534508
206.0, 0.1653998336831954
207.0, 0.12274913865580203
208.0, 0.08920521517099363
209.0, 0.07176114931642248
210.0, 0.06558361357353266
211.0, 0.07021860935656295
212.0, 0.08312477541746251
213.0, 0.1003263949791714
214.0, 0.1349645806515136
215.0, 0.16625294401793284
216.0, 0.21144697933609558
217.0, 0.27694269807323096
218.0, 0.3398223981556737
219.0, 0.4012268524781551
220.0, 0.46397601702078156
221.0, 0.5368655155099143
222.0, 0.6234277187869015
223.0, 0.6961493550676163
224.0, 0.7525125112483737
225.0, 0.8024183824051337
226.0, 0.8523673974769387
227.0, 0.8950564265877237
228.0, 0.9107694430942342
229.0, 0.9288618517310762
230.0, 0.9357915363346123
231.0, 0.925440625223029
232.0, 0.9143171105101916
233.0, 0.8889985713914241
234.0, 0.8639539038765978
235.0, 0.8435274617384068
236.0, 0.8211831598900388
237.0, 0.7832074841260165
238.0, 0.7486393224487171
239.0, 0.7221888727815841
240.0, 0.700244235262691
241.0, 0.6775516952225364
242.0, 0.6578670014764124
243.0, 0.6285362035539864
244.0, 0.6022233646874245
245.0, 0.5876078137780931
246.0, 0.5761108741862937
247.0, 0.5496492546075299
248.0, 0.524812024445288
249.0, 0.497373974111489
250.0, 0.4524042695110028
251.0, 0.39488003408025585
252.0, 0.3495322000765439
253.0, 0.30054135281389627
254.0, 0.24216117660825712
255.0, 0.1857634767208624
256.0, 0.1370682958133336
257.0, 0.09309800173543435
258.0, 0.05995315610061052
259.0, 0.03080546171862677
260.0, 0.003361096105731488
261.0, 0.01708410273303861
262.0, 0.025391704188491036
263.0, 0.03348533686423462
264.0, 0.03448347775790931
265.0, 0.01862397159593931
266.0, 0.008345064475292638
267.0, 0.005514418435707255
268.0, 0.02662074343159381
269.0, 0.055434796228330876
270.0, 0.08859389714021362
271.0, 0.13372404575829785
272.0, 0.18140633259007985
273.0, 0.23362680686494705
274.0, 0.2981037231409899
275.0, 0.3739157816321335
276.0, 0.44353178770228585
277.0, 0.5082380833668534
278.0, 0.5773049324311512
279.0, 0.6518289205168069
280.0, 0.7054609773844391
281.0, 0.7561398050828975
282.0, 0.7983225126193499
283.0, 0.8174449256747435
284.0, 0.8014363541250994
285.0, 0.7833320934829628
286.0, 0.7537935123246308
287.0, 0.7115478106810311
288.0, 0.6558769295421234
289.0, 0.5921437877416055
290.0, 0.5568231980999414
291.0, 0.5071786512852674
292.0, 0.45468450552197653
293.0, 0.4226839200806569
294.0, 0.4005486210793642
295.0, 0.37464514459908593
296.0, 0.34842412895837266
297.0, 0.33728150184173583
298.0, 0.33402399117694
299.0, 0.31573210264339746
300.0, 0.30152700009094796
301.0, 0.29286073175241456
302.0, 0.28081072936833584
303.0, 0.2665586419585813
304.0, 0.25759417705109866
305.0, 0.24862853977877294
306.0, 0.24112402819367276
307.0, 0.2368941014461023
308.0, 0.2286925613292514
309.0, 0.21806389694756964
310.0, 0.20563297035352082
311.0, 0.19440141989189705
312.0, 0.1803760743195762
313.0, 0.15974467559288666
314.0, 0.1415731111763099
315.0, 0.13959788323669783
316.0, 0.1189587294763462
317.0, 0.09079619966543855
318.0, 0.08159378105878039
319.0, 0.07156274516613467
320.0, 0.058811307551299485
321.0, 0.05221003673995325
322.0, 0.05290533498117511
323.0, 0.054999244778715664
324.0, 0.037868425511344894
325.0, 0.05637816717903665
326.0, 0.08269749573802192
327.0, 0.09540978713314055
328.0, 0.09155361871673695
329.0, 0.10063225405070737
330.0, 0.10785872098622273
331.0, 0.10951510361426361
332.0, 0.10531432764333905
333.0, 0.09751163213828994
334.0, 0.09212321446979482
335.0, 0.09659118434357752
336.0, 0.08349624272396934
337.0, 0.06906506623994065
338.0, 0.06867506494472372
339.0, 0.048403530811048104
340.0, 0.044460430550052714
341.0, 0.03294996913973622
342.0, 0.015345010612508647
343.0, 0.004224184437421162
344.0, 0.005751859737036584
345.0, 0.01281694672654631
346.0, 0.016448114450256738
347.0, 0.013605084140767857
348.0, 0.009487873050829787
349.0, 0.018638257993911462
350.0, 0.017906509400685097
351.0, 0.018985082944286184
352.0, 0.015223105424161054
353.0, 0.008243873734934187
354.0, 0.014204666854257721
355.0, 0.0026697389308830183
356.0, 0.008239685967601518
357.0, 0.012134291932500797
358.0, 0.023349573632230433
359.0, 0.04060946932873182
360.0, 0.033991296369182404
361.0, 0.03899668288855381
362.0, 0.054761101403842556
363.0, 0.0730953186957499
364.0, 0.09117906019492225
365.0, 0.10131816251502376
366.0, 0.11219655639008302
367.0, 0.12562498770265548
368.0, 0.141549283284552
369.0, 0.15602526515076795
370.0, 0.1562875090299558
371.0, 0.1567887588501013
372.0, 0.1590092381815189
373.0, 0.16088999054784087
374.0, 0.16278590944393426
375.0, 0.16833328922822124
376.0, 0.16514722898084877
377.0, 0.15905845206135055
378.0, 0.1581716846810332
379.0, 0.16581941695325894
380.0, 0.17455048753295938
381.0, 0.18815463940869243
382.0, 0.20022955429766434
383.0, 0.2138047823646065
384.0, 0.2379246603947149
385.0, 0.2767820126106995
386.0, 0.3120332091147574
387.0, 0.35838302911827485
388.0, 0.3949405080498562
389.0, 0.42273072914647253
390.0, 0.4670441836212609
391.0, 0.5176917723573579
392.0, 0.5518367438489974
393.0, 0.5804910944882662
394.0, 0.6070902216750991
395.0, 0.6241558539283456
396.0, 0.6238615592898382
397.0, 0.6057311851272
398.0, 0.583354329858531
399.0, 0.560748907492028
400.0, 0.539555323845327
401.0, 0.5192696296052721
402.0, 0.4636036237885943
403.0, 0.42474645618761
404.0, 0.39510213644767306
405.0, 0.35706076692849537
406.0, 0.3179475858313305
407.0, 0.2845105348171775
408.0, 0.25860989577445315
409.0, 0.22999151858998915
410.0, 0.20293597968006233
411.0, 0.18937315904361376
412.0, 0.17980360627609557
413.0, 0.15152589874707878
414.0, 0.14060667750194272
415.0, 0.14374083118304137
416.0, 0.13500715365145313
417.0, 0.11775675157779601
418.0, 0.12982987773744592
419.0, 0.11972550469855259
420.0, 0.11077824637914369
421.0, 0.111723583785047
422.0, 0.10971607048252975
423.0, 0.1163303674433306
424.0, 0.12134141305730006
425.0, 0.13429921152242696
426.0, 0.1446029668042089
427.0, 0.14164975581654088
428.0, 0.13948520815364182
429.0, 0.147410577191683
430.0, 0.15069545614813426
431.0, 0.16101952131992045
432.0, 0.17823121553268
433.0, 0.18969198214787297
434.0, 0.20084290234685823
435.0, 0.21282650984601437
436.0, 0.21872225203011664
437.0, 0.2252593497845114
438.0, 0.24202625120935625
439.0, 0.26826443231220554
440.0, 0.27665549306055803
441.0, 0.2845649229396722
442.0, 0.2865167165161221
443.0, 0.2878358426264323
444.0, 0.3016838519796023
445.0, 0.3079070573339378
446.0, 0.3195229246455541
447.0, 0.32302406399058947
448.0, 0.3242266515416935
449.0, 0.3298935705578368
450.0, 0.33488191202206163
451.0, 0.33991919852052194
452.0, 0.33244447171527775
453.0, 0.32771703909907296
454.0, 0.32962822585928814
455.0, 0.32775910620639664
456.0, 0.3162199919030167
457.0, 0.3084439540711026
458.0, 0.3041277062355921
459.0, 0.2930517315825289
460.0, 0.27489861340983995
461.0, 0.26157822604352976
462.0, 0.2569672525749311
463.0, 0.25082248545481345
464.0, 0.22535320547220916
465.0, 0.20300785871650662
466.0, 0.19445388177404202
467.0, 0.16608480285081714
468.0, 0.14579324884916
469.0, 0.12829873192373684
470.0, 0.11223588647819664
471.0, 0.09787188742271684
472.0, 0.08480698028832857
473.0, 0.06353909633192374
474.0, 0.05148512747417106
475.0, 0.049757369326741026
476.0, 0.043279980509596805
477.0, 0.028503139821655536
478.0, 0.019081611375309622
479.0, 0.01738586177009166
480.0, 0.015016701864681882
481.0, 0.012799494270822609
482.0, 0.007537317776110412
483.0, 0.00037211804452351097
484.0, 0.0019481999276812758
485.0, 0.00033268445764289946
486.0, 0.0022125403908693168
487.0, 0.00030510262717750244
488.0, 0.005227966869961117
489.0, 0.010743327449443197
490.0, 0.014597481383458863
491.0, 0.005881383182208208
492.0, 0.00978118798096155
493.0, 0.012327300635890237
494.0, 0.009298689397944414
495.0, 0.012629595697849837
496.0, 0.015779544531428803
497.0, 0.018435393032296854
498.0, 0.021633122590646203
499.0, 0.03006357525049929
500.0, 0.03315406377300813
501.0, 0.02224987293787679
502.0, 0.033018371543119464
503.0, 0.026917979285720314
504.0, 0.02171117705285972
505.0, 0.02651533227012431
506.0, 0.03311529435115311
507.0, 0.03126113913555143
508.0, 0.024450249053069396
509.0, 0.025501588659940476
510.0, 0.031555288553947305
511.0, 0.028233697823911975
512.0, 0.017719720082200636
513.0, 0.01690920762291711
514.0, 0.00991943803473112
515.0, 0.014191859555028082
516.0, 0.007258261015163105
517.0, 0.0010577896749413896
518.0, 0.0054942525678087295
519.0, 0.0019827590995583175
520.0, 0.003253689629734609
521.0, 0.0013064846387908472
522.0, 0.0011091644978029026
523.0, 0.002310409853048142
524.0, 0.003490391188593525
525.0, 0.007502501131124955
526.0, 0.0012435912573528355
527.0, 0.019098963624388218
528.0, 0.02215059199219974
529.0, 0.010626296707859367
530.0, 0.010773286927891153
531.0, 0.013995169847391443
532.0, 0.015724100122663835
533.0, 0.0165030938939227
534.0, 0.006657851274316397
535.0, 0.002082240876912863
536.0, 0.003122573367730812
537.0, 0.019779119240908572
538.0, 0.024456090047742643
539.0, 0.023802873006308418
540.0, 0.04051288965347082
541.0, 0.056956912709498056
542.0, 0.061927288554874886
543.0, 0.08593698753747363
544.0, 0.10620570744621731
545.0, 0.12107498018227507
546.0, 0.15021818713798155
547.0, 0.18115438623084854
548.0, 0.20898480910322348
549.0, 0.2589039688070867
550.0, 0.2947975026224637
551.0, 0.3376397506462472
552.0, 0.3935857746604536
553.0, 0.4509522821539409
554.0, 0.50972243583132
555.0, 0.5868838552116944
556.0, 0.6438686192661479
557.0, 0.7189130814985922
558.0, 0.7859681869976545
559.0, 0.8491326575793952
560.0, 0.9092846839486749
561.0, 0.9518744256034266
562.0, 0.9934931336308689
563.0, 0.9978845727131496
564.0, 0.9929265312366721
565.0, 0.9786865479367461
566.0, 0.9433520042516232
567.0, 0.8841938254740301
568.0, 0.8163452670956852
569.0, 0.7654068958178709
570.0, 0.6936423647919534
571.0, 0.6324471084518909
572.0, 0.5852128882021407
573.0, 0.5378905278636937
574.0, 0.49815623470629
575.0, 0.4399476011312971
576.0, 0.4174735709201314
577.0, 0.3875837346198887
578.0, 0.3591521610072713
579.0, 0.34069950267141674
580.0, 0.31150710891726935
581.0, 0.2937483817213996
582.0, 0.262056476974722
583.0, 0.242342594444669
584.0, 0.2307708619014146
585.0, 0.21688502801243134
586.0, 0.20218123384720155
587.0, 0.18919575467025226
588.0, 0.17338960193156577
589.0, 0.15709354929263217
590.0, 0.13335670659933696
591.0, 0.121594048777682
592.0, 0.12084888222359634
593.0, 0.1020760471196553
594.0, 0.10358329105248235
595.0, 0.09261809870359487
596.0, 0.1005199412067198
597.0, 0.1049487646911025
598.0, 0.09785638166302027
599.0, 0.09948874774584861
600.0, 0.10812202524782683
601.0, 0.09904113764477172
602.0, 0.09490112179670057
603.0, 0.09747265469868195
604.0, 0.09605916738136021
605.0, 0.09373743866717184
606.0, 0.09683358143134814
607.0, 0.08112921125305904
608.0, 0.07812808273752615
609.0, 0.07699372739785079
610.0, 0.07181104212854701
611.0, 0.06416364769498649
612.0, 0.05781054824676564
613.0, 0.05707007510415398
614.0, 0.046318768381414
615.0, 0.047558441523024145
616.0, 0.045621507621637775
617.0, 0.03913553610736212
618.0, 0.035899689979081696
619.0, 0.030006490663009113
620.0, 0.023728829316248867
621.0, 0.012698174788649708
622.0, 0.007504508900716584
623.0, 0.0028409518259035534
624.0, 0.0023581279814571575
625.0, 0.001879172538037391
626.0, 0.002953613514530561
627.0, 0.006610662074674399
628.0, 0.003836552353014537
629.0, 0.0031009244298245745
630.0, 0.0031245271544026536
631.0, 0.0034020521942054113
632.0, 0.010321822106302322
633.0, 0.007678639992173565
634.0, 0.0173706033266241
635.0, 0.019368418178667548
636.0, 0.018069395080962735
637.0, 0.022699767174487576
638.0, 0.03150842763851674
639.0, 0.03392754599234975
640.0, 0.033360294883750405
641.0, 0.03450050903480382
642.0, 0.046392719146157516
643.0, 0.04779461915536801
644.0, 0.05483131238944708
645.0, 0.07413600954642544
646.0, 0.0767606284921534
647.0, 0.08561672842793026
648.0, 0.0895512557655289
649.0, 0.09781255192360593
650.0, 0.11376245255420725
651.0, 0.12774456614605456
652.0, 0.13544325816553243
653.0, 0.15085022541990528
654.0, 0.16406470620335742
655.0, 0.18556527419075353
656.0, 0.20241145180864714
657.0, 0.21047809130030246
658.0, 0.22670069781328056
659.0, 0.24992503799483676
660.0, 0.2502128785743306
661.0, 0.27713147048321596
662.0, 0.29829123114703016
663.0, 0.3054838802328662
664.0, 0.3186916097407274
665.0, 0.33793776778834406
666.0, 0.3514426473586546
667.0, 0.3708118492687279
668.0, 0.37883903375171435
669.0, 0.4052938911020136
670.0, 0.40882467608692186
671.0, 0.4188451327996878
672.0, 0.4368253531950195
673.0, 0.44717907968537973
674.0, 0.4637546789051713
675.0, 0.47000590551051663
676.0, 0.45594859464236026
677.0, 0.4565708836232373
678.0, 0.4586766613825893
679.0, 0.45369767691253315
680.0, 0.448650230480393
681.0, 0.4467896787961571
682.0, 0.44203606003516693
683.0, 0.42415913817492756
684.0, 0.40723408006452255
685.0, 0.3876732511763128
686.0, 0.3704594015834087
687.0, 0.35897716634758225
688.0, 0.3411265501078654
689.0, 0.3170901207544943
690.0, 0.30916507961170003
691.0, 0.29414270763694395
692.0, 0.2742798073929873
693.0, 0.2546490834008716
694.0, 0.2297952453545213
695.0, 0.20546602952328216
696.0, 0.20618390292130379
697.0, 0.18134930725585888
698.0, 0.16404197677085972
699.0, 0.15897228664050855
700.0, 0.1388742932447595
701.0, 0.11669009622214693
702.0, 0.12064024687575947
703.0, 0.11961994417284436
704.0, 0.115103083553519
705.0, 0.09178260254047123
706.0, 0.07198217470348485
707.0, 0.058766254805371496
708.0, 0.05461985932121036
709.0, 0.05517117991986265
710.0, 0.047515138513286426
711.0, 0.03924219901962904
712.0, 0.03542371680334574
713.0, 0.032793785289450345
714.0, 0.033776716995211675
715.0, 0.02526077325441039
716.0, 0.02046071550602343
717.0, 0.036305572576202795
718.0, 0.02621263344090224
719.0, 0.01838647199122424
720.0, 0.011794410180269329
721.0, 0.01306995526532146
722.0, 0.013708256835160618
723.0, 0.010966336466423846
724.0, 0.008943934907454501
725.0, 0.00471144190276295
726.0, 0.0015436131334159201
727.0, 0.011500181463311282
728.0, 0.009122303508109757
729.0, 0.0032676145080944973
730.0, 0.004733845720211356
731.0, 0.0024310943391760947
732.0, 0.007705337911802181
733.0, 0.003792516645701487
734.0, 0.00204051073498609
735.0, 0.0077932316107346316
736.0, 0.0067229101473038596
737.0, 0.0015471716994511237
738.0, 0.001315578433731251
739.0, 0.0009430343103403771
740.0, 0.004173266811914778
741.0, 0.002300621993257578
742.0, 0.0011517215957393431
743.0, 0.0012088671394377731
744.0, 0.003361904441498144
745.0, 0.003156157911199167
746.0, 0.004661161800028927
747.0, 0.010441537988104349
748.0, 0.022086997676129476
749.0, 0.010334366249632064
750.0, 0.0020115250217987942
751.0, 0.0016489155362875538
752.0, 0.0006308392909719085
753.0, 0.0008780338289736903
754.0, 0.0033696242637226443
755.0, 0.00515739077764678
756.0, 0.007282085944597366
757.0, 0.0029770829527584614
758.0, 0.0064091188071511455
759.0, 0.0017628023534820762
760.0, 0.0037033469957958925
761.0, 0.011593609421127278
762.0, 0.014655831611988905
763.0, 0.0121457652737032
764.0, 0.01760019133688809
765.0, 0.0052550262199493065
766.0, 0.0073619996898066165
767.0, 0.010063287909466003
768.0, 0.010083206687159355
769.0, 0.012125416573824975
770.0, 0.014623944215003572
771.0, 0.014628953446014425
772.0, 0.014035612090620863
773.0, 0.013120710846706851
774.0, 0.024564667322555318
775.0, 0.01668522306483306
776.0, 0.01653260588814539
777.0, 0.020422663639240356
778.0, 0.01926688685078008
779.0, 0.01911453009662955
780.0, 0.02282435016271079
781.0, 0.02341866223328581
782.0, 0.020565350198514777
783.0, 0.017447729718701756
784.0, 0.021486118605599642
785.0, 0.022526954501223464
786.0, 0.020635675910281034
787.0, 0.016471266338892294
788.0, 0.010491177785605139
789.0, 0.02339279359915405
790.0, 0.019125739790575382
791.0, 0.028779397981732745
792.0, 0.02350440670477486
793.0, 0.012819838172068602
794.0, 0.01719740494375283
795.0, 0.025088257464892794
796.0, 0.01966667918903896
797.0, 0.01615891876950007
798.0, 0.011012887390240044
799.0, 0.023163310482099075
800.0, 0.020466628548057763
801.0, 0.013183281710148664
802.0, 0.016942979693146273
803.0, 0.023021765262325296
804.0, 0.020677232624843583
805.0, 0.01886670699070071
806.0, 0.02160738884051281
807.0, 0.012526772669021347
808.0, 0.015138164139920548
809.0, 0.017287030640224008
810.0, 0.018854773361604644
811.0, 0.019315736833499714
812.0, 0.020158139561161883
813.0, 0.020680341935137708
814.0, 0.003336699742640986
815.0, 0.00705802885105376
816.0, 0.01690944615635911
817.0, 0.013320467787618003
818.0, 0.00933537100738778
819.0, 0.014179130377808215
820.0, 0.01182616464921934
821.0, 0.004554365703649264
822.0, 0.009621568754316547
823.0, 0.005818955449691046
824.0, 0.005482961467803798
825.0, 0.012720991994720944
826.0, 0.0038553054566547026
827.0, 0.00479411812722131
828.0, 0.005815327790848051
829.0, 0.0037125905569417687
830.0, 0.007593887650866908
831.0, 0.004972149951425675
832.0, 0.006716831885023102
833.0, 0.000847765842427444
834.0, 0.0015623039104886902
835.0, 0.0027063370251150754
836.0, 0.0026082362973524494
837.0, 0.008045708789589915
838.0, 0.0053623267564591875
839.0, 0.0012621184210769123
840.0, 0.005404230232507336
841.0, 0.005250579567406567
842.0, 0.0014376382785451895
843.0, 0.0032203587689980887
844.0, 0.01637816668722971
845.0, 0.02132871327594677
846.0, 0.009894595490100456
847.0, 0.0005322607568474193
848.0, 0.001195652016506319
849.0, 0.0038006432148197885
850.0, 0.004675845843104386
851.0, 0.011615462672184017
852.0, 0.013518277359265059
853.0, 0.01503643023100545
854.0, 0.01515803990978472
855.0, 0.011110557393556575
856.0, 0.01069844727088981
857.0, 0.011834074518216659
858.0, 0.009463429529127003
859.0, 0.013482385691622292
860.0, 0.0066484944939482
861.0, 0.010621630441518728
862.0, 0.011247204473275197
863.0, 0.010916222581671388
864.0, 0.00894275529904113
865.0, 0.007643454306476972
866.0, 0.00736869865636655
867.0, 0.006398022257767021
868.0, 0.010957720287460958
869.0, 0.011148515355416102
870.0, 0.0020703734406983918
871.0, 0.007868105265402402
872.0, 0.005922258440193888
873.0, 0.0007811735710942527
874.0, 0.0036105307787930637
875.0, 0.008393959744925555
876.0, 0.008913519531621457
877.0, 0.011895298575972353
878.0, 0.0094651690164699
879.0, 0.005214732774105211
880.0, 0.01617169947263111
881.0, 0.018372909206004706
882.0, 0.008136860556425304
883.0, 0.005530554061405182
884.0, 0.007680881368633608
885.0, 0.00983041062321843
886.0, 0.01329305524624455
887.0, 0.007537097337653731
888.0, 0.002812018406612514
889.0, 0.015470123910717911
890.0, 0.009795062670511076
891.0, 0.00975599896080488
892.0, 0.008111938461054463
893.0, 0.006775385481909796
894.0, 0.0043081454999495975
895.0, 0.010815540917180436
896.0, 0.022129991252120004
897.0, 0.011499864828221512
898.0, 0.009270227490601366
899.0, 0.007185242541376004
900.0, 0.0042857430435731024
901.0, 0.0025617629267690833
902.0, 0.0022036144217196267
903.0, 0.002596783920878241
904.0, 0.009438105964000156
905.0, 0.010739808045967966
906.0, 0.0019310492173398677
907.0, 0.006756139734494714
908.0, 0.0025547961471003833
909.0, 0.0054208422120224755
910.0, 0.0008863702612316373
911.0, 0.0021248505897044968
912.0, 0.006209935156906029
913.0, 0.0040270824261844605
914.0, 0.010584859633166441
915.0, 0.023240319628051995
916.0, 0.016992641318655483
917.0, 0.01937927130095474
918.0, 0.010387531085407162
919.0, 0.02800230820200045
920.0, 0.03489082668683065
921.0, 0.04998336917476378
922.0, 0.049371460613534056
923.0, 0.04456676873118432
924.0, 0.053509200470851045
925.0, 0.06256626625679575
926.0, 0.06706856087839469
927.0, 0.07123015418501646
928.0, 0.06300414473778408
929.0, 0.061674881872479125
930.0, 0.055758247989624726
931.0, 0.062442276844461346
932.0, 0.05108796040196096
933.0, 0.035905362139263194
934.0, 0.02664620034712249
935.0, 0.030974199029302277
936.0, 0.031464814109060456
937.0, 0.01787889079620118
938.0, 0.008378153958701689
939.0, 0.0037897292982038114
940.0, 0.003214349822184427
941.0, 0.0023171789724932344
942.0, 0.007812407401280667
943.0, 0.007337196515818779
944.0, 0.0074320740136148075
945.0, 0.013669172637940104
946.0, 0.012265247142416159
947.0, 0.006928470342016501
948.0, 0.014920079184985616
949.0, 0.02302717936874379
950.0, 0.010740559262735528
951.0, 0.0010157172300724864
952.0, 0.0027015899918825183
953.0, 0.005069698757029661
954.0, 0.020037719339191462
955.0, 0.02566454682875527
956.0, 0.027101881338475024
957.0, 0.03731795807834412
958.0, 0.04628638036035096
959.0, 0.050001707451209944
960.0, 0.05619503038691405
961.0, 0.07885823208293785
962.0, 0.08615494875963454
963.0, 0.08326779757558818
964.0, 0.084560189193834
965.0, 0.10290648756928272
966.0, 0.10578576546649061
967.0, 0.11318243446982455
968.0, 0.11820375998525519
969.0, 0.12367082918767125
970.0, 0.13582541071005882
971.0, 0.15073826789192182
972.0, 0.17142705685904747
973.0, 0.19018283271356787
974.0, 0.21511169232378233
975.0, 0.23795760195535312
976.0, 0.2683446434580666
977.0, 0.29086762615757294
978.0, 0.32705966953484206
979.0, 0.36837634572263406
980.0, 0.41116474046443846
981.0, 0.45356415572012854
982.0, 0.48456919433352835
983.0, 0.5117711085054847
984.0, 0.547891155086376
985.0, 0.5728742151497886
986.0, 0.6072508160252875
987.0, 0.6201580184415028
988.0, 0.6564444815324523
989.0, 0.6588752672150283
990.0, 0.6698749011893163
991.0, 0.6766386410075967
992.0, 0.6775021084475501
993.0, 0.6700280736091968
994.0, 0.6650700331002277
995.0, 0.6742316893253627
996.0, 0.6792183183497003
997.0, 0.681483056656665
998.0, 0.6688959815001211
999.0, 0.6487673827487335
1000.0, 0.6581404289200649
1001.0, 0.6401161474268565
1002.0, 0.6319045534685428
1003.0, 0.6161006201822653
1004.0, 0.604389697864172
1005.0, 0.6065876222649926
1006.0, 0.5988781282995923
1007.0, 0.5762320698372436
1008.0, 0.5536565234458481
1009.0, 0.5302203358529826
1010.0, 0.5124941304222406
1011.0, 0.48834222576172354
1012.0, 0.46596848935901675
1013.0, 0.44545003598631694
1014.0, 0.4239132289564332
1015.0, 0.395957095986719
1016.0, 0.3598744767037733
1017.0, 0.3140995766174605
1018.0, 0.2837557177174968
1019.0, 0.2686910847078793
1020.0, 0.2420900489277196
1021.0, 0.2069754407593068
1022.0, 0.18658146928955727
1023.0, 0.1752269420123583
1024.0, 0.15355479447131112
1025.0, 0.1390062765225019
1026.0, 0.14650685485784257
1027.0, 0.12576679041760885
1028.0, 0.1269511343753287
1029.0, 0.11944813887305805
1030.0, 0.11098976526748593
1031.0, 0.10716227412747326
1032.0, 0.10351299814396966
1033.0, 0.10145873401081129
1034.0, 0.10508730189246701
1035.0, 0.10954759867130313
1036.0, 0.09665313340061749
1037.0, 0.09575862036894277
1038.0, 0.09880054527045314
1039.0, 0.11682490331812473
1040.0, 0.11277323844066142
1041.0, 0.11481858885927528
1042.0, 0.1247888357829741
1043.0, 0.1270797080340084
1044.0, 0.1255963745153925
1045.0, 0.13768908659596155
1046.0, 0.15191985161781002
1047.0, 0.1645389906821648
1048.0, 0.1770270516273793
1049.0, 0.1725361518916513
1050.0, 0.19194314014869443
1051.0, 0.1988112290718243
1052.0, 0.2036310965641949
1053.0, 0.23566216418211328
1054.0, 0.22458942640016488
1055.0, 0.23100016909987636
1056.0, 0.2445707386923169
1057.0, 0.2507965484045339
1058.0, 0.25625934024222363
1059.0, 0.2608483811574511
1060.0, 0.2583160562255011
1061.0, 0.24404710640727978
1062.0, 0.2360340201982213
1063.0, 0.2409655436807382
1064.0, 0.22207333535152446
1065.0, 0.20187185100469224
1066.0, 0.1886477325036725
1067.0, 0.17772068385986078
1068.0, 0.15889576073587358
1069.0, 0.15387340127658988
1070.0, 0.13763571066593813
1071.0, 0.13453310230431006
1072.0, 0.13213222347147194
1073.0, 0.12032810173128793
1074.0, 0.10892812937914945
1075.0, 0.10363384563089076
1076.0, 0.09576245334987671
1077.0, 0.08922286229502725
1078.0, 0.09128399912886428
1079.0, 0.08278610143660783
1080.0, 0.07007815314334243
1081.0, 0.06218017017972467
1082.0, 0.04980430548505235
1083.0, 0.045469137258917824
1084.0, 0.038306853459519306
1085.0, 0.04396018654230086
1086.0, 0.03067621762242291
1087.0, 0.02039189737951973
1088.0, 0.016459444085313142
1089.0, 0.017639347751153785
1090.0, 0.008621807697710725
1091.0, 0.0009151321416251321
1092.0, 0.007145256079828343
1093.0, 0.018638809500685236
1094.0, 0.007573155318299498
1095.0, 0.013347082303686489
1096.0, 0.01684376468980132
1097.0, 0.0023260146532632724
1098.0, 0.008143276694701747
1099.0, 0.007630065974023796
1100.0, 0.01088325622017882
1101.0, 0.004877374029211772
1102.0, 0.0033640010838690716
1103.0, 0.0018510337458310924
1104.0, 0.007226482006751439
1105.0, 0.0027115546183666996
1106.0, 0.0071162597885173935
1107.0, 0.014523307650416236
1108.0, 0.011216670811278456
1109.0, 0.012316412301006188
1110.0, 0.02576020101951091
1111.0, 0.028787864480010496
1112.0, 0.029463167932384553
1113.0, 0.033805062965834645
1114.0, 0.04838021678700388
1115.0, 0.05650981712092845
1116.0, 0.06427619219007817
1117.0, 0.06758348360166289
1118.0, 0.08194425879343321
1119.0, 0.0784854054127354
1120.0, 0.07624387199602396
1121.0, 0.08868366102644469
1122.0, 0.10556912519181559
1123.0, 0.11912379047335121
1124.0, 0.12707267511873035
1125.0, 0.1294819299409837
1126.0, 0.13290670210277397
1127.0, 0.13577255977894667
1128.0, 0.1341568098607519
1129.0, 0.13084254335212772
1130.0, 0.13028804204740235
1131.0, 0.1254752275042058
1132.0, 0.12173235381889458
1133.0, 0.1187894756463524
1134.0, 0.1200701974584841
1135.0, 0.11625053136456544
1136.0, 0.11536809853408167
1137.0, 0.11143297700320096
1138.0, 0.11727011230427244
1139.0, 0.1261429043547499
1140.0, 0.11980080477059357
1141.0, 0.1275101840303499
1142.0, 0.14095274327742113
1143.0, 0.14264637625807
1144.0, 0.14424088282665778
1145.0, 0.15183413290418699
1146.0, 0.15029911205488156
1147.0, 0.14725222727122889
1148.0, 0.1703118329754371
1149.0, 0.18450948882387228
1150.0, 0.18284077757886688
1151.0, 0.18896762720220897
1152.0, 0.20209384172075856
1153.0, 0.19526681492966316
1154.0, 0.18652281858491443
1155.0, 0.18574834711423127
1156.0, 0.18684769008308258
1157.0, 0.18128630908334978
1158.0, 0.17077085442162362
1159.0, 0.16056052193250925
1160.0, 0.14831775308171066
1161.0, 0.13202400063031366
1162.0, 0.10575686968453626
1163.0, 0.08538147149503504
1164.0, 0.07314581422450733
1165.0, 0.06775098602414288
1166.0, 0.06492322970946462
1167.0, 0.05149028325533411
1168.0, 0.03732028144456546
1169.0, 0.031153754561885013
1170.0, 0.030443171861412648
1171.0, 0.0242845999509214
1172.0, 0.015148126331928535
1173.0, 0.011054406102773218
1174.0, 0.009370678117419824
1175.0, 0.0035223466064817468
1176.0, 0.007617536445710252
1177.0, 0.007104376735108123
1178.0, 0.0024205495354800884
1179.0, 0.0017772602275694502
1180.0, 0.001987009762235758
1181.0, 0.007969978097106376
1182.0, 0.002245932811885338
1183.0, 0.003030689974020097
1184.0, 0.005080358332207163
1185.0, 0.0029213683868362034
1186.0, 0.005214957305313973
1187.0, 0.0013725615257315252
1188.0, 0.003699136395931435
1189.0, 0.0010586232042083482
1190.0, 0.004267639072071152
1191.0, 0.006397512053266706
1192.0, 0.0011139448188841941
1193.0, 0.00390131455580282
1194.0, 0.0024653217412656113
1195.0, 0.0027324283098700652
1196.0, 0.004032691756179213
1197.0, 0.016054612460942187
1198.0, 0.013322671289835674
1199.0, 0.011334526748052772
1200.0, 0.0006459516910764791
1201.0, 0.014191841161400818
1202.0, 0.011629302861805666
1203.0, 0.00791272344662067
1204.0, 0.002376033196584562
1205.0, 0.00933378269393964
1206.0, 0.0043672265261615086
1207.0, 0.008262769582623333
1208.0, 0.014288990496114002
1209.0, 0.00609933743040136
1210.0, 0.001711824697557399
1211.0, 0.004419022264438923
1212.0, 0.013748907310806746
1213.0, 0.01660608499366944
1214.0, 0.016931993295117208
1215.0, 0.011554858413261579
1216.0, 0.011330420865109221
1217.0, 0.023219170588204212
1218.0, 0.02063492959040778
1219.0, 0.020066606357334513
1220.0, 0.02440492363760217
1221.0, 0.02969907098384973
1222.0, 0.04055716274038264
1223.0, 0.026285330688319803
1224.0, 0.03171546124063876
1225.0, 0.030632461559327254
1226.0, 0.026366316029407498
1227.0, 0.0307235422188438
1228.0, 0.03789870398835778
1229.0, 0.03782208273415549
1230.0, 0.03774825845287647
1231.0, 0.033678961621031164
1232.0, 0.03204097214488847
1233.0, 0.029904206927179877
1234.0, 0.016207787938507655
1235.0, 0.019905062892599044
1236.0, 0.016960126344236406
1237.0, 0.013875306326938331
1238.0, 0.015503770666727219
1239.0, 0.014398646031133989
1240.0, 0.020996807980149437
1241.0, 0.015447048355634003
1242.0, 0.013348152649882537
1243.0, 0.015317462568964262
1244.0, 0.009363029114052483
1245.0, 0.00977832114345155
1246.0, 0.010591360348190063
1247.0, 0.012173322408858264
1248.0, 0.01626635356251976
1249.0, 0.014843533289370974
1250.0, 0.014696819732862638
1251.0, 0.02440488059512705
1252.0, 0.02523326751960009
1253.0, 0.006502133444164525
1254.0, 0.0009314866837242952
1255.0, 0.01671457518042666
1256.0, 0.008129882299404513
1257.0, 0.013739200658627068
1258.0, 0.018908854843331477
1259.0, 0.009285957200369012
1260.0, 0.017528332604699843
1261.0, 0.019952983459502378
1262.0, 0.01391196016268305
1263.0, 0.013154109981057342
1264.0, 0.014046463797752554
1265.0, 0.011865744782062718
1266.0, 0.01560865026595061
1267.0, 0.01262676152838868
1268.0, 0.010800554051203833
1269.0, 0.0122115555486263
1270.0, 0.00020120792591103178
1271.0, 0.010667750601522691
1272.0, 0.008036169376115882
1273, 0.0
1274, 0.0
1275, 0.0
1276, 0.0
1277, 0.0
1278, 0.0
1279, 0.0
1280, 0.0
1281, 0.0
1282, 0.0
1283, 0.0
1284, 0.0
1285, 0.0
1286, 0.0
1287, 0.0
1288, 0.0
1289, 0.0
1290, 0.0
1291, 0.0
1292, 0.0
1293, 0.0
1294, 0.0
1295, 0.0
1296, 0.0
1297, 0.0
1298, 0.0
1299, 0.0
1300, 0.0
1301, 0.0
1302, 0.0
1303, 0.0
1304, 0.0
1305, 0.0
1306, 0.0
1307, 0.0
1308, 0.0
1309, 0.0
1310, 0.0
1311, 0.0
1312, 0.0
1313, 0.0
1314, 0.0
1315, 0.0
1316, 0.0
1317, 0.0
1318, 0.0
1319, 0.0
1320, 0.0
1321, 0.0
1322, 0.0
1323, 0.0
1324, 0.0
1325, 0.0
1326, 0.0
1327, 0.0
1328, 0.0
1329, 0.0
1330, 0.0
1331, 0.0
1332, 0.0
1333, 0.0
1334, 0.0
1335, 0.0
1336, 0.0
1337, 0.0
1338, 0.0
1339, 0.0
1340, 0.0
1341, 0.0
1342, 0.0
1343, 0.0
1344, 0.0
1345, 0.0
1346, 0.0
1347, 0.0
1348, 0.0
1349, 0.0
1350, 0.0
1351, 0.0
1352, 0.0
1353, 0.0
1354, 0.0
1355, 0.0
1356, 0.0
1357, 0.0
1358, 0.0
1359, 0.0
1360, 0.0
1361, 0.0
1362, 0.0
1363, 0.0
1364, 0.0
1365, 0.0
1366, 0.0
1367, 0.0
1368, 0.0
1369, 0.0
1370, 0.0
1371, 0.0
1372, 0.0
1373, 0.0
1374, 0.0
1375, 0.0
1376, 0.0
1377, 0.0
1378, 0.0
1379, 0.0
1380, 0.0
1381, 0.0
1382, 0.0
1383, 0.0
1384, 0.0
1385, 0.0
1386, 0.0
1387, 0.0
1388, 0.0
1389, 0.0
1390, 0.0
1391, 0.0
1392, 0.0
1393, 0.0
1394, 0.0
1395, 0.0
1396, 0.0
1397, 0.0
1398, 0.0
1399, 0.0
1400, 0.0
1401, 0.0
1402, 0.0
1403, 0.0
1404, 0.0
1405, 0.0
1406, 0.0
1407, 0.0
1408, 0.0
1409, 0.0
1410, 0.0
1411, 0.0
1412, 0.0
1413, 0.0
1414, 0.0
1415, 0.0
1416, 0.0
1417, 0.0
1418, 0.0
1419, 0.0
1420, 0.0
1421, 0.0
1422, 0.0
1423, 0.0
1424, 0.0
1425, 0.0
1426, 0.0
1427, 0.0
1428, 0.0
1429, 0.0
1430, 0.0
1431, 0.0
1432, 0.0
1433, 0.0
1434, 0.0
1435, 0.0
1436, 0.0
1437, 0.0
1438, 0.0
1439, 0.0
1440, 0.0
1441, 0.0
1442, 0.0
1443, 0.0
1444, 0.0
1445, 0.0
1446, 0.0
1447, 0.0
1448, 0.0
1449, 0.0
1450, 0.0
1451, 0.0
1452, 0.0
1453, 0.0
1454, 0.0
1455, 0.0
1456, 0.0
1457, 0.0
1458, 0.0
1459, 0.0
1460, 0.0
1461, 0.0
1462, 0.0
1463, 0.0
1464, 0.0
1465, 0.0
1466, 0.0
1467, 0.0
1468, 0.0
1469, 0.0
1470, 0.0
1471, 0.0
1472, 0.0
1473, 0.0
1474, 0.0
1475, 0.0
1476, 0.0
1477, 0.0
1478, 0.0
1479, 0.0
1480, 0.0
1481, 0.0
1482, 0.0
1483, 0.0
1484, 0.0
1485, 0.0
1486, 0.0
1487, 0.0
1488, 0.0
1489, 0.0
1490, 0.0
1491, 0.0
1492, 0.0
1493, 0.0
1494, 0.0
1495, 0.0
1496, 0.0
1497, 0.0
1498, 0.0
1499, 0.0
1500, 0.0
1501, 0.0
1502, 0.0
1503, 0.0
1504, 0.0
1505, 0.0
1506, 0.0
1507, 0.0
1508, 0.0
1509, 0.0
1510, 0.0
1511, 0.0
1512, 0.0
1513, 0.0
1514, 0.0
1515, 0.0
1516, 0.0
1517, 0.0
1518, 0.0
1519, 0.0
1520, 0.0
1521, 0.0
1522, 0.0
1523, 0.0
1524, 0.0
1525, 0.0
1526, 0.0
1527, 0.0
1528, 0.0
1529, 0.0
1530, 0.0
1531, 0.0
1532, 0.0
1533, 0.0
1534, 0.0
1535, 0.0
1536, 0.0
1537, 0.0
1538, 0.0
1539, 0.0
1540, 0.0
1541, 0.0
1542, 0.0
1543, 0.0
1544, 0.0
1545, 0.0
1546, 0.0
1547, 0.0
1548, 0.0
1549, 0.0
1550, 0.0
1551, 0.0
1552, 0.0
1553, 0.0
1554, 0.0
1555, 0.0
1556, 0.0
1557, 0.0
1558, 0.0
1559, 0.0
1560, 0.0
1561, 0.0
1562, 0.0
1563, 0.0
1564, 0.0
1565, 0.0
1566, 0.0
1567, 0.0
1568, 0.0
1569, 0.0
1570, 0.0
1571, 0.0
1572, 0.0
1573, 0.0
1574, 0.0
1575, 0.0
1576, 0.0
1577, 0.0
1578, 0.0
1579, 0.0
1580, 0.0
1581, 0.0
1582, 0.0
1583, 0.0
1584, 0.0
1585, 0.0
1586, 0.0
1587, 0.0
1588, 0.0
1589, 0.0
1590, 0.0
1591, 0.0
1592, 0.0
1593, 0.0
1594, 0.0
1595, 0.0
1596, 0.0
1597, 0.0
1598, 0.0
1599, 0.0
