30, 0.0
31, 0.0
32, 0.0
33, 0.0
34, 0.0
35, 0.0
36, 0.0
37, 0.0
38, 0.0
39, 0.0
40, 0.0
41, 0.0
42, 0.0
43, 0.0
44, 0.0
45, 0.0
46, 0.0
47, 0.0
48, 0.0
49, 0.0
50, 0.0
51, 0.0
52, 0.0
53, 0.0
54, 0.0
55, 0.0
56, 0.0
57, 0.0
58, 0.0
59, 0.0
60, 0.0
61, 0.0
62, 0.0
63, 0.0
64, 0.0
65, 0.0
66, 0.0
67, 0.0
68, 0.0
69, 0.0
70, 0.0
71, 0.0
72, 0.0
73, 0.0
74, 0.0
75, 0.0
76, 0.0
77, 0.0
78, 0.0
79, 0.0
80, 0.0
81, 0.0
82, 0.0
83, 0.0
84, 0.0
85, 0.0
86, 0.0
87, 0.0
88, 0.0
89, 0.0
90, 0.0
91, 0.0
92, 0.0
93, 0.0
94, 0.0
95, 0.0
96, 0.0
97, 0.0
98, 0.0
99, 0.0
100, 0.0
101, 0.0
102, 0.0
103, 0.0
104, 0.0
105, 0.0
106, 0.0
107, 0.0
108, 0.0
109, 0.0
110, 0.0
111, 0.0
112, 0.0
113, 0.0
114, 0.0
115, 0.0
116, 0.0
117, 0.0
118, 0.0
119, 0.0
120, 0.0
121, 0.0
122, 0.0
123, 0.0
124, 0.0
125, 0.0
126, 0.0
127, 0.0
128, 0.0
129, 0.0
130, 0.0
131, 0.0
132, 0.0
133, 0.0
134, 0.0
135, 0.0
136, 0.0
137, 0.0
138, 0.0
139, 0.0
140, 0.0
141, 0.0
142, 0.0
143, 0.0
144, 0.0
145, 0.0
146, 0.0
147, 0.0
148, 0.0
149, 0.0
150, 0.0
151, 0.0
152, 0.0
153, 0.0
154, 0.0
155, 0.0
156, 0.0
157, 0.0
158, 0.0
159, 0.0
160, 0.0
161, 0.0
162, 0.0
163, 0.0
164, 0.0
165, 0.0
166, 0.0
167, 0.0
168, 0.0
169, 0.0
170, 0.0
171, 0.0
172, 0.0
173, 0.0
174, 0.0
175.0, 0.00027942770881533353
176.0, 0.0005860776189991809
177.0, 0.001057050407601075
178.0, 0.0015911635280700487
179.0, 0.0019664861461869444
180.0, 0.0007111086867530253
181.0, 0.00017113759517354657
182.0, 0.0015501855198602852
183.0, 0.0011044714565150667
184.0, 0.002724048289042227
185.0, 0.0050891220854922745
186.0, 0.007828223120844004
187.0, 0.00968436772367304
188.0, 0.01250705924061078
189.0, 0.01912937767337031
190.0, 0.02022347712525914
191.0, 0.02263945918743185
192.0, 0.027100643208709294
193.0, 0.030577387774192513
194.0, 0.032629709379407255
195.0, 0.03668742626709282
196.0, 0.040804564449763506
197.0, 0.04219308929705687
198.0, 0.039565836169913306
199.0, 0.03979817024926064
200.0, 0.03888692539141131
201.0, 0.03511652643849071
202.0, 0.029943946116068675
203.0, 0.028770246797153672
204.0, 0.02732124522201539
205.0, 0.026080677376045622
206.0, 0.026083926396262135
207.0, 0.026155606109243133
208.0, 0.026993501423366806
209.0, 0.027585958481730857
210.0, 0.02857033310340928
211.0, 0.031487816695553186
212.0, 0.03506980985091816
213.0, 0.04041358489670866
214.0, 0.045138488483551766
215.0, 0.0473657985822184
216.0, 0.04927255754872706
217.0, 0.0562052338113538
218.0, 0.06298732892452623
219.0, 0.06809678832336992
220.0, 0.07441543324062326
221.0, 0.07799676401054095
222.0, 0.08317704257030831
223.0, 0.08812792828880749
224.0, 0.09031405273576568
225.0, 0.09209513171496901
226.0, 0.09373386403024032
227.0, 0.09259227466477324
228.0, 0.08969190614550276
229.0, 0.08911125586901071
230.0, 0.086971997943275
231.0, 0.08594814908636589
232.0, 0.08620223977332722
233.0, 0.0867783252250381
234.0, 0.08904783376584087
235.0, 0.09182846775495128
236.0, 0.09468479564125529
237.0, 0.09758028271850183
238.0, 0.10065555797625915
239.0, 0.10295953350149223
240.0, 0.10684121978816566
241.0, 0.1110710599195309
242.0, 0.11438599304341582
243.0, 0.11916984366825606
244.0, 0.12457831809786632
245.0, 0.1297295905657021
246.0, 0.13430968703073098
247.0, 0.13804252900943323
248.0, 0.13833308283518017
249.0, 0.14222647058859075
250.0, 0.14667247341680728
251.0, 0.14769302759601838
252.0, 0.14730273617435444
253.0, 0.14717192795159464
254.0, 0.1462034701132252
255.0, 0.14446059170174708
256.0, 0.14299001831508226
257.0, 0.14248397701157717
258.0, 0.1418376996327681
259.0, 0.14223935678439414
260.0, 0.14320920070181598
261.0, 0.14107597629258056
262.0, 0.14102428321158156
263.0, 0.14099417046964335
264.0, 0.1399771940521962
265.0, 0.1378789164007229
266.0, 0.13090911668798644
267.0, 0.12497075721485922
268.0, 0.11978427535165083
269.0, 0.11401352492347233
270.0, 0.10706184996901744
271.0, 0.09943330603369632
272.0, 0.09300990505261714
273.0, 0.08699553110310013
274.0, 0.08049039739173275
275.0, 0.07569468844501036
276.0, 0.07088892770701807
277.0, 0.06612364440414151
278.0, 0.06146820111243935
279.0, 0.05649288152014308
280.0, 0.0534963571003594
281.0, 0.05151612188983453
282.0, 0.0489170166206037
283.0, 0.045387488313385085
284.0, 0.04305400484878394
285.0, 0.04318693683509792
286.0, 0.04323743402508851
287.0, 0.04345443605374675
288.0, 0.04502623072402904
289.0, 0.04627903347883622
290.0, 0.04833208073652123
291.0, 0.050343273543497415
292.0, 0.05191537257064919
293.0, 0.05362831400459475
294.0, 0.056030889596661734
295.0, 0.060729020305737284
296.0, 0.06453021169881284
297.0, 0.0658542987494062
298.0, 0.06808741537438591
299.0, 0.07237300196451033
300.0, 0.07696654283924538
301.0, 0.07998562994833551
302.0, 0.0816467117573167
303.0, 0.08578246326783295
304.0, 0.0886268065055536
305.0, 0.08940561801508078
306.0, 0.08949811074074532
307.0, 0.09039480802651452
308.0, 0.08968701842348696
309.0, 0.08733214413570027
310.0, 0.08288242795516118
311.0, 0.07755227807515343
312.0, 0.07387416734013927
313.0, 0.06884972379851219
314.0, 0.06188305844036642
315.0, 0.05488510380127662
316.0, 0.04892302289077753
317.0, 0.04203012643688472
318.0, 0.034962903810634646
319.0, 0.0287652733313691
320.0, 0.023530427646514585
321.0, 0.01884601285354346
322.0, 0.014147521317949049
323.0, 0.011992148131655429
324.0, 0.00851289918537713
325.0, 0.0038978133438888037
326.0, 0.0023207464651653536
327.0, 0.0015279277399988973
328.0, 0.0030177733683730066
329.0, 0.0037131701622052232
330.0, 0.005164725184962774
331.0, 0.0057793648795071055
332.0, 0.00854963221344075
333.0, 0.007382311337939292
334.0, 0.004930520698208662
335.0, 0.00480237385637341
336.0, 0.0031325029405408294
337.0, 0.0030690125376301057
338.0, 0.002543171093286799
339.0, 0.0010992394482350993
340.0, 0.0004335344852987705
341.0, 0.002336023544309477
342.0, 0.003442122629644962
343.0, 0.005701596459730577
344.0, 0.009103677854453712
345.0, 0.011672328707147581
346.0, 0.01372055987532929
347.0, 0.016524843565069176
348.0, 0.020115385877443447
349.0, 0.02449027710587991
350.0, 0.029929519618857998
351.0, 0.035905901789247345
352.0, 0.040178297810315074
353.0, 0.04415121079000271
354.0, 0.04929727819864249
355.0, 0.05478587090579739
356.0, 0.06030886997292164
357.0, 0.06569754484037983
358.0, 0.06914673186324485
359.0, 0.07122928054856716
360.0, 0.07660222597049635
361.0, 0.0796558542105721
362.0, 0.08203758280803844
363.0, 0.08343283760685481
364.0, 0.08279077918077189
365.0, 0.0808164565845721
366.0, 0.08165255577662689
367.0, 0.08129029895107412
368.0, 0.07921918510289153
369.0, 0.07736470769559142
370.0, 0.07612516568175269
371.0, 0.07335921565401753
372.0, 0.07092928884819534
373.0, 0.06937712468350053
374.0, 0.06824711817368899
375.0, 0.06684367408806155
376.0, 0.06509453460469734
377.0, 0.06331116871777494
378.0, 0.062123603626376096
379.0, 0.06148176195936368
380.0, 0.06111476257815731
381.0, 0.059327544215028824
382.0, 0.058063201391307204
383.0, 0.05805415712912562
384.0, 0.05803255220276433
385.0, 0.05798800984337485
386.0, 0.05809969252631106
387.0, 0.058005730692540045
388.0, 0.057126485661892025
389.0, 0.055884550135392126
390.0, 0.057026645322075735
391.0, 0.05487156460002822
392.0, 0.05409562612173865
393.0, 0.0557999450322206
394.0, 0.055618548539087806
395.0, 0.05418038837451231
396.0, 0.05596194363571107
397.0, 0.05716551337905612
398.0, 0.05647193245279559
399.0, 0.05694301258872021
400.0, 0.05638603884351881
401.0, 0.05491193735899332
402.0, 0.053669711293971065
403.0, 0.05283290985769224
404.0, 0.05124115372270241
405.0, 0.04794823026276048
406.0, 0.044650773706406306
407.0, 0.04114504208213702
408.0, 0.03861642865292862
409.0, 0.038734182995285464
410.0, 0.03432748948192306
411.0, 0.03031153578545939
412.0, 0.02757684583900158
413.0, 0.02470720434626084
414.0, 0.020866560877298053
415.0, 0.0182929962971933
416.0, 0.016790874633731193
417.0, 0.01436964371768315
418.0, 0.011410686018120486
419.0, 0.010111465695996887
420.0, 0.007917947408870755
421.0, 0.005653156822546932
422.0, 0.004177492529518872
423.0, 0.002998930914642736
424.0, 0.0012829973310624484
425.0, 0.0010912111070112813
426.0, 0.0014558417359852457
427.0, 0.0008128105663616817
428.0, 0.0007009711724253454
429.0, 0.0017226555871487743
430.0, 0.001350421798814261
431.0, 0.0014614386166771904
432.0, 0.0020107506005398556
433.0, 0.0015902823821335932
434.0, 0.0002526484140162551
435.0, 0.00043161902914903285
436.0, 0.00085529341233473
437.0, 0.0019498928629764288
438.0, 0.002135897306151878
439.0, 0.0027341403589895767
440.0, 0.003415528428473004
441.0, 0.005279984388701856
442.0, 0.0066992151920286045
443.0, 0.007415990746341047
444.0, 0.008252937780269984
445.0, 0.009920047688408654
446.0, 0.011009064818560897
447.0, 0.012564828460142707
448.0, 0.013822507813535053
449.0, 0.014135312552888215
450.0, 0.014968169374491866
451.0, 0.014972923569609449
452.0, 0.01568576832719968
453.0, 0.01703099551896871
454.0, 0.018400635454188703
455.0, 0.019698099592155252
456.0, 0.02028863893598463
457.0, 0.021916837769476036
458.0, 0.023773624242424508
459.0, 0.025397298355323002
460.0, 0.027431924698073117
461.0, 0.02789207811296063
462.0, 0.02799732039298533
463.0, 0.028094621303979585
464.0, 0.028556473898531762
465.0, 0.029592392714546806
466.0, 0.03004609889675983
467.0, 0.0275133228735642
468.0, 0.025535168149840377
469.0, 0.024163538944602735
470.0, 0.021452130575375736
471.0, 0.0190588861151416
472.0, 0.017354728569701366
473.0, 0.015034216464200608
474.0, 0.012694077715327082
475.0, 0.01149003022150136
476.0, 0.010749797222462405
477.0, 0.009542953327097866
478.0, 0.008085949743336972
479.0, 0.006948172445688575
480.0, 0.006492614566479534
481.0, 0.0065329332749383354
482.0, 0.0057612029667749995
483.0, 0.004517949496264399
484.0, 0.004202047194084479
485.0, 0.004435214246679869
486.0, 0.003603792989037732
487.0, 0.0026196830506855957
488.0, 0.0015243982347577488
489.0, 0.0010347966906663554
490.0, 0.00036997070014675954
491.0, 0.0009392563283076332
492.0, 0.0005482343429285124
493.0, 0.0003731278470854531
494.0, 0.0005672668036672868
495.0, 0.0003415505116264203
496.0, 0.000624204072897937
497.0, 0.0020365478542219576
498.0, 0.00312574980863345
499.0, 0.00502132213414818
500.0, 0.006861917543730677
501.0, 0.007653079654259039
502.0, 0.007710651639075638
503.0, 0.008823772650320296
504.0, 0.008783877292059499
505.0, 0.00887565615807718
506.0, 0.01030064377107885
507.0, 0.012327826891024582
508.0, 0.011269817036277538
509.0, 0.010376155844711472
510.0, 0.009846095321269246
511.0, 0.009486371754951527
512.0, 0.009055027781562287
513.0, 0.008338814611758004
514.0, 0.0077500219474094904
515.0, 0.005811236150518203
516.0, 0.004798602280113174
517.0, 0.004225962767788446
518.0, 0.002132721535940987
519.0, 0.001529763709225426
520.0, 0.0012888167868341483
521.0, 0.0011301045100112856
522.0, 0.000489261643203647
523.0, 0.0007348821936545992
524.0, 0.0009043679315861315
525.0, 0.00023629216263583325
526.0, 0.0009608819206911335
527.0, 0.0016545602053543611
528.0, 0.0013162658442076698
529.0, 0.0010610698594377813
530.0, 0.0011457192245282115
531.0, 0.0005610078353480072
532.0, 0.0001190875981177743
533.0, 0.0004810229167066458
534.0, 0.0007159536572491915
535.0, 4.450318428205312e-06
536.0, 0.003076294752348644
537.0, 0.003320231411900963
538.0, 0.0030608860562570685
539.0, 0.004696220867537741
540.0, 0.006362128825835816
541.0, 0.005408662366862226
542.0, 0.004827706483809913
543.0, 0.0058817970985178365
544.0, 0.006157930914141365
545.0, 0.004730266859131366
546.0, 0.005573613440530978
547.0, 0.005234111237153404
548.0, 0.006260182880039334
549.0, 0.006662488316449098
550.0, 0.006314116887637057
551.0, 0.007643784291521481
552.0, 0.007354502723374455
553.0, 0.006438264199756715
554.0, 0.007384578147272057
555.0, 0.008681100195448278
556.0, 0.00846844785434532
557.0, 0.009003186373128063
558.0, 0.008625900775006122
559.0, 0.008496687311044812
560.0, 0.00807139836039148
561.0, 0.007245987580049173
562.0, 0.006781686298374044
563.0, 0.006660180753341541
564.0, 0.006619954190064272
565.0, 0.006033730063218306
566.0, 0.005239386453985149
567.0, 0.004525326624012657
568.0, 0.0036767170021849084
569.0, 0.0037566922793084204
570.0, 0.004158862363561823
571.0, 0.0033538184851050167
572.0, 0.001570281940871264
573.0, 0.0007160799638045682
574.0, 0.0023463795544704166
575.0, 0.00268571483069661
576.0, 0.0021360289790136153
577.0, 0.0027317419094348423
578.0, 0.00414910797228636
579.0, 0.004381058546695887
580.0, 0.005615678201176169
581.0, 0.007300885296356709
582.0, 0.007501875879797032
583.0, 0.008089021654143122
584.0, 0.010753020704448257
585.0, 0.01368372716646389
586.0, 0.016336458874134867
587.0, 0.020055905917557296
588.0, 0.02268167408236797
589.0, 0.02586326083795337
590.0, 0.03180462168201407
591.0, 0.036621750529900736
592.0, 0.04314186979205879
593.0, 0.05205741082508672
594.0, 0.06008784371193523
595.0, 0.06680992681908483
596.0, 0.07569602995850484
597.0, 0.08750999823640171
598.0, 0.09916577680669982
599.0, 0.11082409188266867
600.0, 0.1226867078121315
601.0, 0.1343595247573068
602.0, 0.14501702278941994
603.0, 0.15327544849887464
604.0, 0.158871839214099
605.0, 0.16234670000254708
606.0, 0.1599665326081453
607.0, 0.15038786189188888
608.0, 0.1385938166758866
609.0, 0.12365805153344848
610.0, 0.1068060805057961
611.0, 0.09055935565594327
612.0, 0.07506590686395485
613.0, 0.06061892873661582
614.0, 0.04949254567931783
615.0, 0.03770292188722151
616.0, 0.02968239942677801
617.0, 0.02337085965187922
618.0, 0.017707345188659844
619.0, 0.01348038151298857
620.0, 0.010235111344782954
621.0, 0.0066434204646249875
622.0, 0.005483780724679565
623.0, 0.0044690810144801954
624.0, 0.0025255416379251975
625.0, 0.001193131570153988
626.0, 0.00021226409313114062
627.0, 0.000412101645808253
628.0, 0.00038972323102095255
629.0, 0.0001120270212244727
630.0, 0.0013072560696378674
631.0, 0.0009413835782382744
632.0, 0.0014230493711144114
633.0, 0.0006979545483510799
634.0, 0.0015119437649137083
635.0, 0.0028354615445444022
636.0, 0.002807423592008718
637.0, 0.0024648367013035883
638.0, 0.004369049710873149
639.0, 0.005547273685711301
640.0, 0.006138481904446839
641.0, 0.006740420162665868
642.0, 0.007706232695391479
643.0, 0.00902541898465754
644.0, 0.01115389392110075
645.0, 0.01166619311881327
646.0, 0.013582758256372335
647.0, 0.01552653070932641
648.0, 0.016476937202243285
649.0, 0.018049247685355048
650.0, 0.018752886476304062
651.0, 0.02185955462422727
652.0, 0.024766645474666508
653.0, 0.026897579718611214
654.0, 0.028884778730526233
655.0, 0.03047513330378807
656.0, 0.03138006361160361
657.0, 0.032060555174429475
658.0, 0.031863465880043115
659.0, 0.030838491895373674
660.0, 0.029455797110250693
661.0, 0.028133356678235296
662.0, 0.026330739420217873
663.0, 0.02381211340136454
664.0, 0.02112390739904461
665.0, 0.018542061802065444
666.0, 0.016426339201971486
667.0, 0.014897973418595254
668.0, 0.012638596875163458
669.0, 0.010951128541865897
670.0, 0.010315398881394622
671.0, 0.00964237527319788
672.0, 0.008852511797950206
673.0, 0.008272952418729175
674.0, 0.005947021342533612
675.0, 0.0047063862312584455
676.0, 0.005040365665885831
677.0, 0.004564195684061128
678.0, 0.0035362448279167096
679.0, 0.003270609340552645
680.0, 0.0014522589048218458
681.0, 0.0012001891811403162
682.0, 0.0009975169790836574
683.0, 0.00013247234240516917
684.0, 0.00019904070470131994
685.0, 0.0006080217030949736
686.0, 0.00038771317119468276
687.0, 0.0018334248076043596
688.0, 0.0016077358826090764
689.0, 0.0014888987837881145
690.0, 0.001903551059927585
691.0, 0.0023451654321685247
692.0, 0.003357079714060329
693.0, 0.0023466361305755617
694.0, 0.0032916391099351234
695.0, 0.003084954113306272
696.0, 0.00243831633409684
697.0, 0.0025110870863269104
698.0, 0.0019668149175518894
699.0, 0.0020792449096526796
700.0, 0.0011282981392504877
701.0, 0.0011251108571870671
702.0, 0.0010463434298637966
703.0, 0.00034675148914125735
704.0, 0.00018891720344030159
705.0, 0.0010511558250918974
706.0, 0.0018198479949826352
707.0, 0.002706121654845762
708.0, 0.0038340267654438463
709.0, 0.004816578379201807
710.0, 0.005353399541761262
711.0, 0.006073145479012092
712.0, 0.009037604871309605
713.0, 0.008022558560749944
714.0, 0.00876677268672345
715.0, 0.011005426608355509
716.0, 0.011915480265216766
717.0, 0.012595826713332436
718.0, 0.014787478468604905
719.0, 0.016617166741357596
720.0, 0.01770631431281513
721.0, 0.01900149441182184
722.0, 0.020628650981665764
723.0, 0.02235501387391132
724.0, 0.02523746027009297
725.0, 0.029019281755561743
726.0, 0.03256233031599665
727.0, 0.03520033184994059
728.0, 0.038416576375846806
729.0, 0.04285368421531897
730.0, 0.04642598153973066
731.0, 0.050227260852692586
732.0, 0.05550552419673961
733.0, 0.06046705608979894
734.0, 0.06583141060195863
735.0, 0.07121055698404416
736.0, 0.07574474498299102
737.0, 0.08343119144870773
738.0, 0.08977963914192975
739.0, 0.09802851454486414
740.0, 0.10595715063197866
741.0, 0.11325668298194386
742.0, 0.12155381776106468
743.0, 0.13081513460685892
744.0, 0.1390610559694203
745.0, 0.1480453152951785
746.0, 0.15847270956012105
747.0, 0.1682016994589893
748.0, 0.17716123349087085
749.0, 0.18774013549292068
750.0, 0.2002567361522665
751.0, 0.21396648487098258
752.0, 0.22634175130075374
753.0, 0.2396045847132519
754.0, 0.2531631788764001
755.0, 0.2670808358078386
756.0, 0.2846944626779614
757.0, 0.30344241136104366
758.0, 0.32293850978523436
759.0, 0.3463788283488304
760.0, 0.3709134392801162
761.0, 0.39705882259390324
762.0, 0.4266940666630936
763.0, 0.4567543312379901
764.0, 0.4914672129011889
765.0, 0.5277466384367331
766.0, 0.56716942058619
767.0, 0.6104553261786538
768.0, 0.6554870013915113
769.0, 0.6995828938712402
770.0, 0.7451206953119535
771.0, 0.7915831802604737
772.0, 0.8357426469547891
773.0, 0.8761034740930798
774.0, 0.9120193614557542
775.0, 0.9413871396048713
776.0, 0.9635674271924918
777.0, 0.988111113401935
778.0, 0.9987172477690208
779.0, 0.9992988855040215
780.0, 0.9950177807426525
781.0, 0.9831985377535785
782.0, 0.961811295743186
783.0, 0.9376092644694529
784.0, 0.9104868185101243
785.0, 0.8766790701193597
786.0, 0.8401111299383797
787.0, 0.8019059713814501
788.0, 0.7636207472092648
789.0, 0.727530754581719
790.0, 0.693206524025135
791.0, 0.6565566611728568
792.0, 0.6218423873380282
793.0, 0.5897488122229241
794.0, 0.557191525030516
795.0, 0.5223515597403998
796.0, 0.48759851387435327
797.0, 0.45539775329283655
798.0, 0.42041314283810705
799.0, 0.3910484545396084
800.0, 0.35888696113493357
801.0, 0.3269909285849646
802.0, 0.2964753465039539
803.0, 0.26374067997507633
804.0, 0.23838032331915057
805.0, 0.21205392091336145
806.0, 0.1868113545919931
807.0, 0.1629112366919773
808.0, 0.14018559531068323
809.0, 0.11990370985352337
810.0, 0.10304257387468936
811.0, 0.08690134134071004
812.0, 0.07401041985737618
813.0, 0.061909013151511295
814.0, 0.04951313838837573
815.0, 0.03941761281336762
816.0, 0.031504081157921165
817.0, 0.022975887175124096
818.0, 0.016636468810860228
819.0, 0.012236231086967326
820.0, 0.007670968120060405
821.0, 0.004995247431648716
822.0, 0.001870841000795848
823.0, 0.002883598105298969
824.0, 0.004897792354563265
825.0, 0.006248246677270152
826.0, 0.005770033278730704
827.0, 0.005417864941204039
828.0, 0.005770752596806158
829.0, 0.0060446653472416316
830.0, 0.005515617130106097
831.0, 0.003950484577579039
832.0, 0.0014707239558763652
833.0, 0.0009246561900236074
834.0, 0.0027473756819569226
835.0, 0.004732417316789834
836.0, 0.00807761077091045
837.0, 0.010909936953087514
838.0, 0.011772134029208835
839.0, 0.01471693770928081
840.0, 0.0166007931499413
841.0, 0.01973621943064407
842.0, 0.023347486128291847
843.0, 0.02539992345894653
844.0, 0.02697793243152546
845.0, 0.030200267064929467
846.0, 0.0342318562793656
847.0, 0.035122664631858466
848.0, 0.04341716113238243
849.0, 0.04519727249611412
850.0, 0.04573345799379759
851.0, 0.047387275823295966
852.0, 0.049500455580118556
853.0, 0.05462806072968385
854.0, 0.056486257768683636
855.0, 0.05828530478232868
856.0, 0.061136209550699046
857.0, 0.06269732623212812
858.0, 0.06218171481571068
859.0, 0.06032024624492756
860.0, 0.05850477572691531
861.0, 0.0579800825986012
862.0, 0.05702742946478786
863.0, 0.05413602288107455
864.0, 0.05416590337416026
865.0, 0.05558377556724577
866.0, 0.05790765480967608
867.0, 0.0626931539364061
868.0, 0.06850139471856793
869.0, 0.0756699617240421
870.0, 0.08360887585953448
871.0, 0.09210998290151588
872.0, 0.10057442312248606
873.0, 0.11061703654116009
874.0, 0.1216100984727168
875.0, 0.13045430230265348
876.0, 0.14008550433887515
877.0, 0.14880456308070192
878.0, 0.15625408139525426
879.0, 0.1627476340683398
880.0, 0.16989962689492397
881.0, 0.175288928207667
882.0, 0.17750221380249376
883.0, 0.1811036505121655
884.0, 0.18329601235278203
885.0, 0.18269292515547414
886.0, 0.18437949045401186
887.0, 0.1853507639561099
888.0, 0.1842203254856233
889.0, 0.18275513215708913
890.0, 0.18202716525159168
891.0, 0.18130030260837418
892.0, 0.18028420574819076
893.0, 0.1761735752100613
894.0, 0.17420537745594572
895.0, 0.1696917174232709
896.0, 0.16125080536416472
897.0, 0.15254294799199997
898.0, 0.14409136247677387
899.0, 0.1361386391949959
900.0, 0.12646529402160855
901.0, 0.11744292220175899
902.0, 0.10812365477752105
903.0, 0.10020672746522177
904.0, 0.09553724514893976
905.0, 0.09194798135002993
906.0, 0.08548742220891713
907.0, 0.07978158237601982
908.0, 0.07661491533075994
909.0, 0.07166664280013507
910.0, 0.06823430896137708
911.0, 0.06561873121825652
912.0, 0.06207965317614294
913.0, 0.05848049847281085
914.0, 0.054293320211929175
915.0, 0.04914559731431401
916.0, 0.04533590775186377
917.0, 0.04065316890621989
918.0, 0.034596403460927155
919.0, 0.029048702362437763
920.0, 0.024782730472068398
921.0, 0.020365877447050314
922.0, 0.015504525326845296
923.0, 0.010371075397980045
924.0, 0.005883420535552258
925.0, 0.0036397461696177596
926.0, 0.0018487096621149321
927.0, 0.00011494783007264946
928.0, 0.0016152065802652292
929.0, 0.0027222096923112103
930.0, 0.0035858021637052593
931.0, 0.003813472129681715
932.0, 0.0033708357248339858
933.0, 0.002685311007507568
934.0, 0.0028229967967164033
935.0, 0.0024863812004456923
936.0, 0.0017387024522305112
937.0, 0.002546095891226425
938.0, 0.002296409789578081
939.0, 0.0006214341494290423
940.0, 0.0005147093462417544
941.0, 0.00036010844860968005
942.0, 0.0009506615705757182
943.0, 0.00021088362455782493
944.0, 0.000440331760576306
945.0, 0.0016181264756958637
946.0, 0.0030726111641754847
947.0, 0.002728515677364293
948.0, 0.003471087279149319
949.0, 0.003068833524352529
950.0, 0.0042410636845312075
951.0, 0.006039361581085898
952.0, 0.006266697932053689
953.0, 0.006136386520909495
954.0, 0.007777483300057227
955.0, 0.009254297566411808
956.0, 0.010003582724722853
957.0, 0.01067721825541523
958.0, 0.012055159259164781
959.0, 0.013941633258991294
960.0, 0.01612612374787759
961.0, 0.018272437419578486
962.0, 0.020212487415428027
963.0, 0.024010218589338942
964.0, 0.026628286610229524
965.0, 0.029774427496119835
966.0, 0.03260380721675809
967.0, 0.036053403719406386
968.0, 0.04044483013492257
969.0, 0.04416171172242321
970.0, 0.046292346166730426
971.0, 0.04992442005528919
972.0, 0.051509967135106915
973.0, 0.05439815725207213
974.0, 0.057239748579604975
975.0, 0.05873157775977438
976.0, 0.05883827967469746
977.0, 0.05930263934019165
978.0, 0.06095379812730308
979.0, 0.06132665791689709
980.0, 0.06223930587590122
981.0, 0.060009350507375867
982.0, 0.060572496049618146
983.0, 0.06053766388568664
984.0, 0.05898632754233043
985.0, 0.058200825101593814
986.0, 0.058263625098701324
987.0, 0.057394156916049786
988.0, 0.058125801819226594
989.0, 0.058766785587981145
990.0, 0.06043459868700081
991.0, 0.06155065896299535
992.0, 0.06303053296733373
993.0, 0.0651071015413982
994.0, 0.06767361014812405
995.0, 0.0707165416934072
996.0, 0.07390861848069821
997.0, 0.07782886925158665
998.0, 0.07943155570258617
999.0, 0.0823066959688313
1000.0, 0.08515479749201721
1001.0, 0.08758800340310151
1002.0, 0.08967617990145907
1003.0, 0.09132930584860913
1004.0, 0.09205765222183027
1005.0, 0.0909652614305866
1006.0, 0.0903008500541289
1007.0, 0.08684732738765549
1008.0, 0.08569745361301463
1009.0, 0.08303873481797279
1010.0, 0.0804878773293743
1011.0, 0.07764294919601786
1012.0, 0.07258935248486888
1013.0, 0.0678516695714257
1014.0, 0.06511019215501192
1015.0, 0.06179896143755101
1016.0, 0.0593620949975593
1017.0, 0.05582081795074279
1018.0, 0.05387258116022545
1019.0, 0.0515378203016448
1020.0, 0.049259604187060206
1021.0, 0.04878844028298644
1022.0, 0.04796222435784844
1023.0, 0.045945833231973675
1024.0, 0.04595288705109553
1025.0, 0.04427045056364673
1026.0, 0.04500595288124697
1027.0, 0.04650606928708516
1028.0, 0.04648125754180738
1029.0, 0.0461923581221965
1030.0, 0.047073781778502695
1031.0, 0.04861839601217626
1032.0, 0.05094466631881668
1033.0, 0.051392619241732336
1034.0, 0.051940262306286664
1035.0, 0.053510270044329025
1036.0, 0.05371765596201207
1037.0, 0.05303999817874777
1038.0, 0.051939739053636
1039.0, 0.05018360950170274
1040.0, 0.048097248537296314
1041.0, 0.044845567648815025
1042.0, 0.03982425390232845
1043.0, 0.03520375354309279
1044.0, 0.03128325276745361
1045.0, 0.027498904004751298
1046.0, 0.023509152052719244
1047.0, 0.019331229858488827
1048.0, 0.015936993514173364
1049.0, 0.01419901250301869
1050.0, 0.012261677493025626
1051.0, 0.010002165844066359
1052.0, 0.009771014846701032
1053.0, 0.008394895004908665
1054.0, 0.006520888868492847
1055.0, 0.005443069028927439
1056.0, 0.005244250505540326
1057.0, 0.005205624178133681
1058.0, 0.004375954085007841
1059.0, 0.0028413846511137725
1060.0, 0.0026019772919782416
1061.0, 0.001763486841477216
1062.0, 0.0018430706886401653
1063.0, 0.003025591609229877
1064.0, 0.001861985410060756
1065.0, 0.0010628117956558644
1066.0, 0.0011193181421322084
1067.0, 0.0008765370669056777
1068.0, 0.0009029492828756861
1069.0, 0.0007074786817212391
1070.0, 0.0005037149537040509
1071.0, 0.0003946632269753637
1072.0, 0.00013607776005883962
1073.0, 0.001109018750789409
1074.0, 0.0013638289330145284
1075.0, 0.0009025784004280016
1076.0, 0.0003443598383251453
1077.0, 0.0005709043355011169
1078.0, 0.0016159084317530353
1079.0, 0.0003141640450594039
1080.0, 0.0011098816579537094
1081.0, 0.0011130264218993978
1082.0, 0.0012470053670829051
1083.0, 0.001532833821061328
1084.0, 0.0013825732643493597
1085.0, 0.0008245795985590745
1086.0, 0.0008212054392044084
1087.0, 0.0009990916325069569
1088.0, 0.0008609704435145656
1089.0, 0.002411620398185228
1090.0, 0.000763232368994507
1091.0, 0.00025734207633522983
1092.0, 0.0002777053045517483
1093.0, 0.0013213060814767261
1094.0, 0.0009162404513742527
1095.0, 0.0002580893926918638
1096.0, 0.0007602102782372695
1097.0, 0.000693220599961559
1098.0, 0.00048004600371404874
1099.0, 0.0007586620074322195
1100.0, 0.0007372771047354999
1101.0, 0.00018576973500745742
1102.0, 0.00036169706314281624
1103.0, 0.00010803790519456368
1104.0, 0.0012517765983651467
1105.0, 0.0008917237668708075
1106.0, 0.00025055977633373213
1107.0, 0.0004886593328308767
1108.0, 0.000592053403771683
1109.0, 0.0011180101857145052
1110.0, 0.0009433001825468939
1111.0, 0.0006963774572725957
1112.0, 0.00043092319321774806
1113.0, 0.0005528519111644501
1114.0, 0.00048327178782963233
1115.0, 0.00037925055740340016
1116.0, 0.000363293608188102
1117.0, 0.00029674778900652644
1118.0, 0.0003457589302104272
1119.0, 0.0005537591175152489
1120.0, 0.00022578843804568115
1121.0, 0.0002018903643787469
1122.0, 0.0001260207395057686
1123.0, 0.00012499848744609767
1124.0, 0.0003702920273151399
1125.0, 0.00024441480966381547
1126.0, 0.0003317214462695828
1127.0, 0.0005572945914027735
1128.0, 0.0007429461881728177
1129.0, 0.001067369864454658
1130.0, 0.0007493624578457739
1131.0, 0.00020264879772809283
1132.0, 0.0007312140504455759
1133.0, 0.0004380903141232185
1134.0, 0.0009732056399283098
1135.0, 0.0012797704105293613
1136.0, 0.001616979075097071
1137.0, 0.001661686385887988
1138.0, 0.0009291619619289782
1139.0, 0.0004738705940393011
1140.0, 0.0012649664475827007
1141.0, 0.002359141296169491
1142.0, 0.0025373699481869537
1143.0, 0.0025407375581187573
1144.0, 0.003068186476817732
1145.0, 0.0024219768298358504
1146.0, 0.0029869243370868825
1147.0, 0.002905682638179633
1148.0, 0.002214056020274411
1149.0, 0.0027167910210173646
1150.0, 0.003289319297945607
1151.0, 0.003072755600259141
1152.0, 0.0036385111548788355
1153.0, 0.003121030280350921
1154.0, 0.003879463563894484
1155.0, 0.003585025440872403
1156.0, 0.0024621056997343547
1157.0, 0.0028188729598399194
1158.0, 0.0033573292525970414
1159.0, 0.0030414908281018982
1160.0, 0.0025914471330416356
1161.0, 0.0031292432448013483
1162.0, 0.0038150596776054774
1163.0, 0.00312327174442442
1164.0, 0.0025822300801592196
1165.0, 0.002659247468346993
1166.0, 0.00320606959566891
1167.0, 0.0032324722237576237
1168.0, 0.0030438087638834307
1169.0, 0.002710771001285754
1170.0, 0.002572764133435519
1171.0, 0.002066554279411329
1172.0, 0.0017500877750813125
1173.0, 0.0026923956392306586
1174.0, 0.0028715656416506276
1175.0, 0.0018557877633565611
1176.0, 0.0027302692049146413
1177.0, 0.002491228641061371
1178.0, 0.001612148100918776
1179.0, 0.0023333951875916955
1180.0, 0.0025491177516921075
1181.0, 0.002628942527714997
1182.0, 0.0022511749394529164
1183.0, 0.0017786233069121715
1184.0, 0.00207116932767405
1185.0, 0.00242427281065865
1186.0, 0.0025862821658984383
1187.0, 0.0022424968286003802
1188.0, 0.0019377855834736238
1189.0, 0.002254885611388045
1190.0, 0.0017169586649504146
1191.0, 0.001568738645135744
1192.0, 0.001575683090945524
1193.0, 0.001928133417849247
1194.0, 0.0018877824866336407
1195.0, 0.0013745231626829902
1196.0, 0.0015455503161477193
1197.0, 0.002393342760932455
1198.0, 0.0025109986437678866
1199.0, 0.0016165107065860991
1200.0, 0.0026504323946722644
1201.0, 0.002310882695876772
1202.0, 0.0022127410373235807
1203.0, 0.0017740705944870817
1204.0, 0.001274601859144499
1205.0, 0.0017989652228887134
1206.0, 0.0022121210266061934
1207.0, 0.0022018239301244977
1208.0, 0.0020262857896968466
1209.0, 0.001507720277904551
1210.0, 0.0017242020112001625
1211.0, 0.0022520018228199337
1212.0, 0.0017973988185950149
1213.0, 0.0023351694700153576
1214.0, 0.0016260376209054706
1215.0, 0.0015174655707229667
1216.0, 0.0014770234374980324
1217.0, 0.001599563548510281
1218.0, 0.0022058215306588426
1219.0, 0.002084742700985789
1220.0, 0.0011820528855488778
1221.0, 0.0010628240270283455
1222.0, 0.0019258841110292347
1223.0, 0.0022780357274699583
1224.0, 0.0014161716255103125
1225.0, 0.0016166195429316533
1226.0, 0.0013090552065884477
1227.0, 0.001008392333466867
1228.0, 0.0010022924431092532
1229.0, 0.0011057845582401415
1230.0, 0.001276586992765284
1231.0, 0.001204894478581112
1232.0, 0.0007653278373236937
1233.0, 0.001141658582361728
1234.0, 0.0017197007911973609
1235.0, 0.0007840408081298516
1236.0, 0.0008925838097883438
1237.0, 0.0013734835709375717
1238.0, 0.001341271648136527
1239.0, 0.00020426646029720398
1240.0, 0.00014002489834275664
1241.0, 0.0008138739695037377
1242.0, 0.001047802442650208
1243.0, 0.00029469408951318606
1244.0, 0.0002843269485114039
1245.0, 0.0008809509700952326
1246.0, 0.0012606554368571918
1247.0, 0.001258425533835966
1248.0, 0.0011278828709194541
1249.0, 0.0013348277424693694
1250.0, 0.0005909698390196755
1251.0, 0.00034665620114377024
1252.0, 0.0013369536779098523
1253.0, 0.0014753592399415147
1254.0, 0.0019724525107124493
1255.0, 0.0012867921134265196
1256.0, 0.0014648798877917918
1257.0, 0.0008152023273145079
1258.0, 0.0005039578304355985
1259.0, 0.001082855844984248
1260.0, 0.0012076339550916434
1261.0, 0.0011874688695895786
1262.0, 0.0011016497234411352
1263.0, 0.0012883368072310795
1264.0, 0.0014598202240122798
1265.0, 0.0006965355754776368
1266.0, 0.0006812585226829561
1267.0, 0.0004243708367106012
1268.0, 0.0010706845449923272
1269.0, 0.0005123445182290561
1270.0, 0.0005011866477785874
1271.0, 0.0008404248369379713
1272.0, 0.0010846782642858022
1273.0, 0.001028210969877029
1274.0, 0.0005520264210447181
1275.0, 0.0007262092030879385
1276.0, 0.0014470523311370712
1277.0, 0.0019753094509841543
1278.0, 0.002176920792599103
1279.0, 0.0013882836105394718
1280.0, 0.0009614939272524973
1281.0, 0.0002122940629104904
1282.0, 0.0014158749067744092
1283.0, 0.0011143921954077632
1284.0, 0.0002493406193098537
1285.0, 0.0003334293019780642
1286.0, 0.0007421235002218834
1287.0, 0.0005240157356772992
1288.0, 0.000980034172309843
1289.0, 0.0013316380346100791
1290.0, 0.0006764266885746977
1291.0, 0.0012111066633480666
1292.0, 0.0017140341682295444
1293.0, 0.0020781746747577964
1294.0, 0.0009053867438878456
1295.0, 0.0009368349834408124
1296.0, 0.0014913790814230256
1297.0, 0.000320535260333763
1298.0, 0.0004508077472939658
1299.0, 0.0005487318144302575
1300.0, 0.0003431378007065352
1301.0, 0.000981753886724254
1302.0, 0.0008783779420307384
1303.0, 8.224500187060547e-06
1304, 0.0
1305, 0.0
1306, 0.0
1307, 0.0
1308, 0.0
1309, 0.0
1310, 0.0
1311, 0.0
1312, 0.0
1313, 0.0
1314, 0.0
1315, 0.0
1316, 0.0
1317, 0.0
1318, 0.0
1319, 0.0
1320, 0.0
1321, 0.0
1322, 0.0
1323, 0.0
1324, 0.0
1325, 0.0
1326, 0.0
1327, 0.0
1328, 0.0
1329, 0.0
1330, 0.0
1331, 0.0
1332, 0.0
1333, 0.0
1334, 0.0
1335, 0.0
1336, 0.0
1337, 0.0
1338, 0.0
1339, 0.0
1340, 0.0
1341, 0.0
1342, 0.0
1343, 0.0
1344, 0.0
1345, 0.0
1346, 0.0
1347, 0.0
1348, 0.0
1349, 0.0
1350, 0.0
1351, 0.0
1352, 0.0
1353, 0.0
1354, 0.0
1355, 0.0
1356, 0.0
1357, 0.0
1358, 0.0
1359, 0.0
1360, 0.0
1361, 0.0
1362, 0.0
1363, 0.0
1364, 0.0
1365, 0.0
1366, 0.0
1367, 0.0
1368, 0.0
1369, 0.0
1370, 0.0
1371, 0.0
1372, 0.0
1373, 0.0
1374, 0.0
1375, 0.0
1376, 0.0
1377, 0.0
1378, 0.0
1379, 0.0
1380, 0.0
1381, 0.0
1382, 0.0
1383, 0.0
1384, 0.0
1385, 0.0
1386, 0.0
1387, 0.0
1388, 0.0
1389, 0.0
1390, 0.0
1391, 0.0
1392, 0.0
1393, 0.0
1394, 0.0
1395, 0.0
1396, 0.0
1397, 0.0
1398, 0.0
1399, 0.0
1400, 0.0
1401, 0.0
1402, 0.0
1403, 0.0
1404, 0.0
1405, 0.0
1406, 0.0
1407, 0.0
1408, 0.0
1409, 0.0
1410, 0.0
1411, 0.0
1412, 0.0
1413, 0.0
1414, 0.0
1415, 0.0
1416, 0.0
1417, 0.0
1418, 0.0
1419, 0.0
1420, 0.0
1421, 0.0
1422, 0.0
1423, 0.0
1424, 0.0
1425, 0.0
1426, 0.0
1427, 0.0
1428, 0.0
1429, 0.0
1430, 0.0
1431, 0.0
1432, 0.0
1433, 0.0
1434, 0.0
1435, 0.0
1436, 0.0
1437, 0.0
1438, 0.0
1439, 0.0
1440, 0.0
1441, 0.0
1442, 0.0
1443, 0.0
1444, 0.0
1445, 0.0
1446, 0.0
1447, 0.0
1448, 0.0
1449, 0.0
1450, 0.0
1451, 0.0
1452, 0.0
1453, 0.0
1454, 0.0
1455, 0.0
1456, 0.0
1457, 0.0
1458, 0.0
1459, 0.0
1460, 0.0
1461, 0.0
1462, 0.0
1463, 0.0
1464, 0.0
1465, 0.0
1466, 0.0
1467, 0.0
1468, 0.0
1469, 0.0
1470, 0.0
1471, 0.0
1472, 0.0
1473, 0.0
1474, 0.0
1475, 0.0
1476, 0.0
1477, 0.0
1478, 0.0
1479, 0.0
1480, 0.0
1481, 0.0
1482, 0.0
1483, 0.0
1484, 0.0
1485, 0.0
1486, 0.0
1487, 0.0
1488, 0.0
1489, 0.0
1490, 0.0
1491, 0.0
1492, 0.0
1493, 0.0
1494, 0.0
1495, 0.0
1496, 0.0
1497, 0.0
1498, 0.0
1499, 0.0
1500, 0.0
1501, 0.0
1502, 0.0
1503, 0.0
1504, 0.0
1505, 0.0
1506, 0.0
1507, 0.0
1508, 0.0
1509, 0.0
1510, 0.0
1511, 0.0
1512, 0.0
1513, 0.0
1514, 0.0
1515, 0.0
1516, 0.0
1517, 0.0
1518, 0.0
1519, 0.0
1520, 0.0
1521, 0.0
1522, 0.0
1523, 0.0
1524, 0.0
1525, 0.0
1526, 0.0
1527, 0.0
1528, 0.0
1529, 0.0
1530, 0.0
1531, 0.0
1532, 0.0
1533, 0.0
1534, 0.0
1535, 0.0
1536, 0.0
1537, 0.0
1538, 0.0
1539, 0.0
1540, 0.0
1541, 0.0
1542, 0.0
1543, 0.0
1544, 0.0
1545, 0.0
1546, 0.0
1547, 0.0
1548, 0.0
1549, 0.0
1550, 0.0
1551, 0.0
1552, 0.0
1553, 0.0
1554, 0.0
1555, 0.0
1556, 0.0
1557, 0.0
1558, 0.0
1559, 0.0
1560, 0.0
1561, 0.0
1562, 0.0
1563, 0.0
1564, 0.0
1565, 0.0
1566, 0.0
1567, 0.0
1568, 0.0
1569, 0.0
1570, 0.0
1571, 0.0
1572, 0.0
1573, 0.0
1574, 0.0
1575, 0.0
1576, 0.0
1577, 0.0
1578, 0.0
1579, 0.0
1580, 0.0
1581, 0.0
1582, 0.0
1583, 0.0
1584, 0.0
1585, 0.0
1586, 0.0
1587, 0.0
1588, 0.0
1589, 0.0
1590, 0.0
1591, 0.0
1592, 0.0
1593, 0.0
1594, 0.0
1595, 0.0
1596, 0.0
1597, 0.0
1598, 0.0
1599, 0.0
