30, 0.0
31, 0.0
32, 0.0
33, 0.0
34, 0.0
35, 0.0
36, 0.0
37, 0.0
38, 0.0
39, 0.0
40, 0.0
41, 0.0
42, 0.0
43, 0.0
44, 0.0
45, 0.0
46, 0.0
47, 0.0
48, 0.0
49, 0.0
50, 0.0
51, 0.0
52, 0.0
53, 0.0
54, 0.0
55, 0.0
56, 0.0
57, 0.0
58, 0.0
59, 0.0
60, 0.0
61, 0.0
62, 0.0
63, 0.0
64, 0.0
65, 0.0
66, 0.0
67, 0.0
68, 0.0
69, 0.0
70, 0.0
71, 0.0
72, 0.0
73, 0.0
74, 0.0
75, 0.0
76, 0.0
77, 0.0
78, 0.0
79, 0.0
80, 0.0
81, 0.0
82, 0.0
83, 0.0
84, 0.0
85, 0.0
86, 0.0
87, 0.0
88, 0.0
89, 0.0
90, 0.0
91, 0.0
92, 0.0
93, 0.0
94, 0.0
95, 0.0
96, 0.0
97, 0.0
98, 0.0
99, 0.0
100, 0.0
101, 0.0
102, 0.0
103, 0.0
104, 0.0
105, 0.0
106, 0.0
107, 0.0
108, 0.0
109, 0.0
110, 0.0
111, 0.0
112, 0.0
113, 0.0
114, 0.0
115, 0.0
116, 0.0
117, 0.0
118, 0.0
119, 0.0
120, 0.0
121, 0.0
122, 0.0
123, 0.0
124, 0.0
125, 0.0
126, 0.0
127, 0.0
128, 0.0
129, 0.0
130, 0.0
131, 0.0
132, 0.0
133, 0.0
134, 0.0
135, 0.0
136, 0.0
137, 0.0
138, 0.0
139.0, 0.0013264083037348583
140.0, 0.008867447487488024
141.0, 0.0149463443693736
142.0, 0.021218654444963087
143.0, 0.022888240267753743
144.0, 0.02538024878912497
145.0, 0.03218937321878132
146.0, 0.028268575346517
147.0, 0.02910641505353084
148.0, 0.02931966147257093
149.0, 0.024050359586628347
150.0, 0.01738564287449981
151.0, 0.012464090649824703
152.0, 0.008412957682292069
153.0, 0.005841852547821217
154.0, 0.00652753122886642
155.0, 0.00656510097951627
156.0, 0.008196948327837739
157.0, 0.011665367396600079
158.0, 0.01657037580947773
159.0, 0.025302263684490952
160.0, 0.03141433966215388
161.0, 0.03514739148328729
162.0, 0.0398122986435882
163.0, 0.05195004195720079
164.0, 0.05991848694439547
165.0, 0.0616680868392303
166.0, 0.06155994386909443
167.0, 0.06718864076943647
168.0, 0.06811463723657864
169.0, 0.06612783548456598
170.0, 0.06385161983344508
171.0, 0.06298763423612898
172.0, 0.06710451300501738
173.0, 0.062150857203783993
174.0, 0.05709584292822683
175.0, 0.060667568381337626
176.0, 0.06148219969839794
177.0, 0.0597665134123815
178.0, 0.06000299610437833
179.0, 0.06383335667461018
180.0, 0.06683719047909358
181.0, 0.07112523914009503
182.0, 0.07375828849733182
183.0, 0.07413536384725787
184.0, 0.07354314354101475
185.0, 0.07824880660915358
186.0, 0.08130455405098527
187.0, 0.08041597882046125
188.0, 0.07680224437108212
189.0, 0.07336456928022096
190.0, 0.074759718643297
191.0, 0.073701294156865
192.0, 0.06734776944790755
193.0, 0.061871335356869034
194.0, 0.05763087043746714
195.0, 0.04951109890100001
196.0, 0.03937574367429824
197.0, 0.03343232755505915
198.0, 0.0311125786819382
199.0, 0.03123507639639587
200.0, 0.02912428869240805
201.0, 0.023159437053161154
202.0, 0.019589127289066796
203.0, 0.018261471342404488
204.0, 0.016099107098498457
205.0, 0.013715116780068847
206.0, 0.014965396279711222
207.0, 0.014996107086009465
208.0, 0.012532982477503255
209.0, 0.008129913439327877
210.0, 0.0038274260251581686
211.0, 0.0027163010163992144
212.0, 0.0005770631358562508
213.0, 0.0027970385868963735
214.0, 0.00551144171167463
215.0, 0.007366729007679037
216.0, 0.005284674360879493
217.0, 0.004451814415456238
218.0, 0.004380557147907929
219.0, 0.0017890551872270415
220.0, 0.002122361088830976
221.0, 0.0035917477266596415
222.0, 0.004297580176769391
223.0, 0.0032752354960404054
224.0, 0.0011968954128355556
225.0, 0.003155718095724444
226.0, 0.004779032936288719
227.0, 0.002807009364315492
228.0, 0.0028332328350307613
229.0, 0.0037534399389838108
230.0, 0.0033570107348860297
231.0, 0.00513833946402712
232.0, 0.010450182443280692
233.0, 0.015673743278243377
234.0, 0.019392766981663985
235.0, 0.01981227742561206
236.0, 0.01862253447400594
237.0, 0.020800803832017396
238.0, 0.02425380001611903
239.0, 0.027822596480708374
240.0, 0.029862735158499968
241.0, 0.030478236822644656
242.0, 0.034469314611222865
243.0, 0.03707931118509045
244.0, 0.03698442660426731
245.0, 0.03607331818364317
246.0, 0.03821217406361793
247.0, 0.03989165358067123
248.0, 0.03668723549221651
249.0, 0.03235967461240156
250.0, 0.03170797621785275
251.0, 0.03249049840422234
252.0, 0.02500857540281174
253.0, 0.019342077185975626
254.0, 0.017172027314012378
255.0, 0.00972797725114527
256.0, 0.00962422534820161
257.0, 0.00972009659876924
258.0, 0.009184099763725171
259.0, 0.009619223301454746
260.0, 0.01106706693174106
261.0, 0.013039057688763334
262.0, 0.014928338006708146
263.0, 0.015497547959884266
264.0, 0.014219840206294371
265.0, 0.017232051961926353
266.0, 0.01790205387373721
267.0, 0.018869016559103283
268.0, 0.021887506018114615
269.0, 0.01879525528882013
270.0, 0.019034386751194447
271.0, 0.020010467672269168
272.0, 0.018571377675413565
273.0, 0.014003157972479977
274.0, 0.013549588553679432
275.0, 0.014100294570144545
276.0, 0.013990536350451123
277.0, 0.013935278226349894
278.0, 0.01568703977325601
279.0, 0.01757558897062422
280.0, 0.016493721434403304
281.0, 0.017683009634856327
282.0, 0.02659319355744606
283.0, 0.03105506659382457
284.0, 0.027644124385050567
285.0, 0.025464581663221443
286.0, 0.028872378516290965
287.0, 0.032558640140419204
288.0, 0.03441970767578638
289.0, 0.03795455766507282
290.0, 0.04201830869822068
291.0, 0.04425313552364302
292.0, 0.046482766036243246
293.0, 0.04959905469766251
294.0, 0.050990148137439996
295.0, 0.05370567464347187
296.0, 0.06192626280045891
297.0, 0.06565571856858873
298.0, 0.07143412779814935
299.0, 0.07824514276265312
300.0, 0.0848724772239823
301.0, 0.09361586294342432
302.0, 0.10558417483090143
303.0, 0.11603755770361006
304.0, 0.12515779342374028
305.0, 0.13495655943168983
306.0, 0.1441350472434519
307.0, 0.15486122378439285
308.0, 0.1636288034364373
309.0, 0.1688246643607963
310.0, 0.17215143349471512
311.0, 0.17876830725431406
312.0, 0.18087364853403062
313.0, 0.18275052755062543
314.0, 0.18610740089103553
315.0, 0.18477485306543506
316.0, 0.18731973915608924
317.0, 0.18948279971640325
318.0, 0.19034356100581756
319.0, 0.19048459721963137
320.0, 0.18748541970153257
321.0, 0.19025558265029266
322.0, 0.19071094033233418
323.0, 0.1885326714688028
324.0, 0.1897312689857457
325.0, 0.1910690227422323
326.0, 0.1888474774916755
327.0, 0.18651316366606124
328.0, 0.18682836576798287
329.0, 0.189667393806398
330.0, 0.19044009192853364
331.0, 0.19017719894978277
332.0, 0.19152888836666654
333.0, 0.19578152332385154
334.0, 0.2010930305373672
335.0, 0.20123462918642185
336.0, 0.20068626829524772
337.0, 0.20162251842034204
338.0, 0.20312358900796262
339.0, 0.19940322330375984
340.0, 0.1980016451593077
341.0, 0.18863037841767497
342.0, 0.17410348823907643
343.0, 0.16910358790001426
344.0, 0.1527626969478528
345.0, 0.14232442075563245
346.0, 0.13298865313140665
347.0, 0.12078533235541093
348.0, 0.11422371130207054
349.0, 0.10453763856614809
350.0, 0.09435117160538821
351.0, 0.08521418268649936
352.0, 0.07752028195517303
353.0, 0.07215245762562082
354.0, 0.06526956646223601
355.0, 0.05857251476641016
356.0, 0.04952496031794475
357.0, 0.036973439452470926
358.0, 0.029213456075047172
359.0, 0.024554033788508667
360.0, 0.022763094882765542
361.0, 0.019975428093965922
362.0, 0.013409412814335147
363.0, 0.01191448050357617
364.0, 0.008450979297117314
365.0, 0.00461227876172038
366.0, 0.0030748404803265803
367.0, 0.005378675692699014
368.0, 0.0039162249661962335
369.0, 0.005961060326242228
370.0, 0.003960311775170776
371.0, 0.0032106364426999225
372.0, 0.003207029311265983
373.0, 0.0056082905898788725
374.0, 0.007010715018225775
375.0, 0.006532590076255962
376.0, 0.004487485567616777
377.0, 0.0012056019445189467
378.0, 0.0030172831318342305
379.0, 0.0019130401345289062
380.0, 0.0007146941976274679
381.0, 0.0014447142177832011
382.0, 0.003081191025022149
383.0, 0.009336416398385674
384.0, 0.012483566862565573
385.0, 0.011469365004091323
386.0, 0.01277183735298559
387.0, 0.022350565651050418
388.0, 0.02515201535665922
389.0, 0.026114893240150688
390.0, 0.027091444904730484
391.0, 0.026468043079410506
392.0, 0.026715763424599227
393.0, 0.025745610405118437
394.0, 0.026027952016353134
395.0, 0.025344077634792885
396.0, 0.02096821111081519
397.0, 0.02113386800268044
398.0, 0.01898114354779935
399.0, 0.01675535492608024
400.0, 0.01872318656417527
401.0, 0.025095396841340076
402.0, 0.023866543696557396
403.0, 0.024038693247662588
404.0, 0.02723020138648342
405.0, 0.03026997952044949
406.0, 0.02969075851103491
407.0, 0.03303813020868468
408.0, 0.034574542947761154
409.0, 0.03959746448794183
410.0, 0.04634704187357682
411.0, 0.04641669677351213
412.0, 0.04618831732511193
413.0, 0.05034287419600137
414.0, 0.05139317445374108
415.0, 0.051194013848372265
416.0, 0.05746656278136916
417.0, 0.06129587936595588
418.0, 0.06234064419908062
419.0, 0.06099484659527833
420.0, 0.06111571267957113
421.0, 0.06639966400926174
422.0, 0.06435130635879244
423.0, 0.06723018514013081
424.0, 0.07375400711537283
425.0, 0.07804891322131327
426.0, 0.07702081668813793
427.0, 0.08381112654712504
428.0, 0.09577055105267274
429.0, 0.10228906643368096
430.0, 0.10900842775595074
431.0, 0.12932728749377062
432.0, 0.14329600801206646
433.0, 0.15552690760823154
434.0, 0.17155425340428598
435.0, 0.18815084602421073
436.0, 0.2000950892919435
437.0, 0.22143841547186574
438.0, 0.2311498593606672
439.0, 0.24132510680665076
440.0, 0.2561907225978908
441.0, 0.2650453695975662
442.0, 0.2616360443797864
443.0, 0.2602824802692785
444.0, 0.2524928369536459
445.0, 0.23650312190527548
446.0, 0.21755863834334735
447.0, 0.1981325442407066
448.0, 0.18110723928504824
449.0, 0.1604802376731082
450.0, 0.14137440165805495
451.0, 0.13100294502332202
452.0, 0.12175386511355238
453.0, 0.1139510204243101
454.0, 0.10992163340549595
455.0, 0.10602578767872567
456.0, 0.09825394144639583
457.0, 0.08964815839968733
458.0, 0.08778824549916708
459.0, 0.08685483324441397
460.0, 0.08184676210256034
461.0, 0.07507450897294973
462.0, 0.07566907287845717
463.0, 0.07206437147774923
464.0, 0.06875959664731551
465.0, 0.06634465840722209
466.0, 0.06293297984349204
467.0, 0.057892364335799605
468.0, 0.05650163827814019
469.0, 0.053379520269494475
470.0, 0.049530929748775064
471.0, 0.04441977864723919
472.0, 0.03545665279547519
473.0, 0.03629200633205294
474.0, 0.03424929841693365
475.0, 0.0279698645234367
476.0, 0.02153732465602016
477.0, 0.018588138774367432
478.0, 0.013838821216378411
479.0, 0.01381681155402326
480.0, 0.014018297893118706
481.0, 0.013778818522638816
482.0, 0.015556860596701165
483.0, 0.016387655910400947
484.0, 0.01308143997453731
485.0, 0.014943424937625356
486.0, 0.017333033763931947
487.0, 0.01450427460897672
488.0, 0.015044896997617584
489.0, 0.017203127726226147
490.0, 0.012883435086053809
491.0, 0.006577999887120038
492.0, 0.0033864147605242607
493.0, 0.0014935777751804852
494.0, 0.0015388191112157346
495.0, 0.00297793075972026
496.0, 0.0008281324577831211
497.0, 0.002605718520859278
498.0, 0.0011087579167916206
499.0, 3.480898735736917e-05
500.0, 0.0021956204695401105
501.0, 0.002211301735348702
502.0, 0.00034719941261228296
503.0, 0.0003562837819423623
504.0, 0.0002442611358665968
505.0, 0.0025780219439279855
506.0, 0.005426149131267843
507.0, 0.007342716196287721
508.0, 0.007886966901756717
509.0, 0.007098372319051526
510.0, 0.004372945312852133
511.0, 0.002320408068588613
512.0, 0.005474257005649139
513.0, 0.009584565575549889
514.0, 0.005442036565711588
515.0, 0.00647985788376333
516.0, 0.005363205696531385
517.0, 0.007420538027235093
518.0, 0.009797466530301424
519.0, 0.006511067402411386
520.0, 0.005234282500999011
521.0, 0.009716803473622616
522.0, 0.011929003398543062
523.0, 0.010557784660266915
524.0, 0.006942499084308637
525.0, 0.0011389757006897187
526.0, 0.006456857515143868
527.0, 0.008897502180513937
528.0, 0.004222905371171568
529.0, 0.001662583646492132
530.0, 0.0011552181081593616
531.0, 0.001647351232159645
532.0, 0.0032141275934989308
533.0, 0.0034979034491111494
534.0, 0.0020832470866831315
535.0, 0.0056008118739766825
536.0, 0.0019053336164122994
537.0, 0.0006300196000692619
538.0, 0.0004068118175583754
539.0, 7.997515183259604e-05
540.0, 0.0022022786105332314
541.0, 0.0036547314027765227
542.0, 0.001368820893699552
543.0, 0.001378066266733426
544.0, 0.0031923382428177887
545.0, 0.007276536214907996
546.0, 0.005034838556831068
547.0, 0.009532962846057322
548.0, 0.006353638063918331
549.0, 0.005022519332886203
550.0, 0.0035635048637603427
551.0, 0.0007245194817913244
552.0, 0.0031073352471039928
553.0, 0.01155959444396375
554.0, 0.00449662442051109
555.0, 0.0018776442087260667
556.0, 0.00053157063443526
557.0, 0.002882773387745646
558.0, 0.0009024715577547538
559.0, 0.0005133739722713674
560.0, 0.0013160183194143183
561.0, 0.0014292266775805806
562.0, 0.004996329464800533
563.0, 0.007193030723147373
564.0, 0.0034487139255136895
565.0, 0.007374748028699745
566.0, 0.009723798653851475
567.0, 0.00809485234114188
568.0, 0.007849753126581269
569.0, 0.010972852725721753
570.0, 0.009337168771101323
571.0, 0.0076985515979214394
572.0, 0.007549593979811109
573.0, 0.008453070001316494
574.0, 0.010194743722594435
575.0, 0.011030547653560152
576.0, 0.008766955513991545
577.0, 0.008301040076901703
578.0, 0.006585127818071964
579.0, 0.002859666108667931
580.0, 0.007253858577983026
581.0, 0.005712938948570646
582.0, 0.013249344946713423
583.0, 0.015201501469630438
584.0, 0.01035622022618854
585.0, 0.01288833225421274
586.0, 0.017221906391360946
587.0, 0.018075945932965527
588.0, 0.021446366137460933
589.0, 0.026000418616883975
590.0, 0.02677953599500083
591.0, 0.022988626656005318
592.0, 0.025610992544924823
593.0, 0.02811844635443526
594.0, 0.03333293310837349
595.0, 0.03780172466684265
596.0, 0.03855995354739668
597.0, 0.042231828506187445
598.0, 0.047463321801708216
599.0, 0.050045882457259584
600.0, 0.05283125069634088
601.0, 0.05667178884393568
602.0, 0.05925011104153387
603.0, 0.05963958598821963
604.0, 0.06547374594416204
605.0, 0.0653843385772441
606.0, 0.06582799743478168
607.0, 0.06984926807932972
608.0, 0.06871465987228552
609.0, 0.07599393896775507
610.0, 0.0758890604259012
611.0, 0.07290855430424448
612.0, 0.07491136998311
613.0, 0.0811618124162268
614.0, 0.08075382633813949
615.0, 0.08612321429625548
616.0, 0.08921891981049705
617.0, 0.09015914927317696
618.0, 0.0927546539281188
619.0, 0.09644704779234352
620.0, 0.09325347137636987
621.0, 0.09047352411237167
622.0, 0.09307447470677387
623.0, 0.0913610153241772
624.0, 0.08446342754203431
625.0, 0.07921853779356465
626.0, 0.07376108504596782
627.0, 0.06975386058380723
628.0, 0.06225604492104068
629.0, 0.05578290419899975
630.0, 0.051595170573053746
631.0, 0.04524698793417948
632.0, 0.04180774792138936
633.0, 0.03936023148995904
634.0, 0.03358304748459017
635.0, 0.031327062834369875
636.0, 0.03284939325339265
637.0, 0.02758110455172923
638.0, 0.026634214531994507
639.0, 0.029083409010479278
640.0, 0.02596799164566866
641.0, 0.022860808024059986
642.0, 0.02310691308586
643.0, 0.018290313390267484
644.0, 0.02091944705793739
645.0, 0.022256461422264662
646.0, 0.02187438984409235
647.0, 0.021294979844003456
648.0, 0.023031265725514623
649.0, 0.032316546843761416
650.0, 0.036413843246063296
651.0, 0.03328671172998286
652.0, 0.036052498125824194
653.0, 0.040587747660573985
654.0, 0.0377928411840718
655.0, 0.03542767855568009
656.0, 0.036873025016128214
657.0, 0.034915056503517866
658.0, 0.032341593710671614
659.0, 0.032579328996695
660.0, 0.033842684009607334
661.0, 0.031719932381970385
662.0, 0.031107934958570047
663.0, 0.027539630262665815
664.0, 0.0273467809867291
665.0, 0.02939969221270243
666.0, 0.028277094641512002
667.0, 0.025322596151471935
668.0, 0.0237174451968691
669.0, 0.02730779144595229
670.0, 0.02825424882952119
671.0, 0.02678256140140162
672.0, 0.026229958955630538
673.0, 0.023305591795575977
674.0, 0.019794817240230893
675.0, 0.020281469732999362
676.0, 0.016506296984761033
677.0, 0.012566406611510098
678.0, 0.012863818082288219
679.0, 0.011284930726165293
680.0, 0.019653738771245783
681.0, 0.02117707940560501
682.0, 0.02120926099041908
683.0, 0.02094457010620412
684.0, 0.02129960896042852
685.0, 0.027858347900089876
686.0, 0.026519389198807038
687.0, 0.025094707491594346
688.0, 0.021994107186268912
689.0, 0.020382128860933445
690.0, 0.02242799941068098
691.0, 0.02295105102711817
692.0, 0.01654804770670835
693.0, 0.0213465025080594
694.0, 0.019311472012449746
695.0, 0.017465092540921916
696.0, 0.022121444255963744
697.0, 0.021958708408281298
698.0, 0.017171837056411773
699.0, 0.01020682209325118
700.0, 0.016009179013442607
701.0, 0.014746900305504115
702.0, 0.005428482510802994
703.0, 0.006528887752496727
704.0, 0.0033552960594926714
705.0, 0.002451542617205796
706.0, 0.0019475804158883268
707.0, 0.004404821602111862
708.0, 0.0024162115625377886
709.0, 0.0003266721255354926
710.0, 0.001260443698873373
711.0, 0.0011754376382012257
712.0, 0.0013657807036337776
713.0, 0.006990638466128933
714.0, 0.0079294740380072
715.0, 0.0002983868598211523
716.0, 0.0005548060130946451
717.0, 0.001391346576508951
718.0, 0.002405384465495692
719.0, 0.0012488876139051467
720.0, 0.0017715172548049363
721.0, 0.0037082916051278127
722.0, 0.0002313462231887376
723.0, 0.0014677236624976247
724.0, 0.0008408681284450947
725.0, 0.00032223039555457196
726.0, 0.0002424879944162472
727.0, 0.0008521640720326395
728.0, 0.0018249628857177045
729.0, 0.0011480532652777772
730.0, 0.0039015785730132715
731.0, 0.005803941428563955
732.0, 0.006287849287308725
733.0, 0.008083597495342636
734.0, 0.009865493975884439
735.0, 0.007019597718855713
736.0, 0.0050482201667099704
737.0, 0.005357504669716138
738.0, 0.0029973593257719205
739.0, 0.0021302471998042873
740.0, 0.00432861263800264
741.0, 0.00500224654461331
742.0, 0.0038622049727858373
743.0, 0.0056470481052175924
744.0, 0.006644666333028648
745.0, 0.007282929205859303
746.0, 0.013193426843336058
747.0, 0.01902918739574856
748.0, 0.020902171050270507
749.0, 0.027080562490956896
750.0, 0.031177298371626798
751.0, 0.03033731386803169
752.0, 0.026146494512700905
753.0, 0.023252527138993583
754.0, 0.027466024773582277
755.0, 0.04280373613527132
756.0, 0.050895413177554326
757.0, 0.055583386553366226
758.0, 0.059985806244061364
759.0, 0.05939011256315052
760.0, 0.0543754610576015
761.0, 0.06073896455520936
762.0, 0.0663596697830757
763.0, 0.07043536259331519
764.0, 0.07240620595063645
765.0, 0.07743037479190795
766.0, 0.08218122275397977
767.0, 0.0815028653420493
768.0, 0.09350304980287828
769.0, 0.100665297443476
770.0, 0.10672602083848919
771.0, 0.1121483612063253
772.0, 0.11526775826746384
773.0, 0.11969218189950435
774.0, 0.12921165434294354
775.0, 0.1279749721642807
776.0, 0.132961456790066
777.0, 0.1341985509019872
778.0, 0.13355408582830985
779.0, 0.13742136207551
780.0, 0.14461848059385063
781.0, 0.15154051635905813
782.0, 0.1552231441091752
783.0, 0.1660275240696613
784.0, 0.1745915022732166
785.0, 0.18095516474906864
786.0, 0.1910435772029881
787.0, 0.20625022890764338
788.0, 0.2195331592410693
789.0, 0.23345718629663498
790.0, 0.2550235837957413
791.0, 0.28121502197793286
792.0, 0.3057232826371323
793.0, 0.3310601179482321
794.0, 0.36344422445237645
795.0, 0.38944968416396164
796.0, 0.4235525593364781
797.0, 0.4632110685048591
798.0, 0.49938924731323314
799.0, 0.5363418610889976
800.0, 0.581580567856631
801.0, 0.6284307663177917
802.0, 0.6697257014213611
803.0, 0.7165874291744732
804.0, 0.7536994199934489
805.0, 0.787985693071748
806.0, 0.819425300970522
807.0, 0.8388748720287347
808.0, 0.8545969214306707
809.0, 0.8743676735364937
810.0, 0.883482286596679
811.0, 0.8884235456482642
812.0, 0.8916516464641312
813.0, 0.8925770017081242
814.0, 0.8910873503494529
815.0, 0.8839193654478051
816.0, 0.8696467355278495
817.0, 0.848487371196685
818.0, 0.82131345916797
819.0, 0.7894293834458829
820.0, 0.7555589288664906
821.0, 0.721509319619717
822.0, 0.6843779721991152
823.0, 0.6573459068954827
824.0, 0.621452708029615
825.0, 0.5884547648628649
826.0, 0.5596244961460485
827.0, 0.5300196332322837
828.0, 0.5023664599952106
829.0, 0.48375348432548354
830.0, 0.4466705843500299
831.0, 0.4176415246615949
832.0, 0.3909221702016634
833.0, 0.36759639807985695
834.0, 0.34984653590026665
835.0, 0.33017497743432533
836.0, 0.30558260164858525
837.0, 0.29483035527614154
838.0, 0.28287384183802045
839.0, 0.26997190565087403
840.0, 0.2546952549256852
841.0, 0.2392415906313977
842.0, 0.22853649193826178
843.0, 0.21937479635611373
844.0, 0.2154343852918782
845.0, 0.20835542038353821
846.0, 0.19749396753744292
847.0, 0.18483898173007923
848.0, 0.1767881154776295
849.0, 0.17367444881055732
850.0, 0.16042580926953814
851.0, 0.14756123453856762
852.0, 0.14370530340030424
853.0, 0.13574710941686827
854.0, 0.1222043507187865
855.0, 0.11263260168509512
856.0, 0.10861080794933388
857.0, 0.09982434325679963
858.0, 0.0981809250616015
859.0, 0.0952338947511816
860.0, 0.08982613817691802
861.0, 0.08568193616685414
862.0, 0.0825704591314167
863.0, 0.07822052745030138
864.0, 0.07133373431528905
865.0, 0.06172884406510535
866.0, 0.061121049376114595
867.0, 0.05464215192823386
868.0, 0.04613930507044105
869.0, 0.04181111756659716
870.0, 0.039888744732899384
871.0, 0.03585016747508969
872.0, 0.033011100529961424
873.0, 0.03382785071657136
874.0, 0.03179392277440773
875.0, 0.027556974477127714
876.0, 0.027560148350425813
877.0, 0.031095064433103697
878.0, 0.02974409433066483
879.0, 0.01921441010412731
880.0, 0.0264129791136964
881.0, 0.02661727835354541
882.0, 0.02720388720459042
883.0, 0.02067041852353018
884.0, 0.014157044573193845
885.0, 0.01851092038594106
886.0, 0.022080684151705422
887.0, 0.010625115620019974
888.0, 0.012282609982236787
889.0, 0.012689096579636606
890.0, 0.006074099124724881
891.0, 0.006160490474644996
892.0, 0.010879342491975183
893.0, 0.008085991427952015
894.0, 0.009504058670215514
895.0, 0.024363991653940948
896.0, 0.01627900662492849
897.0, 0.013508146240749258
898.0, 0.009259527010637007
899.0, 0.007370600944499942
900.0, 0.009734044846254267
901.0, 0.002480073636808568
902.0, 0.0018647878056052892
903.0, 0.0011513343134656327
904.0, 0.0006028659246334175
905.0, 0.00038058698065639726
906.0, 0.0003774865018241601
907.0, 0.004752920570590742
908.0, 0.01002367714380848
909.0, 0.00329083190347057
910.0, 0.0076010590952414045
911.0, 0.007324662259436893
912.0, 0.006084589008380588
913.0, 0.006267062026728375
914.0, 0.0076668696670590146
915.0, 0.00795852823278439
916.0, 0.006644584971779771
917.0, 0.00923982604602993
918.0, 0.010602759665960597
919.0, 0.012973702276798803
920.0, 0.013062787011642192
921.0, 0.004416823257059018
922.0, 0.005409686406581037
923.0, 0.006704139636652287
924.0, 0.008632782094826963
925.0, 0.009779028516183114
926.0, 0.019285412275486892
927.0, 0.020149159274992574
928.0, 0.017089464301938598
929.0, 0.019068455475951034
930.0, 0.019334490203100022
931.0, 0.016517124792082095
932.0, 0.022061025388224256
933.0, 0.013261165887047956
934.0, 0.016475181871057586
935.0, 0.024046326387802287
936.0, 0.022490414326906665
937.0, 0.021385985088654438
938.0, 0.02560340919577406
939.0, 0.028072906629676715
940.0, 0.029873171258365857
941.0, 0.03558562166572518
942.0, 0.03951501914894316
943.0, 0.04267644177714586
944.0, 0.042486954100399016
945.0, 0.04239361584790554
946.0, 0.04808041745890965
947.0, 0.05880312585580596
948.0, 0.06729752153932146
949.0, 0.07725993376914778
950.0, 0.08754423950914156
951.0, 0.09736782872771231
952.0, 0.11418446869258883
953.0, 0.13471776795716667
954.0, 0.15521307192622846
955.0, 0.17827763794280765
956.0, 0.20591956912767892
957.0, 0.232943195458913
958.0, 0.27987068077639926
959.0, 0.31367808582937656
960.0, 0.3568862482666542
961.0, 0.411981878102738
962.0, 0.46634537453141256
963.0, 0.5225629259762682
964.0, 0.5929722001277762
965.0, 0.6558392364936657
966.0, 0.7216210676632623
967.0, 0.7907825152436959
968.0, 0.8583177173038683
969.0, 0.9178313809974575
970.0, 0.9651574589609166
971.0, 0.9946350348508318
972.0, 0.9995738213596392
973.0, 0.9804537510308614
974.0, 0.9285801219800593
975.0, 0.8518853148074371
976.0, 0.7545727500848549
977.0, 0.6467634368846833
978.0, 0.5441627203322265
979.0, 0.44717275695426134
980.0, 0.3585548800814073
981.0, 0.2993912381024667
982.0, 0.23890207382530096
983.0, 0.19734889234404226
984.0, 0.16581432235532675
985.0, 0.13629989197982814
986.0, 0.11163017470600332
987.0, 0.09327764150027634
988.0, 0.0794089760866221
989.0, 0.07067491284449805
990.0, 0.06752254485201854
991.0, 0.055218850929724464
992.0, 0.04628921676388181
993.0, 0.04042478511862418
994.0, 0.03438736652257096
995.0, 0.03125628918421467
996.0, 0.02901445029050055
997.0, 0.02366735650360066
998.0, 0.02384270734663246
999.0, 0.03176105709916537
1000.0, 0.02190991648261959
1001.0, 0.026913871560119037
1002.0, 0.025216654156943925
1003.0, 0.01591221978747348
1004.0, 0.016476574659429314
1005.0, 0.021508677077254935
1006.0, 0.01383916115904325
1007.0, 0.013337767079909791
1008.0, 0.011316104109520669
1009.0, 0.006921669533308772
1010.0, 0.007582629576296534
1011.0, 0.00821713521281599
1012.0, 0.007254244472883674
1013.0, 0.006552026245363865
1014.0, 0.005486737146082523
1015.0, 0.0030765188525545
1016.0, 0.0023898361298024424
1017.0, 0.003879099594320669
1018.0, 0.002377061069372368
1019.0, 0.004257800599408743
1020.0, 0.008582221093983152
1021.0, 0.0055991704283781685
1022.0, 0.0004140005839876538
1023.0, 0.005440828849131035
1024.0, 0.012034348012770675
1025.0, 0.015252153635108687
1026.0, 0.012329310341596638
1027.0, 0.015499108521364642
1028.0, 0.017273723801349766
1029.0, 0.014647778046886828
1030.0, 0.012170301983578654
1031.0, 0.01502812525931125
1032.0, 0.017613678058297656
1033.0, 0.008103435849191326
1034.0, 0.004656603479613346
1035.0, 0.0058182745486436045
1036.0, 0.008639840847670478
1037.0, 0.012481113961055378
1038.0, 0.014780385280416093
1039.0, 0.016905142556698016
1040.0, 0.019044296499689018
1041.0, 0.017429983201017754
1042.0, 0.013924308871721419
1043.0, 0.01625581859052383
1044.0, 0.006074455554545179
1045.0, 0.0046664904923556195
1046.0, 0.0017592010056447264
1047.0, 0.0016171457985980834
1048.0, 0.00605676160251832
1049.0, 0.00575703547160867
1050.0, 0.0033468832223860607
1051.0, 0.01177688990106664
1052.0, 0.012948548486017666
1053.0, 0.011527517799715574
1054.0, 0.016023322532436726
1055.0, 0.018288721207198936
1056.0, 0.018074001575639983
1057.0, 0.02054661094387454
1058.0, 0.022551138075142443
1059.0, 0.021908298886836947
1060.0, 0.024788390663807277
1061.0, 0.01878465704792657
1062.0, 0.005586992676452333
1063.0, 0.002920141074501276
1064.0, 0.005052734329640867
1065.0, 0.006054747202529013
1066.0, 0.004689397575440029
1067.0, 0.0004730685908068866
1068.0, 0.002577585065731515
1069.0, 0.008502653957570149
1070.0, 0.008315923362465108
1071.0, 0.006157508670764743
1072.0, 0.003635127837106159
1073.0, 0.000574332350599224
1074.0, 0.004949094975448792
1075.0, 0.00766592919403646
1076.0, 0.005099937346538525
1077.0, 0.004273189740949387
1078.0, 0.004019246914579137
1079.0, 0.0014773086385343707
1080.0, 0.005825618099089391
1081.0, 0.003541469024649411
1082.0, 0.007393818094772141
1083.0, 0.0026014150441649427
1084.0, 0.002414666299978031
1085.0, 0.0037200212085579994
1086.0, 0.007518913697988358
1087.0, 0.012039690676573081
1088.0, 0.009737818296058423
1089.0, 0.005426738577884862
1090.0, 0.009430341406011183
1091.0, 0.007246230362826238
1092.0, 0.011559057794261427
1093.0, 0.008611229390435633
1094.0, 0.011852562571454285
1095.0, 0.01730067132392776
1096.0, 0.017967245214910582
1097.0, 0.017442357235037675
1098.0, 0.01728741155736016
1099.0, 0.017423541820624243
1100.0, 0.019903003682948985
1101.0, 0.01830694030656209
1102.0, 0.020458944950961233
1103.0, 0.017281083910447748
1104.0, 0.01248312924205243
1105.0, 0.012912373616770077
1106.0, 0.017205868652071313
1107.0, 0.01734633143620508
1108.0, 0.01181833882150593
1109.0, 0.014651918446234443
1110.0, 0.01386802651255877
1111.0, 0.010606282975890327
1112.0, 0.008981455942740411
1113.0, 0.007195149718582322
1114.0, 0.0056796121951258535
1115.0, 0.0029558247388396875
1116.0, 0.0008303595327482601
1117.0, 0.0018221070717756103
1118.0, 0.009243261063514108
1119.0, 0.010601465370084428
1120.0, 0.0030037704901857342
1121.0, 0.0035875646869143797
1122.0, 0.00020357307712722282
1123.0, 0.0022584508171973913
1124.0, 0.00870456669706757
1125.0, 0.008823157081990413
1126.0, 0.009514507979812039
1127.0, 0.01642325661216957
1128.0, 0.01970333296944347
1129.0, 0.022041151281797858
1130.0, 0.028900592708743202
1131.0, 0.023497078956079845
1132.0, 0.020221633252532963
1133.0, 0.02173573210535876
1134.0, 0.021702679345711146
1135.0, 0.018136429723496734
1136.0, 0.01434671277651305
1137.0, 0.013913920486627714
1138.0, 0.0147122305168818
1139.0, 0.014545323539552273
1140.0, 0.018753571266328393
1141.0, 0.01767225167449483
1142.0, 0.01599571567712696
1143.0, 0.02275066726084643
1144.0, 0.0209667745042958
1145.0, 0.02495645429964678
1146.0, 0.022020257512815798
1147.0, 0.0175691417309113
1148.0, 0.020386271234977348
1149.0, 0.021218071920740992
1150.0, 0.027566306629287753
1151.0, 0.037576455477754206
1152.0, 0.03459182593593834
1153.0, 0.043022208010644984
1154.0, 0.038664020375508694
1155.0, 0.04210449948901468
1156.0, 0.05828438549062208
1157.0, 0.0641519439765574
1158.0, 0.05854445608462173
1159.0, 0.05895761020198929
1160.0, 0.0636765297764911
1161.0, 0.05605365632444947
1162.0, 0.05784534483619164
1163.0, 0.056023288240425774
1164.0, 0.05004098509919752
1165.0, 0.04121386478848401
1166.0, 0.038752859696743074
1167.0, 0.029733649636892
1168.0, 0.026209233887595208
1169.0, 0.024709019303713563
1170.0, 0.02094035727252023
1171.0, 0.02374287270971054
1172.0, 0.020834925535399403
1173.0, 0.023600849780351027
1174.0, 0.03278886598766701
1175.0, 0.02303837464955209
1176.0, 0.019520803586997426
1177.0, 0.021670292942131634
1178.0, 0.019025997790979354
1179.0, 0.015013029341620963
1180.0, 0.013370743644091281
1181.0, 0.014083444906370852
1182.0, 0.017604482656769845
1183.0, 0.02215079074438919
1184.0, 0.024601048135375052
1185.0, 0.02006761666914222
1186.0, 0.021418302491700736
1187.0, 0.010128347562595143
1188.0, 0.009300257544149461
1189.0, 0.018280793170008667
1190.0, 0.013553777607958081
1191.0, 0.0043212168667615646
1192.0, 0.0015835296093522557
1193.0, 0.002817488681253216
1194.0, 0.0017954169338217205
1195.0, 0.003618507811790667
1196.0, 0.0006740876507309599
1197.0, 0.0025807173614450663
1198.0, 0.005779513553412566
1199.0, 0.002518837666341002
1200.0, 0.004108714081464741
1201.0, 0.003344850294368308
1202.0, 0.002063747955072479
1203.0, 0.000591126974994415
1204.0, 0.0008480257294027872
1205.0, 0.0016951803333859537
1206.0, 0.0059243535257900454
1207.0, 0.010049352349781365
1208.0, 0.006986047165528696
1209.0, 0.01118770711725817
1210.0, 0.009499776781024621
1211.0, 0.0038920795806041695
1212.0, 0.007995326697948345
1213.0, 0.007416896553573441
1214.0, 0.006241384898871318
1215.0, 0.011860656127435571
1216.0, 0.011020732177708385
1217.0, 0.002017182183436317
1218.0, 0.0017113396436093116
1219.0, 0.0013157942020858068
1220.0, 0.0011032648642814965
1221.0, 0.0034343311449326766
1222.0, 0.0012098443811549438
1223.0, 0.009261657326353024
1224.0, 0.006915007484757062
1225.0, 0.009440070109451063
1226.0, 0.015006908911004526
1227.0, 0.013392506192928325
1228.0, 0.008782833787149374
1229.0, 0.007770448740805303
1230.0, 0.01059975611562038
1231.0, 0.005644339398060455
1232.0, 0.00954190170720201
1233.0, 0.011598255649328901
1234.0, 0.010160318329975581
1235.0, 0.010486679195166205
1236.0, 0.020359396409212024
1237.0, 0.02271919568593767
1238.0, 0.01669084836620284
1239.0, 0.010241318882105369
1240.0, 0.00906015923034131
1241.0, 0.014094492029695187
1242.0, 0.013788415401512093
1243.0, 0.004698760189152913
1244.0, 0.005276035440362177
1245.0, 0.011969446759131051
1246.0, 0.01830077629979118
1247.0, 0.016162169025045744
1248.0, 0.01929553980542613
1249.0, 0.013165168115095258
1250.0, 0.010429395694110725
1251.0, 0.00624822901384263
1252.0, 0.0037180694514017815
1253.0, 0.004590441519299314
1254.0, 0.003706282391110472
1255.0, 0.0006388544137922564
1256.0, 0.00021057562111561322
1257.0, 0.003401755091403503
1258.0, 0.003466418755299277
1259.0, 0.0020103968980605606
1260, 0.0
1261, 0.0
1262, 0.0
1263, 0.0
1264, 0.0
1265, 0.0
1266, 0.0
1267, 0.0
1268, 0.0
1269, 0.0
1270, 0.0
1271, 0.0
1272, 0.0
1273, 0.0
1274, 0.0
1275, 0.0
1276, 0.0
1277, 0.0
1278, 0.0
1279, 0.0
1280, 0.0
1281, 0.0
1282, 0.0
1283, 0.0
1284, 0.0
1285, 0.0
1286, 0.0
1287, 0.0
1288, 0.0
1289, 0.0
1290, 0.0
1291, 0.0
1292, 0.0
1293, 0.0
1294, 0.0
1295, 0.0
1296, 0.0
1297, 0.0
1298, 0.0
1299, 0.0
1300, 0.0
1301, 0.0
1302, 0.0
1303, 0.0
1304, 0.0
1305, 0.0
1306, 0.0
1307, 0.0
1308, 0.0
1309, 0.0
1310, 0.0
1311, 0.0
1312, 0.0
1313, 0.0
1314, 0.0
1315, 0.0
1316, 0.0
1317, 0.0
1318, 0.0
1319, 0.0
1320, 0.0
1321, 0.0
1322, 0.0
1323, 0.0
1324, 0.0
1325, 0.0
1326, 0.0
1327, 0.0
1328, 0.0
1329, 0.0
1330, 0.0
1331, 0.0
1332, 0.0
1333, 0.0
1334, 0.0
1335, 0.0
1336, 0.0
1337, 0.0
1338, 0.0
1339, 0.0
1340, 0.0
1341, 0.0
1342, 0.0
1343, 0.0
1344, 0.0
1345, 0.0
1346, 0.0
1347, 0.0
1348, 0.0
1349, 0.0
1350, 0.0
1351, 0.0
1352, 0.0
1353, 0.0
1354, 0.0
1355, 0.0
1356, 0.0
1357, 0.0
1358, 0.0
1359, 0.0
1360, 0.0
1361, 0.0
1362, 0.0
1363, 0.0
1364, 0.0
1365, 0.0
1366, 0.0
1367, 0.0
1368, 0.0
1369, 0.0
1370, 0.0
1371, 0.0
1372, 0.0
1373, 0.0
1374, 0.0
1375, 0.0
1376, 0.0
1377, 0.0
1378, 0.0
1379, 0.0
1380, 0.0
1381, 0.0
1382, 0.0
1383, 0.0
1384, 0.0
1385, 0.0
1386, 0.0
1387, 0.0
1388, 0.0
1389, 0.0
1390, 0.0
1391, 0.0
1392, 0.0
1393, 0.0
1394, 0.0
1395, 0.0
1396, 0.0
1397, 0.0
1398, 0.0
1399, 0.0
1400, 0.0
1401, 0.0
1402, 0.0
1403, 0.0
1404, 0.0
1405, 0.0
1406, 0.0
1407, 0.0
1408, 0.0
1409, 0.0
1410, 0.0
1411, 0.0
1412, 0.0
1413, 0.0
1414, 0.0
1415, 0.0
1416, 0.0
1417, 0.0
1418, 0.0
1419, 0.0
1420, 0.0
1421, 0.0
1422, 0.0
1423, 0.0
1424, 0.0
1425, 0.0
1426, 0.0
1427, 0.0
1428, 0.0
1429, 0.0
1430, 0.0
1431, 0.0
1432, 0.0
1433, 0.0
1434, 0.0
1435, 0.0
1436, 0.0
1437, 0.0
1438, 0.0
1439, 0.0
1440, 0.0
1441, 0.0
1442, 0.0
1443, 0.0
1444, 0.0
1445, 0.0
1446, 0.0
1447, 0.0
1448, 0.0
1449, 0.0
1450, 0.0
1451, 0.0
1452, 0.0
1453, 0.0
1454, 0.0
1455, 0.0
1456, 0.0
1457, 0.0
1458, 0.0
1459, 0.0
1460, 0.0
1461, 0.0
1462, 0.0
1463, 0.0
1464, 0.0
1465, 0.0
1466, 0.0
1467, 0.0
1468, 0.0
1469, 0.0
1470, 0.0
1471, 0.0
1472, 0.0
1473, 0.0
1474, 0.0
1475, 0.0
1476, 0.0
1477, 0.0
1478, 0.0
1479, 0.0
1480, 0.0
1481, 0.0
1482, 0.0
1483, 0.0
1484, 0.0
1485, 0.0
1486, 0.0
1487, 0.0
1488, 0.0
1489, 0.0
1490, 0.0
1491, 0.0
1492, 0.0
1493, 0.0
1494, 0.0
1495, 0.0
1496, 0.0
1497, 0.0
1498, 0.0
1499, 0.0
1500, 0.0
1501, 0.0
1502, 0.0
1503, 0.0
1504, 0.0
1505, 0.0
1506, 0.0
1507, 0.0
1508, 0.0
1509, 0.0
1510, 0.0
1511, 0.0
1512, 0.0
1513, 0.0
1514, 0.0
1515, 0.0
1516, 0.0
1517, 0.0
1518, 0.0
1519, 0.0
1520, 0.0
1521, 0.0
1522, 0.0
1523, 0.0
1524, 0.0
1525, 0.0
1526, 0.0
1527, 0.0
1528, 0.0
1529, 0.0
1530, 0.0
1531, 0.0
1532, 0.0
1533, 0.0
1534, 0.0
1535, 0.0
1536, 0.0
1537, 0.0
1538, 0.0
1539, 0.0
1540, 0.0
1541, 0.0
1542, 0.0
1543, 0.0
1544, 0.0
1545, 0.0
1546, 0.0
1547, 0.0
1548, 0.0
1549, 0.0
1550, 0.0
1551, 0.0
1552, 0.0
1553, 0.0
1554, 0.0
1555, 0.0
1556, 0.0
1557, 0.0
1558, 0.0
1559, 0.0
1560, 0.0
1561, 0.0
1562, 0.0
1563, 0.0
1564, 0.0
1565, 0.0
1566, 0.0
1567, 0.0
1568, 0.0
1569, 0.0
1570, 0.0
1571, 0.0
1572, 0.0
1573, 0.0
1574, 0.0
1575, 0.0
1576, 0.0
1577, 0.0
1578, 0.0
1579, 0.0
1580, 0.0
1581, 0.0
1582, 0.0
1583, 0.0
1584, 0.0
1585, 0.0
1586, 0.0
1587, 0.0
1588, 0.0
1589, 0.0
1590, 0.0
1591, 0.0
1592, 0.0
1593, 0.0
1594, 0.0
1595, 0.0
1596, 0.0
1597, 0.0
1598, 0.0
1599, 0.0
