30, 0.0
31, 0.0
32, 0.0
33, 0.0
34, 0.0
35, 0.0
36, 0.0
37, 0.0
38, 0.0
39, 0.0
40, 0.0
41, 0.0
42, 0.0
43, 0.0
44, 0.0
45, 0.0
46, 0.0
47, 0.0
48, 0.0
49, 0.0
50, 0.0
51, 0.0
52, 0.0
53, 0.0
54, 0.0
55, 0.0
56, 0.0
57, 0.0
58, 0.0
59, 0.0
60, 0.0
61, 0.0
62, 0.0
63, 0.0
64, 0.0
65, 0.0
66, 0.0
67, 0.0
68, 0.0
69, 0.0
70, 0.0
71, 0.0
72, 0.0
73, 0.0
74, 0.0
75, 0.0
76, 0.0
77, 0.0
78, 0.0
79, 0.0
80, 0.0
81, 0.0
82, 0.0
83, 0.0
84, 0.0
85, 0.0
86, 0.0
87, 0.0
88, 0.0
89, 0.0
90, 0.0
91, 0.0
92, 0.0
93, 0.0
94, 0.0
95, 0.0
96, 0.0
97, 0.0
98, 0.0
99, 0.0
100, 0.0
101, 0.0
102, 0.0
103, 0.0
104, 0.0
105, 0.0
106, 0.0
107, 0.0
108, 0.0
109, 0.0
110, 0.0
111, 0.0
112.0, 0.00026992309828825485
113.0, 0.005403490029693697
114.0, 0.019708771888630065
115.0, 0.03842943155113678
116.0, 0.03528150456706397
117.0, 0.029046665949324153
118.0, 0.017637747122387595
119.0, 0.005062246775512437
120.0, 0.0007833471404337947
121.0, 0.022468646789299808
122.0, 0.04396850978297322
123.0, 0.041000789642194335
124.0, 0.020522993951564088
125.0, 0.0034401421095880424
126.0, 0.013534960513076885
127.0, 0.04012561516174763
128.0, 0.05267667562377537
129.0, 0.029012782840065917
130.0, 0.037164476848303006
131.0, 0.03556553942249295
132.0, 0.0031540540504124046
133.0, 0.01145871382134151
134.0, 0.015489349262848447
135.0, 0.01612079816584057
136.0, 0.050304493104634834
137.0, 0.0871363509101056
138.0, 0.11862493418622315
139.0, 0.11420321892574775
140.0, 0.09679083644637276
141.0, 0.11211899170887837
142.0, 0.10736501008786836
143.0, 0.10726143801281549
144.0, 0.122644495552913
145.0, 0.1466656610841771
146.0, 0.1626409022791376
147.0, 0.16319955549202092
148.0, 0.15465081687140989
149.0, 0.1395281124474441
150.0, 0.11048288973483855
151.0, 0.10263987846542176
152.0, 0.09210764993462899
153.0, 0.07448617659990103
154.0, 0.06530012763609502
155.0, 0.04905580657141629
156.0, 0.03671185815999628
157.0, 0.026465139945556725
158.0, 0.008808228617863916
159.0, 0.029618605822531105
160.0, 0.03560542937268343
161.0, 0.022601777074644478
162.0, 0.015044932480125324
163.0, 0.004342200534652706
164.0, 0.00446972717959095
165.0, 0.0060825140805702725
166.0, 0.0041575155058873785
167.0, 0.011910667958986518
168.0, 0.04062691272573175
169.0, 0.04492494456092021
170.0, 0.044757550081286186
171.0, 0.08116013451669052
172.0, 0.10366237323409379
173.0, 0.11514763182635407
174.0, 0.1267059695853303
175.0, 0.14851021873346165
176.0, 0.20707713924816187
177.0, 0.2237117113588792
178.0, 0.2472730807028311
179.0, 0.3021357522982896
180.0, 0.334822076531945
181.0, 0.3311976174608336
182.0, 0.35256352020838333
183.0, 0.4005376905489875
184.0, 0.4302239613414464
185.0, 0.4687639862009298
186.0, 0.49847628377385966
187.0, 0.5127399032619144
188.0, 0.5289393061364733
189.0, 0.579165268886247
190.0, 0.6077670185199346
191.0, 0.6307304648155585
192.0, 0.6574171041461963
193.0, 0.6803828544724708
194.0, 0.7114817075348433
195.0, 0.7524356175616194
196.0, 0.7772664503404636
197.0, 0.7747784450428996
198.0, 0.8108038350834825
199.0, 0.8290882233679665
200.0, 0.8574698357765544
201.0, 0.9018324004717108
202.0, 0.9141100703270254
203.0, 0.927115313018706
204.0, 0.9511654251996049
205.0, 0.9720972363595496
206.0, 0.9748930007207127
207.0, 0.9592195547500821
208.0, 0.970852609222757
209.0, 0.989199640197026
210.0, 0.9959956448063769
211.0, 0.9991700005720734
212.0, 0.9839373982807685
213.0, 0.9632646276450303
214.0, 0.9513436626136609
215.0, 0.9528689212058065
216.0, 0.9203672610584345
217.0, 0.8652603940141695
218.0, 0.8249055179958508
219.0, 0.8155092331832775
220.0, 0.7663574367943398
221.0, 0.7550622459014187
222.0, 0.7317637725710446
223.0, 0.6855889538165264
224.0, 0.6605348492810926
225.0, 0.6264158954485075
226.0, 0.5865337902854183
227.0, 0.560876743254479
228.0, 0.5495513156926192
229.0, 0.5162122232653356
230.0, 0.5025717810582897
231.0, 0.48733979267181426
232.0, 0.46007469168843007
233.0, 0.43059385322623994
234.0, 0.41992526307867134
235.0, 0.398604790269625
236.0, 0.3899847911134421
237.0, 0.40313003004640574
238.0, 0.3817028966962279
239.0, 0.369502392239698
240.0, 0.35830427819882665
241.0, 0.34317392214594433
242.0, 0.33061666569159615
243.0, 0.3113458066754017
244.0, 0.2942304622693525
245.0, 0.30353213857226663
246.0, 0.3212883588594639
247.0, 0.2942226646377181
248.0, 0.24548075647282272
249.0, 0.21430657620176186
250.0, 0.20406844279068007
251.0, 0.19851728109576391
252.0, 0.17481365032451546
253.0, 0.18219765182273337
254.0, 0.18223071317369413
255.0, 0.1595551132025358
256.0, 0.14362134558761927
257.0, 0.12311642400947996
258.0, 0.11874700376618086
259.0, 0.13006587385883267
260.0, 0.14276148069181735
261.0, 0.11825682475864784
262.0, 0.10549565936620808
263.0, 0.10266462413106595
264.0, 0.1028363437462603
265.0, 0.10598756889503606
266.0, 0.11011979549607263
267.0, 0.10048178784268746
268.0, 0.07994966286877132
269.0, 0.061525595882709117
270.0, 0.054832702445573415
271.0, 0.06346252272970875
272.0, 0.0727567251062951
273.0, 0.06538703207121209
274.0, 0.04250131520851651
275.0, 0.04177385390740804
276.0, 0.0522388460696881
277.0, 0.051954061147928145
278.0, 0.041544577180397335
279.0, 0.036761655196073155
280.0, 0.03508900996444176
281.0, 0.0256616529744932
282.0, 0.023529756994522814
283.0, 0.03403835153293732
284.0, 0.034457172445179984
285.0, 0.030276928699911124
286.0, 0.015066940618271853
287.0, 0.006541343041787768
288.0, 0.02037917570175558
289.0, 0.0040903513223782655
290.0, 0.014365475603060932
291.0, 0.024277084941568293
292.0, 0.017060662898319492
293.0, 0.011088841372279199
294.0, 0.013751714767040416
295.0, 0.01941109212123593
296.0, 0.012917503302538706
297.0, 0.004516993958630243
298.0, 0.023262004815622878
299.0, 0.00542580968501714
300.0, 0.00647720822131327
301.0, 0.0067309824786482494
302.0, 0.0016242487292132813
303.0, 0.009393596247738192
304.0, 0.0031646903048586673
305.0, 0.005670345428644514
306.0, 0.001869100206413546
307.0, 0.005024183725972928
308.0, 0.0025096223015502964
309.0, 0.0016011773206207358
310.0, 0.0009390241493803809
311.0, 0.004517694416203062
312.0, 0.0022739693900441925
313.0, 0.008361396825245294
314.0, 0.01244628768393789
315.0, 0.004159735806851332
316.0, 0.013677115895587387
317.0, 0.00252192155638383
318.0, 0.007674944399279879
319.0, 0.00389987312661539
320.0, 0.002489741180688766
321.0, 0.0038786386665094433
322.0, 0.005651385776289188
323.0, 0.00836784216138106
324.0, 0.008853545922827357
325.0, 0.0037967079276729015
326.0, 0.009265965977861708
327.0, 0.0011821997746678627
328.0, 0.006341931724131903
329.0, 0.010325284126128056
330.0, 0.019924047855860758
331.0, 0.002168550339416738
332.0, 0.0023095247267605067
333.0, 0.018735309719692287
334.0, 0.019564273532468823
335.0, 0.004912358365615866
336.0, 0.0011377707290634895
337.0, 0.0017858202799110837
338.0, 0.00577351703480498
339.0, 0.010371467180129747
340.0, 0.004843554653173249
341.0, 0.010758939151430084
342.0, 0.005223318624334372
343.0, 0.012034675481008068
344.0, 0.009182049978185754
345.0, 0.009399103020488847
346.0, 0.013115719570842775
347.0, 0.00406653614421573
348.0, 0.007720171208232639
349.0, 0.024388849482067414
350.0, 0.024583941408443822
351.0, 0.007858246155681089
352.0, 0.013230139462327522
353.0, 0.01678571070858857
354.0, 0.02336288329141875
355.0, 0.03183589032837021
356.0, 0.023871826354485214
357.0, 0.014783214709156061
358.0, 0.024220055137904397
359.0, 0.02767555574283369
360.0, 0.01521469062554398
361.0, 0.012539497216626786
362.0, 0.03182338455585524
363.0, 0.024652044753154332
364.0, 0.025510000288401117
365.0, 0.049658068242555385
366.0, 0.02716965546748089
367.0, 0.023528186464897887
368.0, 0.028102859520622702
369.0, 0.03533723453124643
370.0, 0.03893137432597041
371.0, 0.021946651901408838
372.0, 0.03376218847074562
373.0, 0.03754828474378653
374.0, 0.028360148850969442
375.0, 0.02457364794182242
376.0, 0.025685472158884847
377.0, 0.01286482947414497
378.0, 0.015110615246861471
379.0, 0.026373530516389507
380.0, 0.028393798469260597
381.0, 0.02226955701742539
382.0, 0.025427533959038434
383.0, 0.03067568704574003
384.0, 0.03457745960266845
385.0, 0.03512785527902698
386.0, 0.02990681975371862
387.0, 0.024615537550252895
388.0, 0.030991024929474236
389.0, 0.027304719481636548
390.0, 0.015499448139658024
391.0, 0.02570533225672318
392.0, 0.025856948043835024
393.0, 0.006140548406260821
394.0, 0.001920885076003102
395.0, 0.00787004961814109
396.0, 0.006583276699178277
397.0, 0.015964353729099733
398.0, 0.02401472085815303
399.0, 0.017653737471562347
400.0, 0.006069894576703148
401.0, 0.003975368885616219
402.0, 0.0027608821875306326
403.0, 0.015993104429718512
404.0, 0.024466103264920495
405.0, 0.023579131572818032
406.0, 0.02550143874353821
407.0, 0.01719527818269972
408.0, 0.02677657357142529
409.0, 0.02233463480084043
410.0, 0.008217259154593627
411.0, 0.010747446195685323
412.0, 0.007257976352772453
413.0, 0.00536429865731208
414.0, 0.013780608734377251
415.0, 0.00987786200884595
416.0, 0.010312800940544478
417.0, 0.013345165554595216
418.0, 0.010980917219292497
419.0, 0.01659092811750749
420.0, 0.013555313475343363
421.0, 0.0006860312663314579
422.0, 0.006302155209401675
423.0, 0.015825202112760263
424.0, 0.024258507438605303
425.0, 0.03037425689750775
426.0, 0.02967088931329441
427.0, 0.018763883509100632
428.0, 0.01841647493859513
429.0, 0.01926512643216555
430.0, 0.01664995651805443
431.0, 0.0206114034330471
432.0, 0.03494051782251269
433.0, 0.02702585800037686
434.0, 0.02531651285388029
435.0, 0.02524027008864273
436.0, 0.02150903450395894
437.0, 0.019673121610579918
438.0, 0.030422473053194975
439.0, 0.021317136967728287
440.0, 0.01596379432698303
441.0, 0.02697621765287007
442.0, 0.042633692419438776
443.0, 0.03978508235129481
444.0, 0.03484701198994546
445.0, 0.044284255650884424
446.0, 0.04910334363304289
447.0, 0.04381695568392575
448.0, 0.04417699493596818
449.0, 0.04333030853481218
450.0, 0.04276404171792972
451.0, 0.04078934625613144
452.0, 0.04444984983275203
453.0, 0.05482955905167177
454.0, 0.04651669973498138
455.0, 0.04755442769985393
456.0, 0.050982278994866514
457.0, 0.05131027871056439
458.0, 0.05122855139189887
459.0, 0.054522558702509674
460.0, 0.048742117200727395
461.0, 0.0501111104004051
462.0, 0.05236043776850787
463.0, 0.04624123553198071
464.0, 0.030917071160513888
465.0, 0.03229262799947371
466.0, 0.025869663943923295
467.0, 0.025300954968737355
468.0, 0.032746481869437224
469.0, 0.03286289071542546
470.0, 0.020392927880289458
471.0, 0.014390289975603897
472.0, 0.024978735835237107
473.0, 0.025997956664525455
474.0, 0.012515360644546765
475.0, 0.005691888844005357
476.0, 0.00547616215246454
477.0, 0.012347557281260576
478.0, 0.01928870246200665
479.0, 0.01853513095817339
480.0, 0.015170797585292762
481.0, 0.02620118199078522
482.0, 0.01569007986294633
483.0, 0.004670843246718874
484.0, 0.007233225280014566
485.0, 0.013499513682024322
486.0, 0.012485306861427457
487.0, 0.02069566936140495
488.0, 0.009021656712262998
489.0, 0.007395502752263987
490.0, 0.017486320417474256
491.0, 0.02347045892599373
492.0, 0.019812324975058006
493.0, 0.028459434544635995
494.0, 0.01037490023587456
495.0, 0.008014494196298828
496.0, 0.03193221392440579
497.0, 0.043867376380305655
498.0, 0.023838999564681846
499.0, 0.017235876797134207
500.0, 0.02911786682457394
501.0, 0.03247231976209397
502.0, 0.020185742314683043
503.0, 0.02622571184205991
504.0, 0.039428618638984926
505.0, 0.020146293833253167
506.0, 0.0052213898348948806
507.0, 0.011281894827076708
508.0, 0.021378473176977178
509.0, 0.021093190949484017
510.0, 0.032049243318833374
511.0, 0.03018991319452808
512.0, 0.021150891085763103
513.0, 0.017836854653343365
514.0, 0.021889327563397364
515.0, 0.009756286418224675
516.0, 0.008875593933955818
517.0, 0.017244943474292812
518.0, 0.02550691913698887
519.0, 0.02422160687116055
520.0, 0.01291202290014615
521.0, 0.01599389550468371
522.0, 0.01717730535312807
523.0, 0.023017939227127488
524.0, 0.024594344595068922
525.0, 0.009090379371398123
526.0, 0.001833437045281338
527.0, 0.010059260292030914
528.0, 0.021798914390771532
529.0, 0.035364407008644294
530.0, 0.04150724053630005
531.0, 0.012663613231134734
532.0, 0.005450021320295052
533.0, 0.00225855160731809
534.0, 0.008291712569090528
535.0, 0.007510384636506263
536.0, 0.0014136411224004953
537.0, 0.013150883316238692
538.0, 0.0017937692068042193
539.0, 0.010221131482821869
540.0, 0.010535675295216658
541.0, 0.0029975294960885956
542.0, 0.00879945751762226
543.0, 0.007722497102404078
544.0, 0.010421085963676274
545.0, 0.002160870860205628
546.0, 0.0033489614963248854
547.0, 0.003794988185102977
548.0, 0.00031086256662167224
549.0, 0.00107521950946373
550.0, 0.0021969271378847214
551.0, 0.00780317600485602
552.0, 0.014623574004420466
553.0, 0.012153929209302373
554.0, 0.00390326961780614
555.0, 0.008374347469805567
556.0, 0.0020038682115105415
557.0, 0.006255658863107325
558.0, 0.006411742833421394
559.0, 0.01175561071817989
560.0, 0.0214129794831533
561.0, 0.018901202828210003
562.0, 0.016631101318784723
563.0, 0.023550915213980946
564.0, 0.011521481147850772
565.0, 0.004650423938324368
566.0, 0.016483040281682224
567.0, 0.012213816743407983
568.0, 0.004677863762109007
569.0, 0.001103586562653802
570.0, 0.008370480425395857
571.0, 0.01567299359344215
572.0, 0.0024163303834295272
573.0, 0.014340724469300764
574.0, 0.0212307866411002
575.0, 0.016925636543967622
576.0, 0.00618212433351874
577.0, 0.0017282479614479612
578.0, 0.003718147962606487
579.0, 0.017694600169614987
580.0, 0.018330026488593054
581.0, 0.021571434268456643
582.0, 0.016203243712364247
583.0, 0.0037719844698223684
584.0, 0.012983627833127582
585.0, 0.00608516700652352
586.0, 0.017629045494500156
587.0, 0.029549762167359526
588.0, 0.019991056236070687
589.0, 0.006553589640717731
590.0, 0.016566849575416178
591.0, 0.008592255796077817
592.0, 0.010649629663594822
593.0, 0.0038420843743225677
594.0, 0.002270793697804841
595.0, 0.010698275752931925
596.0, 0.01342704483591252
597.0, 0.015451731519186981
598.0, 0.019919416285686737
599.0, 0.0173392492837213
600.0, 0.015019291641230571
601.0, 0.01871889146250425
602.0, 0.01950837715514384
603.0, 0.015477013615004215
604.0, 0.026390377651812718
605.0, 0.017689362072269336
606.0, 0.02039457056187491
607.0, 0.02959780237335914
608.0, 0.021062549530468846
609.0, 0.010267003860309605
610.0, 0.005832182795807696
611.0, 0.018208997197650664
612.0, 0.013978198847522702
613.0, 0.0004559527903790837
614.0, 0.001648776843139077
615.0, 0.008266512450704047
616.0, 0.018219899154242616
617.0, 0.0225859106375799
618.0, 0.015977318359159935
619.0, 0.007625887235499481
620.0, 0.009454596545664808
621.0, 0.02285350194746177
622.0, 0.02155756418904628
623.0, 0.02418700958877423
624.0, 0.011024131076199617
625.0, 0.00407972512640105
626.0, 0.008676850298736102
627.0, 0.0075203243057397435
628.0, 0.00959756031622369
629.0, 0.007546686056718347
630.0, 0.010646542480712255
631.0, 0.011149192004110303
632.0, 0.02400978860867027
633.0, 0.04244793665488954
634.0, 0.022847211621724418
635.0, 0.015739080972949796
636.0, 0.012435356962751255
637.0, 0.01991966695163119
638.0, 0.020243661425428293
639.0, 0.012402182471420017
640.0, 0.01554819879385761
641.0, 0.019645492906536905
642.0, 0.008207566612894871
643.0, 0.007459426010753801
644.0, 0.016733296890670414
645.0, 0.024241374177199793
646.0, 0.020340765698537315
647.0, 0.003992813404876499
648.0, 0.01881455982536791
649.0, 0.012052115336944353
650.0, 0.024206328253382054
651.0, 0.024559714272141507
652.0, 0.00806774195330887
653.0, 0.011526224888173408
654.0, 0.014772920313613895
655.0, 0.01028045989201659
656.0, 0.017428970420004828
657.0, 0.02434601257790753
658.0, 0.02576953743466267
659.0, 0.025281887451871782
660.0, 0.022165813523458495
661.0, 0.01644432276171172
662.0, 0.01775458325938143
663.0, 0.025411388407004777
664.0, 0.019263851390939397
665.0, 0.0061579957825339425
666.0, 0.0038352052162576467
667.0, 0.0032284439533919874
668.0, 0.0002700111767015338
669.0, 0.008581123172628475
670.0, 0.025249485534226807
671.0, 0.028097587054179467
672.0, 0.018891799694258124
673.0, 0.0199870776340491
674.0, 0.015295688046865014
675.0, 0.011526935425794452
676.0, 0.009901936575099182
677.0, 0.012392524999449428
678.0, 0.010423782437829897
679.0, 0.0028277808969191013
680.0, 0.006846898409346188
681.0, 0.01173525714784859
682.0, 0.01187569256870698
683.0, 0.017878917877681488
684.0, 0.017891578739051468
685.0, 0.009810532524431027
686.0, 0.010218530526918939
687.0, 0.012377771492025826
688.0, 0.0008906133902253808
689.0, 0.000811772981756029
690.0, 0.003669582750414495
691.0, 0.0033530361185294543
692.0, 0.0023782073678706903
693.0, 0.01277236560156924
694.0, 0.010349414031744131
695.0, 0.010439756042855422
696.0, 0.0029455211061739446
697.0, 0.0031066461535758667
698.0, 0.009574756724828208
699.0, 0.006772504860397054
700.0, 0.0026764043082048447
701.0, 0.007326614685976259
702.0, 0.005072354167872597
703.0, 0.011169434188792448
704.0, 0.014175968161064138
705.0, 0.010627665113888947
706.0, 0.003553497354512221
707.0, 0.00935905528546419
708.0, 0.0119138529936317
709.0, 0.01251045717979846
710.0, 0.01653400826358507
711.0, 0.01067153795832649
712.0, 0.0019668779972742433
713.0, 0.0017206788468302776
714.0, 0.006588311519427218
715.0, 0.009397889742593153
716.0, 0.004829760157163634
717.0, 0.0009828611240422873
718.0, 0.004292536204338909
719.0, 0.00797577003151111
720.0, 0.007300724315202921
721.0, 0.007448348667586277
722.0, 0.011716740745086652
723.0, 0.012899206311611035
724.0, 0.0035561927828070576
725.0, 0.002165386054609134
726.0, 0.006717504002180528
727.0, 0.008772330036192282
728.0, 0.01053833146777643
729.0, 0.017025824244262126
730.0, 0.0041643187228653095
731.0, 0.01298932948183899
732.0, 0.018172346603134718
733.0, 0.012515912343013592
734.0, 0.0076488578291101115
735.0, 0.007366106733489838
736.0, 0.003798557098712986
737.0, 0.0027585952810702755
738.0, 0.007640274478849529
739.0, 0.013439345346977778
740.0, 0.01176082895504238
741.0, 0.011799303181859372
742.0, 0.021228213867862222
743.0, 0.0198601635269586
744.0, 0.011863257885368688
745.0, 0.011242154227319648
746.0, 0.008199930140898207
747.0, 0.00762331705559781
748.0, 0.014364732731783158
749.0, 0.020108042560702817
750.0, 0.01663284347928849
751.0, 0.011991614685757095
752.0, 0.013345940940583403
753.0, 0.010975369767444924
754.0, 0.0171107898306457
755.0, 0.025042933044992152
756.0, 0.020201342925349936
757.0, 0.0037528999005398684
758.0, 0.004012439693437982
759.0, 0.002570334386184565
760.0, 0.0021434632631930767
761.0, 0.007545902774824444
762.0, 0.0064770320746558715
763.0, 0.00415358676074223
764.0, 0.011604496375475247
765.0, 0.013878074318944457
766.0, 0.02017027108330457
767.0, 0.016870255975848306
768.0, 0.012731280973124561
769.0, 0.025130621539969054
770.0, 0.020674286908955928
771.0, 0.002672581094502963
772.0, 0.011015414143846058
773.0, 0.01390840226473209
774.0, 0.0058797940441851085
775.0, 0.005929701237338559
776.0, 0.01487623296283935
777.0, 0.019191565574361236
778.0, 0.016007348920816362
779.0, 0.011569126639044585
780.0, 0.005138405412430292
781.0, 0.009140019092955348
782.0, 0.008604883213735303
783.0, 0.02666867575405655
784.0, 0.015988716349425496
785.0, 0.0013064241069004352
786.0, 0.01188370387267117
787.0, 0.015146047457522861
788.0, 0.00016813758643643018
789.0, 0.010465584886986823
790.0, 0.013041899201419429
791.0, 0.009588872444702433
792.0, 0.009213123067658995
793.0, 0.007564658631438937
794.0, 0.009173703263658968
795.0, 0.01926948922857122
796.0, 0.010629495832831473
797.0, 0.003325378343809406
798.0, 0.008793703403432501
799.0, 0.012082958220079753
800.0, 0.005154195773335583
801.0, 0.006102002615532849
802.0, 0.012015453569230167
803.0, 0.002000990792108064
804.0, 0.01587146285613757
805.0, 0.02215796803168928
806.0, 0.016419536243921125
807.0, 0.010712813519249865
808.0, 0.01307896645474249
809.0, 0.01373733749893567
810.0, 0.009092744856875003
811.0, 0.012275555178856387
812.0, 0.007372806400538642
813.0, 0.016621980885694925
814.0, 0.013279955165112519
815.0, 0.014681281955577025
816.0, 0.013105505820891039
817.0, 0.00529138446125716
818.0, 0.0018471431350373293
819.0, 0.0034759016999036723
820.0, 0.012538214176660555
821.0, 0.026005441549439793
822.0, 0.021724005580869798
823.0, 0.002815266430970456
824.0, 0.0028680065035816583
825.0, 0.005998139438199698
826.0, 0.01210113715693392
827.0, 0.007873941262772298
828.0, 0.004375769911879629
829.0, 0.011601949802811786
830.0, 0.021644928084502413
831.0, 0.01302668338425952
832.0, 0.010671017445557129
833.0, 0.013954799098470692
834.0, 0.015364459959282713
835.0, 0.019899219296620144
836.0, 0.011477275079201784
837.0, 0.0017884985540868403
838.0, 0.024902460183412155
839.0, 0.019181815938530886
840.0, 0.017531705524582195
841.0, 0.02363905814381635
842.0, 0.018415768379844138
843.0, 0.010504206999120068
844.0, 0.010613067846600684
845.0, 0.014746555321776001
846.0, 0.01711217607775689
847.0, 0.021245236237844453
848.0, 0.01561589129376137
849.0, 0.007214590996203987
850.0, 0.011026467535503438
851.0, 0.01651975405031656
852.0, 0.007102647678346027
853.0, 0.014349562871623305
854.0, 0.026162179614615155
855.0, 0.01910061078809428
856.0, 0.015938074397784666
857.0, 0.012046245397242052
858.0, 0.009391678266964914
859.0, 0.013593566013206377
860.0, 0.013367196101733243
861.0, 0.005025775993929323
862.0, 0.0010548301911569382
863.0, 0.007342281164413724
864.0, 0.0073309429791517805
865.0, 0.01590346128294991
866.0, 0.017743688045160085
867.0, 0.014913998489644082
868.0, 0.018526660399422915
869.0, 0.0161459239571967
870.0, 0.009274809120077786
871.0, 0.0057353841284105
872.0, 0.01556515933344356
873.0, 0.015118205029620075
874.0, 0.016438919132023586
875.0, 0.01905035683571629
876.0, 0.015878102886303966
877.0, 0.008641960325762895
878.0, 0.005302552209415174
879.0, 0.00872972969788476
880.0, 0.012522256940213935
881.0, 0.017988044789589146
882.0, 0.013854243693090712
883.0, 0.011457701120017469
884.0, 0.00622782973450883
885.0, 0.004452049119035926
886.0, 0.017487084581082623
887.0, 0.0222108044415212
888.0, 0.013274602085316323
889.0, 0.0032977947215422363
890.0, 0.006635786171121022
891.0, 0.004873816284083229
892.0, 0.003710341035620895
893.0, 0.011537168046553591
894.0, 0.0019404236326197068
895.0, 0.004267086890989117
896.0, 0.010257553879519783
897.0, 0.007564084161823944
898.0, 0.0020537618519281403
899.0, 0.014038884169052742
900.0, 0.005121176811400828
901.0, 0.005300870850962175
902.0, 0.007327640109508209
903.0, 0.006611043970554436
904.0, 0.016261080439214592
905.0, 0.01985374545658447
906.0, 0.005616038824419888
907.0, 0.00889844596379115
908.0, 0.010741059937075685
909.0, 0.011452857268016006
910.0, 0.004457545311218778
911.0, 0.016050313324759688
912.0, 0.021608456663556846
913.0, 0.014039322734704318
914.0, 0.021915020929981963
915.0, 0.015889775267778475
916.0, 0.009157318020835406
917.0, 0.016918927536858808
918.0, 0.014276769604833102
919.0, 0.0033172044949061705
920.0, 0.005676622217631226
921.0, 0.01771811474015892
922.0, 0.019799685579270847
923.0, 0.01276429255663015
924.0, 0.016517639340159356
925.0, 0.013155848508120262
926.0, 0.00776430404526215
927.0, 0.018021316924569857
928.0, 0.00846996782477978
929.0, 0.004928704203128056
930.0, 0.002533981864353204
931.0, 0.005190910592737508
932.0, 0.009985639922410916
933.0, 0.004782034776931038
934.0, 0.01604545444549985
935.0, 0.018861355210088936
936.0, 0.02674847997022511
937.0, 0.01292410096217559
938.0, 0.02241595332397619
939.0, 0.015981950000871464
940.0, 0.003737607131596589
941.0, 0.007301048932608386
942.0, 0.011325434791576421
943.0, 0.013721981692643185
944.0, 0.02549950181885069
945.0, 0.01628306619519527
946.0, 0.014911988923518277
947.0, 0.011959563196548829
948.0, 0.02138237040384103
949.0, 0.013583113305034481
950.0, 0.011169353602266513
951.0, 0.011523851980600054
952.0, 0.006250837451395032
953.0, 0.009941097620522707
954.0, 0.0025804631386690383
955.0, 0.011344199326533348
956.0, 0.009998541233209497
957.0, 0.012622119982863604
958.0, 0.00832860848662545
959.0, 0.01524055515801626
960.0, 0.024194455949891603
961.0, 0.018014536940194524
962.0, 0.009653308114386448
963.0, 0.015334548287790035
964.0, 0.01011966286359755
965.0, 0.009593531292861225
966.0, 0.014750710801984182
967.0, 0.016873012558352753
968.0, 0.00828369473736787
969.0, 0.010951509511824581
970.0, 0.017120489137163127
971.0, 0.013899791354809848
972.0, 0.0078520067492928
973.0, 0.0031556283670315893
974.0, 0.0018155407786990656
975.0, 0.010420510626673948
976.0, 0.01080734169723402
977.0, 0.006263627978075976
978.0, 0.015091850090426195
979.0, 0.013063939911294332
980.0, 0.016315216351484384
981.0, 0.014558040428273763
982.0, 0.011512975620995578
983.0, 0.01608995792957765
984.0, 0.012850537169448024
985.0, 0.0038958312321581306
986.0, 0.0007812869040607666
987.0, 0.006991798547555627
988.0, 0.002157075646441791
989.0, 0.0034347750934740516
990.0, 0.0059984008513794575
991.0, 0.012501870583542534
992.0, 0.019579984520386225
993.0, 0.015085014110795644
994.0, 0.008787795008075958
995.0, 0.014019136480671546
996.0, 0.007094937962128933
997.0, 0.0015877862212337504
998.0, 0.006699625069503654
999.0, 0.0027480000543974987
1000.0, 0.014654006693913353
1001.0, 0.01459294756255979
1002.0, 0.009121333303316248
1003.0, 0.0018221935704262199
1004.0, 0.0052766152256822985
1005.0, 0.003677198892990779
1006.0, 0.01720624035366571
1007.0, 0.01948951254070548
1008.0, 0.006005246199753466
1009.0, 0.0013813748248004915
1010.0, 0.0018430017035325173
1011.0, 0.01217107975019091
1012.0, 0.016953186859784624
1013.0, 0.004246922813934206
1014.0, 0.00807734946757916
1015.0, 0.016316495460064473
1016.0, 0.01223188474738419
1017.0, 0.014844133998365037
1018.0, 0.014013527084846912
1019.0, 0.0016454986191125694
1020.0, 0.0070093638959430925
1021.0, 0.010324538599572502
1022.0, 0.012036794977036117
1023.0, 0.015731389868771886
1024.0, 0.012256236953563001
1025.0, 0.01107903385090422
1026.0, 0.016157267559872058
1027.0, 0.014228184473506326
1028.0, 0.008096678862695498
1029.0, 0.013395813715565762
1030.0, 0.0195367979442045
1031.0, 0.01887525110466604
1032.0, 0.002090468366575189
1033.0, 0.008033652795660585
1034.0, 0.017711583614054328
1035.0, 0.01698487908615735
1036.0, 0.007829643943545267
1037.0, 0.011882848056198207
1038.0, 0.008268511171336965
1039.0, 0.001143173548362661
1040.0, 0.005667620323598991
1041.0, 0.015816393378273508
1042.0, 0.01053064495168503
1043.0, 0.012901025661176652
1044.0, 0.015399961568608966
1045.0, 0.00520827150892879
1046.0, 0.006050051121570718
1047.0, 0.005362204298259983
1048.0, 0.009568426759405068
1049.0, 0.010959740645947576
1050.0, 0.023825837742409036
1051.0, 0.016520815831380996
1052.0, 0.008532189718687126
1053.0, 0.02264834024829218
1054.0, 0.01858776127859995
1055.0, 0.021024591009837956
1056.0, 0.020839782938251842
1057.0, 0.01705461122332019
1058.0, 0.02689018390402192
1059.0, 0.01748611759141757
1060.0, 0.017555408521514968
1061.0, 0.014654288313412676
1062.0, 0.0028198868903396854
1063.0, 0.004594491297784038
1064.0, 0.0028273380863049384
1065.0, 0.002764367751782819
1066.0, 0.01619118379899187
1067.0, 0.014770239685652772
1068.0, 0.0039058890268210507
1069.0, 0.00566302872018006
1070.0, 0.018631175409849998
1071.0, 0.005624548809763657
1072.0, 0.003555918672438167
1073.0, 0.01396569880758719
1074.0, 0.00957165349018031
1075.0, 0.00985173330932382
1076.0, 0.007156118640753544
1077.0, 0.004466131978381372
1078.0, 0.0076157442003466904
1079.0, 0.008534364768183488
1080.0, 0.008670549549408836
1081.0, 0.005853143959979519
1082.0, 0.005437169966907304
1083.0, 0.011888059674907558
1084.0, 0.005087447137470303
1085.0, 0.004797324111079361
1086.0, 0.0035491047825018896
1087.0, 0.007325732258321875
1088.0, 0.012297034341429931
1089.0, 0.010818919657661172
1090.0, 0.008199425184084739
1091.0, 0.008485249692490112
1092.0, 0.0036021111202658674
1093.0, 0.0023225566094268032
1094.0, 0.017224128137274686
1095.0, 0.009090148290661215
1096.0, 0.015075663867872215
1097.0, 0.012810243573391342
1098.0, 0.00524588823479424
1099.0, 0.00422120767772044
1100.0, 0.01875825417990159
1101.0, 0.017320935944880947
1102.0, 0.021163818709495807
1103.0, 0.013286531653650412
1104.0, 0.006870446367774788
1105.0, 0.014404968130723686
1106.0, 0.01783026375316337
1107.0, 0.014377545541949156
1108.0, 0.017404071233588943
1109.0, 0.023021708216713888
1110.0, 0.0007430288821222328
1111.0, 0.0057156533731368715
1112.0, 0.01422650456843738
1113.0, 0.012629628176364044
1114.0, 0.0035109900344794664
1115.0, 0.004386250245200845
1116.0, 0.002093340908094594
1117.0, 0.0018697079563677547
1118.0, 0.0026840646671963063
1119.0, 0.005208287402012036
1120.0, 0.00099738448105025
1121.0, 0.004828561088321469
1122.0, 0.001884179328621776
1123.0, 0.009539200085471641
1124.0, 0.016829739215830704
1125.0, 0.00406264874331845
1126.0, 0.01690990335551992
1127.0, 0.01998936826027091
1128.0, 0.016547857271984687
1129.0, 0.015710042530456124
1130.0, 0.01910635783396808
1131.0, 0.011686023927248958
1132.0, 0.022293074738328818
1133.0, 0.015014168251821867
1134.0, 0.00038921408161164033
1135.0, 0.0010629905662930144
1136.0, 0.013683631696653436
1137.0, 0.02174047313001161
1138.0, 0.015299776128064792
1139.0, 0.01606548492589231
1140.0, 0.009751988180058749
1141.0, 0.00942407012934485
1142.0, 0.016896147229379144
1143.0, 0.00992656343179134
1144.0, 0.007717766067186066
1145.0, 0.00756607786178116
1146.0, 0.006467888522717794
1147.0, 0.011751163354495001
1148.0, 0.017204544259973815
1149.0, 0.016663208547164386
1150.0, 0.011953061156465937
1151.0, 0.014646117977833138
1152.0, 0.013365899107360125
1153.0, 0.012869454312840227
1154.0, 0.016352287432933873
1155.0, 0.0036270964509793014
1156.0, 0.008666007209530396
1157.0, 0.0011591066740577424
1158.0, 0.011430577721583929
1159.0, 0.014173958935639391
1160.0, 0.02291709653698112
1161.0, 0.018324432749230964
1162.0, 0.01202041745663765
1163.0, 0.00815468278946678
1164.0, 0.0020723065945490262
1165.0, 0.0007119560326183997
1166.0, 0.010533815864736808
1167.0, 0.01157876502539714
1168.0, 0.010921353261115024
1169.0, 0.015147189051586478
1170.0, 0.015194296424950012
1171.0, 0.015399330437287799
1172.0, 0.010470478144343057
1173.0, 0.013561550515609623
1174.0, 0.01872890997470901
1175.0, 0.013935850358433644
1176.0, 0.014483143708222136
1177.0, 0.011258753909734975
1178.0, 0.013672216123459596
1179.0, 0.0063620215448019594
1180.0, 0.012034597796261131
1181.0, 0.012428460184597373
1182.0, 0.01175297522814812
1183.0, 0.00383835094003684
1184.0, 0.011495542309183104
1185.0, 0.020531417203107055
1186.0, 0.014491341233532462
1187.0, 0.00836178769342987
1188.0, 0.010230169300686043
1189.0, 0.02106503864294565
1190.0, 0.025859867470037455
1191.0, 0.023576360950439114
1192.0, 0.022794969285311287
1193.0, 0.021963963461749482
1194.0, 0.011632523105585685
1195.0, 0.011180092494656348
1196.0, 0.019546390642637072
1197.0, 0.017934925617761256
1198.0, 0.017371057308977776
1199.0, 0.015192390997154031
1200.0, 0.013371596071728071
1201.0, 0.013186076058475835
1202.0, 0.004679996482257752
1203.0, 0.0024034584494757464
1204.0, 0.0012247798911819235
1205.0, 0.0077017076683792
1206.0, 0.007973875543837362
1207.0, 0.009049287132138917
1208.0, 0.017217925319861455
1209.0, 0.02193801927798687
1210.0, 0.022057467656183875
1211.0, 0.015667647030315583
1212.0, 0.011820716567122469
1213.0, 0.015431576386129197
1214.0, 0.018788514970454893
1215.0, 0.0033397847650622333
1216.0, 0.01789867338712905
1217.0, 0.013959520719474797
1218.0, 0.027509647254539808
1219.0, 0.01583299315684194
1220.0, 0.008855997921294894
1221.0, 0.011859886416987616
1222.0, 0.013657426708433318
1223.0, 0.013726989480760402
1224.0, 0.020945163139469487
1225.0, 0.01428162481842032
1226.0, 0.01574978640564857
1227.0, 0.015389381320823153
1228.0, 0.010311725706699594
1229.0, 0.011077753384464038
1230.0, 0.008568375416959928
1231.0, 0.012445723984485953
1232.0, 0.017815566227270888
1233.0, 0.002167525020998814
1234.0, 0.012151148147564508
1235.0, 0.01156119433190897
1236.0, 0.006344683082033731
1237.0, 0.01838119453456178
1238.0, 0.01614984476304271
1239.0, 0.006019572037367362
1240.0, 0.011420299063778998
1241.0, 0.0036850592112450263
1242.0, 0.014765850690497673
1243.0, 0.011301547789112482
1244.0, 0.01302771787194609
1245.0, 0.011684395658357494
1246.0, 0.0014106896937485186
1247.0, 0.009070580153208496
1248.0, 0.01796497957334266
1249.0, 0.012942478196367898
1250.0, 0.009933283499265045
1251.0, 0.004548525348424599
1252.0, 0.010478631128579627
1253.0, 0.013104355530229617
1254.0, 0.006715565425980667
1255.0, 0.013243802095453672
1256.0, 0.017663041043211064
1257.0, 0.023176971961315622
1258.0, 0.01618486616638504
1259.0, 0.003571041887570309
1260.0, 0.018543920518989523
1261.0, 0.008507529754884627
1262.0, 0.012121937476154013
1263.0, 0.035789601099362814
1264.0, 0.043866159292077635
1265.0, 0.01596610724243379
1266.0, 0.01019382257679016
1267.0, 0.005786130857770163
1268.0, 0.0019909692286620663
1269.0, 0.007170540692174893
1270.0, 0.006196618445054147
1271.0, 0.011609803222444816
1272.0, 0.00802556633786506
1273.0, 0.003856401210311137
1274.0, 0.00412130996397221
1275.0, 0.005082369678623993
1276.0, 0.01187859377846961
1277.0, 0.005235595336008345
1278.0, 0.010872602921364168
1279.0, 0.009211786744160273
1280.0, 0.0004947599588436317
1281.0, 0.0026483758632631143
1282.0, 0.0030363406482420826
1283.0, 0.003831591876763807
1284, 0.0
1285, 0.0
1286, 0.0
1287, 0.0
1288, 0.0
1289, 0.0
1290, 0.0
1291, 0.0
1292, 0.0
1293, 0.0
1294, 0.0
1295, 0.0
1296, 0.0
1297, 0.0
1298, 0.0
1299, 0.0
1300, 0.0
1301, 0.0
1302, 0.0
1303, 0.0
1304, 0.0
1305, 0.0
1306, 0.0
1307, 0.0
1308, 0.0
1309, 0.0
1310, 0.0
1311, 0.0
1312, 0.0
1313, 0.0
1314, 0.0
1315, 0.0
1316, 0.0
1317, 0.0
1318, 0.0
1319, 0.0
1320, 0.0
1321, 0.0
1322, 0.0
1323, 0.0
1324, 0.0
1325, 0.0
1326, 0.0
1327, 0.0
1328, 0.0
1329, 0.0
1330, 0.0
1331, 0.0
1332, 0.0
1333, 0.0
1334, 0.0
1335, 0.0
1336, 0.0
1337, 0.0
1338, 0.0
1339, 0.0
1340, 0.0
1341, 0.0
1342, 0.0
1343, 0.0
1344, 0.0
1345, 0.0
1346, 0.0
1347, 0.0
1348, 0.0
1349, 0.0
1350, 0.0
1351, 0.0
1352, 0.0
1353, 0.0
1354, 0.0
1355, 0.0
1356, 0.0
1357, 0.0
1358, 0.0
1359, 0.0
1360, 0.0
1361, 0.0
1362, 0.0
1363, 0.0
1364, 0.0
1365, 0.0
1366, 0.0
1367, 0.0
1368, 0.0
1369, 0.0
1370, 0.0
1371, 0.0
1372, 0.0
1373, 0.0
1374, 0.0
1375, 0.0
1376, 0.0
1377, 0.0
1378, 0.0
1379, 0.0
1380, 0.0
1381, 0.0
1382, 0.0
1383, 0.0
1384, 0.0
1385, 0.0
1386, 0.0
1387, 0.0
1388, 0.0
1389, 0.0
1390, 0.0
1391, 0.0
1392, 0.0
1393, 0.0
1394, 0.0
1395, 0.0
1396, 0.0
1397, 0.0
1398, 0.0
1399, 0.0
1400, 0.0
1401, 0.0
1402, 0.0
1403, 0.0
1404, 0.0
1405, 0.0
1406, 0.0
1407, 0.0
1408, 0.0
1409, 0.0
1410, 0.0
1411, 0.0
1412, 0.0
1413, 0.0
1414, 0.0
1415, 0.0
1416, 0.0
1417, 0.0
1418, 0.0
1419, 0.0
1420, 0.0
1421, 0.0
1422, 0.0
1423, 0.0
1424, 0.0
1425, 0.0
1426, 0.0
1427, 0.0
1428, 0.0
1429, 0.0
1430, 0.0
1431, 0.0
1432, 0.0
1433, 0.0
1434, 0.0
1435, 0.0
1436, 0.0
1437, 0.0
1438, 0.0
1439, 0.0
1440, 0.0
1441, 0.0
1442, 0.0
1443, 0.0
1444, 0.0
1445, 0.0
1446, 0.0
1447, 0.0
1448, 0.0
1449, 0.0
1450, 0.0
1451, 0.0
1452, 0.0
1453, 0.0
1454, 0.0
1455, 0.0
1456, 0.0
1457, 0.0
1458, 0.0
1459, 0.0
1460, 0.0
1461, 0.0
1462, 0.0
1463, 0.0
1464, 0.0
1465, 0.0
1466, 0.0
1467, 0.0
1468, 0.0
1469, 0.0
1470, 0.0
1471, 0.0
1472, 0.0
1473, 0.0
1474, 0.0
1475, 0.0
1476, 0.0
1477, 0.0
1478, 0.0
1479, 0.0
1480, 0.0
1481, 0.0
1482, 0.0
1483, 0.0
1484, 0.0
1485, 0.0
1486, 0.0
1487, 0.0
1488, 0.0
1489, 0.0
1490, 0.0
1491, 0.0
1492, 0.0
1493, 0.0
1494, 0.0
1495, 0.0
1496, 0.0
1497, 0.0
1498, 0.0
1499, 0.0
1500, 0.0
1501, 0.0
1502, 0.0
1503, 0.0
1504, 0.0
1505, 0.0
1506, 0.0
1507, 0.0
1508, 0.0
1509, 0.0
1510, 0.0
1511, 0.0
1512, 0.0
1513, 0.0
1514, 0.0
1515, 0.0
1516, 0.0
1517, 0.0
1518, 0.0
1519, 0.0
1520, 0.0
1521, 0.0
1522, 0.0
1523, 0.0
1524, 0.0
1525, 0.0
1526, 0.0
1527, 0.0
1528, 0.0
1529, 0.0
1530, 0.0
1531, 0.0
1532, 0.0
1533, 0.0
1534, 0.0
1535, 0.0
1536, 0.0
1537, 0.0
1538, 0.0
1539, 0.0
1540, 0.0
1541, 0.0
1542, 0.0
1543, 0.0
1544, 0.0
1545, 0.0
1546, 0.0
1547, 0.0
1548, 0.0
1549, 0.0
1550, 0.0
1551, 0.0
1552, 0.0
1553, 0.0
1554, 0.0
1555, 0.0
1556, 0.0
1557, 0.0
1558, 0.0
1559, 0.0
1560, 0.0
1561, 0.0
1562, 0.0
1563, 0.0
1564, 0.0
1565, 0.0
1566, 0.0
1567, 0.0
1568, 0.0
1569, 0.0
1570, 0.0
1571, 0.0
1572, 0.0
1573, 0.0
1574, 0.0
1575, 0.0
1576, 0.0
1577, 0.0
1578, 0.0
1579, 0.0
1580, 0.0
1581, 0.0
1582, 0.0
1583, 0.0
1584, 0.0
1585, 0.0
1586, 0.0
1587, 0.0
1588, 0.0
1589, 0.0
1590, 0.0
1591, 0.0
1592, 0.0
1593, 0.0
1594, 0.0
1595, 0.0
1596, 0.0
1597, 0.0
1598, 0.0
1599, 0.0
