30, 0.0
31, 0.0
32, 0.0
33, 0.0
34, 0.0
35, 0.0
36, 0.0
37, 0.0
38, 0.0
39, 0.0
40, 0.0
41, 0.0
42, 0.0
43, 0.0
44, 0.0
45, 0.0
46, 0.0
47, 0.0
48, 0.0
49, 0.0
50, 0.0
51, 0.0
52, 0.0
53, 0.0
54, 0.0
55, 0.0
56, 0.0
57, 0.0
58, 0.0
59, 0.0
60, 0.0
61, 0.0
62, 0.0
63, 0.0
64, 0.0
65, 0.0
66, 0.0
67, 0.0
68, 0.0
69, 0.0
70, 0.0
71, 0.0
72, 0.0
73, 0.0
74, 0.0
75, 0.0
76, 0.0
77, 0.0
78, 0.0
79, 0.0
80, 0.0
81, 0.0
82, 0.0
83, 0.0
84, 0.0
85, 0.0
86, 0.0
87, 0.0
88, 0.0
89, 0.0
90, 0.0
91, 0.0
92, 0.0
93, 0.0
94, 0.0
95, 0.0
96, 0.0
97, 0.0
98, 0.0
99, 0.0
100, 0.0
101, 0.0
102, 0.0
103, 0.0
104, 0.0
105, 0.0
106, 0.0
107, 0.0
108, 0.0
109, 0.0
110, 0.0
111, 0.0
112, 0.0
113, 0.0
114, 0.0
115, 0.0
116, 0.0
117, 0.0
118, 0.0
119, 0.0
120, 0.0
121, 0.0
122, 0.0
123, 0.0
124, 0.0
125, 0.0
126, 0.0
127, 0.0
128, 0.0
129, 0.0
130, 0.0
131, 0.0
132, 0.0
133, 0.0
134, 0.0
135, 0.0
136, 0.0
137, 0.0
138, 0.0
139, 0.0
140, 0.0
141.0, 0.0014441743071467675
142.0, 0.00035428450755646844
143.0, 0.0009121851712321812
144.0, 0.000910067040794612
145.0, 0.0003495416740968929
146.0, 0.00019753562386816133
147.0, 0.002970673143511477
148.0, 0.012178251927924037
149.0, 0.015618004818124765
150.0, 0.01799014679717352
151.0, 0.022736707879006633
152.0, 0.02967218570970492
153.0, 0.0335260261776861
154.0, 0.03608809491215122
155.0, 0.03886338430946802
156.0, 0.042496463102894184
157.0, 0.04710606136255397
158.0, 0.05006416195877236
159.0, 0.05161355256598259
160.0, 0.052946786862712134
161.0, 0.05567874857857199
162.0, 0.06240730940717015
163.0, 0.06804866163045606
164.0, 0.07142593583940554
165.0, 0.07251339899732287
166.0, 0.07069700473803028
167.0, 0.07182570717746398
168.0, 0.07152729818936879
169.0, 0.06995706774585934
170.0, 0.07203556812501477
171.0, 0.06478687000735973
172.0, 0.059070518598704005
173.0, 0.058214076890567845
174.0, 0.05942196242605643
175.0, 0.0589286372228219
176.0, 0.057216701684280315
177.0, 0.055077389642579695
178.0, 0.05465826018307973
179.0, 0.059368379584865565
180.0, 0.0651875809250263
181.0, 0.06559000429634268
182.0, 0.06238535119469731
183.0, 0.06361991685486287
184.0, 0.07176627052429448
185.0, 0.08006802750215747
186.0, 0.08732457629722651
187.0, 0.09474518813751466
188.0, 0.10440150591155696
189.0, 0.10731949141358779
190.0, 0.10809792473772607
191.0, 0.11212912258269564
192.0, 0.11852003667163265
193.0, 0.1211978352411544
194.0, 0.1241802462453446
195.0, 0.12647198565368123
196.0, 0.12500545698650772
197.0, 0.12559022968592598
198.0, 0.12321536587479673
199.0, 0.11947355586503515
200.0, 0.11543542701690514
201.0, 0.10706502684686174
202.0, 0.10245139457106706
203.0, 0.09932425637222524
204.0, 0.09487952017243496
205.0, 0.08877489487878647
206.0, 0.0841440878865017
207.0, 0.08071236793874138
208.0, 0.07848705991739129
209.0, 0.07666137744688283
210.0, 0.07142549148234954
211.0, 0.07272485619955112
212.0, 0.07236796047025143
213.0, 0.07126939287007587
214.0, 0.07846519074573055
215.0, 0.07704985808990852
216.0, 0.07713269316353256
217.0, 0.07780901898045592
218.0, 0.07343452258974577
219.0, 0.0639891223792779
220.0, 0.054388968102835666
221.0, 0.04553867904919007
222.0, 0.03596902076332788
223.0, 0.023286198252637336
224.0, 0.017606935249389905
225.0, 0.009071707626439607
226.0, 0.001044882409727864
227.0, 0.005627758328096976
228.0, 0.006658938619147837
229.0, 0.005953047279455857
230.0, 0.0069789056791407416
231.0, 0.009264116218936098
232.0, 0.008742445902602012
233.0, 0.00527824339298541
234.0, 0.0003702381339115645
235.0, 0.006756500097806963
236.0, 0.016786795948260214
237.0, 0.02761087734774461
238.0, 0.04171338880035681
239.0, 0.05983837730849896
240.0, 0.08099303799101981
241.0, 0.10377310820611371
242.0, 0.13370843335267568
243.0, 0.1654449550212119
244.0, 0.1987349364303269
245.0, 0.23351148846896455
246.0, 0.26456020588669427
247.0, 0.3031905662982491
248.0, 0.34567068611660257
249.0, 0.38696712350945156
250.0, 0.424301839432539
251.0, 0.4713786149945485
252.0, 0.518068207185545
253.0, 0.5642563557702932
254.0, 0.6143171965006532
255.0, 0.6745622334787587
256.0, 0.7311549214588291
257.0, 0.7903090983497586
258.0, 0.8524879584385261
259.0, 0.9103526495663028
260.0, 0.9571887412322166
261.0, 0.9904261703096653
262.0, 0.9999908254467721
263.0, 0.9806701990164248
264.0, 0.9354202302885436
265.0, 0.8766682229398867
266.0, 0.8023439424297215
267.0, 0.717864346261139
268.0, 0.6328126235496613
269.0, 0.5555529421362837
270.0, 0.4882141311358659
271.0, 0.4284411504239987
272.0, 0.3717177932976749
273.0, 0.3168533382401618
274.0, 0.2769213519083877
275.0, 0.23919132198340357
276.0, 0.20573598051609235
277.0, 0.18017632884023058
278.0, 0.15692590848897953
279.0, 0.13708395866257486
280.0, 0.11963368022554134
281.0, 0.10496693504056244
282.0, 0.09320300218518038
283.0, 0.08155872389761902
284.0, 0.07219063477265425
285.0, 0.06259450292166413
286.0, 0.05425120075440585
287.0, 0.051211174636409174
288.0, 0.0448609568979681
289.0, 0.036730812038386594
290.0, 0.030536193247631453
291.0, 0.027010415608106735
292.0, 0.022137047465514363
293.0, 0.025264898969798222
294.0, 0.02283994158370374
295.0, 0.016469504331993425
296.0, 0.016154222287237237
297.0, 0.015427866331446036
298.0, 0.015948010875576266
299.0, 0.016114992728126304
300.0, 0.016302091321421876
301.0, 0.018174385649956354
302.0, 0.01506374821487818
303.0, 0.015508670432105203
304.0, 0.017114370670099938
305.0, 0.016328586280025655
306.0, 0.015157079907534027
307.0, 0.01964981587298452
308.0, 0.01991646409515406
309.0, 0.018370385409057503
310.0, 0.020324762678355802
311.0, 0.018856107140880894
312.0, 0.019783338393694005
313.0, 0.01945597536745613
314.0, 0.017618643993320082
315.0, 0.017415576827141593
316.0, 0.018655723471000186
317.0, 0.013715677372011311
318.0, 0.014343534439477253
319.0, 0.02038500285976335
320.0, 0.016696886933800247
321.0, 0.014073696862724866
322.0, 0.014442026768144189
323.0, 0.013354381450169369
324.0, 0.008568888590257435
325.0, 0.005585941654303426
326.0, 0.006589991354114239
327.0, 0.0031047896378563872
328.0, 0.00014897325402367378
329.0, 0.002715557684726498
330.0, 0.0010691734898230045
331.0, 0.0017744770939030845
332.0, 0.0031613245447853185
333.0, 0.005567478569515478
334.0, 0.006221446089102469
335.0, 0.0041320161361966794
336.0, 0.003981992659994126
337.0, 0.005100234888227468
338.0, 0.006262978781318081
339.0, 0.007123029507212071
340.0, 0.005556458818445525
341.0, 0.004435023598447327
342.0, 0.0038812399596551694
343.0, 0.002866843373645384
344.0, 0.0010189366476972264
345.0, 0.003103033260896769
346.0, 0.0015235942765772185
347.0, 0.00300889811829768
348.0, 0.005949381314588875
349.0, 0.00782793548880671
350.0, 0.012963474288732721
351.0, 0.01620903075988246
352.0, 0.018186995017032435
353.0, 0.02270610039143839
354.0, 0.029744133497360714
355.0, 0.03484984206646279
356.0, 0.0388101440819874
357.0, 0.04319653226754318
358.0, 0.04834411158206627
359.0, 0.05224858820994393
360.0, 0.0551662807107426
361.0, 0.06027625869066528
362.0, 0.0677216016510327
363.0, 0.07441619743174574
364.0, 0.07517855902153188
365.0, 0.0817019272154571
366.0, 0.08956174379772816
367.0, 0.09405549593507637
368.0, 0.0961994270543967
369.0, 0.10445781262692276
370.0, 0.11241028512181366
371.0, 0.11769312078945147
372.0, 0.12119631019179462
373.0, 0.1254184948916709
374.0, 0.13147273382483798
375.0, 0.13834851978485077
376.0, 0.14424761968352515
377.0, 0.14964751800392567
378.0, 0.15685513092300846
379.0, 0.16011362663887316
380.0, 0.16683955658045121
381.0, 0.17131618814509422
382.0, 0.17253774315877912
383.0, 0.18031756464495777
384.0, 0.18543248039333116
385.0, 0.1925103576220379
386.0, 0.20170436933808614
387.0, 0.21087786510062737
388.0, 0.21663697142985117
389.0, 0.22202639345643377
390.0, 0.2313224471864789
391.0, 0.24364935826934758
392.0, 0.25593504474044027
393.0, 0.26640559827676263
394.0, 0.2785848662720769
395.0, 0.2932792524601379
396.0, 0.30679538904928344
397.0, 0.31828329817934475
398.0, 0.3331534792205992
399.0, 0.3406659867905487
400.0, 0.36196872121397566
401.0, 0.3808533094841471
402.0, 0.3869334977305541
403.0, 0.403009516898488
404.0, 0.4184170731540859
405.0, 0.4256293554895675
406.0, 0.4278259469272778
407.0, 0.4328511849607153
408.0, 0.44458587366988006
409.0, 0.44532045410607474
410.0, 0.44669207737715727
411.0, 0.4456219973239225
412.0, 0.43701887084242463
413.0, 0.4262610951045675
414.0, 0.4142092286688139
415.0, 0.4025816851988486
416.0, 0.39012412403088526
417.0, 0.37559543579299787
418.0, 0.3596561025067859
419.0, 0.3424217286391826
420.0, 0.3276142075230863
421.0, 0.30836682390469194
422.0, 0.28583299601344314
423.0, 0.27142303511241694
424.0, 0.25486949450639956
425.0, 0.24410632060258172
426.0, 0.23070525083768942
427.0, 0.213453763337985
428.0, 0.20232720859639533
429.0, 0.18989485159126046
430.0, 0.17714596230496035
431.0, 0.16568266284250893
432.0, 0.15479114139612696
433.0, 0.14280236214495182
434.0, 0.13333553258402342
435.0, 0.12243513201103481
436.0, 0.11207370834759117
437.0, 0.10303323392074484
438.0, 0.09374219004572437
439.0, 0.08356677266487836
440.0, 0.07806135869737234
441.0, 0.06982688442998645
442.0, 0.060561111773501916
443.0, 0.055897226195223824
444.0, 0.04908244070065108
445.0, 0.04548697600102749
446.0, 0.04125204070924585
447.0, 0.035395906519253756
448.0, 0.030718132634147115
449.0, 0.028668493904163442
450.0, 0.022346578309084077
451.0, 0.019142860770151274
452.0, 0.019048971026814715
453.0, 0.018486954336936857
454.0, 0.01596690474968959
455.0, 0.016561596798730545
456.0, 0.015207607635424924
457.0, 0.014899792666627772
458.0, 0.016504945405197365
459.0, 0.013246614031938957
460.0, 0.013494791757212472
461.0, 0.015540505724674431
462.0, 0.01757410150445428
463.0, 0.01863044364860719
464.0, 0.01863766779821397
465.0, 0.02027244042047984
466.0, 0.018788675085066688
467.0, 0.019872175392307755
468.0, 0.02174901240089092
469.0, 0.018601291205003454
470.0, 0.01778760816348987
471.0, 0.01997788413365811
472.0, 0.020385088622169784
473.0, 0.019770237321299705
474.0, 0.021059422576382218
475.0, 0.021694550234924344
476.0, 0.022040408384072504
477.0, 0.02169067690336865
478.0, 0.019912390569960775
479.0, 0.017407100011442956
480.0, 0.017057244316313634
481.0, 0.019567730758479767
482.0, 0.01957188169654092
483.0, 0.017264437372001663
484.0, 0.014736315913638795
485.0, 0.013061216248703524
486.0, 0.011872624369879983
487.0, 0.011226032435953128
488.0, 0.011270592205609416
489.0, 0.013093290811806647
490.0, 0.01585905363079705
491.0, 0.012485757719700868
492.0, 0.008129295342284586
493.0, 0.006498088078283607
494.0, 0.006971114282804539
495.0, 0.007016822241801734
496.0, 0.005110591840328739
497.0, 0.006356098149168556
498.0, 0.005331595433598534
499.0, 0.0012921154877210818
500.0, 0.0007685655237372926
501.0, 0.003055321034487759
502.0, 0.0015563522480639246
503.0, 0.003509740164882785
504.0, 0.0004769018012869481
505.0, 0.0005904993742490533
506.0, 0.005486932482079604
507.0, 0.0008080837454414323
508.0, 0.0021112535752671946
509.0, 0.004321734763466622
510.0, 0.0038074907614487814
511.0, 0.0023366133730235708
512.0, 0.004312181972202986
513.0, 0.00472157020054639
514.0, 0.0026914419795961604
515.0, 0.004295909400674237
516.0, 0.007114692551731701
517.0, 0.004436555470819681
518.0, 0.0015385982290052362
519.0, 0.0007347299687852149
520.0, 0.0002715914083855012
521.0, 8.645097516947208e-05
522.0, 0.00040721763772247224
523.0, 0.0037329311280033446
524.0, 0.0012891700641867328
525.0, 0.0008385098646874037
526.0, 0.0031565544561339386
527.0, 0.005483930460473242
528.0, 0.006550221666652573
529.0, 0.005837659314047714
530.0, 0.007285044697741684
531.0, 0.009885374300125305
532.0, 0.010987113550569047
533.0, 0.010544242148988291
534.0, 0.013193932137462401
535.0, 0.013461120706372785
536.0, 0.011264706589314881
537.0, 0.0114404499430377
538.0, 0.014369986164917702
539.0, 0.013620822442158202
540.0, 0.009661303629611062
541.0, 0.013871890880207077
542.0, 0.015370499287457512
543.0, 0.013242372249626877
544.0, 0.013792916849360104
545.0, 0.014872231760100005
546.0, 0.014162006297125048
547.0, 0.0104972757335121
548.0, 0.01025284352514565
549.0, 0.013920833141347972
550.0, 0.015830262348479854
551.0, 0.018706774917904772
552.0, 0.017073630812319076
553.0, 0.0158869266776932
554.0, 0.015762219110545077
555.0, 0.01584918675461355
556.0, 0.01840856376300889
557.0, 0.015892747511701572
558.0, 0.015622161511826202
559.0, 0.0158983291858101
560.0, 0.01652823976225465
561.0, 0.01923657714519461
562.0, 0.014980405006896333
563.0, 0.01417591519683873
564.0, 0.013229834974732083
565.0, 0.013726950536138104
566.0, 0.014760695955343642
567.0, 0.011844728775582224
568.0, 0.011779712222031329
569.0, 0.008849975034208401
570.0, 0.00801004790054331
571.0, 0.007766447363740165
572.0, 0.005199072704164901
573.0, 0.007228403767205053
574.0, 0.005279169361058975
575.0, 0.0017797971202283267
576.0, 0.0003721054698815307
577.0, 0.003949459572393468
578.0, 0.003515231269629287
579.0, 0.0018035329304486147
580.0, 0.0009419852107021369
581.0, 0.0007515948058276533
582.0, 0.0003791611008635681
583.0, 0.0009321833769037276
584.0, 0.0005494150101350623
585.0, 0.0006225413393803587
586.0, 0.0015851036813115977
587.0, 0.0013458917494599586
588.0, 0.0022437243230201995
589.0, 0.0061458168112298135
590.0, 0.00733963028293757
591.0, 0.007560038527435098
592.0, 0.006928530809449702
593.0, 0.008118816511770476
594.0, 0.010835362289146288
595.0, 0.01207190715677953
596.0, 0.012605015312306412
597.0, 0.016764112586069788
598.0, 0.020200101494311822
599.0, 0.02290736163417819
600.0, 0.024412573079923693
601.0, 0.022631764450297624
602.0, 0.025549695051368667
603.0, 0.026987392698191295
604.0, 0.03119731052966187
605.0, 0.03565763339891077
606.0, 0.03613845202898509
607.0, 0.03434559813520449
608.0, 0.039235920090366624
609.0, 0.04629602595223778
610.0, 0.04765030643777692
611.0, 0.04641327741012877
612.0, 0.04882687282474409
613.0, 0.055238149554556894
614.0, 0.05627020793038661
615.0, 0.05500569496629576
616.0, 0.05686608725478917
617.0, 0.059880401501237225
618.0, 0.061378718899933606
619.0, 0.06732272736047153
620.0, 0.06911224170483798
621.0, 0.0673187138261861
622.0, 0.06821495231453895
623.0, 0.07158392058118383
624.0, 0.07269821854925929
625.0, 0.07022190448004607
626.0, 0.07065224819567674
627.0, 0.07364406357696378
628.0, 0.07326596199344615
629.0, 0.07123626031825768
630.0, 0.07286783109913172
631.0, 0.07128999960647175
632.0, 0.07289935140747279
633.0, 0.07006429966432375
634.0, 0.06701592780507123
635.0, 0.06600024812163466
636.0, 0.06351088690937323
637.0, 0.06243515273061499
638.0, 0.0605400538356845
639.0, 0.05589396566618811
640.0, 0.050609941005218484
641.0, 0.047757106938564504
642.0, 0.04788426988059262
643.0, 0.0447701335283743
644.0, 0.038904157957745274
645.0, 0.03560805441591122
646.0, 0.031036421196039186
647.0, 0.02658416352484522
648.0, 0.02761087355971283
649.0, 0.02251807526207818
650.0, 0.020782763836248202
651.0, 0.018579771626968177
652.0, 0.016377503039950374
653.0, 0.0130576689935411
654.0, 0.00715255937458834
655.0, 0.008679013985931053
656.0, 0.005443786664848888
657.0, 0.0017791072359140772
658.0, 0.00045835262499491057
659.0, 0.0004388810230054053
660.0, 0.0022118134548747698
661.0, 0.0044441616308349965
662.0, 0.0035662695302111544
663.0, 0.005719330527670848
664.0, 0.005021418232169812
665.0, 0.00197151660873737
666.0, 0.002457833017965503
667.0, 0.0018537730068502144
668.0, 0.0021387003798090352
669.0, 0.005296928071227599
670.0, 0.006139693378820912
671.0, 0.008143676799321098
672.0, 0.013742250218630882
673.0, 0.01656019019903249
674.0, 0.021788723734726376
675.0, 0.0274227954619663
676.0, 0.034507982820487476
677.0, 0.04288199716543184
678.0, 0.05176469672164177
679.0, 0.062351448932185013
680.0, 0.07699567969749058
681.0, 0.09439846501742805
682.0, 0.10998876041531339
683.0, 0.12553882708137215
684.0, 0.14350143018969733
685.0, 0.16261585290101896
686.0, 0.18998072076304798
687.0, 0.21614558422949323
688.0, 0.24753024470925541
689.0, 0.2792088626148308
690.0, 0.307295015168979
691.0, 0.33714015019565596
692.0, 0.3680367785789748
693.0, 0.40395855502536837
694.0, 0.44069010661605246
695.0, 0.47154425678494194
696.0, 0.49623421772780846
697.0, 0.5198509128737271
698.0, 0.5446708085743752
699.0, 0.5648195948873639
700.0, 0.5817923737133357
701.0, 0.5823397681240198
702.0, 0.5692459366358001
703.0, 0.5520162447954301
704.0, 0.5225521642428136
705.0, 0.48969635439745685
706.0, 0.4480217214757165
707.0, 0.40925022631632224
708.0, 0.3656865416232517
709.0, 0.3138868670488613
710.0, 0.273574282129723
711.0, 0.23819464924989006
712.0, 0.206513964607839
713.0, 0.17750804644225385
714.0, 0.1516905262760778
715.0, 0.1288724937330339
716.0, 0.10851544624430869
717.0, 0.09242413831710358
718.0, 0.08225439851404981
719.0, 0.07042682551891855
720.0, 0.061655971573844115
721.0, 0.05551029726862691
722.0, 0.047198235508993665
723.0, 0.04039788238567994
724.0, 0.03594747983678937
725.0, 0.03302260269917785
726.0, 0.03067845279606655
727.0, 0.030975794473711526
728.0, 0.032221880067526375
729.0, 0.031429049328224934
730.0, 0.03646692744066273
731.0, 0.037389487336795896
732.0, 0.039341526710023694
733.0, 0.043389373386053094
734.0, 0.04698838061432195
735.0, 0.049433416012415694
736.0, 0.054054163192745426
737.0, 0.062480673871741735
738.0, 0.06844985094796675
739.0, 0.07383970238593764
740.0, 0.07956392077147101
741.0, 0.084209537345717
742.0, 0.08775685612274382
743.0, 0.0937762884531213
744.0, 0.10096369267097205
745.0, 0.10000599721877676
746.0, 0.10107405531900636
747.0, 0.10654966262946046
748.0, 0.10881057739524384
749.0, 0.10693024923064383
750.0, 0.11014452499933133
751.0, 0.10960949489664257
752.0, 0.10805623865067024
753.0, 0.10352971930363322
754.0, 0.09595400191193185
755.0, 0.09080408013747904
756.0, 0.08800548847893863
757.0, 0.08418243197812807
758.0, 0.07992335485219516
759.0, 0.07560775733472219
760.0, 0.07160424756410023
761.0, 0.06595204271512355
762.0, 0.05570743771641974
763.0, 0.05110249587171599
764.0, 0.04545945093631308
765.0, 0.0403212467271726
766.0, 0.03608089173416271
767.0, 0.030948499763714884
768.0, 0.025171846240558963
769.0, 0.02237341709375717
770.0, 0.015761481220171927
771.0, 0.014235617450683614
772.0, 0.011444944802209782
773.0, 0.007296174984312905
774.0, 0.004332711323707353
775.0, 0.0018700327924089499
776.0, 0.0016128218945663149
777.0, 0.0007620221072678578
778.0, 0.004862676658435856
779.0, 0.003038440702576311
780.0, 0.0007445455946579778
781.0, 0.0019623112940712344
782.0, 0.0006119057510339025
783.0, 0.0019536557467529476
784.0, 0.0011933698793278776
785.0, 0.0018827084799857973
786.0, 0.002653806386115337
787.0, 0.003125222941899654
788.0, 0.0014416214114984492
789.0, 0.00044857368282210004
790.0, 0.000362385654066458
791.0, 0.0033640517828780053
792.0, 0.003933027897596035
793.0, 0.003995970389142528
794.0, 0.0038370808145434952
795.0, 0.0029333272938923943
796.0, 0.005636888586549349
797.0, 0.005224803668190944
798.0, 0.005370163813894934
799.0, 0.0067615402448535505
800.0, 0.007185645355395635
801.0, 0.0073273002251974684
802.0, 0.007803068758327784
803.0, 0.0044309424162629315
804.0, 0.004576719125887667
805.0, 0.0029827891867294674
806.0, 0.0031171414572057606
807.0, 0.004118306463324809
808.0, 0.005089230583899335
809.0, 0.006009540821310838
810.0, 0.004890573203656425
811.0, 0.0057996313673567765
812.0, 0.006457363741325981
813.0, 0.0055228509682908955
814.0, 0.006742409165032793
815.0, 0.008308444967940094
816.0, 0.007398721876446931
817.0, 0.010685402259985292
818.0, 0.010692498711210762
819.0, 0.007763716605639088
820.0, 0.008834839633572797
821.0, 0.010860380294625218
822.0, 0.012351610524980499
823.0, 0.01408963914402793
824.0, 0.012172623246595451
825.0, 0.01306257868418937
826.0, 0.014241691129052853
827.0, 0.014130752335759765
828.0, 0.013655883523529
829.0, 0.012552650460396688
830.0, 0.010850978129228854
831.0, 0.010614350877741485
832.0, 0.008077067764889199
833.0, 0.009065366718868728
834.0, 0.007943315217451159
835.0, 0.005621120450790828
836.0, 0.00337019945527405
837.0, 0.0023894998627135284
838.0, 0.003251088452430684
839.0, 0.000594682760334298
840.0, 0.0020726979786750317
841.0, 0.001318902421484698
842.0, 0.0020789123020566527
843.0, 0.0015058854790986355
844.0, 0.0026555674223113354
845.0, 0.003398782461324968
846.0, 0.002486422357332332
847.0, 0.00037894802651197105
848.0, 0.0014269947487471
849.0, 0.0020608164246056987
850.0, 0.0007228633306842823
851.0, 0.000787510194261147
852.0, 0.002333537416713848
853.0, 0.0017339304739969017
854.0, 0.00042071539162377383
855.0, 0.0004418602645616342
856.0, 0.00047286403442825975
857.0, 3.2045415894768015e-05
858.0, 0.0013436044971397087
859.0, 0.0048817515608950085
860.0, 0.005490657861822354
861.0, 0.006204571882029939
862.0, 0.006710738919083543
863.0, 0.005713512732796992
864.0, 0.00819206559013171
865.0, 0.00973766853281589
866.0, 0.007828104132981371
867.0, 0.009500265821038715
868.0, 0.012717045915726647
869.0, 0.013272544995158009
870.0, 0.013301692682393566
871.0, 0.015169828015367374
872.0, 0.016412117835372532
873.0, 0.015888546951709492
874.0, 0.01648025303806423
875.0, 0.01950577910273839
876.0, 0.017965755321619942
877.0, 0.01820670204106995
878.0, 0.020542819614217944
879.0, 0.023207705748496028
880.0, 0.024832779098585677
881.0, 0.023753770470335347
882.0, 0.020780388902593566
883.0, 0.023381548913863442
884.0, 0.02931476109372556
885.0, 0.03213656152409722
886.0, 0.033040999349090036
887.0, 0.035240845171442256
888.0, 0.03843572613613459
889.0, 0.0401438554381091
890.0, 0.041716600121752614
891.0, 0.0469894480364144
892.0, 0.051309925379277095
893.0, 0.053164366722945194
894.0, 0.05630587961088087
895.0, 0.0604611608981499
896.0, 0.06551589335747052
897.0, 0.07160225697545464
898.0, 0.0717208321931582
899.0, 0.0807767408913117
900.0, 0.08366885427111644
901.0, 0.08776537453932502
902.0, 0.08970166262435418
903.0, 0.09253260058602811
904.0, 0.09922716808703223
905.0, 0.10067264563228326
906.0, 0.10014859365434642
907.0, 0.09797067581833736
908.0, 0.1017715667963287
909.0, 0.10344557741035328
910.0, 0.1033562986682973
911.0, 0.1035105085032875
912.0, 0.10232495464934173
913.0, 0.09886879232061073
914.0, 0.09612695682441325
915.0, 0.09525585625854754
916.0, 0.08925446025968004
917.0, 0.08526681921436566
918.0, 0.0817642387754239
919.0, 0.07806941103372406
920.0, 0.07164669362058704
921.0, 0.06616798454855681
922.0, 0.06073351992964432
923.0, 0.056754663634708304
924.0, 0.051722473828769974
925.0, 0.04750054753786045
926.0, 0.04453344573820165
927.0, 0.040317293950867146
928.0, 0.03698576668874464
929.0, 0.036870845352988825
930.0, 0.033041700092096844
931.0, 0.02624308082111783
932.0, 0.02336807731615642
933.0, 0.02280940919186082
934.0, 0.0226699821958064
935.0, 0.02248365160211376
936.0, 0.022685701129857683
937.0, 0.02443976958377122
938.0, 0.023462580128324015
939.0, 0.020710296528786188
940.0, 0.021304878480056626
941.0, 0.02470889916978996
942.0, 0.025399445945984547
943.0, 0.02386907265489347
944.0, 0.027232801035786132
945.0, 0.03373517008683288
946.0, 0.029635460023954084
947.0, 0.03368722658736595
948.0, 0.035964776785458834
949.0, 0.03617057300264162
950.0, 0.03571283339248078
951.0, 0.03667126479774977
952.0, 0.039371602587805435
953.0, 0.039854537681355634
954.0, 0.038418325734484615
955.0, 0.03741571096275687
956.0, 0.037168316450888444
957.0, 0.03636160201417132
958.0, 0.03544205901751949
959.0, 0.03347638640823589
960.0, 0.029989277943007816
961.0, 0.027229063206457484
962.0, 0.025853365446231322
963.0, 0.022256762803180043
964.0, 0.021941932058808043
965.0, 0.020512205414553918
966.0, 0.017420896737006742
967.0, 0.015324368537988943
968.0, 0.01305367340151508
969.0, 0.00934614581122955
970.0, 0.009856937857167214
971.0, 0.007081566095498593
972.0, 0.008662722232003216
973.0, 0.006161189848580952
974.0, 0.004199362484469338
975.0, 0.00462892466835487
976.0, 0.002604244824360862
977.0, 0.0012441319736065254
978.0, 4.4001858645869414e-05
979.0, 0.0005278683164330499
980.0, 0.0003461208848358528
981.0, 0.0004683814298264237
982.0, 0.0003160583735469318
983.0, 0.001036889289438698
984.0, 0.0004887312330007524
985.0, 0.0009634847320843047
986.0, 0.0003972650377753733
987.0, 0.0003702334561690845
988.0, 0.0015343485094561943
989.0, 0.0018964990375942635
990.0, 0.0009389578232164046
991.0, 0.0015513757778740289
992.0, 0.0008977999042215335
993.0, 0.0008176393852720885
994.0, 0.0017730240710945452
995.0, 0.0003471176505006462
996.0, 0.0005253304977114917
997.0, 0.002131130159830902
998.0, 0.0020492166996810787
999.0, 0.0004580112022523435
1000.0, 0.0014916804913095427
1001.0, 0.0010512955911238591
1002.0, 0.002887308137318788
1003.0, 0.0016243924123226074
1004.0, 0.002773780935020189
1005.0, 0.0004915641061575688
1006.0, 0.003985264833772155
1007.0, 0.006037798629314255
1008.0, 0.004967246881396089
1009.0, 0.008204203667748673
1010.0, 0.009199488615828822
1011.0, 0.005152166080604023
1012.0, 0.006107814029711985
1013.0, 0.00984596919745024
1014.0, 0.01027787453825545
1015.0, 0.008663081460782242
1016.0, 0.010165099646218763
1017.0, 0.011269518362760548
1018.0, 0.011470596428192559
1019.0, 0.011785968472321029
1020.0, 0.011913752364857304
1021.0, 0.011501287531663613
1022.0, 0.011603690916128897
1023.0, 0.010761773990910413
1024.0, 0.011078578723555771
1025.0, 0.011131837981578045
1026.0, 0.009067486862214374
1027.0, 0.007659222180472936
1028.0, 0.005671936268036849
1029.0, 0.0028678761893862494
1030.0, 0.0023116829459486135
1031.0, 0.0033449800725559903
1032.0, 0.001786734551040954
1033.0, 0.0012144924046539112
1034.0, 0.002218953989247146
1035.0, 0.0009132674711709222
1036.0, 0.0007523871203139408
1037.0, 0.0005838363079058821
1038.0, 0.0011651681154654038
1039.0, 0.00220422393172976
1040.0, 0.0017423022415712394
1041.0, 0.0013840904316156143
1042.0, 0.0012609982073495372
1043.0, 0.0008278958223594773
1044.0, 0.0024808679229368106
1045.0, 0.00733036051355017
1046.0, 0.007328552880999676
1047.0, 0.0064442381887329465
1048.0, 0.009266138190622853
1049.0, 0.010913133541719366
1050.0, 0.011594905415334018
1051.0, 0.012726375336268038
1052.0, 0.01481332224676781
1053.0, 0.016401915187117765
1054.0, 0.01853835979009241
1055.0, 0.021174796923642953
1056.0, 0.022926209897778382
1057.0, 0.029534849969481802
1058.0, 0.033477390819428375
1059.0, 0.032512140647656465
1060.0, 0.038245170597261985
1061.0, 0.03719540099838434
1062.0, 0.03990210190404364
1063.0, 0.04352868174579496
1064.0, 0.04608175611919529
1065.0, 0.0465272859402292
1066.0, 0.04665427969496483
1067.0, 0.048747426594013474
1068.0, 0.051691918256216746
1069.0, 0.05337351986512002
1070.0, 0.050208247927524784
1071.0, 0.0553760675367614
1072.0, 0.05658898620282601
1073.0, 0.05517923485508614
1074.0, 0.05586536704396334
1075.0, 0.05654494873628566
1076.0, 0.05469659266057279
1077.0, 0.05442682606404542
1078.0, 0.058562758067464915
1079.0, 0.058318692341271086
1080.0, 0.058328962585890806
1081.0, 0.05682758213493266
1082.0, 0.05868256714659183
1083.0, 0.05596884849090999
1084.0, 0.05502589106585013
1085.0, 0.054589807190214196
1086.0, 0.052727284111458994
1087.0, 0.053433296601497905
1088.0, 0.05178816507533306
1089.0, 0.050263341766938675
1090.0, 0.05275305671446329
1091.0, 0.05096924515920459
1092.0, 0.051517564668383246
1093.0, 0.05495360784234978
1094.0, 0.05571752709287985
1095.0, 0.0548197367678112
1096.0, 0.0564424398031334
1097.0, 0.05903534839051544
1098.0, 0.05944371502149562
1099.0, 0.06276639084345259
1100.0, 0.06447072707049961
1101.0, 0.06557973946865028
1102.0, 0.06750283852355687
1103.0, 0.06823903824496179
1104.0, 0.07022569387590052
1105.0, 0.07185934635231653
1106.0, 0.07203701584619392
1107.0, 0.07439035203729163
1108.0, 0.07767687559347476
1109.0, 0.07678145424055358
1110.0, 0.07763680695974685
1111.0, 0.07903300806587323
1112.0, 0.07608226930832296
1113.0, 0.07669245760388455
1114.0, 0.07778972426850016
1115.0, 0.07558139599783965
1116.0, 0.07476629644103759
1117.0, 0.07542048173508513
1118.0, 0.07106207659285901
1119.0, 0.07009106654708476
1120.0, 0.06678399730322969
1121.0, 0.06715930823120057
1122.0, 0.0625860010359351
1123.0, 0.06135953671299703
1124.0, 0.05709490365547749
1125.0, 0.054552577421763046
1126.0, 0.05217682096957346
1127.0, 0.04846997238528551
1128.0, 0.046807043692768745
1129.0, 0.04252395466818771
1130.0, 0.0387886012464184
1131.0, 0.03475446633120186
1132.0, 0.0332297049669407
1133.0, 0.02803800347036942
1134.0, 0.02767802257580622
1135.0, 0.0249991004370034
1136.0, 0.02143139331363132
1137.0, 0.017999861466814603
1138.0, 0.01621719927543117
1139.0, 0.019141988501836908
1140.0, 0.017197426784237736
1141.0, 0.014503643965544183
1142.0, 0.011578891132291444
1143.0, 0.008302074125528884
1144.0, 0.00667103868131994
1145.0, 0.005138556678759172
1146.0, 0.003934815750806301
1147.0, 0.002199545047997469
1148.0, 0.000900176069960695
1149.0, 0.0009769286570738835
1150.0, 0.003497555960566764
1151.0, 0.0024824300235699198
1152.0, 0.0011669690782014838
1153.0, 0.0013388176003721242
1154.0, 0.0009630186169545228
1155.0, 0.0002230929546113341
1156.0, 0.0011449993888343476
1157.0, 0.0006260129353362002
1158.0, 0.001648394636508099
1159.0, 0.0016665501354868508
1160.0, 0.002763091300602328
1161.0, 0.0025574941543253485
1162.0, 0.0021192896878924183
1163.0, 0.002141523939535769
1164.0, 0.0036894152672796005
1165.0, 0.0031055019054919684
1166.0, 0.005376376010025517
1167.0, 0.0035090413463695225
1168.0, 0.004347392753506868
1169.0, 0.008034858409960563
1170.0, 0.010155598356460153
1171.0, 0.010301489992640385
1172.0, 0.011596799653323043
1173.0, 0.014562163828215392
1174.0, 0.016384384423028683
1175.0, 0.017588020115537936
1176.0, 0.017089376011084647
1177.0, 0.017896557223665656
1178.0, 0.016974264748738803
1179.0, 0.01649448841928293
1180.0, 0.01544591835638632
1181.0, 0.016801357137697676
1182.0, 0.019370038190019017
1183.0, 0.01904148028085114
1184.0, 0.018199485998825118
1185.0, 0.019533666437376588
1186.0, 0.017448297214139586
1187.0, 0.016832157449104882
1188.0, 0.01641466616048102
1189.0, 0.01689992420542099
1190.0, 0.01696066128686871
1191.0, 0.015003942321055685
1192.0, 0.01547929606051001
1193.0, 0.014041742365658963
1194.0, 0.012414907851924933
1195.0, 0.014052983891706996
1196.0, 0.013658680509110933
1197.0, 0.012386436561169837
1198.0, 0.011957503270912889
1199.0, 0.010574341165181637
1200.0, 0.011638060276720787
1201.0, 0.009119752783645883
1202.0, 0.007008505512719833
1203.0, 0.009819287520250247
1204.0, 0.010830436594020424
1205.0, 0.01088876855354545
1206.0, 0.010889642843518847
1207.0, 0.009440350320719293
1208.0, 0.00940002875742555
1209.0, 0.010880509457783266
1210.0, 0.00845492441449652
1211.0, 0.007219642545045503
1212.0, 0.005687198724920747
1213.0, 0.003655459259437065
1214.0, 0.0026153099115049103
1215.0, 0.0011013898653443638
1216.0, 0.0011146274394047695
1217.0, 0.0007363527505574437
1218.0, 0.001569594093295764
1219.0, 0.0031348201831306608
1220.0, 0.0022221635065430615
1221.0, 0.0001991620997627622
1222.0, 0.0019357585063816277
1223.0, 0.0024708936238023818
1224.0, 0.0005815848229314605
1225.0, 0.001323338681892857
1226.0, 0.0011610860737482497
1227.0, 0.00041172096983106015
1228.0, 0.0005105472589070376
1229.0, 0.00039265935414130386
1230.0, 0.0028529628679689364
1231.0, 0.0040046434758711285
1232.0, 0.004403258037513018
1233.0, 0.00730164622406109
1234.0, 0.007056813735707745
1235.0, 0.009630186945533475
1236.0, 0.010916482195905622
1237.0, 0.011791789810598264
1238.0, 0.013763641950650676
1239.0, 0.012157897896850492
1240.0, 0.015018631460197789
1241.0, 0.01284302365011605
1242.0, 0.013049273928689254
1243.0, 0.018733035266194933
1244.0, 0.018850598763806747
1245.0, 0.014494802493902427
1246.0, 0.015462523971212805
1247.0, 0.0198040393301659
1248.0, 0.020107059885554078
1249.0, 0.018551866903826413
1250.0, 0.02158104080579151
1251.0, 0.021852941883528935
1252.0, 0.023745171103096884
1253.0, 0.022965748068551606
1254.0, 0.02543416322555818
1255.0, 0.026373855880995115
1256.0, 0.024945593460641173
1257.0, 0.02818373570852516
1258.0, 0.031658340717232614
1259.0, 0.030917094856697438
1260.0, 0.031602785045555463
1261.0, 0.03304754973898937
1262.0, 0.0308858565887195
1263.0, 0.030829877284224216
1264.0, 0.03137115877246011
1265.0, 0.03334922202487658
1266.0, 0.034473674260936074
1267.0, 0.02906310023429614
1268.0, 0.02721359058390778
1269.0, 0.027578491614369455
1270.0, 0.02942508605556859
1271.0, 0.028766632995121687
1272.0, 0.024270414528492917
1273.0, 0.02487977067403452
1274.0, 0.029457459801313635
1275.0, 0.027565870809728492
1276.0, 0.028981651830884712
1277.0, 0.026673470173942972
1278.0, 0.0268308214387999
1279.0, 0.024471571417280014
1280.0, 0.02632946531828777
1281.0, 0.02606589946980392
1282.0, 0.023524387894787526
1283.0, 0.018300455997095202
1284.0, 0.01890923328636449
1285.0, 0.018371363186365484
1286.0, 0.013071784816705661
1287.0, 0.010590419734251616
1288.0, 0.011493322870178468
1289.0, 0.007889228998406612
1290.0, 0.0017422654355069623
1291.0, 0.006095528521359526
1292.0, 0.006034909132561655
1293.0, 0.004651336407839024
1294.0, 0.004030051221853693
1295.0, 0.0028120289428881107
1296.0, 0.0005881261244644199
1297.0, 0.00018925043502908528
1298.0, 5.653760128696342e-05
1299.0, 0.002578952482376924
1300.0, 0.00383955161801507
1301.0, 0.004176379647062555
1302.0, 0.0045249549616220705
1303.0, 0.004772507311350275
1304.0, 0.004022094049726144
1305.0, 0.0013766985906193785
1306, 0.0
1307, 0.0
1308, 0.0
1309, 0.0
1310, 0.0
1311, 0.0
1312, 0.0
1313, 0.0
1314, 0.0
1315, 0.0
1316, 0.0
1317, 0.0
1318, 0.0
1319, 0.0
1320, 0.0
1321, 0.0
1322, 0.0
1323, 0.0
1324, 0.0
1325, 0.0
1326, 0.0
1327, 0.0
1328, 0.0
1329, 0.0
1330, 0.0
1331, 0.0
1332, 0.0
1333, 0.0
1334, 0.0
1335, 0.0
1336, 0.0
1337, 0.0
1338, 0.0
1339, 0.0
1340, 0.0
1341, 0.0
1342, 0.0
1343, 0.0
1344, 0.0
1345, 0.0
1346, 0.0
1347, 0.0
1348, 0.0
1349, 0.0
1350, 0.0
1351, 0.0
1352, 0.0
1353, 0.0
1354, 0.0
1355, 0.0
1356, 0.0
1357, 0.0
1358, 0.0
1359, 0.0
1360, 0.0
1361, 0.0
1362, 0.0
1363, 0.0
1364, 0.0
1365, 0.0
1366, 0.0
1367, 0.0
1368, 0.0
1369, 0.0
1370, 0.0
1371, 0.0
1372, 0.0
1373, 0.0
1374, 0.0
1375, 0.0
1376, 0.0
1377, 0.0
1378, 0.0
1379, 0.0
1380, 0.0
1381, 0.0
1382, 0.0
1383, 0.0
1384, 0.0
1385, 0.0
1386, 0.0
1387, 0.0
1388, 0.0
1389, 0.0
1390, 0.0
1391, 0.0
1392, 0.0
1393, 0.0
1394, 0.0
1395, 0.0
1396, 0.0
1397, 0.0
1398, 0.0
1399, 0.0
1400, 0.0
1401, 0.0
1402, 0.0
1403, 0.0
1404, 0.0
1405, 0.0
1406, 0.0
1407, 0.0
1408, 0.0
1409, 0.0
1410, 0.0
1411, 0.0
1412, 0.0
1413, 0.0
1414, 0.0
1415, 0.0
1416, 0.0
1417, 0.0
1418, 0.0
1419, 0.0
1420, 0.0
1421, 0.0
1422, 0.0
1423, 0.0
1424, 0.0
1425, 0.0
1426, 0.0
1427, 0.0
1428, 0.0
1429, 0.0
1430, 0.0
1431, 0.0
1432, 0.0
1433, 0.0
1434, 0.0
1435, 0.0
1436, 0.0
1437, 0.0
1438, 0.0
1439, 0.0
1440, 0.0
1441, 0.0
1442, 0.0
1443, 0.0
1444, 0.0
1445, 0.0
1446, 0.0
1447, 0.0
1448, 0.0
1449, 0.0
1450, 0.0
1451, 0.0
1452, 0.0
1453, 0.0
1454, 0.0
1455, 0.0
1456, 0.0
1457, 0.0
1458, 0.0
1459, 0.0
1460, 0.0
1461, 0.0
1462, 0.0
1463, 0.0
1464, 0.0
1465, 0.0
1466, 0.0
1467, 0.0
1468, 0.0
1469, 0.0
1470, 0.0
1471, 0.0
1472, 0.0
1473, 0.0
1474, 0.0
1475, 0.0
1476, 0.0
1477, 0.0
1478, 0.0
1479, 0.0
1480, 0.0
1481, 0.0
1482, 0.0
1483, 0.0
1484, 0.0
1485, 0.0
1486, 0.0
1487, 0.0
1488, 0.0
1489, 0.0
1490, 0.0
1491, 0.0
1492, 0.0
1493, 0.0
1494, 0.0
1495, 0.0
1496, 0.0
1497, 0.0
1498, 0.0
1499, 0.0
1500, 0.0
1501, 0.0
1502, 0.0
1503, 0.0
1504, 0.0
1505, 0.0
1506, 0.0
1507, 0.0
1508, 0.0
1509, 0.0
1510, 0.0
1511, 0.0
1512, 0.0
1513, 0.0
1514, 0.0
1515, 0.0
1516, 0.0
1517, 0.0
1518, 0.0
1519, 0.0
1520, 0.0
1521, 0.0
1522, 0.0
1523, 0.0
1524, 0.0
1525, 0.0
1526, 0.0
1527, 0.0
1528, 0.0
1529, 0.0
1530, 0.0
1531, 0.0
1532, 0.0
1533, 0.0
1534, 0.0
1535, 0.0
1536, 0.0
1537, 0.0
1538, 0.0
1539, 0.0
1540, 0.0
1541, 0.0
1542, 0.0
1543, 0.0
1544, 0.0
1545, 0.0
1546, 0.0
1547, 0.0
1548, 0.0
1549, 0.0
1550, 0.0
1551, 0.0
1552, 0.0
1553, 0.0
1554, 0.0
1555, 0.0
1556, 0.0
1557, 0.0
1558, 0.0
1559, 0.0
1560, 0.0
1561, 0.0
1562, 0.0
1563, 0.0
1564, 0.0
1565, 0.0
1566, 0.0
1567, 0.0
1568, 0.0
1569, 0.0
1570, 0.0
1571, 0.0
1572, 0.0
1573, 0.0
1574, 0.0
1575, 0.0
1576, 0.0
1577, 0.0
1578, 0.0
1579, 0.0
1580, 0.0
1581, 0.0
1582, 0.0
1583, 0.0
1584, 0.0
1585, 0.0
1586, 0.0
1587, 0.0
1588, 0.0
1589, 0.0
1590, 0.0
1591, 0.0
1592, 0.0
1593, 0.0
1594, 0.0
1595, 0.0
1596, 0.0
1597, 0.0
1598, 0.0
1599, 0.0
