30, 0.0
31, 0.0
32, 0.0
33, 0.0
34, 0.0
35, 0.0
36, 0.0
37, 0.0
38, 0.0
39, 0.0
40, 0.0
41, 0.0
42, 0.0
43, 0.0
44, 0.0
45, 0.0
46, 0.0
47, 0.0
48, 0.0
49, 0.0
50, 0.0
51, 0.0
52, 0.0
53, 0.0
54, 0.0
55, 0.0
56, 0.0
57, 0.0
58, 0.0
59, 0.0
60, 0.0
61, 0.0
62, 0.0
63, 0.0
64, 0.0
65, 0.0
66, 0.0
67, 0.0
68, 0.0
69, 0.0
70, 0.0
71, 0.0
72, 0.0
73, 0.0
74, 0.0
75, 0.0
76, 0.0
77, 0.0
78, 0.0
79, 0.0
80, 0.0
81, 0.0
82, 0.0
83, 0.0
84, 0.0
85, 0.0
86, 0.0
87, 0.0
88, 0.0
89, 0.0
90, 0.0
91, 0.0
92, 0.0
93, 0.0
94, 0.0
95, 0.0
96, 0.0
97, 0.0
98, 0.0
99, 0.0
100, 0.0
101, 0.0
102, 0.0
103, 0.0
104, 0.0
105, 0.0
106, 0.0
107, 0.0
108, 0.0
109, 0.0
110, 0.0
111, 0.0
112, 0.0
113, 0.0
114, 0.0
115.0, 0.01164818019437398
116.0, 0.019637267923215337
117.0, 0.0138326447665245
118.0, 0.0182248396726307
119.0, 0.018040517386503727
120.0, 0.01506293199164686
121.0, 0.015736229908044564
122.0, 0.018204516512247915
123.0, 0.015532704351800132
124.0, 0.004895917418567302
125.0, 0.002343892936148078
126.0, 0.0014764821001230944
127.0, 0.001446231789068735
128.0, 0.000952480008804018
129.0, 0.0012876509190214555
130.0, 0.002275489170562779
131.0, 0.0036100929531425476
132.0, 0.0021225620055591392
133.0, 0.0022555052645808205
134.0, 0.002736371494789905
135.0, 0.0023547530408154728
136.0, 0.0018487915327470557
137.0, 0.0018351537463896104
138.0, 0.00255589784214888
139.0, 0.0050015037950230535
140.0, 0.005775655772483909
141.0, 0.007742955564719479
142.0, 0.012655405178227538
143.0, 0.01632427645058969
144.0, 0.02001362801151853
145.0, 0.023655616568145042
146.0, 0.027021932321292647
147.0, 0.032792120983325984
148.0, 0.03570865512776138
149.0, 0.03462654608687648
150.0, 0.03707235444612154
151.0, 0.03829562356591622
152.0, 0.04045332210709686
153.0, 0.046371304801637085
154.0, 0.05101361264573036
155.0, 0.055192512507152305
156.0, 0.059058609564197014
157.0, 0.06286114242537835
158.0, 0.06330308466251339
159.0, 0.06544070860001795
160.0, 0.07234254038665268
161.0, 0.0787993677128086
162.0, 0.08826075094556744
163.0, 0.0979670967676093
164.0, 0.1015797781069988
165.0, 0.107074067169079
166.0, 0.10886851977921051
167.0, 0.10619942466412484
168.0, 0.10829852893084328
169.0, 0.1085935148171645
170.0, 0.10502022904341612
171.0, 0.09465601182290649
172.0, 0.09081835915154964
173.0, 0.08951385259870377
174.0, 0.08923386760472472
175.0, 0.08566341901114059
176.0, 0.08367423890222368
177.0, 0.08216631378514697
178.0, 0.08060242429514529
179.0, 0.074021412166868
180.0, 0.07576793687904525
181.0, 0.08092639756027578
182.0, 0.08290754582940224
183.0, 0.0868280281056544
184.0, 0.09350495541893127
185.0, 0.10245753026402427
186.0, 0.11030619070310711
187.0, 0.12026599388510724
188.0, 0.13146211434177688
189.0, 0.14355870039387386
190.0, 0.15543296785058633
191.0, 0.16838621679665583
192.0, 0.17972940067496318
193.0, 0.1836101526859686
194.0, 0.18692919302529806
195.0, 0.18922400629917296
196.0, 0.18998911243123226
197.0, 0.18616150913455112
198.0, 0.1845751609591065
199.0, 0.18071000539731555
200.0, 0.1709825854884634
201.0, 0.1657808813996284
202.0, 0.15683119206268403
203.0, 0.14695802147362172
204.0, 0.14325358190487483
205.0, 0.13845827077948575
206.0, 0.1343770091673693
207.0, 0.13167541345855308
208.0, 0.13223872120739866
209.0, 0.1261987476688609
210.0, 0.11973134517250708
211.0, 0.11754355388538149
212.0, 0.12302164990192657
213.0, 0.12147459342671137
214.0, 0.11800955350139623
215.0, 0.12600367021722125
216.0, 0.12254913801269167
217.0, 0.12191214845410585
218.0, 0.12552831643314252
219.0, 0.11516914847799774
220.0, 0.10280854144703958
221.0, 0.08955473239706696
222.0, 0.07609111706559163
223.0, 0.06128293427505372
224.0, 0.04594597486380307
225.0, 0.032542696724309865
226.0, 0.02683987844718099
227.0, 0.018090463798062253
228.0, 0.009877006975874332
229.0, 0.003498880109858834
230.0, 0.0028394527013127853
231.0, 0.0019088672819546858
232.0, 0.0010863409762660802
233.0, 0.0006186163491214128
234.0, 0.0013886214697849343
235.0, 0.001755177804899425
236.0, 0.0021981965110617454
237.0, 0.0036062688785657767
238.0, 0.003565515767220672
239.0, 0.006174060098516515
240.0, 0.011752594139661243
241.0, 0.01878429718070507
242.0, 0.026196318461251256
243.0, 0.03397032399408405
244.0, 0.042245953984551915
245.0, 0.05467517511658285
246.0, 0.06977443707973939
247.0, 0.08926661264340771
248.0, 0.11611055300699456
249.0, 0.14110985657011027
250.0, 0.1747710228280997
251.0, 0.21687290639535484
252.0, 0.2646618856132126
253.0, 0.32219059016088686
254.0, 0.39061366988405605
255.0, 0.4707420699381093
256.0, 0.5620929652594654
257.0, 0.6588890907566328
258.0, 0.7565333403177434
259.0, 0.8515626200398224
260.0, 0.9187218618434458
261.0, 0.9684204733660248
262.0, 0.9982948850988995
263.0, 0.9998105427887666
264.0, 0.9560687395574367
265.0, 0.8988562609332971
266.0, 0.8328083576696302
267.0, 0.7543693578152484
268.0, 0.670673096568761
269.0, 0.5915052781167601
270.0, 0.5213977628574634
271.0, 0.45911114721833046
272.0, 0.39914869318874513
273.0, 0.34485197152059843
274.0, 0.30057925049504636
275.0, 0.2567772884658911
276.0, 0.22050630959607978
277.0, 0.19232039634216283
278.0, 0.17390205987123847
279.0, 0.14655884050189877
280.0, 0.1222048502035228
281.0, 0.10420797604786074
282.0, 0.09771044844413763
283.0, 0.08315858819144044
284.0, 0.07019735435462393
285.0, 0.06326784047592572
286.0, 0.05278844421015018
287.0, 0.04493053717006826
288.0, 0.03971521698018227
289.0, 0.037546685083601324
290.0, 0.029655754780275247
291.0, 0.0240840346269105
292.0, 0.020897628074659367
293.0, 0.019481495372614902
294.0, 0.017103012311105673
295.0, 0.014332741832082795
296.0, 0.011524345854232681
297.0, 0.00996880409389293
298.0, 0.009060798354000373
299.0, 0.009103353129705774
300.0, 0.01021385591199992
301.0, 0.011120072602599548
302.0, 0.010670712974391797
303.0, 0.010340822667148785
304.0, 0.011465277651049755
305.0, 0.009380578580182843
306.0, 0.010320181776177184
307.0, 0.012620714044113444
308.0, 0.013054572255148911
309.0, 0.013682445656398628
310.0, 0.016287213848528964
311.0, 0.019428066041608898
312.0, 0.016916998637665683
313.0, 0.01878511833001867
314.0, 0.02046301724485876
315.0, 0.020770866608884202
316.0, 0.021603551136963897
317.0, 0.020718308326914552
318.0, 0.01995569853085285
319.0, 0.020356233239758253
320.0, 0.019333310432031212
321.0, 0.02005007034680058
322.0, 0.02045167624017123
323.0, 0.01815470085816764
324.0, 0.016097204562572992
325.0, 0.015904082559031002
326.0, 0.016112372851389136
327.0, 0.013473480972050474
328.0, 0.010555927070280895
329.0, 0.0064227356804423584
330.0, 0.0021513176035797364
331.0, 0.002601630883096634
332.0, 0.001915026154989717
333.0, 0.002177519863660281
334.0, 0.0036223201351854315
335.0, 0.0024913908409847
336.0, 0.0022758989718583457
337.0, 0.002722110487276359
338.0, 0.003704320821795096
339.0, 0.00444424957863925
340.0, 0.0037584597022440394
341.0, 0.002924752317539033
342.0, 0.0032002218231377013
343.0, 0.0026942881887451367
344.0, 0.0028475113554865894
345.0, 0.0031647811561924363
346.0, 0.0027338610890945384
347.0, 0.0009327426679233686
348.0, 0.0006066298126178672
349.0, 0.0017453057448742495
350.0, 0.0035367917473311766
351.0, 0.006484090139764922
352.0, 0.010180889584661887
353.0, 0.014562359295810554
354.0, 0.019747622324008816
355.0, 0.024854604026321798
356.0, 0.030205810138747683
357.0, 0.03569690142205781
358.0, 0.0390182032191296
359.0, 0.044215606939845664
360.0, 0.049706563326467626
361.0, 0.05462094861931603
362.0, 0.061226259834558525
363.0, 0.06726318298623453
364.0, 0.07344150598102692
365.0, 0.08046004942906824
366.0, 0.08982995765785452
367.0, 0.09416287978526762
368.0, 0.09833619143677752
369.0, 0.10999618202302414
370.0, 0.11546956621258345
371.0, 0.12266103769938462
372.0, 0.13195354881492338
373.0, 0.14289540402951514
374.0, 0.14857503946751127
375.0, 0.1530280231803392
376.0, 0.15807009980337183
377.0, 0.16783740166814048
378.0, 0.16843102066325413
379.0, 0.17447065461144942
380.0, 0.18614832346538354
381.0, 0.18348059921092344
382.0, 0.1876280765474482
383.0, 0.19460521827288277
384.0, 0.20245308449183735
385.0, 0.2065594294742909
386.0, 0.21175601495702898
387.0, 0.21841768534820935
388.0, 0.22691514443331876
389.0, 0.23883234155541214
390.0, 0.24393053644046803
391.0, 0.2521861693917415
392.0, 0.2713811023737415
393.0, 0.27442621547177953
394.0, 0.28451090604136153
395.0, 0.2999407404411392
396.0, 0.31914314389982534
397.0, 0.3338634648783159
398.0, 0.3513473945791486
399.0, 0.36926125230083723
400.0, 0.3837424289740334
401.0, 0.4086042821198129
402.0, 0.42803510589508753
403.0, 0.4439116284362798
404.0, 0.46219758032027547
405.0, 0.48506031378937453
406.0, 0.5048422118047526
407.0, 0.5173685299312084
408.0, 0.5134877089938595
409.0, 0.5271770317446594
410.0, 0.5350463754975602
411.0, 0.5357743237564758
412.0, 0.5396099333872045
413.0, 0.5302091131519433
414.0, 0.5156043366642612
415.0, 0.4998278838257154
416.0, 0.4926235295769853
417.0, 0.4721831415269958
418.0, 0.44544274045453053
419.0, 0.416648589415253
420.0, 0.3991328427860171
421.0, 0.3757807994776538
422.0, 0.35320755059262726
423.0, 0.33348881538141073
424.0, 0.31135069932998094
425.0, 0.2937727850088438
426.0, 0.2777350977227927
427.0, 0.26165375690085857
428.0, 0.2439319469989105
429.0, 0.2321956607084384
430.0, 0.21816447061091906
431.0, 0.19760809460337056
432.0, 0.1856572153005673
433.0, 0.17860720732810403
434.0, 0.17350777115177496
435.0, 0.16788081600420865
436.0, 0.14796311394650247
437.0, 0.13869095417454377
438.0, 0.13211397644315553
439.0, 0.12178777182733382
440.0, 0.11546635640184678
441.0, 0.11130741079407573
442.0, 0.10528646208524228
443.0, 0.09349302459608204
444.0, 0.087776470348313
445.0, 0.08516002062536215
446.0, 0.08135667608011267
447.0, 0.07162736245123294
448.0, 0.0701990765868611
449.0, 0.06763699875836886
450.0, 0.06308439930097615
451.0, 0.0556362086294084
452.0, 0.0524886294932141
453.0, 0.04970787278136212
454.0, 0.046975168769402546
455.0, 0.044034338565523745
456.0, 0.041340115119832606
457.0, 0.04035687112233313
458.0, 0.039683346720335
459.0, 0.03722290924825738
460.0, 0.03793565471164651
461.0, 0.036823013686837935
462.0, 0.03472397932847375
463.0, 0.03329343414779863
464.0, 0.03489893037622989
465.0, 0.03571813208023434
466.0, 0.035234865171268434
467.0, 0.032944531926330664
468.0, 0.03810524199175726
469.0, 0.03933663732127009
470.0, 0.037236070857851286
471.0, 0.033917444629585396
472.0, 0.039194320198395895
473.0, 0.0391487901184006
474.0, 0.03698958520468058
475.0, 0.03970467839849049
476.0, 0.03285702673553394
477.0, 0.03089934873521884
478.0, 0.03188610109337966
479.0, 0.03089456642094056
480.0, 0.03323230938401893
481.0, 0.03128075963673779
482.0, 0.027480998406056445
483.0, 0.02670921015708855
484.0, 0.02844087058566179
485.0, 0.026447163276511292
486.0, 0.02243442573599059
487.0, 0.019767969434192355
488.0, 0.02241685752864966
489.0, 0.02150441432172353
490.0, 0.019109903632595786
491.0, 0.01926071034467292
492.0, 0.013849329786351252
493.0, 0.009193819567258489
494.0, 0.006656350250602359
495.0, 0.007743289878432381
496.0, 0.00706310520957756
497.0, 0.005907162014386435
498.0, 0.004560427201369879
499.0, 0.003320208195314739
500.0, 0.0014900655011660213
501.0, 0.0011988155397767123
502.0, 0.002291907428161326
503.0, 0.004503372375763021
504.0, 0.0051438869867808275
505.0, 0.00508103602117099
506.0, 0.003899791084477228
507.0, 0.0011214386116857968
508.0, 0.0007284327257032872
509.0, 0.0014026508390017538
510.0, 0.002225583494917808
511.0, 0.002287482988060114
512.0, 0.0009649055685002901
513.0, 0.0007806092052143648
514.0, 0.0010707788509270089
515.0, 0.0012727453232890332
516.0, 0.0021588622694575436
517.0, 0.0015091105707810593
518.0, 0.0008819996317587645
519.0, 0.0013386103981436969
520.0, 0.000534337299341042
521.0, 0.001919251585963871
522.0, 0.0027440042720108934
523.0, 0.001450811269463925
524.0, 0.0010234462501308899
525.0, 0.004104114306407143
526.0, 0.005015582889505583
527.0, 0.0017205040456900445
528.0, 0.004087721688034797
529.0, 0.005437689987572722
530.0, 0.00518531036220004
531.0, 0.003610566473558819
532.0, 0.004492853338857601
533.0, 0.002430493865693224
534.0, 0.0013350696740116227
535.0, 0.0021972574054767947
536.0, 0.002805688389413437
537.0, 0.004985476630327274
538.0, 0.007055363067527922
539.0, 0.008041763291788007
540.0, 0.00605731541182117
541.0, 0.008378236868766894
542.0, 0.008224610930713944
543.0, 0.006316110715613771
544.0, 0.009153998524191968
545.0, 0.007756893482567618
546.0, 0.009350254774296136
547.0, 0.012730703999844243
548.0, 0.012619886668118195
549.0, 0.01097567997344713
550.0, 0.012887689479933895
551.0, 0.016342497277651788
552.0, 0.016980499977145676
553.0, 0.015743074259626344
554.0, 0.016317387846372416
555.0, 0.017644151187701858
556.0, 0.018060688020066235
557.0, 0.01807404539036077
558.0, 0.022097686929818054
559.0, 0.026283885213083797
560.0, 0.026768534542026212
561.0, 0.023446428850248308
562.0, 0.022252313129940873
563.0, 0.024448992629801623
564.0, 0.030122134620901644
565.0, 0.027508294381723548
566.0, 0.02734309151966181
567.0, 0.02835819990111996
568.0, 0.02954689733042187
569.0, 0.028355321947595175
570.0, 0.030048500015135957
571.0, 0.031495055806498265
572.0, 0.031758065155291004
573.0, 0.03198879208266147
574.0, 0.03237493570807958
575.0, 0.03277864699814386
576.0, 0.03310248464112729
577.0, 0.03315271462198641
578.0, 0.03374003975555271
579.0, 0.03409710246550643
580.0, 0.03415046952219488
581.0, 0.034004661588896305
582.0, 0.0356641310357775
583.0, 0.03568715411795579
584.0, 0.03628615837477081
585.0, 0.04105706754594548
586.0, 0.04198017374835835
587.0, 0.0412998369483672
588.0, 0.04084339392717869
589.0, 0.042408999293924776
590.0, 0.04736674495222212
591.0, 0.050080150338718134
592.0, 0.052914737241361864
593.0, 0.05715156715612937
594.0, 0.05958930244485919
595.0, 0.06151756886536921
596.0, 0.06403538046551818
597.0, 0.06739925615217023
598.0, 0.07040828117824668
599.0, 0.07372663145804736
600.0, 0.07680899676488932
601.0, 0.07965527446069766
602.0, 0.08273159697907942
603.0, 0.0859158571656108
604.0, 0.08966843048130509
605.0, 0.09401497262353396
606.0, 0.09886908653662159
607.0, 0.10439564995947763
608.0, 0.10741245032077529
609.0, 0.10927375378381804
610.0, 0.11192875167671858
611.0, 0.12096552094312549
612.0, 0.12315932268115859
613.0, 0.12521855940650586
614.0, 0.13161206818387886
615.0, 0.13161161633976748
616.0, 0.13573327224149917
617.0, 0.13882389484900376
618.0, 0.1396227339372444
619.0, 0.14493538671875816
620.0, 0.15102131601834717
621.0, 0.15239442413944174
622.0, 0.14984249397493468
623.0, 0.1503695828928591
624.0, 0.15589182952782119
625.0, 0.15666637313554843
626.0, 0.15640612840330273
627.0, 0.16394730498591495
628.0, 0.15908374025720343
629.0, 0.1592225620947783
630.0, 0.15999361022063005
631.0, 0.15645276130682223
632.0, 0.16162166555910856
633.0, 0.16333480662005523
634.0, 0.16293274622450546
635.0, 0.1613694908805179
636.0, 0.15936757408622973
637.0, 0.15496234327306846
638.0, 0.15324820515934984
639.0, 0.1536492142592574
640.0, 0.14775546468628112
641.0, 0.14603962210326807
642.0, 0.14547401757648887
643.0, 0.1436179226328444
644.0, 0.1368124427606654
645.0, 0.1293253962904539
646.0, 0.12607258638652857
647.0, 0.12396046233531152
648.0, 0.11932991638775321
649.0, 0.11278420136101477
650.0, 0.10978835077580687
651.0, 0.10694102552662405
652.0, 0.10237975477616947
653.0, 0.09778926217144314
654.0, 0.09444514028273572
655.0, 0.09053480589917827
656.0, 0.08590812796087037
657.0, 0.08195338809360767
658.0, 0.07859072664345461
659.0, 0.07647396856495939
660.0, 0.07500769288317098
661.0, 0.07304752734230777
662.0, 0.06937842404580055
663.0, 0.06590386404446258
664.0, 0.063653258040815
665.0, 0.06330077443105361
666.0, 0.062458560107871354
667.0, 0.06030869019189268
668.0, 0.05976762779847499
669.0, 0.06126786239509702
670.0, 0.06042086910705438
671.0, 0.06526636089665541
672.0, 0.0678119843995893
673.0, 0.06835067275277967
674.0, 0.0714251838887193
675.0, 0.07613630063188861
676.0, 0.07881904790741344
677.0, 0.0815129025029945
678.0, 0.0866782678144308
679.0, 0.09151192444951398
680.0, 0.09795410013961477
681.0, 0.10632013241911485
682.0, 0.11641189535259153
683.0, 0.1261827085605469
684.0, 0.13917189415229578
685.0, 0.15386390185161983
686.0, 0.16994569416405267
687.0, 0.18764105145654036
688.0, 0.2092020072513488
689.0, 0.23397024221045606
690.0, 0.2610980045734506
691.0, 0.2896444660967129
692.0, 0.3244988690638486
693.0, 0.36052719947724005
694.0, 0.3982920330572866
695.0, 0.44024757628992733
696.0, 0.49959037250601357
697.0, 0.5404749699822855
698.0, 0.5870402589283942
699.0, 0.6369055196437008
700.0, 0.66825385606213
701.0, 0.6938500914220008
702.0, 0.7008073500175959
703.0, 0.6918708952146856
704.0, 0.6718442358458588
705.0, 0.6326357891426836
706.0, 0.5963939253029752
707.0, 0.5574098721531298
708.0, 0.5124346404293654
709.0, 0.4607005906188755
710.0, 0.40599509581291343
711.0, 0.36337130264490053
712.0, 0.32977515411705294
713.0, 0.2917198566239885
714.0, 0.2636748067520985
715.0, 0.2354845520058055
716.0, 0.21067821017920438
717.0, 0.1923784280190154
718.0, 0.17254462941082888
719.0, 0.15811936650906647
720.0, 0.1482896218168546
721.0, 0.14100934267659795
722.0, 0.13024017037646993
723.0, 0.12243219383594607
724.0, 0.1136321634320127
725.0, 0.10525790726135692
726.0, 0.10028422517420015
727.0, 0.10113968506274697
728.0, 0.10063870938222147
729.0, 0.09781101481718453
730.0, 0.09343113737329552
731.0, 0.09655222042637616
732.0, 0.09820130624500607
733.0, 0.10063770943839967
734.0, 0.1040923538695556
735.0, 0.10763712089519878
736.0, 0.10942045403128851
737.0, 0.11735739899194923
738.0, 0.12579543273584776
739.0, 0.1290745320621833
740.0, 0.1340342563193649
741.0, 0.14409066283709732
742.0, 0.15159381435091904
743.0, 0.1558410627436173
744.0, 0.1653176093422905
745.0, 0.17391153319247085
746.0, 0.18016055737725098
747.0, 0.1843051742584369
748.0, 0.18700241102687845
749.0, 0.18711246452594693
750.0, 0.19174192699371934
751.0, 0.1939788239044427
752.0, 0.19177233020848933
753.0, 0.19410477613166335
754.0, 0.18977521893966315
755.0, 0.1852678966713358
756.0, 0.181335961155006
757.0, 0.17704441537152574
758.0, 0.17052320420074643
759.0, 0.1636220294866942
760.0, 0.155520948554083
761.0, 0.14630137728294332
762.0, 0.14005354752660776
763.0, 0.13177015130377556
764.0, 0.12348472152771808
765.0, 0.11493127536196114
766.0, 0.10453745007386792
767.0, 0.09622069651861626
768.0, 0.09004868878964441
769.0, 0.08447136332139708
770.0, 0.07803101851895798
771.0, 0.0695116760322949
772.0, 0.06392559900810131
773.0, 0.05837327468934636
774.0, 0.053235472633760904
775.0, 0.051319595555784636
776.0, 0.04448135824292117
777.0, 0.04423017368787229
778.0, 0.044080052087596036
779.0, 0.038682180848085605
780.0, 0.036920340732135536
781.0, 0.035127936208598685
782.0, 0.03324873362531638
783.0, 0.03167903383025822
784.0, 0.031378306253068027
785.0, 0.030644393741890867
786.0, 0.02980602618743151
787.0, 0.02975962610083805
788.0, 0.03103083492635147
789.0, 0.031589357756316674
790.0, 0.03288238961420904
791.0, 0.032970940337304515
792.0, 0.03255114175653317
793.0, 0.03460014716604936
794.0, 0.03412228246732173
795.0, 0.03333741030614038
796.0, 0.032138439229597825
797.0, 0.030961204953712195
798.0, 0.03466941474969779
799.0, 0.031177298315277633
800.0, 0.028943749415870575
801.0, 0.028889215106881506
802.0, 0.0278242770683279
803.0, 0.02489815084392795
804.0, 0.022697962211958803
805.0, 0.020964275108543352
806.0, 0.018984308067364893
807.0, 0.014087952662464022
808.0, 0.015238291964708429
809.0, 0.015106083419383711
810.0, 0.013603809127157907
811.0, 0.013697799375423987
812.0, 0.00847478553414429
813.0, 0.005786802909477955
814.0, 0.004561750814338629
815.0, 0.00396190449117924
816.0, 0.003790259111801042
817.0, 0.003419647373645729
818.0, 0.0017739220621472375
819.0, 0.00040235131485509616
820.0, 0.0015944866966833
821.0, 0.0016248382046678352
822.0, 0.0011957062706869452
823.0, 0.001982069547836196
824.0, 0.0033879245894462636
825.0, 0.0006835573131391654
826.0, 0.00356853953516961
827.0, 0.004628969160303055
828.0, 0.004657444715349769
829.0, 0.005286616236905522
830.0, 0.004584353048716942
831.0, 0.005207868523495099
832.0, 0.0053071983038930765
833.0, 0.003916404685801959
834.0, 0.0003719225542588283
835.0, 0.0014526470520189812
836.0, 0.0011604646589854876
837.0, 0.0008667964479923932
838.0, 0.0015268014521794679
839.0, 0.00115682546448238
840.0, 0.0015391794547122775
841.0, 0.0014528439290835992
842.0, 0.0009028392074761103
843.0, 0.0003507264116446362
844.0, 0.0010959025425613753
845.0, 0.0011880443739922162
846.0, 0.0013416107399128214
847.0, 0.0018039371389901866
848.0, 0.002154535345796465
849.0, 0.001267061616174122
850.0, 0.0017755854787258772
851.0, 0.002560504940767697
852.0, 0.0025425639831657063
853.0, 0.005038521114181034
854.0, 0.003262519912268592
855.0, 0.003813391049539742
856.0, 0.006432134875426565
857.0, 0.006762346335117914
858.0, 0.0038803544060799344
859.0, 0.0029303460073765485
860.0, 0.002745116857619388
861.0, 0.0022581998945930912
862.0, 0.00045455773474405983
863.0, 0.000764791834707275
864.0, 0.000626686106599793
865.0, 0.0014868241808071753
866.0, 0.004987630199204387
867.0, 0.007120628118932278
868.0, 0.008543897140228598
869.0, 0.010417887714477013
870.0, 0.012511663373613487
871.0, 0.013561902260753435
872.0, 0.013585563696207672
873.0, 0.015568939568532768
874.0, 0.01811574790911131
875.0, 0.020131057363284695
876.0, 0.021108304575918575
877.0, 0.024791489184809973
878.0, 0.027185782955330428
879.0, 0.028910092308796518
880.0, 0.03135141224749853
881.0, 0.035318378121382665
882.0, 0.036560538032258165
883.0, 0.037820375345361666
884.0, 0.03991697026104911
885.0, 0.042736302608610666
886.0, 0.04345940708133365
887.0, 0.046687840741615645
888.0, 0.05049418876038925
889.0, 0.05420697653996682
890.0, 0.05943619666630473
891.0, 0.06317079025691393
892.0, 0.0669725933986294
893.0, 0.07072236039786065
894.0, 0.07439084860824999
895.0, 0.07954979506939693
896.0, 0.08419223885700224
897.0, 0.08937970239262404
898.0, 0.0948446296869045
899.0, 0.09993343107945664
900.0, 0.10724280636593686
901.0, 0.11377896787903168
902.0, 0.1175420502289052
903.0, 0.12110186568815795
904.0, 0.13231884142705858
905.0, 0.13427056136142132
906.0, 0.1353247797107262
907.0, 0.13764911959299458
908.0, 0.1419605770175832
909.0, 0.1462398025151607
910.0, 0.1447761531108478
911.0, 0.1460391560930706
912.0, 0.14701328733909574
913.0, 0.14488275065270342
914.0, 0.1499873508822646
915.0, 0.14637091991031162
916.0, 0.14272478474048308
917.0, 0.1401971472320178
918.0, 0.13707201697306975
919.0, 0.12925230634063467
920.0, 0.12467638600963603
921.0, 0.11741697382158167
922.0, 0.10700446244390095
923.0, 0.0977397430662239
924.0, 0.09256998587989042
925.0, 0.08846865171694789
926.0, 0.08336522622701625
927.0, 0.07732050096215912
928.0, 0.07458515968214745
929.0, 0.06889213671555189
930.0, 0.06452187009941068
931.0, 0.06035985761419683
932.0, 0.055958320206749124
933.0, 0.055999664241068496
934.0, 0.05393151204256969
935.0, 0.050786926698228256
936.0, 0.04860802656094095
937.0, 0.049079532913527846
938.0, 0.048222219029689074
939.0, 0.04983687952104856
940.0, 0.05068372196645217
941.0, 0.051050446044395056
942.0, 0.05270498282260323
943.0, 0.053456506479227534
944.0, 0.05587332664480237
945.0, 0.05833673158843672
946.0, 0.06040127895312468
947.0, 0.06252609764230753
948.0, 0.06946368875434061
949.0, 0.07186980986452392
950.0, 0.07446176490196671
951.0, 0.07857415479606432
952.0, 0.0804258138770334
953.0, 0.08402658607144756
954.0, 0.08429016547395335
955.0, 0.08379802185708148
956.0, 0.08516440664869306
957.0, 0.09047223629286663
958.0, 0.08745137520198033
959.0, 0.08584285475223452
960.0, 0.08582371615546175
961.0, 0.0855246181186813
962.0, 0.07941087276704333
963.0, 0.07711711257991241
964.0, 0.07621140148221756
965.0, 0.07422461083999221
966.0, 0.06936407195057502
967.0, 0.06446494013103965
968.0, 0.06331461594332133
969.0, 0.061544408231980714
970.0, 0.05866276433147428
971.0, 0.05559901292256257
972.0, 0.0550241148008824
973.0, 0.05435347755246949
974.0, 0.052170038381464834
975.0, 0.050059708508399046
976.0, 0.05081065172146958
977.0, 0.0504724315345033
978.0, 0.0482321604387854
979.0, 0.04670726400970238
980.0, 0.04630072099623249
981.0, 0.04602900236227338
982.0, 0.0469842722926914
983.0, 0.04678885990258285
984.0, 0.04644569307647573
985.0, 0.04560587505355329
986.0, 0.04274310415097136
987.0, 0.043941964139582575
988.0, 0.04308429376271547
989.0, 0.041105887970238064
990.0, 0.03930549370274086
991.0, 0.03948165736850515
992.0, 0.038110655404120904
993.0, 0.03726835623368408
994.0, 0.03663992878681216
995.0, 0.03620800091217554
996.0, 0.0364399440941587
997.0, 0.03597398644197497
998.0, 0.03644433631635223
999.0, 0.03816361295870797
1000.0, 0.03953645752731469
1001.0, 0.03577918220935979
1002.0, 0.040130857291377525
1003.0, 0.03998650426580257
1004.0, 0.03994190457539921
1005.0, 0.041088026171180334
1006.0, 0.03658479598767288
1007.0, 0.03995444464861859
1008.0, 0.04095122283380917
1009.0, 0.04200844056714491
1010.0, 0.04411937455136609
1011.0, 0.043932521107075365
1012.0, 0.04084759640224677
1013.0, 0.0435309784910276
1014.0, 0.04541450202408924
1015.0, 0.043794004204078224
1016.0, 0.04592788951821079
1017.0, 0.04580929108177202
1018.0, 0.04810743517148558
1019.0, 0.04942729097802856
1020.0, 0.04846468518074824
1021.0, 0.04932138045918814
1022.0, 0.049726540196204955
1023.0, 0.04946370290022233
1024.0, 0.04894408908445533
1025.0, 0.04845731249970522
1026.0, 0.047954499697276644
1027.0, 0.04589252769504332
1028.0, 0.046343822362689475
1029.0, 0.04408128387455061
1030.0, 0.038937288079705236
1031.0, 0.04140332763077107
1032.0, 0.03826528601402061
1033.0, 0.03505189473432552
1034.0, 0.03245866375814614
1035.0, 0.030489390033864187
1036.0, 0.028478423091483164
1037.0, 0.028414155502185474
1038.0, 0.027297248932767096
1039.0, 0.026721260864902948
1040.0, 0.027635237237912523
1041.0, 0.02978724884642147
1042.0, 0.029161988925578336
1043.0, 0.029752543512531177
1044.0, 0.031296378958183574
1045.0, 0.03330278151951889
1046.0, 0.035173188018552355
1047.0, 0.03521145949406687
1048.0, 0.03554660547711353
1049.0, 0.03652462418037826
1050.0, 0.0391566406836945
1051.0, 0.04506807790635932
1052.0, 0.0466637503241981
1053.0, 0.05086801236885697
1054.0, 0.05350516693717761
1055.0, 0.05395868606614913
1056.0, 0.054605898424807425
1057.0, 0.05803036336828032
1058.0, 0.060971693794155624
1059.0, 0.06338115182742912
1060.0, 0.06560416405643568
1061.0, 0.06816994730569763
1062.0, 0.07043693730326966
1063.0, 0.07216074274604681
1064.0, 0.07436931411241922
1065.0, 0.07669745083949826
1066.0, 0.07829086310328402
1067.0, 0.07978463622843762
1068.0, 0.08043417996458317
1069.0, 0.08192351415620015
1070.0, 0.08356888802734372
1071.0, 0.08416056036555132
1072.0, 0.08397711408169196
1073.0, 0.08576992482898699
1074.0, 0.08692516853352683
1075.0, 0.08820980045861163
1076.0, 0.09027364464522981
1077.0, 0.09056245107047416
1078.0, 0.0882231019882073
1079.0, 0.08616367941933466
1080.0, 0.08825168102965748
1081.0, 0.09327375221616875
1082.0, 0.08770076350287703
1083.0, 0.08936069790150676
1084.0, 0.08872510885289031
1085.0, 0.08727338503505323
1086.0, 0.08674180573756787
1087.0, 0.08798474099898392
1088.0, 0.08742938599758811
1089.0, 0.0846213563076001
1090.0, 0.0821765855426431
1091.0, 0.08156899613958606
1092.0, 0.08287705534244717
1093.0, 0.08108490971763634
1094.0, 0.08226772822739853
1095.0, 0.08290355899386773
1096.0, 0.08385716434565138
1097.0, 0.08745721303697689
1098.0, 0.08405520499668273
1099.0, 0.08661615304175836
1100.0, 0.0900334837256269
1101.0, 0.0916123050896062
1102.0, 0.0907674852216715
1103.0, 0.09334867009443513
1104.0, 0.09536657982011791
1105.0, 0.09956952484175288
1106.0, 0.10341441800340515
1107.0, 0.10496409589174743
1108.0, 0.10648311585627807
1109.0, 0.10664888476036277
1110.0, 0.1082160688802394
1111.0, 0.11106114135849357
1112.0, 0.11389640699518988
1113.0, 0.11420436775895013
1114.0, 0.11427669393308502
1115.0, 0.11331463874588282
1116.0, 0.1119007617400232
1117.0, 0.11025126559407476
1118.0, 0.10839597168766993
1119.0, 0.10847041413310426
1120.0, 0.10665428915339853
1121.0, 0.10606777330171765
1122.0, 0.10634821486495233
1123.0, 0.10525276030066344
1124.0, 0.09812795736920112
1125.0, 0.09282393011407832
1126.0, 0.08878887770101822
1127.0, 0.08327733431006668
1128.0, 0.07513514920861376
1129.0, 0.0682535511870175
1130.0, 0.06858509983950781
1131.0, 0.06800327420974754
1132.0, 0.06604816898819527
1133.0, 0.06146374884976169
1134.0, 0.0517535055503847
1135.0, 0.05080216342217239
1136.0, 0.045970436914047764
1137.0, 0.041351527127666265
1138.0, 0.036873877777177246
1139.0, 0.030850001764343653
1140.0, 0.029315419746181463
1141.0, 0.02498026486834571
1142.0, 0.02228549801326874
1143.0, 0.020316880417141303
1144.0, 0.017865425332170948
1145.0, 0.017427512652669563
1146.0, 0.011014643701337767
1147.0, 0.00903659353377103
1148.0, 0.007531211686254887
1149.0, 0.004915202248536942
1150.0, 0.0046641739635975045
1151.0, 0.0013239784235399162
1152.0, 0.0029217476422523504
1153.0, 0.0035140196933745784
1154.0, 0.001935095883977629
1155.0, 0.0001615543330272823
1156.0, 0.0003396639453600999
1157.0, 0.0008304639263591997
1158.0, 0.0009780935256530285
1159.0, 0.0012103124332077156
1160.0, 0.0018232584871927687
1161.0, 0.002015957402042665
1162.0, 0.0018967078832901065
1163.0, 0.0022669550798847917
1164.0, 0.0025820851805470426
1165.0, 0.002230854617777984
1166.0, 0.000817404816086915
1167.0, 0.0014104527928270358
1168.0, 0.0007534905486632961
1169.0, 0.0005739169448491408
1170.0, 0.0008195496091891782
1171.0, 0.000839956263445811
1172.0, 0.001166707703592743
1173.0, 0.0017157194037345116
1174.0, 0.0009928681880655035
1175.0, 0.00022197730974597845
1176.0, 0.0003460687664546261
1177.0, 0.0010183812542036367
1178.0, 0.0008861281189987472
1179.0, 0.0004462638600312447
1180.0, 0.0007334086912275338
1181.0, 0.001480224648440071
1182.0, 0.0015862245666104311
1183.0, 0.0005083677400748239
1184.0, 0.0002679983666412056
1185.0, 0.00021794709318078708
1186.0, 0.000377843418690795
1187.0, 0.0006385007886263127
1188.0, 0.00024960875360463823
1189.0, 0.00012697685622763618
1190.0, 0.00038629994502053367
1191.0, 0.0006986408935494337
1192.0, 0.0007496023669835345
1193.0, 0.0003691953459429936
1194.0, 0.0003410287864932645
1195.0, 0.0006360378314234858
1196.0, 0.0006262698040571833
1197.0, 0.0005510162122856687
1198.0, 0.0005902320948477427
1199.0, 5.8429446407328453e-05
1200.0, 0.000814346670758297
1201.0, 0.0005484423751192367
1202.0, 0.0009201894713812036
1203.0, 0.001983015961393504
1204.0, 0.0022217844306823544
1205.0, 0.0019679352832272655
1206.0, 0.0011168747517845126
1207.0, 0.0009714693257460388
1208.0, 0.0008110797469338996
1209.0, 0.00027906339839516264
1210.0, 0.0016529267375044563
1211.0, 0.0007630965766628548
1212.0, 0.0007977774828919914
1213.0, 0.000964837944217219
1214.0, 0.000980682502856273
1215.0, 0.0011373522119070161
1216.0, 0.0008055680783720074
1217.0, 0.0003291002727414773
1218.0, 0.000425281347911142
1219.0, 0.000674085954774434
1220.0, 0.0005545661142121083
1221.0, 4.695443769313617e-05
1222.0, 0.0005412242821620057
1223.0, 0.001091485286842132
1224.0, 0.0014606592577673762
1225.0, 0.0014141279121691725
1226.0, 0.0009448363215332444
1227.0, 0.0015839777261953433
1228.0, 0.003434793824768842
1229.0, 0.003844477916409882
1230.0, 0.0025457996487171946
1231.0, 0.0012727468991608204
1232.0, 0.003912686316060632
1233.0, 0.0024788419334845742
1234.0, 0.0019660980027729797
1235.0, 0.0019089900454207708
1236.0, 0.0015767266861908306
1237.0, 0.0005453500644357388
1238.0, 7.268999112664362e-05
1239.0, 0.002323633756072023
1240.0, 0.001544431964989122
1241.0, 0.0019536661110881714
1242.0, 0.004633285944782661
1243.0, 0.0060923402540024795
1244.0, 0.007370420363933963
1245.0, 0.005748063634779192
1246.0, 0.004271797428483017
1247.0, 0.003586790079179104
1248.0, 0.0030946780699029307
1249.0, 0.0011844075792459365
1250.0, 0.0011090004237256485
1251.0, 0.0022125260030677395
1252.0, 0.0034289252234775496
1253.0, 0.003958251536291386
1254.0, 0.0032987914605103184
1255.0, 0.0010358540900686612
1256.0, 0.002033661489784803
1257.0, 0.007343229542381575
1258.0, 0.009429637360144192
1259.0, 0.006664726417251257
1260.0, 0.006107820919361626
1261.0, 0.007074268165917099
1262.0, 0.005262992046725329
1263.0, 0.003968459867448306
1264.0, 0.003934020086076715
1265.0, 0.004421117203853474
1266.0, 0.0034306403237365727
1267.0, 0.0015965870636143191
1268.0, 0.002565886224132591
1269.0, 0.0033245160681020032
1270.0, 0.004068005197931389
1271.0, 0.005768339168390289
1272.0, 0.0029988703332537404
1273.0, 0.00375758450765097
1274.0, 0.004805318533433782
1275.0, 0.0040813504376220455
1276.0, 0.003073877219929535
1277.0, 0.005602557094900754
1278.0, 0.004547805931048204
1279.0, 0.0035965886632052827
1280.0, 0.004588555600063146
1281.0, 0.004126366746420198
1282.0, 0.0018221504018537818
1283.0, 0.0039096670438814015
1284.0, 0.004036415276982341
1285.0, 0.003102947112602797
1286.0, 0.0045482203060263505
1287.0, 0.005290873113462494
1288.0, 0.0029686604146237218
1289.0, 0.004231447208997812
1290.0, 0.0065588443041510345
1291.0, 0.008265403496999396
1292.0, 0.007824876874225242
1293.0, 0.006342086040322108
1294.0, 0.005858438234762248
1295.0, 0.005252507700805177
1296.0, 0.003767286694013005
1297.0, 0.003342397791191282
1298.0, 0.005570989172619955
1299.0, 0.008847529301337505
1300.0, 0.009288754615887268
1301.0, 0.006354662489453304
1302.0, 0.005850588614503752
1303.0, 0.0053211597701646645
1304.0, 0.005799587868905619
1305.0, 0.007313229997103393
1306.0, 0.008057384826783101
1307.0, 0.008400554060091447
1308.0, 0.008970694812030465
1309.0, 0.008637317654093864
1310.0, 0.008019658441849457
1311.0, 0.007749917687515774
1312.0, 0.007611266224423786
1313.0, 0.006503670370580041
1314.0, 0.0069246197015414
1315.0, 0.005577858674368804
1316.0, 0.004263908727119546
1317.0, 0.004642116787793774
1318.0, 0.004090579851548123
1319.0, 0.005608191965687077
1320.0, 0.004575076149475626
1321.0, 0.004196837950654887
1322.0, 0.003391120945063322
1323.0, 0.0014190139854600343
1324.0, 0.0038112686972732626
1325.0, 0.004731859289981282
1326.0, 0.003641074325685383
1327.0, 0.003269189833815367
1328.0, 0.0038812920846742175
1329.0, 0.003938774725797017
1330.0, 0.0011296346001572967
1331.0, 0.004100303236236714
1332.0, 0.007115214324351952
1333.0, 0.006982482814892925
1334.0, 0.006155975234168911
1335.0, 0.007609854102696866
1336.0, 0.002973034208765912
1337.0, 0.0021443564015554166
1338.0, 0.002223554896803299
1339.0, 0.0019121147862736078
1340.0, 0.0015238851908341486
1341.0, 0.0018969629629005866
1342.0, 0.001471252903449925
1343.0, 0.0022704072146770846
1344.0, 0.0017920114585439153
1345.0, 0.0025409259190686136
1346.0, 0.00430587675391321
1347.0, 0.0049920335931035315
1348.0, 0.004949926943233418
1349.0, 0.005336498847550839
1350.0, 0.0031115852733763364
1351.0, 0.0012716558201287368
1352.0, 0.0027124410688038492
1353.0, 0.007037273031242051
1354.0, 0.0025830341661621683
1355.0, 0.0030381743591135907
1356.0, 0.00432095776902263
1357.0, 0.00395288780904844
1358.0, 0.003035596991985117
1359.0, 0.0039388774132206
1360.0, 0.002984733480768453
1361.0, 0.0027857037200349757
1362.0, 0.002728333405660632
1363.0, 0.002766423222919398
1364.0, 0.003279751593135269
1365.0, 0.004339913238296766
1366.0, 0.0037710774685693203
1367.0, 0.004415092631238727
1368.0, 0.004721444943402903
1369.0, 0.004578848521572917
1370.0, 0.004018242351546895
1371.0, 0.0031912422334184724
1372.0, 0.0025643141785143503
1373.0, 0.0031821763166824894
1374.0, 0.00431484910096694
1375.0, 0.0034799816656833744
1376.0, 0.0019253886579739359
1377.0, 0.0029820737578622534
1378.0, 0.009061322635100202
1379.0, 0.005698237570256428
1380.0, 0.005403691734121327
1381.0, 0.005208581113520002
1382.0, 0.004441909495503522
1383.0, 0.0033332889522106517
1384.0, 0.0005915910732092388
1385.0, 0.0035305430803835337
1386.0, 0.003998092854073881
1387.0, 0.001994905708248991
1388.0, 0.0007489053559679766
1389.0, 0.0017010531325417262
1390.0, 0.0005749168224998832
1391.0, 0.0022501903979504608
1392.0, 0.004660798235890337
1393.0, 0.0026445667046342816
1394.0, 0.0010896775646689115
1395.0, 0.0032180996779609464
1396.0, 0.0044286427406827035
1397.0, 0.0022384433068695017
1398.0, 0.0012578773540942861
1399.0, 0.0032313359794118204
1400.0, 0.004335240931517995
1401.0, 0.003263401519315427
1402.0, 0.002813832219231287
1403.0, 0.00043919348024473856
1404.0, 0.0008885716964674405
1405.0, 0.0010340021323928745
1406.0, 0.0021608523636644384
1407.0, 0.003166433885004246
1408.0, 0.0014728828299797212
1409.0, 0.0003536128258560008
1410.0, 0.0008124340115335605
1411.0, 0.0005686910790115942
1412.0, 0.0004037069816366562
1413.0, 0.0004338916310695456
1414.0, 0.0002839164405175877
1415.0, 3.598019850112444e-05
1416.0, 0.001043923670095865
1417.0, 0.0005498047307865336
1418.0, 0.0010854603548968186
1419.0, 0.0013297136089535063
1420.0, 0.0006749466769468932
1421.0, 0.0030398776604097367
1422.0, 0.002646040865728192
1423.0, 0.000901435159315715
1424.0, 0.0003515708818816029
1425.0, 0.0005217338936712681
1426.0, 0.0015805252275419219
1427.0, 0.00452434103942893
1428.0, 0.0006288094338736388
1429.0, 0.0022968323217826404
1430.0, 0.0029049364184896257
1431.0, 0.0018852327845637127
1432.0, 0.0009162922622462166
1433.0, 0.0016139421259988346
1434.0, 0.0013464098830192211
1435.0, 0.002986155104129563
1436.0, 0.005089910235648904
1437.0, 0.006401074593414864
1438.0, 0.007536007006456974
1439.0, 0.009083384655841364
1440.0, 0.009296648623247566
1441.0, 0.0069821430550928865
1442.0, 0.008288017396868873
1443.0, 0.00869235333942639
1444.0, 0.007202208052601912
1445.0, 0.005381773112966808
1446.0, 0.005640133481851965
1447.0, 0.0039585780505131014
1448.0, 0.004108107140790056
1449.0, 0.0025297533615649013
1450.0, 0.0016401011695209057
1451.0, 0.0014061850404902738
1452.0, 0.0004447248897724642
1453.0, 0.0022562668910791894
1454.0, 0.0023047039318532755
1455.0, 0.0028531484553681423
1456.0, 0.0035522413850079333
1457.0, 0.0028453109145849696
1458.0, 0.0010014976277206613
1459.0, 0.0018736655461732495
1460.0, 0.0036302750159970818
1461.0, 0.0015567338751266953
1462.0, 0.0006600879872969747
1463.0, 0.00036115401857165293
1464, 0.0
1465, 0.0
1466, 0.0
1467, 0.0
1468, 0.0
1469, 0.0
1470, 0.0
1471, 0.0
1472, 0.0
1473, 0.0
1474, 0.0
1475, 0.0
1476, 0.0
1477, 0.0
1478, 0.0
1479, 0.0
1480, 0.0
1481, 0.0
1482, 0.0
1483, 0.0
1484, 0.0
1485, 0.0
1486, 0.0
1487, 0.0
1488, 0.0
1489, 0.0
1490, 0.0
1491, 0.0
1492, 0.0
1493, 0.0
1494, 0.0
1495, 0.0
1496, 0.0
1497, 0.0
1498, 0.0
1499, 0.0
1500, 0.0
1501, 0.0
1502, 0.0
1503, 0.0
1504, 0.0
1505, 0.0
1506, 0.0
1507, 0.0
1508, 0.0
1509, 0.0
1510, 0.0
1511, 0.0
1512, 0.0
1513, 0.0
1514, 0.0
1515, 0.0
1516, 0.0
1517, 0.0
1518, 0.0
1519, 0.0
1520, 0.0
1521, 0.0
1522, 0.0
1523, 0.0
1524, 0.0
1525, 0.0
1526, 0.0
1527, 0.0
1528, 0.0
1529, 0.0
1530, 0.0
1531, 0.0
1532, 0.0
1533, 0.0
1534, 0.0
1535, 0.0
1536, 0.0
1537, 0.0
1538, 0.0
1539, 0.0
1540, 0.0
1541, 0.0
1542, 0.0
1543, 0.0
1544, 0.0
1545, 0.0
1546, 0.0
1547, 0.0
1548, 0.0
1549, 0.0
1550, 0.0
1551, 0.0
1552, 0.0
1553, 0.0
1554, 0.0
1555, 0.0
1556, 0.0
1557, 0.0
1558, 0.0
1559, 0.0
1560, 0.0
1561, 0.0
1562, 0.0
1563, 0.0
1564, 0.0
1565, 0.0
1566, 0.0
1567, 0.0
1568, 0.0
1569, 0.0
1570, 0.0
1571, 0.0
1572, 0.0
1573, 0.0
1574, 0.0
1575, 0.0
1576, 0.0
1577, 0.0
1578, 0.0
1579, 0.0
1580, 0.0
1581, 0.0
1582, 0.0
1583, 0.0
1584, 0.0
1585, 0.0
1586, 0.0
1587, 0.0
1588, 0.0
1589, 0.0
1590, 0.0
1591, 0.0
1592, 0.0
1593, 0.0
1594, 0.0
1595, 0.0
1596, 0.0
1597, 0.0
1598, 0.0
1599, 0.0
