30, 0.0
31, 0.0
32, 0.0
33, 0.0
34, 0.0
35, 0.0
36, 0.0
37, 0.0
38, 0.0
39, 0.0
40, 0.0
41, 0.0
42, 0.0
43, 0.0
44, 0.0
45, 0.0
46, 0.0
47, 0.0
48, 0.0
49, 0.0
50, 0.0
51, 0.0
52, 0.0
53, 0.0
54, 0.0
55.0, 1.4002095067147343e-05
56.0, 0.0004258284205714937
57.0, 0.0014488074099381874
58.0, 0.0022971997651730146
59.0, 0.0014336877829149715
60.0, 0.001735700475351099
61.0, 0.0021490346519288297
62.0, 0.002430248317276912
63.0, 0.0031931968840135535
64.0, 0.0032359257109319172
65.0, 0.003065974024800717
66.0, 0.0034987986307085414
67.0, 0.0032387669916456303
68.0, 0.0037366422589940112
69.0, 0.005302728384309351
70.0, 0.006204218237165034
71.0, 0.006740497398552526
72.0, 0.006606520854394706
73.0, 0.00507164805490617
74.0, 0.004699050024805703
75.0, 0.003971301765129565
76.0, 0.0026254743122234104
77.0, 0.0017014921039279112
78.0, 0.0007807361406491184
79.0, 0.0001772695242382513
80.0, 0.0004229901057095104
81.0, 0.0002281578871965751
82.0, 7.443088647026533e-05
83.0, 4.395769674400628e-05
84.0, 0.0001235119942885569
85.0, 0.0006074314983681965
86.0, 0.0008786970781619831
87.0, 0.00020100305987833455
88.0, 0.0005156194446509763
89.0, 0.0005257405958164085
90.0, 0.00031755901698853474
91.0, 0.0016553302616336193
92.0, 0.0029912330164220753
93.0, 0.003515572905739647
94.0, 0.0023326546127025592
95.0, 0.003909688672803496
96.0, 0.004159161002130487
97.0, 0.0032191477980599713
98.0, 0.0031716400336109594
99.0, 0.003782584375241721
100.0, 0.004322232520560099
101.0, 0.004333742097961627
102.0, 0.004572281186275319
103.0, 0.004360205892072848
104.0, 0.004119770283160648
105.0, 0.005315047951223564
106.0, 0.005381639537898935
107.0, 0.006112304871737346
108.0, 0.008299153232135186
109.0, 0.0065358072150599605
110.0, 0.006013822523211028
111.0, 0.006303878917014854
112.0, 0.0066926914977935145
113.0, 0.006069596570082436
114.0, 0.006112255490299604
115.0, 0.007339257598780503
116.0, 0.010081886885956907
117.0, 0.010977158211824907
118.0, 0.011221754671955282
119.0, 0.012264646086381566
120.0, 0.009990730190237676
121.0, 0.008081491201765845
122.0, 0.007257258695297647
123.0, 0.008574390842488873
124.0, 0.008919121700210707
125.0, 0.008886448600989375
126.0, 0.008878909015593973
127.0, 0.009259243913894903
128.0, 0.009469808869982204
129.0, 0.00968851070063024
130.0, 0.010798014545744972
131.0, 0.0108274217230438
132.0, 0.010890903997052918
133.0, 0.011518377015888323
134.0, 0.011395423644482776
135.0, 0.011917559597073704
136.0, 0.012901938386720083
137.0, 0.014054835604123028
138.0, 0.0153749347420139
139.0, 0.016089490716715248
140.0, 0.016100945733799093
141.0, 0.01725906122801153
142.0, 0.01761466968612323
143.0, 0.01765580037247546
144.0, 0.017863588079726347
145.0, 0.017699169870551177
146.0, 0.017693746725486115
147.0, 0.017788490004270345
148.0, 0.017356255592633128
149.0, 0.01720399487745409
150.0, 0.017368812118627452
151.0, 0.01792289895760937
152.0, 0.01716221436763499
153.0, 0.017063282643238503
154.0, 0.017401436145699497
155.0, 0.01763991782928583
156.0, 0.017504870115998723
157.0, 0.016804210772096675
158.0, 0.015648043716059445
159.0, 0.01685974758485767
160.0, 0.017167806682476562
161.0, 0.017509206265335375
162.0, 0.01895591467297929
163.0, 0.018989912410510023
164.0, 0.019288907042327715
165.0, 0.019872364116188652
166.0, 0.020041407117880806
167.0, 0.019893568862388016
168.0, 0.019461937177643194
169.0, 0.018730770967321043
170.0, 0.01841448242437252
171.0, 0.019038012544506728
172.0, 0.019664167981680768
173.0, 0.01846458388649874
174.0, 0.019138573116102984
175.0, 0.019529070062018632
176.0, 0.019260121791847756
177.0, 0.018909881981685573
178.0, 0.018986631480417626
179.0, 0.019105528127963903
180.0, 0.01897301910812783
181.0, 0.018971883708590643
182.0, 0.019516622763838715
183.0, 0.020172663004770965
184.0, 0.019662632374939988
185.0, 0.020215606995364954
186.0, 0.021125977881440786
187.0, 0.022202409382104767
188.0, 0.023482421814009332
189.0, 0.02440599214254628
190.0, 0.02528519406909891
191.0, 0.026447754730651748
192.0, 0.027590617298504382
193.0, 0.028517872030529214
194.0, 0.029351453030938862
195.0, 0.030599341070388364
196.0, 0.03134756402516285
197.0, 0.03180674771076684
198.0, 0.0320992802218174
199.0, 0.03383889584939973
200.0, 0.03351298504365936
201.0, 0.03287627371093936
202.0, 0.03414799480427211
203.0, 0.03266248615087799
204.0, 0.032727119278689085
205.0, 0.034188611190234953
206.0, 0.03439481136996381
207.0, 0.035927614937111566
208.0, 0.037479858986548674
209.0, 0.03835981001749434
210.0, 0.034255975225100085
211.0, 0.0291469195398346
212.0, 0.02422936730177617
213.0, 0.02119647234783833
214.0, 0.019637082301705758
215.0, 0.018724217463502335
216.0, 0.01821163473147868
217.0, 0.017500316631487583
218.0, 0.018359717287153767
219.0, 0.01887383052118002
220.0, 0.018253712665278917
221.0, 0.0181935793110515
222.0, 0.018611773563509817
223.0, 0.018819496524105094
224.0, 0.01788386522477405
225.0, 0.018983613280724582
226.0, 0.019923257500595933
227.0, 0.020502798806191675
228.0, 0.02079262604785382
229.0, 0.020444173282409963
230.0, 0.02033936778753586
231.0, 0.020760581277722186
232.0, 0.02064462495602203
233.0, 0.0214697719573143
234.0, 0.022345069347385758
235.0, 0.022338017840878202
236.0, 0.022376587091638474
237.0, 0.022702377305895315
238.0, 0.02316026482518058
239.0, 0.023264004907892388
240.0, 0.02362294122913488
241.0, 0.0240194421707928
242.0, 0.024291360152127364
243.0, 0.02342113654104837
244.0, 0.02364568010472966
245.0, 0.023881408262980235
246.0, 0.023305818126643753
247.0, 0.02377160448484815
248.0, 0.024157922595127508
249.0, 0.024147755447778394
250.0, 0.023083369867428174
251.0, 0.02214375741045495
252.0, 0.021591921673176855
253.0, 0.021373836243526873
254.0, 0.02091342676879935
255.0, 0.02124087513081429
256.0, 0.021178715753611823
257.0, 0.020147024919479967
258.0, 0.019188695263835622
259.0, 0.018158617001610113
260.0, 0.01760275102006822
261.0, 0.018286306162924877
262.0, 0.01708216769379612
263.0, 0.01726171411853767
264.0, 0.018056535176767707
265.0, 0.01631793704063152
266.0, 0.016023478887903002
267.0, 0.016027274099301225
268.0, 0.015936789284397134
269.0, 0.015019692998717946
270.0, 0.01634411791524233
271.0, 0.01684388558284385
272.0, 0.014394015235456624
273.0, 0.01496276695402662
274.0, 0.01605081072317722
275.0, 0.016862637894555162
276.0, 0.016093876096489334
277.0, 0.014864286882329446
278.0, 0.014917987177103586
279.0, 0.015776423105622703
280.0, 0.014972262045631804
281.0, 0.01434566307963402
282.0, 0.014451214067065336
283.0, 0.01529202271120762
284.0, 0.01467215997783178
285.0, 0.014537305702981977
286.0, 0.014477581190019042
287.0, 0.01420561986563792
288.0, 0.013481244415936797
289.0, 0.013373146320212793
290.0, 0.013433245024547503
291.0, 0.012943414837897498
292.0, 0.012288526916763298
293.0, 0.012437614964908894
294.0, 0.013143141332038184
295.0, 0.013203237379127838
296.0, 0.013024427532387493
297.0, 0.012633697458036101
298.0, 0.012123601896207911
299.0, 0.012276652762624254
300.0, 0.012000019106753003
301.0, 0.011977568558476903
302.0, 0.012638317253100858
303.0, 0.01281921862263437
304.0, 0.013765640630711047
305.0, 0.0146649215670582
306.0, 0.014453845541294013
307.0, 0.01576219274273273
308.0, 0.016994150348105093
309.0, 0.01820932117970911
310.0, 0.01988774955297131
311.0, 0.020190222875968902
312.0, 0.020898035946961
313.0, 0.022155082256450718
314.0, 0.022697874019959673
315.0, 0.0228568066751805
316.0, 0.02370080162393955
317.0, 0.02558606251837978
318.0, 0.02633221915480838
319.0, 0.027078671615454377
320.0, 0.02808359862832517
321.0, 0.029583379522374643
322.0, 0.029095722675815044
323.0, 0.029270387473139016
324.0, 0.029387844145738078
325.0, 0.028247797928856073
326.0, 0.027998242474830178
327.0, 0.02671843054682219
328.0, 0.025243385283199565
329.0, 0.026531548071597192
330.0, 0.024129721806564943
331.0, 0.022624636697007115
332.0, 0.02254087906772371
333.0, 0.020911198055185404
334.0, 0.021165176555780093
335.0, 0.021042622999646883
336.0, 0.019760828791948893
337.0, 0.02000958958897198
338.0, 0.019371502514309302
339.0, 0.018103592074712724
340.0, 0.016350989540109398
341.0, 0.016088952183694615
342.0, 0.015982329784597453
343.0, 0.016289092883806984
344.0, 0.017391677142772708
345.0, 0.01775308131903943
346.0, 0.017442668221830864
347.0, 0.016774050481413758
348.0, 0.01638990523797445
349.0, 0.01634572399251341
350.0, 0.015944536699758424
351.0, 0.015229504438846722
352.0, 0.014775150601844327
353.0, 0.015120293531851266
354.0, 0.015034307349229722
355.0, 0.014194198649104872
356.0, 0.012912618903870346
357.0, 0.01227115750115883
358.0, 0.012070487450641909
359.0, 0.012073705796181953
360.0, 0.009761628308144239
361.0, 0.009258647632346219
362.0, 0.008972310726732602
363.0, 0.007714939545104699
364.0, 0.007486467279722812
365.0, 0.00723404089242403
366.0, 0.007085945352111352
367.0, 0.0072084055054600325
368.0, 0.006224065218922266
369.0, 0.005792932095326335
370.0, 0.005636092882728101
371.0, 0.005098301782762184
372.0, 0.004956914697516628
373.0, 0.004338669457002523
374.0, 0.0034597128222607913
375.0, 0.00321387214366543
376.0, 0.003425610712068438
377.0, 0.0034451437790886017
378.0, 0.0032514936805933775
379.0, 0.0033386091312863197
380.0, 0.0034407642614082906
381.0, 0.0031471786151742354
382.0, 0.0024134687587883405
383.0, 0.00190910778462576
384.0, 0.0024359548012181575
385.0, 0.0022125423573620628
386.0, 0.0006169189312299393
387.0, 0.0007786636813978264
388.0, 0.0013672296495172368
389.0, 0.0016920740026070268
390.0, 0.0012880495375728678
391.0, 0.0004875549570527231
392.0, 0.00016414818762603532
393.0, 0.0002845304978660357
394.0, 0.0008442084375891367
395.0, 0.0021904038555954283
396.0, 0.00246509869026767
397.0, 0.0022796096928190245
398.0, 0.0024333882457199182
399.0, 0.0013016131091949201
400.0, 0.0015064224709992096
401.0, 0.0024985406563664417
402.0, 0.00313558080641467
403.0, 0.004332967562804607
404.0, 0.003562197814445153
405.0, 0.0018939050157283132
406.0, 0.0023482424511870157
407.0, 0.0024432398538874484
408.0, 0.0019518639156007461
409.0, 0.0010953538862304686
410.0, 0.0006423512651249318
411.0, 0.0006427163326264372
412.0, 0.0015613689815838494
413.0, 0.0031704756686765415
414.0, 0.004144020148351006
415.0, 0.005270051426407935
416.0, 0.006899489783093326
417.0, 0.008944851773977594
418.0, 0.010365391313222193
419.0, 0.012095196012397698
420.0, 0.014366318738277426
421.0, 0.017165742198274485
422.0, 0.019700544708480077
423.0, 0.022121478804132035
424.0, 0.02448491161384405
425.0, 0.026829839051677136
426.0, 0.029310975912426207
427.0, 0.03111569164271241
428.0, 0.03146894165914075
429.0, 0.03015281168604095
430.0, 0.03101823359126523
431.0, 0.02835773753067056
432.0, 0.025466373804462667
433.0, 0.024332002081070628
434.0, 0.021218272006313797
435.0, 0.019890321159642115
436.0, 0.018652158878696007
437.0, 0.016245569695112934
438.0, 0.014768205138070268
439.0, 0.013315469849553506
440.0, 0.012863529688503399
441.0, 0.014297409527102716
442.0, 0.013450992239886904
443.0, 0.014253270935216875
444.0, 0.015511313799688509
445.0, 0.016005677958003176
446.0, 0.017181448293773084
447.0, 0.017455543172601496
448.0, 0.017627118199276547
449.0, 0.018643571175895778
450.0, 0.017277243985032362
451.0, 0.017340430626384597
452.0, 0.017431127924954493
453.0, 0.01563339156784302
454.0, 0.014121981238146676
455.0, 0.014307237825651591
456.0, 0.014737056208066323
457.0, 0.013329477154702648
458.0, 0.013489181324381627
459.0, 0.013030037161158253
460.0, 0.012118114095444983
461.0, 0.011139263557957505
462.0, 0.011467606392630319
463.0, 0.01241673225365004
464.0, 0.013424820323397538
465.0, 0.013676841272162685
466.0, 0.012769641184798126
467.0, 0.012932455210859993
468.0, 0.013558786040693173
469.0, 0.013437245611280544
470.0, 0.013578034964144278
471.0, 0.013747668842270485
472.0, 0.014211041411949024
473.0, 0.015452590865391977
474.0, 0.015349170445615476
475.0, 0.016434097635452855
476.0, 0.01794105058114138
477.0, 0.018285975421977074
478.0, 0.018659318009779147
479.0, 0.01963382737923856
480.0, 0.020939381583894603
481.0, 0.022068033258945952
482.0, 0.02303474090683077
483.0, 0.024220511027056444
484.0, 0.02574457942645586
485.0, 0.0277705817628684
486.0, 0.026830764173189945
487.0, 0.027395396553777283
488.0, 0.028324409744978574
489.0, 0.027366124691795904
490.0, 0.028591817962898645
491.0, 0.030224324692382124
492.0, 0.031344092477126814
493.0, 0.03072587787278411
494.0, 0.03020457666772508
495.0, 0.031470736183679425
496.0, 0.033019368748641
497.0, 0.03263726526025976
498.0, 0.03306887022183916
499.0, 0.03316080482463651
500.0, 0.033199984455229765
501.0, 0.03361582830361172
502.0, 0.03356289852321917
503.0, 0.03398844188681825
504.0, 0.034224714097861715
505.0, 0.03345858221706056
506.0, 0.033743038803555614
507.0, 0.03404750721638375
508.0, 0.0339113782697407
509.0, 0.03287271124863642
510.0, 0.03329953824068689
511.0, 0.032965012468402013
512.0, 0.03221453655854844
513.0, 0.0314275311345189
514.0, 0.03341432456905266
515.0, 0.032613884392127944
516.0, 0.032382288357558645
517.0, 0.035212995129112475
518.0, 0.03447246520613542
519.0, 0.03621033673917962
520.0, 0.03850320298045268
521.0, 0.0399612757276174
522.0, 0.039899660858138855
523.0, 0.043213188465802174
524.0, 0.04671260492733514
525.0, 0.048691982828951146
526.0, 0.051223265980090554
527.0, 0.053939630177773944
528.0, 0.0562737792452277
529.0, 0.05827159082505405
530.0, 0.0624954417691617
531.0, 0.06325145839673808
532.0, 0.06496983517528387
533.0, 0.06833389083060883
534.0, 0.06689565203913896
535.0, 0.06539553335957266
536.0, 0.06517178588999427
537.0, 0.06581831703967585
538.0, 0.06360390946534292
539.0, 0.062299636811051426
540.0, 0.06073610637604666
541.0, 0.05884795349499692
542.0, 0.057403905656845736
543.0, 0.05686950006041342
544.0, 0.05636730325653088
545.0, 0.05534803650510647
546.0, 0.05280788815667641
547.0, 0.05357344698574402
548.0, 0.05194015289549792
549.0, 0.0485896134463118
550.0, 0.0463115033584252
551.0, 0.04389274005473537
552.0, 0.04208967343584593
553.0, 0.040390094693800095
554.0, 0.03793631587608805
555.0, 0.03692873554257274
556.0, 0.03611787847376203
557.0, 0.03537759827195209
558.0, 0.034621597451644316
559.0, 0.03561720177023733
560.0, 0.035918780519017396
561.0, 0.036040330623205656
562.0, 0.03631639823827229
563.0, 0.03434504732411008
564.0, 0.03412116802658337
565.0, 0.033684999186694105
566.0, 0.03183369264724223
567.0, 0.0288344521641194
568.0, 0.02846987531901045
569.0, 0.027733822657843264
570.0, 0.025785659200328194
571.0, 0.025684102581336923
572.0, 0.02677273400042176
573.0, 0.027109026204505705
574.0, 0.026547758955140097
575.0, 0.026879330351358963
576.0, 0.028501692021436275
577.0, 0.029848929317573467
578.0, 0.03092219274988809
579.0, 0.032557773108315945
580.0, 0.033658853955984024
581.0, 0.035072665426659766
582.0, 0.036385593670441224
583.0, 0.03669514897719993
584.0, 0.0377778051378326
585.0, 0.0387683199675737
586.0, 0.03943011822477309
587.0, 0.03954871731312747
588.0, 0.03949649861829015
589.0, 0.043363648624741645
590.0, 0.04709783910537333
591.0, 0.04779667143246885
592.0, 0.053048167423669246
593.0, 0.05818725115217411
594.0, 0.06310965379881499
595.0, 0.06818604474093924
596.0, 0.07648649085710929
597.0, 0.08421939886680842
598.0, 0.09202324384825963
599.0, 0.09990282963371339
600.0, 0.10697542779871773
601.0, 0.11293279851063583
602.0, 0.11955307476312671
603.0, 0.12518853563677407
604.0, 0.12486391854557986
605.0, 0.12516118043193988
606.0, 0.12245486258250941
607.0, 0.11787772184028131
608.0, 0.11377510909841503
609.0, 0.1045072363398308
610.0, 0.09422193815644175
611.0, 0.08399440877643213
612.0, 0.07477259526267592
613.0, 0.0669614325893017
614.0, 0.059342101271235174
615.0, 0.05231121171017804
616.0, 0.046149470232304396
617.0, 0.041181633992049084
618.0, 0.03678248650344612
619.0, 0.03298938785793563
620.0, 0.029702407585215813
621.0, 0.02646253586980702
622.0, 0.023173491915043875
623.0, 0.02055736339448283
624.0, 0.01865904520518081
625.0, 0.01724114222482873
626.0, 0.014750724625702214
627.0, 0.01239366652031771
628.0, 0.010198888815680379
629.0, 0.008056732549671463
630.0, 0.008069422391120214
631.0, 0.006464926809563789
632.0, 0.004790517107002001
633.0, 0.004251802061354033
634.0, 0.0038192175196065897
635.0, 0.0028524226665455057
636.0, 0.002124945294795845
637.0, 0.0018346912498750474
638.0, 0.001143828895086527
639.0, 0.0009952746871100008
640.0, 0.0015163631472796808
641.0, 0.0021856859828208487
642.0, 0.0015586738766657153
643.0, 0.0019045337631366246
644.0, 0.002577584353151842
645.0, 0.002942912794759913
646.0, 0.0022079036201532462
647.0, 0.002624216673107883
648.0, 0.0026787899787705824
649.0, 0.0028809105900240587
650.0, 0.0035605516924246414
651.0, 0.0034255521527799325
652.0, 0.003379786431228902
653.0, 0.00357210727907941
654.0, 0.0039139586995555874
655.0, 0.0036911598550147576
656.0, 0.004099560491499285
657.0, 0.004006620862813069
658.0, 0.003783404607949275
659.0, 0.004847407461000501
660.0, 0.004831027082948804
661.0, 0.003875222327028044
662.0, 0.003263641763166585
663.0, 0.004443023966904636
664.0, 0.004008990927589541
665.0, 0.003739942492784908
666.0, 0.003538525694976925
667.0, 0.00345100592464811
668.0, 0.0043232374975583215
669.0, 0.0032987868305518475
670.0, 0.002651565254094806
671.0, 0.0024006594796240873
672.0, 0.00025516036358371624
673.0, 0.00039171169298131127
674.0, 0.0005390425296199914
675.0, 0.0005325819393679345
676.0, 0.0006043484430712047
677.0, 0.00090967270923419
678.0, 0.0006843610986204102
679.0, 0.00044430679943835037
680.0, 0.000593274056096831
681.0, 0.0008179821583888768
682.0, 0.002039656279609808
683.0, 0.002799826310924359
684.0, 0.0027436329180360983
685.0, 0.0027188504462739185
686.0, 0.003346693224745198
687.0, 0.0032561292528442073
688.0, 0.0028529824337861225
689.0, 0.0032297947459351555
690.0, 0.0039047809187246194
691.0, 0.004652627321306771
692.0, 0.005103786476937157
693.0, 0.005065482550398814
694.0, 0.005844392588323033
695.0, 0.005808153700467804
696.0, 0.006066898235929019
697.0, 0.007010714124145585
698.0, 0.00838866178546234
699.0, 0.008905850553639894
700.0, 0.009921581404638474
701.0, 0.011391769699744324
702.0, 0.012861058806580032
703.0, 0.013447209737130737
704.0, 0.015232803662765084
705.0, 0.016310528681078088
706.0, 0.015667788922024903
707.0, 0.018443237487133363
708.0, 0.021781152702848604
709.0, 0.024324310579394152
710.0, 0.025640579445262632
711.0, 0.025920770391315424
712.0, 0.029047785108779565
713.0, 0.031356043733036375
714.0, 0.033919469679204006
715.0, 0.038751105897317006
716.0, 0.03849438484298629
717.0, 0.0407977269778733
718.0, 0.04414590104523476
719.0, 0.04746505151257278
720.0, 0.050478510269170815
721.0, 0.05437534247391986
722.0, 0.05808221880891649
723.0, 0.06185479754435976
724.0, 0.06693055538849427
725.0, 0.07115646391886343
726.0, 0.07583954034299854
727.0, 0.08053938975066885
728.0, 0.0849753552350956
729.0, 0.09321348557575526
730.0, 0.09625755917171773
731.0, 0.10135947340258497
732.0, 0.10977415956742152
733.0, 0.11408446973123854
734.0, 0.1196371682421286
735.0, 0.12474587736210042
736.0, 0.1304378325889192
737.0, 0.13854468661280578
738.0, 0.14494006538382612
739.0, 0.15270180607546863
740.0, 0.1608826885599551
741.0, 0.16923060011283206
742.0, 0.1801634432192663
743.0, 0.1901497246103946
744.0, 0.20113218749122116
745.0, 0.2138559385065484
746.0, 0.22879285093952612
747.0, 0.2484769377594712
748.0, 0.26235316638337325
749.0, 0.27425640032878335
750.0, 0.2880402958547452
751.0, 0.3032289791581798
752.0, 0.31430083517464774
753.0, 0.3251844008212603
754.0, 0.33389667342722945
755.0, 0.33127002643289694
756.0, 0.3356067408573055
757.0, 0.33191445516738294
758.0, 0.32332741572814694
759.0, 0.3149781071699355
760.0, 0.3066352208372392
761.0, 0.2908099608907576
762.0, 0.2755285315769019
763.0, 0.26290050632611284
764.0, 0.2479411331382189
765.0, 0.2284823905576761
766.0, 0.21107745494638958
767.0, 0.19466327483627419
768.0, 0.17718029294537513
769.0, 0.17080042200103912
770.0, 0.15759896840996324
771.0, 0.14668377518058323
772.0, 0.1405654933258417
773.0, 0.13075540643695366
774.0, 0.12686419916732308
775.0, 0.12511831520618386
776.0, 0.12350791088465625
777.0, 0.12028058231824847
778.0, 0.12458607043905193
779.0, 0.12656548920575156
780.0, 0.1287111260322256
781.0, 0.13173948920292491
782.0, 0.1328338985780828
783.0, 0.13436955197742995
784.0, 0.13293298917550367
785.0, 0.12876675494529588
786.0, 0.12316202019161021
787.0, 0.11584421818965952
788.0, 0.10872596796263576
789.0, 0.10069910397807025
790.0, 0.09215659157328315
791.0, 0.08717495222053782
792.0, 0.07988591665327922
793.0, 0.07354448891868373
794.0, 0.06900376272211334
795.0, 0.06646885120919786
796.0, 0.06120699916801896
797.0, 0.058280489694748326
798.0, 0.05564629819321195
799.0, 0.05296596898524599
800.0, 0.052967503206783645
801.0, 0.05091678602732846
802.0, 0.05057749423545314
803.0, 0.051170619854027634
804.0, 0.05118661009350877
805.0, 0.05335434860304945
806.0, 0.05535187713777052
807.0, 0.05599809212298771
808.0, 0.05630838241555713
809.0, 0.06105462241474983
810.0, 0.06342993861627223
811.0, 0.06477853310692791
812.0, 0.0682690787505402
813.0, 0.07616074259146177
814.0, 0.07842054195832163
815.0, 0.08371118001518059
816.0, 0.09147601855491978
817.0, 0.10064298824911035
818.0, 0.10910181135342123
819.0, 0.12209471740859378
820.0, 0.13652087082441217
821.0, 0.1527174104411596
822.0, 0.17104023029592919
823.0, 0.1914893081001012
824.0, 0.2187036978073461
825.0, 0.2521587803145778
826.0, 0.2899946506456172
827.0, 0.3289248754857192
828.0, 0.3805488535177282
829.0, 0.4395177949571209
830.0, 0.50733270802445
831.0, 0.5854817602417972
832.0, 0.6778693850276185
833.0, 0.7664144556428714
834.0, 0.8434228550544091
835.0, 0.9084867898597775
836.0, 0.9628469565960414
837.0, 0.9929060532011861
838.0, 0.9981325575150177
839.0, 0.9924163133285223
840.0, 0.9813477380815094
841.0, 0.9631190003937805
842.0, 0.9510015773984116
843.0, 0.9402457424178482
844.0, 0.9162802298618894
845.0, 0.8690718764842671
846.0, 0.8147481486969488
847.0, 0.7558124736547496
848.0, 0.6839417294086223
849.0, 0.6081127621829646
850.0, 0.5477315174725729
851.0, 0.49311463973655195
852.0, 0.4501580561904333
853.0, 0.4159134734779166
854.0, 0.38794989577247463
855.0, 0.36499744854685723
856.0, 0.3544821880625034
857.0, 0.3551648560592905
858.0, 0.36197121042096486
859.0, 0.3690669774217644
860.0, 0.37449948604081307
861.0, 0.3835831914514929
862.0, 0.3927846310719008
863.0, 0.39770944665540525
864.0, 0.3921546045011325
865.0, 0.3753754652045995
866.0, 0.3560433317621105
867.0, 0.33037155504519367
868.0, 0.2982774373887048
869.0, 0.2692551354786732
870.0, 0.24282293982936715
871.0, 0.2159701219020044
872.0, 0.1902556249465469
873.0, 0.16802908475678738
874.0, 0.15132979604668773
875.0, 0.13712306970086452
876.0, 0.12403662710651858
877.0, 0.11247136290140905
878.0, 0.10403543980992445
879.0, 0.0924724451658893
880.0, 0.08571967468378353
881.0, 0.08029671839418658
882.0, 0.07383870094634139
883.0, 0.06612671958088935
884.0, 0.060525496048176565
885.0, 0.05666200911368206
886.0, 0.0536810219308463
887.0, 0.05072386898980451
888.0, 0.047997658460238346
889.0, 0.044841167984618936
890.0, 0.04146822201938296
891.0, 0.03826366545613217
892.0, 0.03574406710478458
893.0, 0.03359185970545867
894.0, 0.031483111453694035
895.0, 0.029544285782376667
896.0, 0.027903238053358148
897.0, 0.026749413859195832
898.0, 0.025397046663394346
899.0, 0.024586836059155792
900.0, 0.024334917581326016
901.0, 0.02433452059908018
902.0, 0.023230156119089098
903.0, 0.02262084635685487
904.0, 0.022971406951632748
905.0, 0.02405773615863602
906.0, 0.025393019245504772
907.0, 0.026140987261833223
908.0, 0.027864090018176593
909.0, 0.030220912121173227
910.0, 0.033346619998647624
911.0, 0.03766093961276331
912.0, 0.04097367635524839
913.0, 0.04643622776231428
914.0, 0.05180955423988338
915.0, 0.05658791435390456
916.0, 0.06296046087818999
917.0, 0.06664349848555029
918.0, 0.06533193832596026
919.0, 0.061837875445307694
920.0, 0.058232870375752095
921.0, 0.052259229769460167
922.0, 0.04432830853798842
923.0, 0.0384787920730101
924.0, 0.034545967286373096
925.0, 0.03140431570773592
926.0, 0.028373783050587822
927.0, 0.025155076439432628
928.0, 0.024424984470249402
929.0, 0.023997181639992024
930.0, 0.01955185653591275
931.0, 0.021679598487947125
932.0, 0.02116358599003855
933.0, 0.02094698930296668
934.0, 0.021473613039417427
935.0, 0.020827223288094623
936.0, 0.019287099483026492
937.0, 0.019363570945675656
938.0, 0.01929165751089978
939.0, 0.018917015300371785
940.0, 0.02144681356534516
941.0, 0.020587424785294774
942.0, 0.020214099764235754
943.0, 0.02108358268024131
944.0, 0.023080686121753086
945.0, 0.024186261017482762
946.0, 0.024698717546826024
947.0, 0.027172391147765245
948.0, 0.03026908675604179
949.0, 0.03230131153924666
950.0, 0.03471088467755562
951.0, 0.03694216338316254
952.0, 0.03993444711287067
953.0, 0.04315875579111373
954.0, 0.045599687073004665
955.0, 0.04734611862263148
956.0, 0.049938106785806353
957.0, 0.05488473123445375
958.0, 0.06203049848082729
959.0, 0.0702486238862565
960.0, 0.08282887920834543
961.0, 0.09638258461962974
962.0, 0.11310863001483253
963.0, 0.13250890690986009
964.0, 0.15148072049804462
965.0, 0.16733259237427492
966.0, 0.17945094297188494
967.0, 0.1867711495319148
968.0, 0.18741386480752759
969.0, 0.1776343626575976
970.0, 0.16543057800064834
971.0, 0.14959262759143213
972.0, 0.1326360753288015
973.0, 0.11661354449994636
974.0, 0.10252043934334606
975.0, 0.09251017742120952
976.0, 0.08218557749534032
977.0, 0.07371824388914991
978.0, 0.06777307504802511
979.0, 0.05920319676891393
980.0, 0.05336112036565522
981.0, 0.04946009125748398
982.0, 0.04580632323738342
983.0, 0.041336625273852755
984.0, 0.03801871570295088
985.0, 0.03601750066789607
986.0, 0.0326762523051674
987.0, 0.030484345451955698
988.0, 0.03136383113861128
989.0, 0.029487858493468598
990.0, 0.027248950413273996
991.0, 0.026540648442068857
992.0, 0.02670453366985912
993.0, 0.026583837618639826
994.0, 0.02623391330388134
995.0, 0.025519277316544957
996.0, 0.02502308154905059
997.0, 0.024943643284921296
998.0, 0.02524744126490605
999.0, 0.0250451659338014
1000.0, 0.024947579878074586
1001.0, 0.024647430749165988
1002.0, 0.024867576786169906
1003.0, 0.02618898909716581
1004.0, 0.02420898035664282
1005.0, 0.025088160518553067
1006.0, 0.024736264579123757
1007.0, 0.023952848570542123
1008.0, 0.02503945206011572
1009.0, 0.024978644562025667
1010.0, 0.02414856702227514
1011.0, 0.023648854866926007
1012.0, 0.023878735492263693
1013.0, 0.024708824205616035
1014.0, 0.023390797285829
1015.0, 0.023851419415242867
1016.0, 0.02319319214495274
1017.0, 0.02166748495888468
1018.0, 0.020887383243610575
1019.0, 0.021298725329889957
1020.0, 0.02138827495655055
1021.0, 0.020250922566871235
1022.0, 0.019143174394413622
1023.0, 0.020017224743309088
1024.0, 0.020817626025068217
1025.0, 0.018503745237470164
1026.0, 0.018453523010414502
1027.0, 0.019155831236077205
1028.0, 0.016823548343943385
1029.0, 0.01648284268463269
1030.0, 0.015270586073942497
1031.0, 0.01405302902954271
1032.0, 0.0134017503263721
1033.0, 0.01356473864298096
1034.0, 0.012863641664817923
1035.0, 0.01362216550287738
1036.0, 0.014152647835581096
1037.0, 0.013932549918162368
1038.0, 0.013019312905628744
1039.0, 0.012596851661808866
1040.0, 0.01239395298488785
1041.0, 0.011493133447644554
1042.0, 0.011287901440521088
1043.0, 0.012872202065898342
1044.0, 0.010691365378060787
1045.0, 0.010413095460019043
1046.0, 0.009449823955617016
1047.0, 0.008119703746406377
1048.0, 0.007250030114183841
1049.0, 0.006309566022965197
1050.0, 0.0063673686222968815
1051.0, 0.005787041878209675
1052.0, 0.004453843466961557
1053.0, 0.0030178841655179997
1054.0, 0.0038196161942508056
1055.0, 0.0029191430783104405
1056.0, 0.002027752290682145
1057.0, 0.0014440259249469804
1058.0, 0.0011814400207394258
1059.0, 0.0011034656886105619
1060.0, 0.0006875574310499485
1061.0, 0.0004912633162638561
1062.0, 0.00029597261844682633
1063.0, 1.4576834237487193e-05
1064.0, 3.750886607475776e-05
1065.0, 0.00012852197106752718
1066.0, 0.0003517933019276431
1067.0, 0.000620175031645221
1068.0, 0.0011170682099667035
1069.0, 0.0024781088350499954
1070.0, 0.002180826190167329
1071.0, 0.0017913777853676954
1072.0, 0.0018390066440140914
1073.0, 0.0018290807352082218
1074.0, 0.00023522608077053889
1075.0, 0.0004543550562271869
1076.0, 0.0011810411094906978
1077.0, 0.001325076649054805
1078.0, 0.0011153294616337555
1079.0, 0.001719685549642223
1080.0, 0.0028431582407410136
1081.0, 0.0012929149612051095
1082.0, 0.0009115628649260909
1083.0, 0.0014271399914566728
1084.0, 0.0008964139867818895
1085.0, 0.0011783928012459699
1086.0, 0.0008519772813696841
1087.0, 0.0013544065171135846
1088.0, 0.0019645082933473336
1089.0, 0.0017363871428428645
1090.0, 0.0020202224691039127
1091.0, 0.0017357849630915754
1092.0, 0.001117732333546305
1093.0, 0.0010430404862559186
1094.0, 0.0018645606577136202
1095.0, 0.002150617770930217
1096.0, 0.002194355748567408
1097.0, 0.002688085696897637
1098.0, 0.002488603759939232
1099.0, 0.001303289793162699
1100.0, 0.0004984535235209274
1101.0, 0.0001412396281210353
1102.0, 0.0011489532960227752
1103.0, 0.001462622254133159
1104.0, 0.0007519335980555181
1105.0, 0.00041965346811347884
1106.0, 0.00010674533709119192
1107.0, 0.0019318708985729591
1108.0, 0.002037929774878916
1109.0, 0.0007171156717272146
1110.0, 0.0004342466147354417
1111.0, 0.002171126634111116
1112.0, 0.0010158583933433303
1113.0, 0.0004805486722970319
1114.0, 0.0006905334098880177
1115.0, 0.0008497084201967804
1116.0, 0.0005389976211086148
1117.0, 0.0009078994673521487
1118.0, 0.001347717319357636
1119.0, 0.001070888144081347
1120.0, 0.0001433662093617636
1121.0, 0.0003482870529692189
1122.0, 0.0017809214048103861
1123.0, 0.005191453166940058
1124.0, 0.007376577077438252
1125.0, 0.007096946745038311
1126.0, 0.00535260759843791
1127.0, 0.0019025357996785152
1128.0, 0.0005545827089632017
1129.0, 0.0009521222798945719
1130.0, 0.0013766342521232453
1131.0, 7.705344355240342e-05
1132.0, 3.720315465032809e-05
1133.0, 0.00024914513786699396
1134.0, 0.0002156526068974135
1135.0, 0.00011944756124763934
1136.0, 0.00014852624923784337
1137.0, 9.82690326800878e-06
1138.0, 0.0004305444100624415
1139.0, 0.0006097373314326225
1140.0, 0.0005230662175247855
1141.0, 0.0004259249020758033
1142.0, 0.0008208409238401696
1143.0, 0.0007127140937892188
1144.0, 0.0003290720044127453
1145.0, 0.00026658908791556303
1146.0, 0.0005619581901476038
1147.0, 0.0008542626592367464
1148.0, 0.0005495516727821036
1149.0, 0.0008478266575795345
1150.0, 0.0011802003453708924
1151.0, 0.0011754296190328846
1152.0, 0.0008041636111094899
1153.0, 0.0008898116666027907
1154.0, 0.00034624450329551193
1155.0, 0.0008359455220479112
1156.0, 0.0016707255354158873
1157.0, 0.0022672383214256313
1158.0, 0.0024693057808458855
1159.0, 0.0007798065996214352
1160.0, 0.0010424910475280726
1161.0, 0.0012767279563176495
1162.0, 0.0012338563637832095
1163.0, 0.0015794814471851001
1164.0, 0.0024468933802681593
1165.0, 0.0017352562938415044
1166.0, 0.0018573374596817364
1167.0, 0.0022373206310049775
1168.0, 0.0020208546243090596
1169.0, 0.0011792971454344953
1170.0, 0.0027051618429904615
1171.0, 0.0031813942491627388
1172.0, 0.0033132075908064397
1173.0, 0.0031539272461260106
1174.0, 0.0022075722505143554
1175.0, 0.0029256436276313734
1176.0, 0.003762398389977662
1177.0, 0.0043025717069599696
1178.0, 0.004027328423273864
1179.0, 0.0032075496766239033
1180.0, 0.004904131772042928
1181.0, 0.005147031130095934
1182.0, 0.007089762123003829
1183.0, 0.008147138002832352
1184.0, 0.007404808433932506
1185.0, 0.006766074229037382
1186.0, 0.007009076546405249
1187.0, 0.006963219826812382
1188.0, 0.006960223276720706
1189.0, 0.007114778190527189
1190.0, 0.0073981239734640025
1191.0, 0.007636826003391093
1192.0, 0.008191478974580649
1193.0, 0.008684073479864059
1194.0, 0.009347615950859098
1195.0, 0.0100762097338926
1196.0, 0.01016659665325538
1197.0, 0.009491629530567742
1198.0, 0.01032069509045117
1199.0, 0.011715968057070772
1200.0, 0.012346267228538769
1201.0, 0.011527172948175849
1202.0, 0.012682644133302
1203.0, 0.011664501212920465
1204.0, 0.0123153533533957
1205.0, 0.013446505219238857
1206.0, 0.014083662759428694
1207.0, 0.014876913718680475
1208.0, 0.014295351198512652
1209.0, 0.015592390702173012
1210.0, 0.01602108978113337
1211.0, 0.01583688761597704
1212.0, 0.0164121964407562
1213.0, 0.016414197932879196
1214.0, 0.017091620751705196
1215.0, 0.017376597917378334
1216.0, 0.01716792426843317
1217.0, 0.017051461056735676
1218.0, 0.018213732822218314
1219.0, 0.018792021082041716
1220.0, 0.01873011966890358
1221.0, 0.019792829501475206
1222.0, 0.02063012644689086
1223.0, 0.019929714279039116
1224.0, 0.021929393930976086
1225.0, 0.01997179133587678
1226.0, 0.02019923075136568
1227.0, 0.021860685227568167
1228.0, 0.022826556700528796
1229.0, 0.020891151885915005
1230.0, 0.021226461342815205
1231.0, 0.022058572991045203
1232.0, 0.023625461031621442
1233.0, 0.024279628228721827
1234.0, 0.023408917443814757
1235.0, 0.02465838550607738
1236.0, 0.023108836834313404
1237.0, 0.02408688646751386
1238.0, 0.024666553572925243
1239.0, 0.02448453187944873
1240.0, 0.025103166977049743
1241.0, 0.024862033935040207
1242.0, 0.02464920029798654
1243.0, 0.02522374356870725
1244.0, 0.02551526953399661
1245.0, 0.025070942377798982
1246.0, 0.025018872332447605
1247.0, 0.025085118349172365
1248.0, 0.025939117600651523
1249.0, 0.026150003991300984
1250.0, 0.025508276121504168
1251.0, 0.024935121999109335
1252.0, 0.0271500686260422
1253.0, 0.02641283626378544
1254.0, 0.025715521171869826
1255.0, 0.025990289417143143
1256.0, 0.026301114401770926
1257.0, 0.02480422998315365
1258.0, 0.02507917388546016
1259.0, 0.02527280142514027
1260.0, 0.025321727401110244
1261.0, 0.025212307641212184
1262.0, 0.02488681974539665
1263.0, 0.024227257095599072
1264.0, 0.025378696787749337
1265.0, 0.024897819091049857
1266.0, 0.02398926372398167
1267.0, 0.024144248103478646
1268.0, 0.025871478856975716
1269.0, 0.026370076585056412
1270.0, 0.024610542278741807
1271.0, 0.025324699664298813
1272.0, 0.02578615306262271
1273.0, 0.02530170960978005
1274.0, 0.025141310803736328
1275.0, 0.025312807281929358
1276.0, 0.025010373286247792
1277.0, 0.025408549590869602
1278.0, 0.026070482372302903
1279.0, 0.02632761771726891
1280.0, 0.025771342438092638
1281.0, 0.02608520840524775
1282.0, 0.026103185519419547
1283.0, 0.026391042146521715
1284.0, 0.02642691116603389
1285.0, 0.025892773395942748
1286.0, 0.025618979805909
1287.0, 0.027294550847565952
1288.0, 0.0268348604439888
1289.0, 0.026104895549589384
1290.0, 0.025466702805196285
1291.0, 0.024430182612168404
1292.0, 0.02258584382208505
1293.0, 0.02278901872720163
1294.0, 0.02313195166117308
1295.0, 0.022523344291367334
1296.0, 0.02161821377108576
1297.0, 0.021615625999206616
1298.0, 0.01958653727901226
1299.0, 0.019163873606193958
1300.0, 0.018709449786018132
1301.0, 0.017939436401439197
1302.0, 0.01691857972490189
1303.0, 0.01590151816074516
1304.0, 0.015321357192903094
1305.0, 0.015113575630516936
1306.0, 0.014807559464150412
1307.0, 0.013685124388880593
1308.0, 0.012213869644473237
1309.0, 0.012319803138372524
1310.0, 0.011419770803007866
1311.0, 0.010579016514955748
1312.0, 0.010531572829871827
1313.0, 0.010086523853936354
1314.0, 0.009011654026900894
1315.0, 0.009845036498891877
1316.0, 0.010129882487636284
1317.0, 0.009953878510214597
1318.0, 0.008295125374911208
1319.0, 0.006871369785492541
1320.0, 0.007069817525253906
1321.0, 0.006795735644737244
1322.0, 0.007614312512821707
1323.0, 0.006402158117129273
1324.0, 0.005669400047375785
1325.0, 0.005770726943138371
1326.0, 0.005743328206157491
1327.0, 0.004477493685666623
1328.0, 0.005956677219659443
1329.0, 0.00511981152153322
1330.0, 0.005653130288796847
1331.0, 0.006482885479762774
1332.0, 0.005166703714716056
1333.0, 0.005423656772200343
1334.0, 0.005678066230532322
1335.0, 0.0050149544413859316
1336.0, 0.004338467562456524
1337.0, 0.003997082826523411
1338.0, 0.003854359216581155
1339.0, 0.003856784536504045
1340.0, 0.005037641021679314
1341.0, 0.0049627734552234355
1342.0, 0.005085149301424644
1343.0, 0.005705500070273921
1344.0, 0.005922576850982132
1345.0, 0.004521607868503312
1346.0, 0.0043191207468223
1347.0, 0.004155900774244234
1348.0, 0.0044382780143424685
1349.0, 0.004488076944019648
1350.0, 0.0035006625223493576
1351.0, 0.004207752246524622
1352.0, 0.0040045608346162016
1353.0, 0.003793267396209517
1354.0, 0.00393380658391289
1355.0, 0.004303049478191311
1356.0, 0.004477251415136167
1357.0, 0.004199200345205732
1358.0, 0.004753353758532092
1359.0, 0.0048170052177730445
1360.0, 0.004702744307585501
1361.0, 0.004613714220504822
1362.0, 0.0045030559883214
1363.0, 0.004176543401568948
1364.0, 0.003614304842539959
1365.0, 0.00317468711507191
1366.0, 0.0034714991354680884
1367.0, 0.004096028871858481
1368.0, 0.0041474949517944885
1369.0, 0.0036487482910880155
1370.0, 0.002773010176858807
1371.0, 0.003240593906651798
1372.0, 0.00313670898474084
1373.0, 0.00266757593358628
1374.0, 0.0029143446710779624
1375.0, 0.002724899908065754
1376.0, 0.00235434564539852
1377.0, 0.002281889216965892
1378.0, 0.001513474727574926
1379.0, 0.0010069957872509794
1380.0, 0.0018054670548209718
1381.0, 0.0021620901644807
1382.0, 0.0025425583560789965
1383.0, 0.0018091402858036389
1384.0, 0.0007763297852135567
1385.0, 0.000320279158164645
1386.0, 0.0006385313197516254
1387.0, 0.000588951502117513
1388.0, 0.0012422488488096394
1389.0, 0.001380374035607821
1390.0, 0.001424573483009591
1391.0, 0.00116240992806722
1392.0, 0.0007798154959945522
1393.0, 0.0013837987218956592
1394.0, 0.0008693161056129119
1395.0, 0.0009661876689018382
1396.0, 0.000566096669259889
1397.0, 0.00020061745196118245
1398.0, 0.00027824492592666713
1399.0, 0.0003680101565933853
1400.0, 0.00018858186767175666
1401.0, 0.00026941866648093983
1402.0, 0.0008588162790070581
1403.0, 0.0007600113436741104
1404.0, 5.627675259054532e-05
1405.0, 0.0001630164275708955
1406.0, 0.0006769199535396023
1407.0, 0.0007588802184803733
1408.0, 0.0003142933179430212
1409.0, 0.00028659604279057427
1410.0, 0.0009509465511488744
1411.0, 0.0015680910373582961
1412.0, 0.00012023326276742628
1413.0, 0.0006636419406236268
1414.0, 0.0010010473841677314
1415.0, 0.0013230295974025576
1416.0, 0.0010842338737060554
1417.0, 0.00010074223952838266
1418.0, 6.922801595853658e-05
1419.0, 0.00016223578626066668
1420.0, 0.0008737089639981079
1421.0, 0.0006190740827804074
1422.0, 0.00029465600169556867
1423.0, 0.0007769542284733955
1424.0, 0.0013029255357342464
1425.0, 0.0004048824966900116
1426.0, 0.00010733598837878512
1427.0, 2.4389620087970568e-05
1428.0, 0.0009571731227528003
1429.0, 0.0017235628264015014
1430.0, 0.00010787741590228091
1431.0, 0.0008920980766305492
1432.0, 0.00042048554422426424
1433.0, 0.00024333210832575204
1434.0, 0.0007775589693282171
1435.0, 0.00154860316672157
1436.0, 0.0017730332920672738
1437.0, 0.001342525113502798
1438.0, 0.001533350083469165
1439.0, 0.0023147157313761885
1440.0, 0.0020357266999540585
1441.0, 0.0016286063730572911
1442.0, 0.0022588713120701032
1443.0, 0.0033136828143473848
1444.0, 0.001800770162067262
1445.0, 0.0020667814803885984
1446.0, 0.0031286055895761414
1447.0, 0.003759322178552795
1448.0, 0.003935265749658599
1449.0, 0.004456050484954626
1450.0, 0.0035380706813801
1451.0, 0.004567602102463658
1452.0, 0.0047130186592092985
1453.0, 0.004767789722964935
1454.0, 0.004609950940768948
1455.0, 0.004439160822387829
1456.0, 0.006897980612897377
1457.0, 0.005999849930550731
1458.0, 0.0064932865000308804
1459.0, 0.007427869305831828
1460.0, 0.007244050938975418
1461.0, 0.006164491529180922
1462.0, 0.006583038964479034
1463.0, 0.00807183876515526
1464.0, 0.007986785519582732
1465.0, 0.006961890028660322
1466.0, 0.006980665680052513
1467.0, 0.007499353075352227
1468.0, 0.007092883011965792
1469.0, 0.007794084423335977
1470.0, 0.007695338125045848
1471.0, 0.007422899829373238
1472.0, 0.007644406671856037
1473.0, 0.008102414622866863
1474.0, 0.007942011641106675
1475.0, 0.006499096079222803
1476.0, 0.007038237609456123
1477.0, 0.007561725695731469
1478.0, 0.008730714415931753
1479.0, 0.009513445345118242
1480.0, 0.009972267717245147
1481.0, 0.010779579387997403
1482.0, 0.01124347842493065
1483.0, 0.011859114127630903
1484.0, 0.01165341120163261
1485.0, 0.011879081351593533
1486.0, 0.011613723214383274
1487.0, 0.01144309613689952
1488.0, 0.013927290261387388
1489.0, 0.012813563396520733
1490.0, 0.015271433413368807
1491.0, 0.015359745316994588
1492.0, 0.015056307236134067
1493.0, 0.01529070052182456
1494.0, 0.015829818249382864
1495.0, 0.017239360179058402
1496.0, 0.016593622507751017
1497.0, 0.017913651403161392
1498.0, 0.01827531979853951
1499.0, 0.01787124077503719
1500.0, 0.018100279694962248
1501.0, 0.019394905944068525
1502.0, 0.0166106841431607
1503.0, 0.01713955434191808
1504.0, 0.01734745627093265
1505.0, 0.01714176208526485
1506.0, 0.016800315125124525
1507.0, 0.01666585593583713
1508.0, 0.016912045692889417
1509.0, 0.0158115266042558
1510.0, 0.014222305741298423
1511.0, 0.014394086769771223
1512.0, 0.012894800070939814
1513.0, 0.010827162739134016
1514.0, 0.01134941838919831
1515.0, 0.010382224729982514
1516.0, 0.009114577477726794
1517.0, 0.00715466247829672
1518.0, 0.0058784411783529954
1519.0, 0.005016808757852776
1520.0, 0.003982715020373702
1521.0, 0.002647551211674503
1522.0, 0.001452320951446975
1523.0, 0.0005869645733064467
1524.0, 0.0004991539562239354
1525.0, 0.00027026566068272766
1526, 0.0
1527, 0.0
1528, 0.0
1529, 0.0
1530, 0.0
1531, 0.0
1532, 0.0
1533, 0.0
1534, 0.0
1535, 0.0
1536, 0.0
1537, 0.0
1538, 0.0
1539, 0.0
1540, 0.0
1541, 0.0
1542, 0.0
1543, 0.0
1544, 0.0
1545, 0.0
1546, 0.0
1547, 0.0
1548, 0.0
1549, 0.0
1550, 0.0
1551, 0.0
1552, 0.0
1553, 0.0
1554, 0.0
1555, 0.0
1556, 0.0
1557, 0.0
1558, 0.0
1559, 0.0
1560, 0.0
1561, 0.0
1562, 0.0
1563, 0.0
1564, 0.0
1565, 0.0
1566, 0.0
1567, 0.0
1568, 0.0
1569, 0.0
1570, 0.0
1571, 0.0
1572, 0.0
1573, 0.0
1574, 0.0
1575, 0.0
1576, 0.0
1577, 0.0
1578, 0.0
1579, 0.0
1580, 0.0
1581, 0.0
1582, 0.0
1583, 0.0
1584, 0.0
1585, 0.0
1586, 0.0
1587, 0.0
1588, 0.0
1589, 0.0
1590, 0.0
1591, 0.0
1592, 0.0
1593, 0.0
1594, 0.0
1595, 0.0
1596, 0.0
1597, 0.0
1598, 0.0
1599, 0.0
