30, 0.0
31, 0.0
32, 0.0
33, 0.0
34, 0.0
35, 0.0
36, 0.0
37, 0.0
38, 0.0
39, 0.0
40, 0.0
41, 0.0
42, 0.0
43, 0.0
44, 0.0
45, 0.0
46, 0.0
47, 0.0
48, 0.0
49, 0.0
50, 0.0
51, 0.0
52, 0.0
53, 0.0
54, 0.0
55, 0.0
56, 0.0
57, 0.0
58, 0.0
59, 0.0
60, 0.0
61, 0.0
62, 0.0
63, 0.0
64, 0.0
65, 0.0
66, 0.0
67, 0.0
68, 0.0
69, 0.0
70, 0.0
71, 0.0
72, 0.0
73, 0.0
74, 0.0
75, 0.0
76, 0.0
77, 0.0
78, 0.0
79, 0.0
80, 0.0
81, 0.0
82.0, 0.0008700103382714136
83.0, 0.002493504912797822
84.0, 0.002014442166539167
85.0, 0.0015640968005972082
86.0, 0.0010107471765924314
87.0, 0.000178919754767955
88.0, 0.0015688451906199843
89.0, 0.0027456338342837054
90.0, 0.0034393635085412356
91.0, 0.003909299135553354
92.0, 0.004544161089581354
93.0, 0.004932298633437919
94.0, 0.004663192841350906
95.0, 0.00453050757343274
96.0, 0.0040724725997945245
97.0, 0.0034980904272858106
98.0, 0.003984095551617035
99.0, 0.003401936579120655
100.0, 0.0028670382154721095
101.0, 0.0030651724927568537
102.0, 0.0016150977644590167
103.0, 0.0013618594530409858
104.0, 0.0024065892917611376
105.0, 0.005074815655108381
106.0, 0.005050183392269546
107.0, 0.004325938977616387
108.0, 0.0036376635480670607
109.0, 0.002560818360812834
110.0, 0.0013211263404811157
111.0, 0.0005764423955749369
112.0, 0.001914734340710603
113.0, 0.003429904009741703
114.0, 0.004443267738616222
115.0, 0.004732670685715107
116.0, 0.0042291469748994125
117.0, 0.0036759578374969196
118.0, 0.0031027399212023316
119.0, 0.0025441627922749045
120.0, 0.0027587780404964312
121.0, 0.0034803950787095756
122.0, 0.0044730124623882156
123.0, 0.004205867958599212
124.0, 0.0036413980066786695
125.0, 0.003606903367158782
126.0, 0.004920481468743334
127.0, 0.00418804707598146
128.0, 0.004272077271108077
129.0, 0.004821157145001415
130.0, 0.0036805194020222017
131.0, 0.0036340012634752377
132.0, 0.003752118071589478
133.0, 0.003617048448919472
134.0, 0.002868129756429965
135.0, 0.0029447858735550374
136.0, 0.003632492793286973
137.0, 0.004606063795453223
138.0, 0.00444028096409651
139.0, 0.004007783670853439
140.0, 0.0035204206569587524
141.0, 0.0030024224596701564
142.0, 0.0022899202530113866
143.0, 0.001749227293170038
144.0, 0.0018532323160474443
145.0, 0.0019838150057532406
146.0, 0.0015682930398305869
147.0, 0.0009605115811325606
148.0, 0.0023671068997913386
149.0, 0.001428124968206275
150.0, 0.0004310762684976913
151.0, 0.0006932278981310985
152.0, 0.0007087955680616972
153.0, 0.000791771559664589
154.0, 0.0009133861628880834
155.0, 0.0009975011928600459
156.0, 0.000575733076208095
157.0, 0.00028536698398311445
158.0, 0.00034254259759395093
159.0, 0.0012234844170328114
160.0, 0.0010585894842784168
161.0, 0.0006151570312415851
162.0, 0.000693084769173195
163.0, 0.0002915033426728794
164.0, 0.0004263843742501589
165.0, 0.0009082191447579431
166.0, 0.00040470769830783444
167.0, 0.0005037295253824554
168.0, 0.0005529725925391606
169.0, 0.00022515340647747374
170.0, 0.0005492482917739662
171.0, 0.0004356373269008282
172.0, 0.0001765739354440373
173.0, 0.00030857825785788267
174.0, 0.0007057942315724497
175.0, 0.0009219924462049649
176.0, 0.0009066155793501238
177.0, 0.0010327241901215394
178.0, 0.0011597899378688076
179.0, 0.001180400369018339
180.0, 0.0009898845635502615
181.0, 0.0008116864931419476
182.0, 0.0010566393691993797
183.0, 0.0014238226182088848
184.0, 0.0010212736248984423
185.0, 0.0009863605865406458
186.0, 0.0014028707223882385
187.0, 0.002244577474326787
188.0, 0.0023285335551710383
189.0, 0.002643853173229144
190.0, 0.0032726592911020065
191.0, 0.00437552565309309
192.0, 0.005481789986071669
193.0, 0.006399787900408998
194.0, 0.007367376381139114
195.0, 0.009349703545065396
196.0, 0.01030887417470539
197.0, 0.010496080725056164
198.0, 0.009961865537582618
199.0, 0.009131076549275226
200.0, 0.00891734147047068
201.0, 0.008568621731304954
202.0, 0.007072547655300501
203.0, 0.00616144099441514
204.0, 0.0055398725108942335
205.0, 0.005163872116440972
206.0, 0.005018586563236597
207.0, 0.004381378897976243
208.0, 0.004020790600280103
209.0, 0.0042554065308866825
210.0, 0.0037500914798495252
211.0, 0.003676922924076317
212.0, 0.0036444565815678094
213.0, 0.0031212960420195675
214.0, 0.003458683559043366
215.0, 0.003615005016003953
216.0, 0.0036737106810865667
217.0, 0.004539312977888991
218.0, 0.003915721184091989
219.0, 0.0033251688481818276
220.0, 0.0034275264385992257
221.0, 0.004410324987393457
222.0, 0.005046506049132114
223.0, 0.005579072369228562
224.0, 0.0063007306389702075
225.0, 0.007043863649007897
226.0, 0.007882623440087026
227.0, 0.008795624138593304
228.0, 0.009681506737147865
229.0, 0.010500669537893371
230.0, 0.011714211119823025
231.0, 0.013388442254953241
232.0, 0.013228777650557997
233.0, 0.013627317739648316
234.0, 0.014286164398778766
235.0, 0.014939668297560882
236.0, 0.01444239114360286
237.0, 0.014013432617543542
238.0, 0.013893081541318169
239.0, 0.014585544321595012
240.0, 0.014265378234409336
241.0, 0.013610577933557567
242.0, 0.012921582899389411
243.0, 0.013424945893641209
244.0, 0.012873030830382775
245.0, 0.0125853574771841
246.0, 0.013601882390769983
247.0, 0.012360741290029079
248.0, 0.012840639812759144
249.0, 0.013945634016465027
250.0, 0.01333950769938698
251.0, 0.012576253517040146
252.0, 0.01263067163692726
253.0, 0.013316837591149502
254.0, 0.012588772353335876
255.0, 0.012230458731389157
256.0, 0.011350555449236448
257.0, 0.00954489683690503
258.0, 0.00950670447051193
259.0, 0.009209342749984974
260.0, 0.008588064213313276
261.0, 0.00750511795704303
262.0, 0.008087562925830464
263.0, 0.007933588281679964
264.0, 0.007220630222513207
265.0, 0.007060251549843339
266.0, 0.006240468076334215
267.0, 0.005509917107969539
268.0, 0.005081292589229626
269.0, 0.004963686580752924
270.0, 0.0044897692839263635
271.0, 0.004027314815124982
272.0, 0.0038219885530333744
273.0, 0.003727493922696999
274.0, 0.003930992601945054
275.0, 0.004165385214433344
276.0, 0.00400488553438283
277.0, 0.0036508207933049256
278.0, 0.003918589446544433
279.0, 0.004510678606623341
280.0, 0.003994786829050465
281.0, 0.004894059523733962
282.0, 0.005278001865054534
283.0, 0.004652073592784239
284.0, 0.004667814321057624
285.0, 0.004217430366986224
286.0, 0.0038682551574200784
287.0, 0.00403950817151954
288.0, 0.0043503831059620735
289.0, 0.004279307948791852
290.0, 0.003921595334700032
291.0, 0.0033993241924816413
292.0, 0.003486649602008298
293.0, 0.0035081704943172444
294.0, 0.0035021345582225746
295.0, 0.003880597325525825
296.0, 0.003019867748863205
297.0, 0.002573310475683444
298.0, 0.002903074586170664
299.0, 0.002766893148586037
300.0, 0.0035211684411999185
301.0, 0.004088621075464827
302.0, 0.0038048721623560456
303.0, 0.003956466820294178
304.0, 0.004745343263138591
305.0, 0.00535881457977044
306.0, 0.004716187893758881
307.0, 0.005633169697908026
308.0, 0.00663952400161219
309.0, 0.0074665643584345
310.0, 0.007700011360729279
311.0, 0.009570433153632193
312.0, 0.010818250479134872
313.0, 0.011406244966046008
314.0, 0.013727941967500712
315.0, 0.015115321983326609
316.0, 0.01649287033342351
317.0, 0.018246440349405046
318.0, 0.020202642721387352
319.0, 0.02011774836990616
320.0, 0.020410220927463807
321.0, 0.023093106743770755
322.0, 0.02229365323786913
323.0, 0.022399361522620495
324.0, 0.022542734720774265
325.0, 0.021260585469550553
326.0, 0.020962309540886282
327.0, 0.02097753968411499
328.0, 0.02078181166692341
329.0, 0.019039395136067356
330.0, 0.018030051122353497
331.0, 0.017850135600868573
332.0, 0.018209114121180727
333.0, 0.0173241866858595
334.0, 0.017478382815149438
335.0, 0.016935190900466073
336.0, 0.015123201413764234
337.0, 0.014790565370670425
338.0, 0.014282201080103252
339.0, 0.013993183057454566
340.0, 0.014232106984335484
341.0, 0.013472927834352182
342.0, 0.013127976983341793
343.0, 0.013033279547620898
344.0, 0.012994983130899713
345.0, 0.012076958599448854
346.0, 0.010979092935293639
347.0, 0.009888756338568668
348.0, 0.009112059701800708
349.0, 0.00829197093695341
350.0, 0.007711456309931724
351.0, 0.007140846118275358
352.0, 0.005536398817552891
353.0, 0.004901023216946897
354.0, 0.0044683910713610026
355.0, 0.0040661266014835225
356.0, 0.004017992103513775
357.0, 0.0038327940307575775
358.0, 0.0033077659076204404
359.0, 0.002402709021539908
360.0, 0.00229055958672105
361.0, 0.0019210490693520872
362.0, 0.0014969632546159564
363.0, 0.0011689200191295054
364.0, 0.0009598208691494546
365.0, 0.0005547504751772445
366.0, 0.0002691704335459956
367.0, 0.0005004529456770397
368.0, 0.0008545371203496902
369.0, 0.0006598470973169322
370.0, 0.00023853814483507717
371.0, 0.00023363195259311736
372.0, 0.000645558454497785
373.0, 0.0006840117115329831
374.0, 0.00047627021676653467
375.0, 0.0006362845145132743
376.0, 0.0008229060331858142
377.0, 0.0008727385748316524
378.0, 0.0008663950604596816
379.0, 0.001305656111256711
380.0, 0.0014695291561129553
381.0, 0.0016029294043670124
382.0, 0.001826895534441261
383.0, 0.002447459074691349
384.0, 0.0029197196799951863
385.0, 0.003463500755193072
386.0, 0.004069957423272799
387.0, 0.0032778722259486155
388.0, 0.0027115166905075042
389.0, 0.0026273402303699195
390.0, 0.00318084808558874
391.0, 0.0028989770006942876
392.0, 0.0025496030512975544
393.0, 0.002306290187683031
394.0, 0.0023375156253828207
395.0, 0.0020747699642092313
396.0, 0.001416021287582544
397.0, 0.0010419803735523484
398.0, 0.0018655501250280657
399.0, 0.002060244159213574
400.0, 0.0017019654839606864
401.0, 0.0012112637414111395
402.0, 0.0013069646981382775
403.0, 0.0012055188060128836
404.0, 0.001302846084069813
405.0, 0.0015892282122162025
406.0, 0.0019651029392684103
407.0, 0.002107341715098502
408.0, 0.002485064940775399
409.0, 0.003056433454536904
410.0, 0.0034806630455030832
411.0, 0.0038061567942926644
412.0, 0.004077844846000975
413.0, 0.004182675422070008
414.0, 0.0036172767731763285
415.0, 0.004134314110532193
416.0, 0.004444068498438272
417.0, 0.004294229716682794
418.0, 0.004301334761834603
419.0, 0.004518130358638576
420.0, 0.004460747016292852
421.0, 0.0039613947377638865
422.0, 0.0031221381922561927
423.0, 0.0030827361954970343
424.0, 0.0029691647561367216
425.0, 0.0024097538262497368
426.0, 0.0016676428032088195
427.0, 0.0012822379555961208
428.0, 0.000960023907174485
429.0, 0.0005552582295797
430.0, 0.00025805960191656714
431.0, 0.00027100401367061627
432.0, 0.0004596432210389065
433.0, 0.0007156146368617037
434.0, 0.00043054081089640274
435.0, 0.0007793123738075426
436.0, 0.001050907844471336
437.0, 0.0007230725841407806
438.0, 0.001094529402229622
439.0, 0.0009133724365610475
440.0, 0.0008038600298733421
441.0, 0.001320631583592244
442.0, 0.0007161763552749506
443.0, 0.0003416104133447186
444.0, 0.00013183723682225792
445.0, 2.3946264306021247e-05
446.0, 0.00016352025562395547
447.0, 0.0002678353774552502
448.0, 0.00034765579043668756
449.0, 0.000418439988416885
450.0, 0.000652446096899771
451.0, 0.0005815075244471385
452.0, 0.0006604434811093227
453.0, 0.0014927645765702266
454.0, 0.0016525023824280499
455.0, 0.0015047687653055725
456.0, 0.0012046277228816057
457.0, 0.0009406602410433818
458.0, 0.0010213271197215227
459.0, 0.0013662156656009204
460.0, 0.0017316878690101616
461.0, 0.0017625980335816253
462.0, 0.0013404371592148994
463.0, 0.000953286444365581
464.0, 0.0007055274889814619
465.0, 0.0007230252917175667
466.0, 0.0015900203400144434
467.0, 0.00216610647728363
468.0, 0.002242551596203173
469.0, 0.0015806318614913892
470.0, 0.002151309300428634
471.0, 0.0019004974842941394
472.0, 0.001739937413929613
473.0, 0.0034426452467206732
474.0, 0.0029169256580765038
475.0, 0.0029285783983529603
476.0, 0.0032147545096939695
477.0, 0.0030006308872417434
478.0, 0.003035758699522532
479.0, 0.0042123010766759676
480.0, 0.0052525758829316685
481.0, 0.0039030114817294828
482.0, 0.005257046896081024
483.0, 0.005463108313302175
484.0, 0.0048837654569865545
485.0, 0.004535724379818499
486.0, 0.004610733829597478
487.0, 0.003900977048310612
488.0, 0.0031039841781538686
489.0, 0.0034396457886024683
490.0, 0.0032095687494701495
491.0, 0.003130112164076748
492.0, 0.0031106104933595912
493.0, 0.0029535754311906196
494.0, 0.002728281024202851
495.0, 0.0031334144090452752
496.0, 0.003448058135056473
497.0, 0.0026133617591244194
498.0, 0.0031448756826123877
499.0, 0.003767564565002631
500.0, 0.0040394916372932695
501.0, 0.0034547128617068525
502.0, 0.003503883003357112
503.0, 0.0038361942911328355
504.0, 0.004043570172428293
505.0, 0.0036600413951153616
506.0, 0.003987784680003873
507.0, 0.003502964444158831
508.0, 0.002976011382360368
509.0, 0.003234676581181599
510.0, 0.0029780060019671518
511.0, 0.002838826531016392
512.0, 0.0028170916468946757
513.0, 0.00290950387794554
514.0, 0.0029776548037776496
515.0, 0.002989016035508745
516.0, 0.003011494566677917
517.0, 0.0031129364850893525
518.0, 0.003607520280253104
519.0, 0.0034244424140074227
520.0, 0.003596651881331345
521.0, 0.004707918708639248
522.0, 0.004447542174057485
523.0, 0.0035967025946367966
524.0, 0.00368487565233153
525.0, 0.0053201314408812496
526.0, 0.005085718808196411
527.0, 0.004893487142424703
528.0, 0.004864890533956081
529.0, 0.004989670031261048
530.0, 0.004706686429350143
531.0, 0.004730623520746781
532.0, 0.004718003336011973
533.0, 0.004590996023141449
534.0, 0.004703736555947794
535.0, 0.004901413295468062
536.0, 0.0049946182893949535
537.0, 0.005020296507811626
538.0, 0.005414317302370346
539.0, 0.004740931542929082
540.0, 0.004962727774883952
541.0, 0.006069165448761279
542.0, 0.006364622245636192
543.0, 0.006756056890236913
544.0, 0.0076345367851342934
545.0, 0.008511997526556766
546.0, 0.00793556639026089
547.0, 0.008313544556044924
548.0, 0.008455259863410645
549.0, 0.008249359993070594
550.0, 0.007780528438886764
551.0, 0.007966169443094313
552.0, 0.00772067640302019
553.0, 0.007274251896017384
554.0, 0.007103913958396996
555.0, 0.007029483733203555
556.0, 0.007280896135569761
557.0, 0.007700640714373052
558.0, 0.008098758087827325
559.0, 0.00802691073400335
560.0, 0.008618784015053716
561.0, 0.008959358286686123
562.0, 0.008363189385875231
563.0, 0.00894365942940172
564.0, 0.009184292806221
565.0, 0.009416658611579816
566.0, 0.009805473920261458
567.0, 0.00991648615894529
568.0, 0.010132150450608978
569.0, 0.0106281113602281
570.0, 0.011384489087074307
571.0, 0.011802028326617016
572.0, 0.011851357105560638
573.0, 0.012513899677658166
574.0, 0.013620239117324812
575.0, 0.013328248328444302
576.0, 0.014777558292686748
577.0, 0.01642658737853994
578.0, 0.017871175352792663
579.0, 0.01889406254370736
580.0, 0.021026572058524547
581.0, 0.02259981539010756
582.0, 0.024093495359279477
583.0, 0.026700861152767957
584.0, 0.02792770360238618
585.0, 0.029988546228147506
586.0, 0.03321540912856634
587.0, 0.03782459088361537
588.0, 0.04018764440029739
589.0, 0.04518993570194522
590.0, 0.05155441224251114
591.0, 0.05823234842726692
592.0, 0.06597142129178897
593.0, 0.0749468064871221
594.0, 0.08393335500194068
595.0, 0.09311801391812492
596.0, 0.10864689924269422
597.0, 0.12298407880165145
598.0, 0.1350280511642362
599.0, 0.14609636744518018
600.0, 0.1630614824718859
601.0, 0.17315610471957743
602.0, 0.18506342578064613
603.0, 0.20129458785659915
604.0, 0.22356171000643907
605.0, 0.2106316378103353
606.0, 0.20640588838905544
607.0, 0.20191980251594108
608.0, 0.1763015929728851
609.0, 0.15848321109420008
610.0, 0.13904891548835754
611.0, 0.11842235040559125
612.0, 0.09769425974273549
613.0, 0.08661159791897169
614.0, 0.07948390108062339
615.0, 0.06974905063684866
616.0, 0.054897464287452596
617.0, 0.0472451290234728
618.0, 0.041598207083189793
619.0, 0.03696788641876949
620.0, 0.03277023511586445
621.0, 0.028118347259686656
622.0, 0.02627705795653826
623.0, 0.024099552613882802
624.0, 0.02133682227667014
625.0, 0.01888883619658785
626.0, 0.01667716509644877
627.0, 0.014555977794621682
628.0, 0.013037276032770075
629.0, 0.012795690868827472
630.0, 0.010609175486335169
631.0, 0.009438020816759011
632.0, 0.008400331794536704
633.0, 0.00683333689437543
634.0, 0.005726466584587937
635.0, 0.005558941511057501
636.0, 0.005202943148307085
637.0, 0.004283536652142841
638.0, 0.003582872677424239
639.0, 0.004085142154070644
640.0, 0.00383821094929759
641.0, 0.0028278361617250507
642.0, 0.002295924712702615
643.0, 0.0025991726065104125
644.0, 0.0022684358983741148
645.0, 0.0018401140297435586
646.0, 0.002310772080659356
647.0, 0.0015373010654293538
648.0, 0.0018159309943096634
649.0, 0.0018137172717190265
650.0, 0.0006173849126490548
651.0, 0.0008150196654753043
652.0, 0.0004927332550437147
653.0, 0.00025002744840044985
654.0, 0.00028590122786075763
655.0, 0.00027756220875416486
656.0, 0.0002851780444415148
657.0, 0.0002211881720376684
658.0, 0.00018989723070841604
659.0, 0.0004717336200394089
660.0, 0.00039938863055108675
661.0, 0.0004555702339693617
662.0, 0.0005786991136399612
663.0, 0.0006594689300308936
664.0, 0.0015387951075632805
665.0, 0.0014250577861904226
666.0, 0.0011462951687877267
667.0, 0.001218271358417753
668.0, 0.0013528547950875675
669.0, 0.002144649150341854
670.0, 0.002352995832237217
671.0, 0.0017889120195940247
672.0, 0.0011434699032369547
673.0, 0.0017923231962750147
674.0, 0.0019152981901496356
675.0, 0.0018408814617864114
676.0, 0.002459372587265176
677.0, 0.0016206725527177306
678.0, 0.00143229250138341
679.0, 0.0017078951776369354
680.0, 0.0021431879955378505
681.0, 0.001592572882155299
682.0, 0.0017293080610601738
683.0, 0.0018198366129069607
684.0, 0.0016664026314350713
685.0, 0.0016264265126716211
686.0, 0.0014229979870626931
687.0, 0.0014217354953029717
688.0, 0.0015888480897595998
689.0, 0.0017563890285258908
690.0, 0.0005797062428577629
691.0, 0.0006164806941918095
692.0, 0.000761855273724333
693.0, 0.0001536931600540413
694.0, 0.0007507529468107107
695.0, 0.0003743818289292606
696.0, 0.0002752589663316578
697.0, 0.0007448939659324438
698.0, 0.0009499415775886093
699.0, 0.0008706730864858469
700.0, 0.0005648354922108402
701.0, 0.00024070091531722655
702.0, 0.00022227332204672505
703.0, 0.000657786840766252
704.0, 0.0011371783169998088
705.0, 0.001652577606423593
706.0, 0.0022623761998356853
707.0, 0.003528352869889525
708.0, 0.0031184791081131863
709.0, 0.0029349132093284633
710.0, 0.003638222701502997
711.0, 0.005127812842027795
712.0, 0.006048010291600341
713.0, 0.007006999407362959
714.0, 0.0076842428314783445
715.0, 0.007571181811871278
716.0, 0.008478779357414451
717.0, 0.010302172015236295
718.0, 0.011418601764717406
719.0, 0.011387791555745768
720.0, 0.014010395521103393
721.0, 0.014354999533254476
722.0, 0.015371639652924552
723.0, 0.016852120980845476
724.0, 0.016507591636858814
725.0, 0.017324667845258348
726.0, 0.01868163733122248
727.0, 0.020125833984613702
728.0, 0.02116889569365944
729.0, 0.020721094260563035
730.0, 0.02169992903838347
731.0, 0.022119298825434026
732.0, 0.021820097671986127
733.0, 0.02351941058602715
734.0, 0.024190107220543617
735.0, 0.025186837002071666
736.0, 0.026386607164775006
737.0, 0.02729092760948607
738.0, 0.02715607588988456
739.0, 0.028542109676578883
740.0, 0.03000916315786737
741.0, 0.030784044545224716
742.0, 0.032056330434308965
743.0, 0.03454525674421958
744.0, 0.035756434445130596
745.0, 0.036575060463042174
746.0, 0.04013840578285179
747.0, 0.04159294148822818
748.0, 0.044934188798900904
749.0, 0.04812473962486434
750.0, 0.04937949327738732
751.0, 0.05041290938723001
752.0, 0.05189708679486106
753.0, 0.053101895859958795
754.0, 0.05386541376894622
755.0, 0.05445266361574452
756.0, 0.05435723034679359
757.0, 0.05338753949901546
758.0, 0.0527559091162599
759.0, 0.053595338642969594
760.0, 0.052753729874440186
761.0, 0.05110933875145628
762.0, 0.05056439939015704
763.0, 0.05079216404078007
764.0, 0.047830083140325545
765.0, 0.04723190541204034
766.0, 0.047485430794716885
767.0, 0.04747656149370849
768.0, 0.04621486262404448
769.0, 0.04794542203015055
770.0, 0.04926653130210221
771.0, 0.051208992324813664
772.0, 0.053948947187148336
773.0, 0.05613063925590162
774.0, 0.05969703895534414
775.0, 0.06553310062477095
776.0, 0.07166882599186278
777.0, 0.07535581564597599
778.0, 0.08335877837852061
779.0, 0.08954259660961085
780.0, 0.09359607461366752
781.0, 0.0960536997774752
782.0, 0.0996572561669477
783.0, 0.09734827795481016
784.0, 0.09492775560226459
785.0, 0.0915772668835357
786.0, 0.08489150521935415
787.0, 0.07715286555723203
788.0, 0.0725460585380322
789.0, 0.06717401980011298
790.0, 0.06031060381748153
791.0, 0.05784844303452365
792.0, 0.05441238630580696
793.0, 0.051468348798470336
794.0, 0.04992446271996004
795.0, 0.05049359436796001
796.0, 0.04922549846327086
797.0, 0.0485736971336406
798.0, 0.048477596264547826
799.0, 0.04876399081276598
800.0, 0.04894888442993812
801.0, 0.05207184936049119
802.0, 0.05337560843435932
803.0, 0.053956151074861264
804.0, 0.055926671301592776
805.0, 0.05785726801710827
806.0, 0.05907867757353571
807.0, 0.061321681737524544
808.0, 0.06481935424705516
809.0, 0.0678896186300549
810.0, 0.07130720905202241
811.0, 0.07522355029541272
812.0, 0.07851347835791753
813.0, 0.08071593911928014
814.0, 0.09050256191052171
815.0, 0.09825424319018253
816.0, 0.10359090882116581
817.0, 0.10950395589527374
818.0, 0.12350361887874403
819.0, 0.13269154563704214
820.0, 0.1496590653813486
821.0, 0.16934690473475772
822.0, 0.18728621943733478
823.0, 0.2077929003845281
824.0, 0.24204543934767586
825.0, 0.275970618818814
826.0, 0.31333104505937154
827.0, 0.36728988905631543
828.0, 0.42834868849890245
829.0, 0.4929455775661762
830.0, 0.5771289415506718
831.0, 0.6822805715869631
832.0, 0.7712304479468598
833.0, 0.8675701321686232
834.0, 0.9454687507239259
835.0, 0.9867729940691076
836.0, 0.9791027743348883
837.0, 0.9960099148406423
838.0, 0.9682327762701851
839.0, 0.9409680604973434
840.0, 0.9354564727843889
841.0, 0.9549728492828433
842.0, 0.9155810733917414
843.0, 0.8890336765703112
844.0, 0.8527440534719495
845.0, 0.7836853425070484
846.0, 0.6969159500303111
847.0, 0.6253629194141277
848.0, 0.5528096270035635
849.0, 0.4851502219189553
850.0, 0.43957518049167765
851.0, 0.40011367914728135
852.0, 0.3691098931064696
853.0, 0.3505403654447031
854.0, 0.3422859169182053
855.0, 0.32917466339164475
856.0, 0.33918677016787946
857.0, 0.35227043635588184
858.0, 0.3655469772862854
859.0, 0.3796853390660305
860.0, 0.40618542404917357
861.0, 0.4151624100116226
862.0, 0.4149207611597178
863.0, 0.40956456788243517
864.0, 0.4020119017400851
865.0, 0.3664614844508059
866.0, 0.3385240363073399
867.0, 0.3093943180629706
868.0, 0.27485699743186637
869.0, 0.24329382259981555
870.0, 0.22182570041967234
871.0, 0.19570042238560956
872.0, 0.17217179623531084
873.0, 0.1601566943946382
874.0, 0.14185068592030353
875.0, 0.1265085826078312
876.0, 0.11598567368089233
877.0, 0.10721803733136383
878.0, 0.09295640495556108
879.0, 0.08773827929246382
880.0, 0.08087292129268027
881.0, 0.07462527408139494
882.0, 0.0701430491003027
883.0, 0.06609302733235661
884.0, 0.060248226293463596
885.0, 0.05643647985202747
886.0, 0.05327713054999923
887.0, 0.049177996181416155
888.0, 0.04719373111117442
889.0, 0.04603119400622622
890.0, 0.043654297188710285
891.0, 0.04083183399174438
892.0, 0.0397513531809465
893.0, 0.039275603859697195
894.0, 0.03739157505292935
895.0, 0.03659147118423885
896.0, 0.036988552432012045
897.0, 0.03535725234069134
898.0, 0.03367834696003601
899.0, 0.03246558602326498
900.0, 0.030651721559152804
901.0, 0.027754087872437872
902.0, 0.0258445416154968
903.0, 0.024923311067550226
904.0, 0.023964532954305978
905.0, 0.023059843012832027
906.0, 0.022490299982254953
907.0, 0.02151123157593356
908.0, 0.020994317016480316
909.0, 0.02045485879675873
910.0, 0.019902592623553345
911.0, 0.019655244551702786
912.0, 0.019952240660696823
913.0, 0.019610609644985098
914.0, 0.01906655687805522
915.0, 0.01886947352821733
916.0, 0.019913710806375128
917.0, 0.01852169559946715
918.0, 0.018485450661444598
919.0, 0.018477231946730534
920.0, 0.0175275539092308
921.0, 0.017308546542332347
922.0, 0.01635438628869055
923.0, 0.015577503504837411
924.0, 0.015566852957700416
925.0, 0.016410854670112204
926.0, 0.014453785145549326
927.0, 0.01484108644577603
928.0, 0.016015345793411725
929.0, 0.016710958293320744
930.0, 0.01576096441991386
931.0, 0.016163108015334778
932.0, 0.016956628946074893
933.0, 0.01757582261273528
934.0, 0.01809662566389157
935.0, 0.019240413161948983
936.0, 0.019013242280995917
937.0, 0.021166865728814883
938.0, 0.0232533864024109
939.0, 0.02377112851807881
940.0, 0.022959596318128998
941.0, 0.024724919470612776
942.0, 0.02552321963396121
943.0, 0.026163044974728763
944.0, 0.027779759325871817
945.0, 0.03146469905836719
946.0, 0.03208700536897176
947.0, 0.03425434183876161
948.0, 0.03756236098585199
949.0, 0.04066020519433226
950.0, 0.042703678823551534
951.0, 0.0462458895574188
952.0, 0.0481362894510903
953.0, 0.04941270326105795
954.0, 0.0521237576357464
955.0, 0.05068215207136179
956.0, 0.05220580920321654
957.0, 0.05739159671487569
958.0, 0.06518376538290485
959.0, 0.0734080294929456
960.0, 0.08624973287795328
961.0, 0.1068300497930561
962.0, 0.12487838319317766
963.0, 0.14206334593334674
964.0, 0.171325576478801
965.0, 0.18264799014030988
966.0, 0.18508265964951592
967.0, 0.183097597602578
968.0, 0.17515130255778952
969.0, 0.15037435774367006
970.0, 0.13616424731568474
971.0, 0.12132119828986594
972.0, 0.10552155102689212
973.0, 0.09066225793184224
974.0, 0.08256971658027809
975.0, 0.06982713443312662
976.0, 0.05986169117865163
977.0, 0.05317455564214348
978.0, 0.04859635692930946
979.0, 0.04219922482744335
980.0, 0.038524058144001824
981.0, 0.03487250885711564
982.0, 0.031479271617820145
983.0, 0.02877135424345402
984.0, 0.026484427688212346
985.0, 0.023640165591628137
986.0, 0.02209062383858789
987.0, 0.02112083652737183
988.0, 0.01972519851900809
989.0, 0.018047983356128075
990.0, 0.017090524319257366
991.0, 0.016377625192042583
992.0, 0.015982010636491583
993.0, 0.015877179132301942
994.0, 0.014615824851040179
995.0, 0.013364883406561409
996.0, 0.013983269220210308
997.0, 0.014407100071806433
998.0, 0.012353471569732126
999.0, 0.013979449092161582
1000.0, 0.01448038670953189
1001.0, 0.013714616670609131
1002.0, 0.013062768368583666
1003.0, 0.013973306223197713
1004.0, 0.012690125290394812
1005.0, 0.01258131512618244
1006.0, 0.013239738159883987
1007.0, 0.013331661789417965
1008.0, 0.011608132440629759
1009.0, 0.012405178441639323
1010.0, 0.012041385945115684
1011.0, 0.011308143705676238
1012.0, 0.01090589099466142
1013.0, 0.0113368813873911
1014.0, 0.010849276565989703
1015.0, 0.010917663306319297
1016.0, 0.010800996251067358
1017.0, 0.009978898998945785
1018.0, 0.008421502332189483
1019.0, 0.010857316144041132
1020.0, 0.010242202344389151
1021.0, 0.009392155803072214
1022.0, 0.009360937332505991
1023.0, 0.010232516648937384
1024.0, 0.00959004355005555
1025.0, 0.009836865684849608
1026.0, 0.009965552506635065
1027.0, 0.009514437470952207
1028.0, 0.008479178315995988
1029.0, 0.009211230655693374
1030.0, 0.008581875223700393
1031.0, 0.007781688855573597
1032.0, 0.007475367524603776
1033.0, 0.0078676779085988
1034.0, 0.006718032496009658
1035.0, 0.007874099392818551
1036.0, 0.007481701549523569
1037.0, 0.006534022551879228
1038.0, 0.007316446791398376
1039.0, 0.00805154715576732
1040.0, 0.007471857428456006
1041.0, 0.0070136160154600675
1042.0, 0.006978692625400001
1043.0, 0.00713725158427973
1044.0, 0.006150279898753736
1045.0, 0.006059192883034165
1046.0, 0.006030742890497845
1047.0, 0.005640024706023682
1048.0, 0.0047731885519462555
1049.0, 0.0043143324297032085
1050.0, 0.003632383146263926
1051.0, 0.003117418718082848
1052.0, 0.002517715139833666
1053.0, 0.0015910160777801064
1054.0, 0.0006380635117244181
1055.0, 0.0004635992371515506
1056.0, 0.00027594847309380993
1057.0, 0.0002650114218043937
1058.0, 0.0004971213383920575
1059.0, 0.00023594751731123088
1060.0, 0.0004987823238518089
1061.0, 0.0005946033961571385
1062.0, 0.000649514458467073
1063.0, 0.0009974204502602065
1064.0, 0.0022601920332219545
1065.0, 0.000567436811266879
1066.0, 0.0008859125074944636
1067.0, 0.001604936030508627
1068.0, 0.001484951332616371
1069.0, 0.0005666508697620794
1070.0, 0.0001493516249362799
1071.0, 0.00013629255664109066
1072.0, 0.00025830629716381583
1073.0, 0.0004673995276868797
1074.0, 0.0009537929289610229
1075.0, 0.0001959226205132235
1076.0, 0.0006589925904980883
1077.0, 0.0014105564171810042
1078.0, 0.0016026607439452271
1079.0, 0.000699454870042531
1080.0, 0.00252150647770717
1081.0, 0.0014274420969159988
1082.0, 0.0010738190182262
1083.0, 0.0015537878599875543
1084.0, 0.001353256437266879
1085.0, 0.0007413771772508932
1086.0, 0.0012003857447157314
1087.0, 0.0007664738701442981
1088.0, 0.0002706159592925255
1089.0, 0.0008856551707263605
1090.0, 0.0010995381886294002
1091.0, 0.0006149642635810892
1092.0, 0.0010238462389202678
1093.0, 0.0011812794238621018
1094.0, 0.0003479599280868602
1095.0, 0.0003645307145987026
1096.0, 0.001082799588745659
1097.0, 0.0006151366435671503
1098.0, 0.0001210122887578569
1099.0, 0.00024132885582676866
1100.0, 0.0002779174396958204
1101.0, 0.0007679309460809254
1102.0, 0.0010473574411867421
1103.0, 0.0008559078958696628
1104.0, 0.0004138750191535335
1105.0, 0.00036697146327548005
1106.0, 0.0006129504140068409
1107.0, 0.000281244735853358
1108.0, 0.0005262567611126983
1109.0, 0.00083372442265904
1110.0, 0.00011355117725090556
1111.0, 0.0003547648365176996
1112.0, 0.0009839774528892348
1113.0, 0.001011993475666158
1114.0, 0.0005435682804830694
1115.0, 4.47343984015264e-05
1116.0, 6.262671918357948e-05
1117.0, 0.0003700082398791398
1118.0, 0.000274637027774842
1119.0, 0.00030243150945668076
1120.0, 0.0005969139227538035
1121.0, 0.0001967912361361322
1122.0, 0.00016116500499441957
1123.0, 0.00045459244719299116
1124.0, 0.0005246980021135308
1125.0, 0.00028355551477207697
1126.0, 0.0001373772718980383
1127.0, 0.00013118135836000976
1128.0, 0.0003245501868347942
1129.0, 0.00035997953799785624
1130.0, 0.00034329054092474694
1131.0, 0.0005115998776618895
1132.0, 0.0002886545034571095
1133.0, 0.0012795769312380755
1134.0, 0.001633502712788037
1135.0, 0.0014210928630333756
1136.0, 0.0012808957376810822
1137.0, 0.0021042514027114693
1138.0, 0.0007033313758726502
1139.0, 0.0005627237543482429
1140.0, 0.0016524646267680834
1141.0, 0.0025658465957426524
1142.0, 0.0006682444137335288
1143.0, 0.0020679612477139063
1144.0, 0.002024388245391315
1145.0, 0.0012592894535958681
1146.0, 0.0007900114006440191
1147.0, 0.0014465250781953488
1148.0, 0.0012565195524064038
1149.0, 0.0013590191942875697
1150.0, 0.0018974429032667982
1151.0, 0.0016239376015174216
1152.0, 0.00032555716646211165
1153.0, 0.002054218947213364
1154.0, 0.0016368024566803263
1155.0, 0.0011290411317798853
1156.0, 0.0011656022262313236
1157.0, 0.0015175859999937032
1158.0, 0.00109710378134732
1159.0, 0.0022295105055350644
1160.0, 0.0021778663815181865
1161.0, 0.0014709884498112199
1162.0, 0.001187099676061745
1163.0, 0.0021784820319299867
1164.0, 0.002115695282596938
1165.0, 0.00114751618713549
1166.0, 0.001419289401865077
1167.0, 0.0016898082551251629
1168.0, 0.0011694867325478023
1169.0, 0.0017176746775953845
1170.0, 0.0024060826612241127
1171.0, 0.0012306309453532281
1172.0, 0.001106679570064178
1173.0, 0.0018025087313680527
1174.0, 0.0005221808351288905
1175.0, 0.0013933256209474915
1176.0, 0.0022127417794294865
1177.0, 0.0014284350552232535
1178.0, 0.0009283640868834092
1179.0, 0.002244048239581211
1180.0, 0.0014917013661888939
1181.0, 0.0014701893700906298
1182.0, 0.002160680164719349
1183.0, 0.002283715313897137
1184.0, 0.0018277778497654445
1185.0, 0.0024102903906478824
1186.0, 0.0024337502012709536
1187.0, 0.0017412777549080047
1188.0, 0.0019161264986682042
1189.0, 0.0024470763993578244
1190.0, 0.002177280907623087
1191.0, 0.00159589930597421
1192.0, 0.002194827711453939
1193.0, 0.0023857886797802137
1194.0, 0.0026749348788579516
1195.0, 0.0031908308119789944
1196.0, 0.0030808813428086952
1197.0, 0.0023159821261256397
1198.0, 0.002892638117202144
1199.0, 0.003205178601355673
1200.0, 0.0027561493662164767
1201.0, 0.002203071214491447
1202.0, 0.004838665048972193
1203.0, 0.0037807747875099316
1204.0, 0.004151053462125908
1205.0, 0.004680044386670964
1206.0, 0.004207873598802111
1207.0, 0.0034030879122910604
1208.0, 0.0045678814827551815
1209.0, 0.004895648699885933
1210.0, 0.004513934524872159
1211.0, 0.004279104412142832
1212.0, 0.004876784064677052
1213.0, 0.004418927667868658
1214.0, 0.004405548036739997
1215.0, 0.005410086895529274
1216.0, 0.0056715994504139495
1217.0, 0.0049787108016029445
1218.0, 0.005611485412318626
1219.0, 0.005664135618699992
1220.0, 0.005734560188612473
1221.0, 0.005443204223862642
1222.0, 0.004949213502801294
1223.0, 0.004635288574795411
1224.0, 0.004772656068983484
1225.0, 0.005999803179730428
1226.0, 0.0052571666096448075
1227.0, 0.004886867166944672
1228.0, 0.005512042903021589
1229.0, 0.0053010080526012925
1230.0, 0.004169834069238479
1231.0, 0.0051362318842268495
1232.0, 0.005009762530741161
1233.0, 0.004657430262973639
1234.0, 0.005556349708219205
1235.0, 0.007162774062174906
1236.0, 0.005351562216769277
1237.0, 0.005200514642314828
1238.0, 0.005593198668717599
1239.0, 0.0054174969750011735
1240.0, 0.004400714715941111
1241.0, 0.006064158242413988
1242.0, 0.005181269396437302
1243.0, 0.005394558406412204
1244.0, 0.005906736401393332
1245.0, 0.005447109906340517
1246.0, 0.0036145003282299056
1247.0, 0.004969630679987137
1248.0, 0.00512662806306131
1249.0, 0.004286261766314233
1250.0, 0.003822695814069025
1251.0, 0.004642727834383915
1252.0, 0.004221000183578064
1253.0, 0.0036778692026163398
1254.0, 0.004678509195633733
1255.0, 0.004203503007282163
1256.0, 0.0030263553168975244
1257.0, 0.00480535747813733
1258.0, 0.004600032087860204
1259.0, 0.0033109822977795862
1260.0, 0.003186757415824796
1261.0, 0.0037738755330780456
1262.0, 0.00409306838362362
1263.0, 0.003505281459756948
1264.0, 0.0042694504153630835
1265.0, 0.0024486077390399436
1266.0, 0.002380303475859973
1267.0, 0.0033622529320797207
1268.0, 0.003241076085430571
1269.0, 0.00304164640283095
1270.0, 0.004092456955754702
1271.0, 0.003154768258084539
1272.0, 0.002655495948823595
1273.0, 0.003196143234812658
1274.0, 0.0034719665456035124
1275.0, 0.0019521602901208619
1276.0, 0.0026043637042869276
1277.0, 0.0030060879926372126
1278.0, 0.0027179853246668325
1279.0, 0.0022151669179975133
1280.0, 0.002548866778021107
1281.0, 0.0027594263494170215
1282.0, 0.0023414027972384595
1283.0, 0.0021281351948904976
1284.0, 0.0022385445666295296
1285.0, 0.0023228525969741505
1286.0, 0.0016124275788019099
1287.0, 0.0019441601917782449
1288.0, 0.0024500364009520407
1289.0, 0.0028464305889590253
1290.0, 0.002804808663958564
1291.0, 0.0022310145944522517
1292.0, 0.0018050982469429344
1293.0, 0.0022510281035977653
1294.0, 0.0025868965903521656
1295.0, 0.0020961662212179407
1296.0, 0.0014872467675233828
1297.0, 0.0019285939277464508
1298.0, 0.0013251422583530474
1299.0, 0.0022142635469873384
1300.0, 0.002813394846655448
1301.0, 0.00217735720975919
1302.0, 0.001485096543064818
1303.0, 0.003116674134714768
1304.0, 0.0014375125645793546
1305.0, 0.0016495486973723838
1306.0, 0.0022585368538916143
1307.0, 0.0023478692327455314
1308.0, 0.0017672855889771355
1309.0, 0.0013060432781733453
1310.0, 0.0021188049131879564
1311.0, 0.00162165450179372
1312.0, 0.0016557456697960282
1313.0, 0.0019999250566725825
1314.0, 0.0020617708293287846
1315.0, 0.0018577707964603453
1316.0, 0.0018190134504038897
1317.0, 0.001602027045272265
1318.0, 0.0017290722628373824
1319.0, 0.0026936760077066624
1320.0, 0.0036178135839355324
1321.0, 0.0006769121023931476
1322.0, 0.001766361923385358
1323.0, 0.0022804169486772487
1324.0, 0.001554676922079156
1325.0, 0.001137052608907974
1326.0, 0.0020595589137656477
1327.0, 0.0007161491460679778
1328.0, 0.0006830239642360766
1329.0, 0.001706726480359041
1330.0, 0.0012374335395530763
1331.0, 0.00041833033385980397
1332.0, 0.0014751671106560354
1333.0, 0.0023617883660305007
1334.0, 0.00070603546707068
1335.0, 0.0010115362544102055
1336.0, 0.0016386393849659806
1337.0, 0.0013631777961978782
1338.0, 0.0004712514497073098
1339.0, 0.002641526125143167
1340.0, 0.0009853749913046178
1341.0, 0.00019261530750330042
1342.0, 0.0012306381992558645
1343.0, 0.002031015155707829
1344.0, 0.0002929598983266327
1345.0, 0.0010370232714897057
1346.0, 0.0008263510047603181
1347.0, 0.0004016805004359177
1348.0, 0.0007698465958770504
1349.0, 0.0014113296557981701
1350.0, 0.0011324844416432662
1351.0, 0.0010600460772453052
1352.0, 0.0014183208933083557
1353.0, 0.0007657700282594794
1354.0, 0.0008411281026192746
1355.0, 0.0014674910956376658
1356.0, 0.0011748598404641066
1357.0, 0.0005393323090998473
1358.0, 0.0009686503424830465
1359.0, 0.0006266571916219582
1360.0, 0.0004418613048003138
1361.0, 0.000837197697901693
1362.0, 0.001325150812509634
1363.0, 0.00021329276411284517
1364.0, 0.0009103519027713817
1365.0, 0.002095803055754195
1366.0, 0.001778796535401176
1367.0, 0.0007538169909669598
1368.0, 0.0011050917042149332
1369.0, 0.0021041502876199317
1370.0, 0.000572014976177298
1371.0, 0.0011446128056160636
1372.0, 0.0015715374639222264
1373.0, 0.001093813885160513
1374.0, 0.0007545833715187822
1375.0, 0.002998373463525452
1376.0, 0.001121342621309278
1377.0, 0.001392587561999567
1378.0, 0.0019365779425782985
1379.0, 0.0016316219550584535
1380.0, 0.0008751610887068232
1381.0, 0.0020974073796639434
1382.0, 0.00209340910857543
1383.0, 0.0014102842814251327
1384.0, 0.00167736928747219
1385.0, 0.0017572307551064642
1386.0, 0.0005618934893991122
1387.0, 3.56359906756986e-05
1388.0, 0.0014638916605265511
1389.0, 0.0013147054333987498
1390.0, 0.001234174437749124
1391.0, 0.0014073101041596552
1392.0, 0.0012704943537909575
1393.0, 0.0002243362690292855
1394.0, 0.0012434578483037845
1395.0, 0.001523021728202863
1396.0, 0.0009892269908176612
1397.0, 0.0014510039453410326
1398.0, 0.0025548677389473804
1399.0, 0.0010076672439236715
1400.0, 0.00029337862448363647
1401.0, 0.0024078691158861804
1402.0, 0.001365774656640725
1403.0, 0.0002812378790767008
1404.0, 0.0008641821704412841
1405.0, 0.0013244155600441849
1406.0, 0.0001457083157845973
1407.0, 0.001979833247957287
1408.0, 0.0024343570676365555
1409.0, 0.0016669465427136868
1410.0, 0.0016740917329380821
1411.0, 0.003561816753246251
1412.0, 0.001956242056458582
1413.0, 0.0006933322817023909
1414.0, 0.0021996267907605166
1415.0, 0.002122415118627354
1416.0, 0.0009233579532477515
1417.0, 0.0011818756209145066
1418.0, 0.0031592891143623564
1419.0, 0.0009759450222473916
1420.0, 0.0014592226282309083
1421.0, 0.002188196279164351
1422.0, 0.0022621577488999038
1423.0, 0.002217316256045373
1424.0, 0.0034025881496789682
1425.0, 0.0020570061965219095
1426.0, 0.001981951200530902
1427.0, 0.0024654151904105804
1428.0, 0.0025789890064251276
1429.0, 0.002127529099471683
1430.0, 0.0017633461269383082
1431.0, 0.0020896460769536176
1432.0, 0.00206964310986128
1433.0, 0.0029885541144496867
1434.0, 0.0023975426611451815
1435.0, 0.0007300404701642272
1436.0, 0.0004369979242287061
1437.0, 0.002928823345846143
1438.0, 0.001668866624722827
1439.0, 0.0011455604609589725
1440.0, 0.002173915792282667
1441.0, 0.002125606457999216
1442.0, 0.0004459000050942298
1443.0, 0.001870268681982382
1444.0, 0.0023272705194621397
1445.0, 0.000793522897132938
1446.0, 0.0016559904790028048
1447.0, 0.0029619032703599663
1448.0, 0.0025592130634561417
1449.0, 0.00076851992402907
1450.0, 0.00281027698616343
1451.0, 0.0027349835487428743
1452.0, 0.0013366041933353951
1453.0, 0.001894513776013646
1454.0, 0.0025991861122294413
1455.0, 0.0011487752792513394
1456.0, 0.0019945279303332404
1457.0, 0.0028115271023695415
1458.0, 0.0015445145721751032
1459.0, 0.0021202904287768833
1460.0, 0.0029036588006891603
1461.0, 0.002241033121098193
1462.0, 0.0012492855972736458
1463.0, 0.00190994191523156
1464.0, 0.0021402487732636705
1465.0, 0.0016941304426756321
1466.0, 0.0025429693507484385
1467.0, 0.003218043040544308
1468.0, 0.001593749742307467
1469.0, 0.0017359738444272888
1470.0, 0.003092971199044026
1471.0, 0.0023127894046221314
1472.0, 0.0021445140995831353
1473.0, 0.002550136363905878
1474.0, 0.00232801430985281
1475.0, 0.0009296024318649533
1476.0, 0.002571565142167797
1477.0, 0.0014256420913116724
1478.0, 0.001564262561183478
1479.0, 0.002194008855370957
1480.0, 0.0019402857323596754
1481.0, 0.000766461067026959
1482.0, 0.0018031429812427392
1483.0, 0.002595509481960233
1484.0, 0.002165739347875351
1485.0, 0.0020635119927204953
1486.0, 0.002817135786246668
1487.0, 0.0030788241108702726
1488.0, 0.0008124482822919832
1489.0, 0.002656700930831507
1490.0, 0.0025193749022155588
1491.0, 0.0009270589884210168
1492.0, 0.0015102948070223592
1493.0, 0.003013326129522428
1494.0, 0.0025710109933483
1495.0, 0.0024894993812170176
1496.0, 0.0031316037946861356
1497.0, 0.002904946764853057
1498.0, 0.00301437867101322
1499.0, 0.0032521777144301216
1500.0, 0.0027737862691715755
1501.0, 0.0013419789707118585
1502.0, 0.0025145251505152254
1503.0, 0.0027776951463679787
1504.0, 0.0010442616298371114
1505.0, 0.0019517323587139924
1506.0, 0.003517724697006116
1507.0, 0.0027617482151136097
1508.0, 0.0018103404411439876
1509.0, 0.002421679248473648
1510.0, 0.0018007909868021082
1511.0, 0.001458378159719117
1512.0, 0.002094045117873305
1513.0, 0.0020865941001592834
1514.0, 0.00018686581709574776
1515.0, 0.000971891896457712
1516.0, 0.0026527478939952567
1517.0, 0.0008804241944895247
1518.0, 0.000570993699779712
1519.0, 0.0006136576933574135
1520, 0.0
1521, 0.0
1522, 0.0
1523, 0.0
1524, 0.0
1525, 0.0
1526, 0.0
1527, 0.0
1528, 0.0
1529, 0.0
1530, 0.0
1531, 0.0
1532, 0.0
1533, 0.0
1534, 0.0
1535, 0.0
1536, 0.0
1537, 0.0
1538, 0.0
1539, 0.0
1540, 0.0
1541, 0.0
1542, 0.0
1543, 0.0
1544, 0.0
1545, 0.0
1546, 0.0
1547, 0.0
1548, 0.0
1549, 0.0
1550, 0.0
1551, 0.0
1552, 0.0
1553, 0.0
1554, 0.0
1555, 0.0
1556, 0.0
1557, 0.0
1558, 0.0
1559, 0.0
1560, 0.0
1561, 0.0
1562, 0.0
1563, 0.0
1564, 0.0
1565, 0.0
1566, 0.0
1567, 0.0
1568, 0.0
1569, 0.0
1570, 0.0
1571, 0.0
1572, 0.0
1573, 0.0
1574, 0.0
1575, 0.0
1576, 0.0
1577, 0.0
1578, 0.0
1579, 0.0
1580, 0.0
1581, 0.0
1582, 0.0
1583, 0.0
1584, 0.0
1585, 0.0
1586, 0.0
1587, 0.0
1588, 0.0
1589, 0.0
1590, 0.0
1591, 0.0
1592, 0.0
1593, 0.0
1594, 0.0
1595, 0.0
1596, 0.0
1597, 0.0
1598, 0.0
1599, 0.0
