30, 0.0
31, 0.0
32, 0.0
33, 0.0
34, 0.0
35, 0.0
36, 0.0
37, 0.0
38, 0.0
39, 0.0
40, 0.0
41, 0.0
42, 0.0
43, 0.0
44, 0.0
45, 0.0
46, 0.0
47, 0.0
48, 0.0
49, 0.0
50, 0.0
51, 0.0
52, 0.0
53, 0.0
54, 0.0
55, 0.0
56, 0.0
57, 0.0
58, 0.0
59, 0.0
60, 0.0
61, 0.0
62, 0.0
63, 0.0
64, 0.0
65, 0.0
66, 0.0
67, 0.0
68, 0.0
69, 0.0
70, 0.0
71, 0.0
72, 0.0
73, 0.0
74, 0.0
75, 0.0
76, 0.0
77, 0.0
78, 0.0
79, 0.0
80, 0.0
81, 0.0
82, 0.0
83, 0.0
84, 0.0
85, 0.0
86, 0.0
87, 0.0
88, 0.0
89, 0.0
90, 0.0
91, 0.0
92, 0.0
93, 0.0
94, 0.0
95, 0.0
96, 0.0
97, 0.0
98, 0.0
99, 0.0
100, 0.0
101, 0.0
102, 0.0
103, 0.0
104, 0.0
105, 0.0
106, 0.0
107, 0.0
108, 0.0
109, 0.0
110, 0.0
111, 0.0
112, 0.0
113, 0.0
114, 0.0
115, 0.0
116, 0.0
117, 0.0
118, 0.0
119, 0.0
120, 0.0
121, 0.0
122, 0.0
123, 0.0
124, 0.0
125, 0.0
126, 0.0
127, 0.0
128, 0.0
129, 0.0
130, 0.0
131, 0.0
132, 0.0
133, 0.0
134, 0.0
135, 0.0
136, 0.0
137, 0.0
138, 0.0
139, 0.0
140, 0.0
141, 0.0
142, 0.0
143, 0.0
144, 0.0
145, 0.0
146, 0.0
147, 0.0
148, 0.0
149, 0.0
150, 0.0
151, 0.0
152, 0.0
153, 0.0
154, 0.0
155, 0.0
156, 0.0
157, 0.0
158, 0.0
159, 0.0
160, 0.0
161, 0.0
162, 0.0
163, 0.0
164, 0.0
165, 0.0
166, 0.0
167, 0.0
168, 0.0
169, 0.0
170, 0.0
171, 0.0
172, 0.0
173, 0.0
174, 0.0
175, 0.0
176, 0.0
177, 0.0
178, 0.0
179.0, 0.0062844675311947845
180.0, 0.007627582821408549
181.0, 0.006518018452480863
182.0, 0.018372050223515048
183.0, 0.014886193735865468
184.0, 0.02574799641885373
185.0, 0.03433976971953291
186.0, 0.047186399780466716
187.0, 0.0719953251473081
188.0, 0.0920788947931486
189.0, 0.0874847868164812
190.0, 0.08944383852491337
191.0, 0.08902241671842018
192.0, 0.08254165834526513
193.0, 0.07618045082950307
194.0, 0.07206186640856414
195.0, 0.0588414662012975
196.0, 0.03901675540925014
197.0, 0.020727968164885386
198.0, 0.012375574842453215
199.0, 0.016513681690965128
200.0, 0.0064938154938743485
201.0, 0.0028158220099841146
202.0, 0.006508780213796841
203.0, 0.011504228458811726
204.0, 0.007665657416262489
205.0, 0.0013629417687769534
206.0, 0.003626014068711491
207.0, 0.006902215580693163
208.0, 0.007917399134056357
209.0, 0.005572822069457493
210.0, 0.0005089690869788527
211.0, 0.008155823654862473
212.0, 0.007882694350118668
213.0, 0.013255976591584529
214.0, 0.026301476587527062
215.0, 0.03674668945085124
216.0, 0.03713785329973759
217.0, 0.03977984747229349
218.0, 0.04382149141236662
219.0, 0.0497494468553985
220.0, 0.055013194742956135
221.0, 0.05008703172061694
222.0, 0.05893040397489413
223.0, 0.05943697112150123
224.0, 0.06426675165839489
225.0, 0.0735762008125932
226.0, 0.07892776476116306
227.0, 0.0774290816101827
228.0, 0.09818880808115042
229.0, 0.11724118135009377
230.0, 0.12863936969948958
231.0, 0.13722744732316935
232.0, 0.15787999303457434
233.0, 0.16650722798865047
234.0, 0.16679920018683572
235.0, 0.17358838879085975
236.0, 0.18545452717014196
237.0, 0.19556086838009828
238.0, 0.20572546762539112
239.0, 0.2058426837052045
240.0, 0.20971117292443403
241.0, 0.207459080381626
242.0, 0.19952404241395214
243.0, 0.19711734873471723
244.0, 0.19760739803348784
245.0, 0.21171945794146627
246.0, 0.2297622143542842
247.0, 0.2510042534642488
248.0, 0.2733249358552018
249.0, 0.28783623604099984
250.0, 0.3160166281794891
251.0, 0.3288457622813645
252.0, 0.34144148878080827
253.0, 0.3536426426246298
254.0, 0.3583430307342573
255.0, 0.3583863869986973
256.0, 0.3473886180453633
257.0, 0.3502226010171494
258.0, 0.35563880554552724
259.0, 0.3467876860833937
260.0, 0.3109362768473119
261.0, 0.2818150587168288
262.0, 0.26728405202402883
263.0, 0.2441608855692765
264.0, 0.23023127879189215
265.0, 0.2351485642000223
266.0, 0.2315712394255471
267.0, 0.24146447424312825
268.0, 0.24876793589470567
269.0, 0.2459019885727034
270.0, 0.2432941040307821
271.0, 0.2519705934436982
272.0, 0.2508757240208601
273.0, 0.24478655799068266
274.0, 0.24187672603354912
275.0, 0.23866976967987968
276.0, 0.22806223554707705
277.0, 0.20520548942785663
278.0, 0.19657832508127715
279.0, 0.17598821760870398
280.0, 0.16444739799242197
281.0, 0.1576632357439829
282.0, 0.15107329078262263
283.0, 0.14715555466248478
284.0, 0.1361571002765183
285.0, 0.1349249359871806
286.0, 0.1339760000520996
287.0, 0.1335932438210199
288.0, 0.13585749145460266
289.0, 0.1384495376877459
290.0, 0.138448225558294
291.0, 0.1388395607713362
292.0, 0.13795744559374815
293.0, 0.13782792296452423
294.0, 0.13953370036666726
295.0, 0.13185479898474456
296.0, 0.13629793765673473
297.0, 0.13879126427853253
298.0, 0.13044763075052807
299.0, 0.11352994204012973
300.0, 0.09921500702493162
301.0, 0.09599302490579728
302.0, 0.0928589943897295
303.0, 0.08047036292495915
304.0, 0.07545454554004241
305.0, 0.0818057105146325
306.0, 0.08316876349529316
307.0, 0.07924966975020668
308.0, 0.08400002978741979
309.0, 0.08621107483436344
310.0, 0.08590790496601067
311.0, 0.0866011060789538
312.0, 0.09135141951074102
313.0, 0.0767714748201759
314.0, 0.07582874999453774
315.0, 0.07632470622913186
316.0, 0.0749374031181288
317.0, 0.07016214562892734
318.0, 0.05612855251366079
319.0, 0.04947134508288514
320.0, 0.048302335824635556
321.0, 0.04013475815905384
322.0, 0.03888867519428014
323.0, 0.05501000294409198
324.0, 0.04401732014575386
325.0, 0.05675656092962948
326.0, 0.053538028556907515
327.0, 0.05662091257942578
328.0, 0.0667259421664413
329.0, 0.07109206482442285
330.0, 0.07442956596536478
331.0, 0.07940764897201538
332.0, 0.0849534341184227
333.0, 0.0916833596264606
334.0, 0.09946356997046231
335.0, 0.10780438313559045
336.0, 0.11850184321852313
337.0, 0.13308614500404933
338.0, 0.14616951306018977
339.0, 0.16117394726358472
340.0, 0.1742530753153709
341.0, 0.1769974140955358
342.0, 0.18424860879355723
343.0, 0.19903146699822538
344.0, 0.20486536141103295
345.0, 0.22805110036136098
346.0, 0.26377712987739643
347.0, 0.2725284988348095
348.0, 0.27754373398470006
349.0, 0.286666821418338
350.0, 0.292822200742172
351.0, 0.2937806420174267
352.0, 0.2892148208942924
353.0, 0.27953348452586746
354.0, 0.2597601538563776
355.0, 0.23031493080565182
356.0, 0.19764057345722252
357.0, 0.1682360497300582
358.0, 0.14820832144072177
359.0, 0.13952442114719127
360.0, 0.10743248359059121
361.0, 0.08132042388602849
362.0, 0.07028639576313384
363.0, 0.05726640945027596
364.0, 0.033740989266830966
365.0, 0.012628419943582598
366.0, 0.013552182700349512
367.0, 0.009113242895852629
368.0, 0.005707111411615933
369.0, 0.0057314585513848345
370.0, 0.010421658561981139
371.0, 0.019777553951878406
372.0, 0.022029220006188052
373.0, 0.021946734934679114
374.0, 0.023653952034041366
375.0, 0.02717582280894555
376.0, 0.03218006371276517
377.0, 0.03780978834615708
378.0, 0.025333645282354073
379.0, 0.029827475564318754
380.0, 0.03485561677294358
381.0, 0.028595891713910658
382.0, 0.013267927591117635
383.0, 0.005215195998629541
384.0, 0.0032273525960864555
385.0, 0.003944239807459008
386.0, 0.0023794976388285052
387.0, 0.012752061727245408
388.0, 0.03273516348565036
389.0, 0.03917070762945135
390.0, 0.030028374895563165
391.0, 0.05420238799901031
392.0, 0.06987725371253867
393.0, 0.0729147928579523
394.0, 0.07458516869303694
395.0, 0.08710603822094205
396.0, 0.07558306332790982
397.0, 0.08552843439129758
398.0, 0.08759447650013014
399.0, 0.08710068602528737
400.0, 0.08488770308532732
401.0, 0.0754998666090557
402.0, 0.06544826376247326
403.0, 0.04963498132245012
404.0, 0.03648717422151899
405.0, 0.02709658395389776
406.0, 0.01792878700066461
407.0, 0.006786439495216873
408.0, 0.007548630839909453
409.0, 0.006295002592395159
410.0, 0.012646630852612377
411.0, 0.023376646904993005
412.0, 0.03185716546046823
413.0, 0.03603891504308879
414.0, 0.05057198911342236
415.0, 0.06213614847032969
416.0, 0.08410958273422585
417.0, 0.10357264320589218
418.0, 0.12500452804710604
419.0, 0.15698625129102742
420.0, 0.19617576139524953
421.0, 0.22471800695791003
422.0, 0.263918739409281
423.0, 0.30382029915820336
424.0, 0.3379711019172469
425.0, 0.36389237097111005
426.0, 0.38247960168067024
427.0, 0.37965784647568673
428.0, 0.3800416687567054
429.0, 0.36979909999250815
430.0, 0.35151707019746575
431.0, 0.3302794168923066
432.0, 0.30858836516504123
433.0, 0.2910095351249256
434.0, 0.27709671676381614
435.0, 0.26079224926385147
436.0, 0.2507126250287988
437.0, 0.24560194428394372
438.0, 0.23645771704656648
439.0, 0.2300522415630737
440.0, 0.23833056867060864
441.0, 0.2521188796783803
442.0, 0.27106938441338974
443.0, 0.29433221773851004
444.0, 0.32088555481559017
445.0, 0.3512719280053368
446.0, 0.38976942563577105
447.0, 0.4250267968042341
448.0, 0.46749526868871416
449.0, 0.5110448938109496
450.0, 0.5485998172516422
451.0, 0.582690578168309
452.0, 0.5594859265945945
453.0, 0.5701629388984055
454.0, 0.5619320915813502
455.0, 0.5435346964743728
456.0, 0.5229058645040886
457.0, 0.48982690157208647
458.0, 0.4567061397172355
459.0, 0.4098922635157888
460.0, 0.37506886909064713
461.0, 0.3558689380620381
462.0, 0.3428588917074889
463.0, 0.32584450202744747
464.0, 0.31736424756690784
465.0, 0.30997967506076
466.0, 0.30103495194398916
467.0, 0.3035852817914424
468.0, 0.30805345534055273
469.0, 0.3043004354227064
470.0, 0.3035815453151863
471.0, 0.3099417107056744
472.0, 0.33328947693553246
473.0, 0.3399879512513671
474.0, 0.33534775304409503
475.0, 0.3398040930032787
476.0, 0.3647799666210334
477.0, 0.3431695459278693
478.0, 0.3485227646896539
479.0, 0.33849579462020873
480.0, 0.3260156648866496
481.0, 0.3136727279916749
482.0, 0.29741982763352753
483.0, 0.2896985601572563
484.0, 0.27434719689687986
485.0, 0.26212606699322144
486.0, 0.2470976260414682
487.0, 0.23147331707062083
488.0, 0.21804026041533775
489.0, 0.20544795504650373
490.0, 0.1979841390434189
491.0, 0.18952893812487043
492.0, 0.17854364391268238
493.0, 0.17086324222214
494.0, 0.16808213855634738
495.0, 0.16628601599751208
496.0, 0.16041435620701383
497.0, 0.17551078915993035
498.0, 0.1822667489026459
499.0, 0.1809583804492833
500.0, 0.18639490204507012
501.0, 0.20630128090942998
502.0, 0.22556654181977762
503.0, 0.23738545810797662
504.0, 0.2362175548416407
505.0, 0.24127128410053036
506.0, 0.2538063458561982
507.0, 0.26729891795136285
508.0, 0.2718213016383725
509.0, 0.2565940745691967
510.0, 0.24477238298735032
511.0, 0.23917638005711303
512.0, 0.22357538916359096
513.0, 0.2072957427773923
514.0, 0.19945403449953122
515.0, 0.18717906256767627
516.0, 0.18992708990808002
517.0, 0.1742058917934655
518.0, 0.17114081850777868
519.0, 0.1654882149674758
520.0, 0.15263073471209845
521.0, 0.14221247122611547
522.0, 0.12746965790654616
523.0, 0.13517982771353712
524.0, 0.12499021039589947
525.0, 0.12309797074927166
526.0, 0.12321126362262268
527.0, 0.11383051220394526
528.0, 0.10034177433729397
529.0, 0.08811821090799273
530.0, 0.06919280538167524
531.0, 0.07800634516135456
532.0, 0.07926054613916142
533.0, 0.06971658985706099
534.0, 0.06660872736089146
535.0, 0.05249490934433201
536.0, 0.04567397123298638
537.0, 0.0369426384820407
538.0, 0.034217601491043234
539.0, 0.03290248138410118
540.0, 0.030906560284670332
541.0, 0.03366124860614238
542.0, 0.04352640805355321
543.0, 0.047788553708681965
544.0, 0.04020676486923448
545.0, 0.033837639610741585
546.0, 0.038782554406624085
547.0, 0.05409027632185112
548.0, 0.06496644172616999
549.0, 0.061897102765597845
550.0, 0.07001062906671118
551.0, 0.07047006745045402
552.0, 0.07843058830147405
553.0, 0.09138838676868535
554.0, 0.09949703014644874
555.0, 0.12830174186435112
556.0, 0.13629325842211215
557.0, 0.14917681069023203
558.0, 0.16751051476358209
559.0, 0.19434044810958054
560.0, 0.2286566401429666
561.0, 0.26606348072129693
562.0, 0.3126201410113088
563.0, 0.37874499770983333
564.0, 0.4479225067378309
565.0, 0.5254689584023297
566.0, 0.6229198043753917
567.0, 0.7364252920100857
568.0, 0.8387445275667994
569.0, 0.9322519297997345
570.0, 0.9831711802981694
571.0, 0.9983167586653099
572.0, 0.9751202729528141
573.0, 0.9094276280009508
574.0, 0.8068485666709366
575.0, 0.693085015756671
576.0, 0.5919649975931974
577.0, 0.48705342580897537
578.0, 0.3979215595006396
579.0, 0.3196345044155793
580.0, 0.262238292025109
581.0, 0.23458727424744505
582.0, 0.1973249509964496
583.0, 0.17436805862781415
584.0, 0.17703348422337664
585.0, 0.16791367972138307
586.0, 0.16421471631745976
587.0, 0.17675473867270947
588.0, 0.19299990911043335
589.0, 0.20389268237159466
590.0, 0.2128696274088368
591.0, 0.23044544576018136
592.0, 0.2486025740605967
593.0, 0.2675126880543032
594.0, 0.28910303204746945
595.0, 0.31342311481318536
596.0, 0.34129006037088516
597.0, 0.3844255381045491
598.0, 0.4162271452298936
599.0, 0.44981660805269347
600.0, 0.48849010506932866
601.0, 0.5246267832564048
602.0, 0.5483366294738005
603.0, 0.5753827377466317
604.0, 0.6000517548845058
605.0, 0.5852388051756708
606.0, 0.5682263955109836
607.0, 0.5494259001648533
608.0, 0.5155439750524572
609.0, 0.469142647670817
610.0, 0.43389107223663026
611.0, 0.388349982780356
612.0, 0.3578310096885688
613.0, 0.32184597333247084
614.0, 0.28309895587076084
615.0, 0.25413869083218665
616.0, 0.23523593462953007
617.0, 0.19834952155432373
618.0, 0.19197028398258784
619.0, 0.17753299365620515
620.0, 0.16635898955797443
621.0, 0.1586088153452583
622.0, 0.1507589747338704
623.0, 0.14572349681596833
624.0, 0.13253582167426034
625.0, 0.1236435843027287
626.0, 0.1167339459727282
627.0, 0.10898358655018471
628.0, 0.10075383453325633
629.0, 0.09298858707744946
630.0, 0.08537778551304458
631.0, 0.08188337703345314
632.0, 0.06931518012499047
633.0, 0.06718399139825783
634.0, 0.07124655053793277
635.0, 0.06918407523312949
636.0, 0.05986610758966625
637.0, 0.058198608112732385
638.0, 0.056044918198875845
639.0, 0.06053033862517975
640.0, 0.055782126740763015
641.0, 0.057997132122312
642.0, 0.06317451689786821
643.0, 0.06491785859905042
644.0, 0.06836935397477935
645.0, 0.0815768619997651
646.0, 0.06800448295195755
647.0, 0.06768492978315842
648.0, 0.07092557553639793
649.0, 0.07714486128901256
650.0, 0.08507031882128951
651.0, 0.09071322784907508
652.0, 0.10256020417212078
653.0, 0.10376554513687841
654.0, 0.11465645007963063
655.0, 0.12309085318141331
656.0, 0.12774963639879103
657.0, 0.13113504946831808
658.0, 0.13087301958502734
659.0, 0.1126688306176164
660.0, 0.12788588855798874
661.0, 0.12094988322930782
662.0, 0.10989194955607032
663.0, 0.10860452102755022
664.0, 0.11071106681362664
665.0, 0.1057421242695796
666.0, 0.10769599210926285
667.0, 0.11418976557172035
668.0, 0.09506407202319064
669.0, 0.08290784291841592
670.0, 0.0795036325914422
671.0, 0.07454727011563704
672.0, 0.06689713316003076
673.0, 0.0743205286843149
674.0, 0.0860361809970994
675.0, 0.07732764121864878
676.0, 0.06819981636880255
677.0, 0.0755056150674272
678.0, 0.07933061681129282
679.0, 0.0725806187793608
680.0, 0.07973152832425867
681.0, 0.09055662699383626
682.0, 0.06773785637495355
683.0, 0.08356603078389137
684.0, 0.09027254774988473
685.0, 0.0778067917134156
686.0, 0.06647186688482133
687.0, 0.07652393595887587
688.0, 0.08872068542090697
689.0, 0.09844991080536211
690.0, 0.09751663241730568
691.0, 0.0918799928396593
692.0, 0.09071766041667065
693.0, 0.0937391446200547
694.0, 0.09953105422205316
695.0, 0.11365496111554363
696.0, 0.11495971575153774
697.0, 0.1156273852065155
698.0, 0.11258388751659636
699.0, 0.11002888459580057
700.0, 0.10436552851759937
701.0, 0.09710162174973111
702.0, 0.09701411006868785
703.0, 0.09990079599487431
704.0, 0.07714070460367936
705.0, 0.07425637676416018
706.0, 0.07180306694818346
707.0, 0.06364347327676106
708.0, 0.05317786533967278
709.0, 0.04591744934205205
710.0, 0.04189429330518771
711.0, 0.03840051932658555
712.0, 0.03091833349040212
713.0, 0.025949409058556864
714.0, 0.021802766269597672
715.0, 0.014992172473842276
716.0, 0.008965854998801226
717.0, 0.011289991517288175
718.0, 0.009516201522694386
719.0, 0.007661950803248619
720.0, 0.010889674168009567
721.0, 0.010410488531066617
722.0, 0.00512876452798889
723.0, 0.001664131997120444
724.0, 0.0034182543791837373
725.0, 0.0007055916960355755
726.0, 0.003453824253663106
727.0, 0.0027170056500596274
728.0, 0.0063369052482220075
729.0, 0.007226769220860272
730.0, 0.008256408424677652
731.0, 0.009596256368731551
732.0, 0.0066253498433321975
733.0, 0.010251330083094846
734.0, 0.009289474997261587
735.0, 0.0027498144747374696
736.0, 0.004611103146827148
737.0, 0.0038825493463689976
738.0, 0.003960002966743773
739.0, 0.011044447021621957
740.0, 0.014116302209221991
741.0, 0.010529135009149466
742.0, 0.02184587141910419
743.0, 0.007769977178696885
744.0, 0.003479212968460952
745.0, 0.012393897770984692
746.0, 0.016503890755041172
747.0, 0.005585151689578568
748.0, 0.002577504206756882
749.0, 0.005399476051216221
750.0, 0.00227787115321592
751.0, 0.004248982560715865
752.0, 0.006447273240301565
753.0, 0.006746822537410045
754.0, 0.005272244053467504
755.0, 0.004425348317091612
756.0, 0.01307115553744799
757.0, 0.003387573731513621
758.0, 0.004868694882075687
759.0, 0.008667635184016474
760.0, 0.008909936172979926
761.0, 0.006781963316935858
762.0, 0.00744324055039496
763.0, 0.013143180999635183
764.0, 0.014886525084536879
765.0, 0.002176697379899932
766.0, 0.012333608122760804
767.0, 0.010306108979490407
768.0, 0.00953116909851973
769.0, 0.010193395627100062
770.0, 0.006521660904389577
771.0, 0.01155876843925105
772.0, 0.006157732707087382
773.0, 0.019841051973174196
774.0, 0.011532301901504862
775.0, 0.010475387986276754
776.0, 0.008704256541515689
777.0, 0.004445741710501504
778.0, 0.004807358677941286
779.0, 0.00317817379476089
780.0, 0.0009423556323762225
781.0, 0.0057927106581941515
782.0, 0.0034007852902241233
783.0, 0.011428322575263482
784.0, 0.014680887365869363
785.0, 0.008796164872299296
786.0, 0.005978743844214358
787.0, 0.006770992289160976
788.0, 0.0038450729134933657
789.0, 0.012438392733869636
790.0, 0.017932641248592285
791.0, 0.0159242918547384
792.0, 0.008290369815690733
793.0, 0.006146883759514961
794.0, 0.01641879259411526
795.0, 0.02313863549962246
796.0, 0.01058106540443935
797.0, 0.01603484027768027
798.0, 0.010353790648489904
799.0, 0.007460220971259963
800.0, 0.00991962441813987
801.0, 0.013149795724260576
802.0, 0.014384707592937664
803.0, 0.015606554465615433
804.0, 0.005603589248413136
805.0, 0.018683790988696374
806.0, 0.010545781399907193
807.0, 0.013746922117781023
808.0, 0.01815601583108058
809.0, 0.019836556392358845
810.0, 0.02649212201209704
811.0, 0.030315289473980687
812.0, 0.038132425751496245
813.0, 0.0396669361578344
814.0, 0.03240677097261391
815.0, 0.032428323295385
816.0, 0.03458036597061257
817.0, 0.03202729352520633
818.0, 0.02791475019476492
819.0, 0.0314523082485491
820.0, 0.03446941383742733
821.0, 0.0304888995734691
822.0, 0.04320630227916681
823.0, 0.05211907997812351
824.0, 0.05833335045515854
825.0, 0.06609193237877313
826.0, 0.07595039563518151
827.0, 0.08498816165179184
828.0, 0.08718153978608602
829.0, 0.09501513325787904
830.0, 0.09855889043888663
831.0, 0.09705578520691134
832.0, 0.10024313576433962
833.0, 0.10669893359266784
834.0, 0.10970380908062911
835.0, 0.10900702950764565
836.0, 0.11310903881556683
837.0, 0.10100922591015898
838.0, 0.11128953234651448
839.0, 0.11044651403667385
840.0, 0.1044123031872435
841.0, 0.10750869922418507
842.0, 0.11368619379127483
843.0, 0.11031232981728491
844.0, 0.11145775678388559
845.0, 0.11202668155800177
846.0, 0.11408330038879426
847.0, 0.11256925125767539
848.0, 0.11319121164211554
849.0, 0.11421772518289088
850.0, 0.1160018948835334
851.0, 0.12380647106281743
852.0, 0.13801276321458666
853.0, 0.13327544525762056
854.0, 0.14843953123838113
855.0, 0.16241334608557007
856.0, 0.15895368056126263
857.0, 0.15645638833555503
858.0, 0.15794051347374352
859.0, 0.1581428896743123
860.0, 0.16025027609782425
861.0, 0.17650708684301647
862.0, 0.18898798270495765
863.0, 0.20102374755785593
864.0, 0.20760711669510248
865.0, 0.2215190638921688
866.0, 0.23273889376811274
867.0, 0.24099027275193544
868.0, 0.25539643921562255
869.0, 0.27361377852373653
870.0, 0.2748197451894887
871.0, 0.28709562409195943
872.0, 0.29180902851213636
873.0, 0.31504291572143145
874.0, 0.3205764615046222
875.0, 0.32781758668482264
876.0, 0.3407660475470237
877.0, 0.3352097141848938
878.0, 0.3316007734625979
879.0, 0.3483909017130998
880.0, 0.346020999981903
881.0, 0.3447054094679075
882.0, 0.34224540200648024
883.0, 0.3432269077399693
884.0, 0.34217981142255194
885.0, 0.33279813003357517
886.0, 0.3213585984875693
887.0, 0.32111945641938033
888.0, 0.30958081103414536
889.0, 0.31155080927389794
890.0, 0.3027868604958403
891.0, 0.30522277347820653
892.0, 0.31742895107499164
893.0, 0.3190131998472129
894.0, 0.31252006697897383
895.0, 0.3319170162733376
896.0, 0.35116327967792743
897.0, 0.373726674828591
898.0, 0.3992352779989552
899.0, 0.41132956660036013
900.0, 0.4414071429607384
901.0, 0.47572195183167354
902.0, 0.4977890337860782
903.0, 0.5193809937959917
904.0, 0.5635409890994115
905.0, 0.6241566678460373
906.0, 0.6652876548996034
907.0, 0.7095607300946921
908.0, 0.7480446094541668
909.0, 0.7918875445569417
910.0, 0.8267247188241736
911.0, 0.8532297808206881
912.0, 0.8833330901823063
913.0, 0.8971251094812901
914.0, 0.9001407045871039
915.0, 0.8813018066144231
916.0, 0.8798919215651515
917.0, 0.8711694810918647
918.0, 0.8488545243785245
919.0, 0.8252865589240562
920.0, 0.7998955931241969
921.0, 0.7661310825451919
922.0, 0.743350834340485
923.0, 0.7239422759322471
924.0, 0.6946484619363701
925.0, 0.676073393494804
926.0, 0.6590254453577056
927.0, 0.6355770218608185
928.0, 0.6134492174305806
929.0, 0.588848787758417
930.0, 0.5579395754394086
931.0, 0.5479868698899086
932.0, 0.5496362720563638
933.0, 0.5274343113512189
934.0, 0.4858341345138573
935.0, 0.46144919555127123
936.0, 0.4273603432985957
937.0, 0.4050220144717415
938.0, 0.39426131538394765
939.0, 0.37125553406043843
940.0, 0.34887285662000983
941.0, 0.3228144377365811
942.0, 0.3248959863391123
943.0, 0.3062430766174273
944.0, 0.28977794622479697
945.0, 0.28042332055277003
946.0, 0.26951190293835253
947.0, 0.25997939419916516
948.0, 0.26293513611617664
949.0, 0.2753994795760087
950.0, 0.27487384434154544
951.0, 0.2587471352956277
952.0, 0.260077679747079
953.0, 0.25599216484415643
954.0, 0.2621120483248116
955.0, 0.2575128617640241
956.0, 0.244475555204979
957.0, 0.2354004248529131
958.0, 0.22574432691961663
959.0, 0.21500556739867782
960.0, 0.20929577216281142
961.0, 0.20764897924500614
962.0, 0.19460748549716309
963.0, 0.19814217741376403
964.0, 0.19156259129705
965.0, 0.17910975040808927
966.0, 0.17518842994753195
967.0, 0.1755067542805975
968.0, 0.16792779743136724
969.0, 0.15599300970955482
970.0, 0.15103942766776338
971.0, 0.15028966858119483
972.0, 0.15313292202029516
973.0, 0.15847359109842735
974.0, 0.16923732203113742
975.0, 0.18534727234820156
976.0, 0.20321434283177683
977.0, 0.2200420970111962
978.0, 0.2378097463805656
979.0, 0.2739506596475032
980.0, 0.2858590366368336
981.0, 0.31010347663655197
982.0, 0.3455331075972826
983.0, 0.3642527743535329
984.0, 0.3691676406830091
985.0, 0.3685668802502129
986.0, 0.36330303677803577
987.0, 0.3569763582560123
988.0, 0.3313391753705529
989.0, 0.2756537968459929
990.0, 0.2525184116844322
991.0, 0.21976179967771245
992.0, 0.18894042830769114
993.0, 0.1668017786799361
994.0, 0.14555913820075392
995.0, 0.1214668272504015
996.0, 0.10078073041694455
997.0, 0.08712822754741026
998.0, 0.09814638082363009
999.0, 0.08349260098902819
1000.0, 0.07527489479940123
1001.0, 0.05928789654065807
1002.0, 0.051623738865590504
1003.0, 0.0496842838428135
1004.0, 0.04971624799653193
1005.0, 0.04123200056112049
1006.0, 0.015957077258701675
1007.0, 0.0038369518532070813
1008.0, 0.017555170833528866
1009.0, 0.004814589553199812
1010.0, 0.0017130319976437574
1011.0, 0.003524232924985544
1012.0, 0.008009454160328035
1013.0, 0.005949212455726556
1014.0, 0.001715113843364847
1015.0, 0.001966291255269466
1016.0, 0.002398670146176833
1017.0, 0.0040912477761498615
1018.0, 0.00398121878209987
1019.0, 0.0017789635168587495
1020.0, 0.0041974586932291245
1021.0, 0.003992064893686939
1022.0, 0.0034371472000279154
1023.0, 0.009951885886023354
1024.0, 0.0126557458711308
1025.0, 0.011742844232623423
1026.0, 0.023677151996207697
1027.0, 0.028173506721135808
1028.0, 0.02836154909320649
1029.0, 0.021285657170478024
1030.0, 0.020799000563689007
1031.0, 0.030901781689810868
1032.0, 0.04099341510459146
1033.0, 0.03841238934530428
1034.0, 0.03164417207754843
1035.0, 0.03212183172641369
1036.0, 0.04179298052695906
1037.0, 0.06350329328945305
1038.0, 0.06723872543449576
1039.0, 0.06423999046143222
1040.0, 0.07672425720744491
1041.0, 0.070974235883156
1042.0, 0.08225257391100392
1043.0, 0.08019845820532291
1044.0, 0.07540391283660473
1045.0, 0.08650232619765627
1046.0, 0.09261088338564862
1047.0, 0.07429331503200524
1048.0, 0.07587010932162844
1049.0, 0.07592682724413428
1050.0, 0.08555555563083446
1051.0, 0.08539285891532401
1052.0, 0.08683639261749392
1053.0, 0.07819531439683815
1054.0, 0.0732506043379945
1055.0, 0.07670108741077962
1056.0, 0.07039345024642617
1057.0, 0.05588063508935544
1058.0, 0.07724462343334194
1059.0, 0.0625697425090728
1060.0, 0.04580688993872577
1061.0, 0.04060803851291196
1062.0, 0.04882513125871471
1063.0, 0.04373462310115927
1064.0, 0.028271134778174837
1065.0, 0.03875306335070063
1066.0, 0.05450710832438283
1067.0, 0.0438318712750619
1068.0, 0.05768358379845262
1069.0, 0.06293541268112816
1070.0, 0.06553181954549468
1071.0, 0.07831063329764086
1072.0, 0.0920345314782467
1073.0, 0.10523719617327897
1074.0, 0.11832792752267438
1075.0, 0.13450948117077124
1076.0, 0.15055817607158992
1077.0, 0.1660294968692288
1078.0, 0.184047365228683
1079.0, 0.19745963894278723
1080.0, 0.21023329411411854
1081.0, 0.2325081877067614
1082.0, 0.2646932327671007
1083.0, 0.2911993939166969
1084.0, 0.2961348724685664
1085.0, 0.3373543644826151
1086.0, 0.38133065302604785
1087.0, 0.42271390707060913
1088.0, 0.48240743996227314
1089.0, 0.5411266789328651
1090.0, 0.5918434460509755
1091.0, 0.6422780846643683
1092.0, 0.6889366148931922
1093.0, 0.7215404879554218
1094.0, 0.7049704420529306
1095.0, 0.6809085354432342
1096.0, 0.6388965789384659
1097.0, 0.5680825352130545
1098.0, 0.49133256209366577
1099.0, 0.42155801627620243
1100.0, 0.3443761352414067
1101.0, 0.27609256733831
1102.0, 0.2347606857888992
1103.0, 0.18893016624674283
1104.0, 0.14856335239116522
1105.0, 0.12308198242958063
1106.0, 0.11042970616662828
1107.0, 0.09627323579772129
1108.0, 0.08213929863051132
1109.0, 0.06545207897323839
1110.0, 0.05687417020615196
1111.0, 0.06286991025344046
1112.0, 0.049388976716964135
1113.0, 0.03989942684491448
1114.0, 0.024176082644086917
1115.0, 0.026053053865873636
1116.0, 0.024079007789404673
1117.0, 0.020236748505668423
1118.0, 0.022684742659804934
1119.0, 0.01924745623785025
1120.0, 0.013463360596466795
1121.0, 0.011328261135602993
1122.0, 0.01260745278366202
1123.0, 0.018909281185987805
1124.0, 0.01805914654359712
1125.0, 0.023534200047023293
1126.0, 0.014492772591984466
1127.0, 0.021478466930368846
1128.0, 0.024242305123386505
1129.0, 0.01738795690615281
1130.0, 0.008705896407279468
1131.0, 0.0055251267014329725
1132.0, 0.008428118288379138
1133.0, 0.01834073163368328
1134.0, 0.02681432956105979
1135.0, 0.013472811908512707
1136.0, 0.01301430786664413
1137.0, 0.001901817217367454
1138.0, 0.01047326793139186
1139.0, 0.009496592817784269
1140.0, 0.006052922866569754
1141.0, 0.00592098179383522
1142.0, 0.003107309821417867
1143.0, 0.004312184055286853
1144.0, 0.010651669755147301
1145.0, 0.010866723131501764
1146.0, 0.004953689121806541
1147.0, 0.008147314116421606
1148.0, 0.0016983391745430147
1149.0, 0.007185525005763364
1150.0, 0.011147467431856862
1151.0, 0.005759494040908629
1152.0, 0.006313220399757206
1153.0, 0.004853357703121419
1154.0, 0.0018263003009941746
1155.0, 0.0010989473040227164
1156.0, 0.003705301192069259
1157.0, 0.004956373980228779
1158.0, 0.004977419856218448
1159.0, 0.014876670629246146
1160.0, 0.0049564616831405
1161.0, 0.0032046772027190364
1162.0, 0.010990533949638174
1163.0, 0.0053313158046356425
1164.0, 0.005862905490601147
1165.0, 0.014976351854417069
1166.0, 0.017864886105385492
1167.0, 0.012894065448227318
1168.0, 0.011679024029792779
1169.0, 0.013382971726309643
1170.0, 0.008284757260003455
1171.0, 0.007470735175657238
1172.0, 0.01198028932741656
1173.0, 0.012107802034505798
1174.0, 0.003743052077377017
1175.0, 0.003757030026293021
1176.0, 0.0038862779782817413
1177.0, 0.0059119299045953914
1178.0, 0.005277951450167536
1179.0, 0.0037175832558336403
1180.0, 0.0039548825292058075
1181.0, 0.007572354087838783
1182.0, 0.01425865144934047
1183.0, 0.019072394097376686
1184.0, 0.016650950691877206
1185.0, 0.0012918294614481316
1186.0, 0.0024371070699700406
1187.0, 0.004377156725644668
1188.0, 0.021310445500440346
1189.0, 0.009183816760107641
1190.0, 0.007969060335447337
1191.0, 0.004493952038585942
1192.0, 0.0029464026551582457
1193.0, 0.004681982269766208
1194.0, 0.0053194006880702156
1195.0, 0.010988056561373692
1196.0, 0.012640459359568406
1197.0, 0.006300258595902485
1198.0, 0.004937910471137647
1199.0, 0.008278172119266413
1200.0, 0.00475716316234643
1201.0, 0.005013060938198548
1202.0, 0.005176675915098416
1203.0, 0.01678309000488411
1204.0, 0.021790935674374495
1205.0, 0.01129154533634191
1206.0, 0.007816350773817714
1207.0, 0.011369252382388199
1208.0, 0.007459533526576771
1209.0, 0.022525742714281635
1210.0, 0.002587011203408371
1211.0, 0.014483954417313883
1212.0, 0.023658888402986765
1213.0, 0.004120036529014916
1214.0, 0.012118528992235863
1215.0, 0.025850217307072484
1216.0, 0.020100991205371614
1217.0, 0.007141279455611579
1218.0, 0.008536414169655726
1219.0, 0.012160092921462027
1220.0, 0.007209587963702101
1221.0, 0.005419176800101597
1222.0, 0.007860165180502296
1223.0, 0.02190505155280733
1224.0, 0.0028674558529949434
1225.0, 0.02186569657986045
1226.0, 0.018960889067895687
1227.0, 0.012750637612925666
1228.0, 0.012861779668027193
1229.0, 0.011397941368290209
1230.0, 0.009528130571307547
1231.0, 0.010536461128312812
1232.0, 0.010677791348274172
1233.0, 0.010770055848360023
1234.0, 0.0146571151117452
1235.0, 0.019286998876670916
1236.0, 0.021863142568926148
1237.0, 0.013711118179237269
1238.0, 0.008707152481990704
1239.0, 0.023899168794375838
1240.0, 0.014919776701682052
1241.0, 0.01875912135710418
1242.0, 0.025651094928520017
1243.0, 0.024466769602530143
1244.0, 0.03280323624951457
1245.0, 0.0297518275403632
1246.0, 0.018369346543888613
1247.0, 0.0195461727124699
1248.0, 0.021520280049253552
1249.0, 0.015072605959078776
1250.0, 0.027215687262472043
1251.0, 0.015474301029210399
1252.0, 0.02163197324353099
1253.0, 0.015201022433779394
1254.0, 0.009839083761336572
1255.0, 0.004483241666495675
1256.0, 0.009035462149870027
1257.0, 0.004811146121020312
1258.0, 0.004296141447956208
1259.0, 0.005088562319827239
1260.0, 0.00330300749468027
1261.0, 0.01325632917099119
1262.0, 0.029174693781191932
1263.0, 0.02793841423175757
1264.0, 0.030294157942311932
1265.0, 0.03494319498295395
1266.0, 0.03200930404844311
1267.0, 0.01293948050895812
1268.0, 0.03536296527443054
1269.0, 0.02229658636937698
1270.0, 0.023572511080513996
1271.0, 0.034618147195632
1272.0, 0.03743671103772698
1273.0, 0.034274828939477836
1274.0, 0.029277805967407287
1275.0, 0.0209411653032461
1276.0, 0.019279043778411442
1277.0, 0.02777242827720034
1278.0, 0.024604765732122703
1279.0, 0.016325903403719706
1280.0, 0.03150403028299325
1281.0, 0.013234746403054873
1282.0, 0.018113942335565285
1283.0, 0.03201696323123651
1284.0, 0.019123534766163748
1285.0, 0.025872132732148834
1286.0, 0.02355465895425117
1287.0, 0.03558217327649709
1288.0, 0.025727019137031102
1289.0, 0.010124864941838094
1290.0, 0.016337351049157352
1291.0, 0.028394486813321795
1292.0, 0.026738178208957703
1293.0, 0.017587471563826437
1294.0, 0.014315841898839483
1295.0, 0.023674618432724358
1296.0, 0.022161787164498084
1297.0, 0.03618329292616382
1298.0, 0.030181319682399444
1299.0, 0.019878135556177054
1300.0, 0.017253225772220295
1301.0, 0.017317539079904038
1302.0, 0.00861856508394776
1303.0, 0.023842898261622798
1304.0, 0.034001797228086446
1305.0, 0.016790881598726295
1306.0, 0.016488021010920676
1307.0, 0.03091324960117018
1308.0, 0.015495811139373492
1309.0, 0.021297057600248068
1310.0, 0.04704956521071549
1311.0, 0.029278261790446763
1312.0, 0.026730061372451836
1313.0, 0.022716026036560227
1314.0, 0.035331478577612985
1315.0, 0.028109147353466944
1316.0, 0.03108128199166072
1317.0, 0.04005097474428049
1318.0, 0.03617233549154647
1319.0, 0.039489225472291875
1320.0, 0.04204151540957899
1321.0, 0.03947874360721824
1322.0, 0.03808522424671516
1323.0, 0.03733074846826203
1324.0, 0.03692068201980583
1325.0, 0.03754985825332367
1326.0, 0.03605091964429819
1327.0, 0.03538687958275003
1328.0, 0.03527170214745015
1329.0, 0.03242729065849331
1330.0, 0.028774213698844114
1331.0, 0.025505091602203916
1332.0, 0.02180122080639459
1333.0, 0.022533937483258912
1334.0, 0.023299172568046558
1335.0, 0.019846895545579384
1336.0, 0.022003259893950692
1337.0, 0.023706532494226846
1338.0, 0.024792013012341272
1339.0, 0.023894255266786377
1340.0, 0.020890681683398308
1341.0, 0.02569133618164029
1342.0, 0.02718137357593427
1343.0, 0.02591607354934313
1344.0, 0.02647366431549013
1345.0, 0.019222907162374854
1346.0, 0.02738946014786158
1347.0, 0.017598842006374876
1348.0, 0.019772789276746323
1349.0, 0.02056833689191635
1350.0, 0.022956201784087665
1351.0, 0.023277172370213296
1352.0, 0.020729508880834042
1353.0, 0.017637053122642493
1354.0, 0.014509944166989782
1355.0, 0.010986757695335003
1356.0, 0.009527569497331651
1357.0, 0.012251124385131101
1358.0, 0.017695432170709367
1359.0, 0.021895145425524277
1360.0, 0.021399552144409275
1361.0, 0.025212717676117893
1362.0, 0.025373534041365848
1363.0, 0.02684741680812603
1364.0, 0.025529038170804923
1365.0, 0.022183172473656764
1366.0, 0.022860061457486567
1367.0, 0.01988388615760102
1368.0, 0.016495665060004886
1369.0, 0.014699950650303844
1370.0, 0.016420475679328302
1371.0, 0.017522207094008004
1372.0, 0.02385379176571084
1373.0, 0.03383178597465483
1374.0, 0.03488397300289289
1375.0, 0.03558557011546879
1376.0, 0.037981608765413705
1377.0, 0.021663500843185985
1378.0, 0.018557020983886452
1379.0, 0.024632700522576684
1380.0, 0.01603302293753254
1381.0, 0.014513768627904235
1382.0, 0.021797814342701505
1383.0, 0.014805820590574817
1384.0, 0.012654133062566755
1385.0, 0.01097263084784277
1386.0, 0.002879017176568555
1387.0, 0.011173670930705492
1388.0, 0.018254068850209058
1389.0, 0.019340346501675206
1390.0, 0.011498766100252952
1391.0, 0.016452525120481693
1392.0, 0.024873710326944125
1393.0, 0.01571666554124035
1394.0, 0.010624087788369345
1395.0, 0.02100310498489622
1396.0, 0.017491216543799985
1397.0, 0.009245036454320055
1398.0, 0.01481108242467292
1399.0, 0.006141387560887182
1400.0, 0.002261529871185789
1401.0, 0.00033780668394270527
1402.0, 0.001282473960013165
1403.0, 0.017246199929258185
1404.0, 0.0038289506971473175
1405.0, 0.01990019455900267
1406.0, 0.013910741253696434
1407.0, 0.016871297015643237
1408.0, 0.00843260180042189
1409.0, 0.0015004429225660895
1410.0, 0.0042144460234919984
1411.0, 0.01322017724797093
1412.0, 0.014821145701336219
1413.0, 0.007739583933656033
1414.0, 0.00761516364337297
1415.0, 0.010216454981377718
1416.0, 0.004192298001598214
1417.0, 0.008159021340068177
1418.0, 0.019454711016970185
1419.0, 0.024934089404358817
1420.0, 0.009772684806938419
1421.0, 0.013553805839307695
1422.0, 0.011314458469985892
1423.0, 0.004069677420066829
1424.0, 0.00955201786527431
1425.0, 0.003430632108699386
1426.0, 0.014574039099280883
1427.0, 0.01976135584467318
1428.0, 0.0239737785609615
1429.0, 0.010738325220155836
1430.0, 0.023037701133548447
1431.0, 0.04088546518747451
1432.0, 0.03278971756060078
1433.0, 0.02523652146047268
1434.0, 0.023770425359141284
1435.0, 0.020544774667822452
1436.0, 0.025351613679515026
1437.0, 0.028620439832579676
1438.0, 0.03189228553733331
1439.0, 0.03445909255138207
1440.0, 0.05078941986013178
1441.0, 0.05381207062772218
1442.0, 0.0569892520349617
1443.0, 0.05870764458687542
1444.0, 0.076920226004303
1445.0, 0.07477657965031204
1446.0, 0.06352311211385088
1447.0, 0.05995301196740111
1448.0, 0.08134624627805603
1449.0, 0.07425278456103539
1450.0, 0.0774569943314258
1451.0, 0.07584221673187824
1452.0, 0.07248165016452351
1453.0, 0.0708310352579293
1454.0, 0.06778255215673243
1455.0, 0.06381783493499142
1456.0, 0.07030187558331191
1457.0, 0.07047690524169392
1458.0, 0.056056710985869174
1459.0, 0.06004081777143462
1460.0, 0.07006072413724883
1461.0, 0.05705091654345901
1462.0, 0.059115130320414155
1463.0, 0.05777562323718032
1464.0, 0.06305828867498707
1465.0, 0.0460380798269671
1466.0, 0.06231750288869335
1467.0, 0.04623882069887928
1468.0, 0.03560753010704599
1469.0, 0.03871323929435368
1470.0, 0.054714533159194376
1471.0, 0.040453512842251106
1472.0, 0.04478263759189971
1473.0, 0.04039035076090976
1474.0, 0.03694654410247094
1475.0, 0.02723923787678067
1476.0, 0.042592856990002745
1477.0, 0.03586704381321624
1478.0, 0.030761316370690798
1479.0, 0.041652105853192
1480.0, 0.03578818474595182
1481.0, 0.03198310840523226
1482.0, 0.041722328325889006
1483.0, 0.03651568055489883
1484.0, 0.026003171783256698
1485.0, 0.0203795780984358
1486.0, 0.015486507434232966
1487.0, 0.02417381554196974
1488.0, 0.016288903867507764
1489.0, 0.02486142660777789
1490.0, 0.021869055303451047
1491.0, 0.024617111781544323
1492.0, 0.01712829859967629
1493.0, 0.013801466896685243
1494.0, 0.014153049401378123
1495.0, 0.004113053013297966
1496.0, 0.005317704447447346
1497.0, 0.012017129947743465
1498.0, 0.02099140754221216
1499.0, 0.017068678215306266
1500.0, 0.008577720736675615
1501.0, 0.005802616344570888
1502.0, 0.014561556804403854
1503.0, 0.009623832515098314
1504.0, 0.014459636578771008
1505.0, 0.014668077696386722
1506.0, 0.008913055895655757
1507.0, 0.010204175111619078
1508.0, 0.016630733405523502
1509.0, 0.018087489321411097
1510.0, 0.014679804657294468
1511.0, 0.017424811943680604
1512.0, 0.020849739620974455
1513.0, 0.017475028233933505
1514.0, 0.012409521305413073
1515.0, 0.006335197809890629
1516.0, 0.01881049041881897
1517.0, 0.012842424433805216
1518.0, 0.018757222947843433
1519.0, 0.010624259838048412
1520.0, 0.018358780724267432
1521.0, 0.00508809026184262
1522.0, 0.0207143347117867
1523.0, 0.010282688422417372
1524.0, 0.018952213382468434
1525.0, 0.013706814572155246
1526.0, 0.020119065482563328
1527.0, 0.010026080680585036
1528.0, 0.022497379673374396
1529.0, 0.013019245576826929
1530.0, 0.03154564264853736
1531.0, 0.028736809648006793
1532.0, 0.01979766951768736
1533.0, 0.011802654069819209
1534.0, 0.014395801265103505
1535.0, 0.019886477942273297
1536.0, 0.02663984453570984
1537.0, 0.029113030991599835
1538.0, 0.030619433042750315
1539.0, 0.023888343564243016
1540.0, 0.012988028505861981
1541.0, 0.009022998695214716
1542.0, 0.011123344559070531
1543.0, 0.023124588199931184
1544.0, 0.03239399223060738
1545.0, 0.030407134737899636
1546.0, 0.01043073545697196
1547.0, 0.02058333024925286
1548.0, 0.011191559971767767
1549.0, 0.008912814613098848
1550.0, 0.0047759572531459234
1551.0, 0.014642653121525913
1552.0, 0.004933603380218021
1553.0, 0.011090831008488563
1554.0, 0.008427683559706547
1555.0, 0.0015164194527626895
1556.0, 0.007099834614972092
1557.0, 0.0017327735161146419
1558.0, 0.005046778476347524
1559.0, 0.02426271899968839
1560.0, 0.013661470926731102
1561.0, 0.016824605443361416
1562.0, 0.020447581848375265
1563.0, 0.017847361825393863
1564.0, 0.023276871077020207
1565.0, 0.012319057187277733
1566.0, 0.0059676619794018695
1567.0, 0.011340364861724586
1568.0, 0.01218818446062952
1569.0, 0.00898617901060386
1570.0, 0.0029190725626414868
1571.0, 0.007138569502425303
1572.0, 0.0050234964273943835
1573, 0.0
1574, 0.0
1575, 0.0
1576, 0.0
1577, 0.0
1578, 0.0
1579, 0.0
1580, 0.0
1581, 0.0
1582, 0.0
1583, 0.0
1584, 0.0
1585, 0.0
1586, 0.0
1587, 0.0
1588, 0.0
1589, 0.0
1590, 0.0
1591, 0.0
1592, 0.0
1593, 0.0
1594, 0.0
1595, 0.0
1596, 0.0
1597, 0.0
1598, 0.0
1599, 0.0
