30, 0.0
31, 0.0
32, 0.0
33, 0.0
34, 0.0
35, 0.0
36, 0.0
37, 0.0
38, 0.0
39, 0.0
40, 0.0
41, 0.0
42, 0.0
43, 0.0
44, 0.0
45, 0.0
46, 0.0
47, 0.0
48, 0.0
49, 0.0
50, 0.0
51, 0.0
52, 0.0
53, 0.0
54, 0.0
55, 0.0
56, 0.0
57, 0.0
58, 0.0
59, 0.0
60, 0.0
61, 0.0
62, 0.0
63, 0.0
64, 0.0
65, 0.0
66, 0.0
67, 0.0
68, 0.0
69, 0.0
70, 0.0
71, 0.0
72, 0.0
73, 0.0
74, 0.0
75, 0.0
76, 0.0
77, 0.0
78, 0.0
79, 0.0
80, 0.0
81, 0.0
82, 0.0
83, 0.0
84, 0.0
85, 0.0
86, 0.0
87, 0.0
88, 0.0
89, 0.0
90, 0.0
91, 0.0
92, 0.0
93, 0.0
94, 0.0
95, 0.0
96, 0.0
97, 0.0
98, 0.0
99, 0.0
100, 0.0
101, 0.0
102, 0.0
103, 0.0
104, 0.0
105, 0.0
106, 0.0
107, 0.0
108, 0.0
109, 0.0
110, 0.0
111, 0.0
112, 0.0
113, 0.0
114, 0.0
115, 0.0
116, 0.0
117, 0.0
118, 0.0
119, 0.0
120, 0.0
121, 0.0
122, 0.0
123, 0.0
124, 0.0
125, 0.0
126, 0.0
127, 0.0
128, 0.0
129, 0.0
130, 0.0
131, 0.0
132, 0.0
133, 0.0
134, 0.0
135, 0.0
136, 0.0
137, 0.0
138, 0.0
139, 0.0
140, 0.0
141, 0.0
142, 0.0
143, 0.0
144, 0.0
145, 0.0
146, 0.0
147, 0.0
148, 0.0
149, 0.0
150, 0.0
151, 0.0
152, 0.0
153, 0.0
154, 0.0
155, 0.0
156.0, 0.03181300543515156
157.0, 0.03506406488726289
158.0, 0.04482736259872468
159.0, 0.08114789922612835
160.0, 0.0654004358291625
161.0, 0.12474917298411124
162.0, 0.18400763411772253
163.0, 0.17714479110009823
164.0, 0.020663776704181167
165.0, 0.007031615692126814
166.0, 0.016890682770586946
167.0, 0.03676799527289364
168.0, 0.058597853296282185
169.0, 0.055996632524377046
170.0, 0.04110804702089383
171.0, 0.028738382489396832
172.0, 0.05112443620417672
173.0, 0.07068681760924743
174.0, 0.06826081647132111
175.0, 0.07018986245618702
176.0, 0.10010526361680235
177.0, 0.14810934296914022
178.0, 0.16382184096935168
179.0, 0.14014054414233956
180.0, 0.09684866782410217
181.0, 0.10573098492112096
182.0, 0.14358952492260488
183.0, 0.09053256027698024
184.0, 0.008551105992079066
185.0, 0.009267475243081006
186.0, 0.03931013657270167
187.0, 0.06322924756486656
188.0, 0.08820905849986074
189.0, 0.1143158500315978
190.0, 0.11107469342782215
191.0, 0.14099745940027633
192.0, 0.14858086267621995
193.0, 0.10201557122883013
194.0, 0.10279626283414872
195.0, 0.09678123441038228
196.0, 0.09986025947863285
197.0, 0.0940313298906925
198.0, 0.021416729449833714
199.0, 0.01024591735531343
200.0, 0.006721062615139223
201.0, 0.006432137013751283
202.0, 0.028693682953014686
203.0, 0.03359724172601229
204.0, 0.027777691550110763
205.0, 0.009477761858586934
206.0, 0.0538732055378689
207.0, 0.05893488814055053
208.0, 0.08691729312269354
209.0, 0.11098573097717662
210.0, 0.0991404919248069
211.0, 0.051988698974187716
212.0, 0.06601835433414878
213.0, 0.08290782776973621
214.0, 0.05156600242285354
215.0, 0.02636320086309925
216.0, 0.01568215769358617
217.0, 0.018204858183136146
218.0, 0.003717659610660347
219.0, 0.07931751516485143
220.0, 0.07721310201579769
221.0, 0.1032375206906388
222.0, 0.10818433221477056
223.0, 0.0905039893253599
224.0, 0.12833811835155098
225.0, 0.13558003325258355
226.0, 0.11321955440147753
227.0, 0.11913901004567147
228.0, 0.18195301449707735
229.0, 0.16132602239769436
230.0, 0.1391451057605116
231.0, 0.1778893282962732
232.0, 0.26717537146394044
233.0, 0.2950108943512545
234.0, 0.2623662476108115
235.0, 0.2733064506261286
236.0, 0.3178375325691482
237.0, 0.30737987056593286
238.0, 0.2808234105113244
239.0, 0.25774336625928634
240.0, 0.2404314019843792
241.0, 0.2287085586113341
242.0, 0.2242401882370619
243.0, 0.24839988422890433
244.0, 0.2678261321661376
245.0, 0.2782868073237335
246.0, 0.29104375539262706
247.0, 0.3045477138789786
248.0, 0.32744436136091254
249.0, 0.36496614696684004
250.0, 0.3685063427418602
251.0, 0.38952527578679463
252.0, 0.4322995272183497
253.0, 0.4777947923842821
254.0, 0.49720670929869065
255.0, 0.4632231893464641
256.0, 0.5381056314259215
257.0, 0.518070023095487
258.0, 0.45256900835503694
259.0, 0.49878715250384376
260.0, 0.5003916306505288
261.0, 0.4389960910446253
262.0, 0.37502355341759663
263.0, 0.3580862280262234
264.0, 0.38059247668082447
265.0, 0.3722478977857793
266.0, 0.37582893051856564
267.0, 0.383342829224439
268.0, 0.36510076905205546
269.0, 0.3908443566088889
270.0, 0.45908859578033584
271.0, 0.4601142070675885
272.0, 0.38913311517289284
273.0, 0.4422769106409842
274.0, 0.4377842928619684
275.0, 0.4236911131703491
276.0, 0.39059813123258563
277.0, 0.3000553214487485
278.0, 0.23731696573310743
279.0, 0.2658952855576033
280.0, 0.2486183033370709
281.0, 0.16476714194614678
282.0, 0.20610251625243284
283.0, 0.1362033075051397
284.0, 0.10696867020627486
285.0, 0.12939353034729886
286.0, 0.11105124427784957
287.0, 0.06965035189701305
288.0, 0.10362877811243323
289.0, 0.15269731505889855
290.0, 0.1531756090287319
291.0, 0.11600398288147803
292.0, 0.12849515540325013
293.0, 0.15289880914287815
294.0, 0.12902326969433703
295.0, 0.0661895300649158
296.0, 0.12174214467270188
297.0, 0.09232407677982582
298.0, 0.05422247880962949
299.0, 0.07390419235646165
300.0, 0.0973911124822901
301.0, 0.007952708862522757
302.0, 0.014597563510764754
303.0, 0.06618009822486179
304.0, 0.059554711913566774
305.0, 0.09879407031829897
306.0, 0.11763141284318036
307.0, 0.08838287298665579
308.0, 0.06205587319171455
309.0, 0.08889000060274609
310.0, 0.0439425001011314
311.0, 0.07552836868311949
312.0, 0.10209239388397631
313.0, 0.07040175747575672
314.0, 0.08871165360351986
315.0, 0.06296842772395306
316.0, 0.015915542991732368
317.0, 0.011942631365346141
318.0, 0.005220780413315943
319.0, 0.010606087887370516
320.0, 0.04345794703234347
321.0, 0.09884696894453371
322.0, 0.10197423037634211
323.0, 0.06543004926689033
324.0, 0.02847674085138853
325.0, 0.06807209423574269
326.0, 0.11566854815628866
327.0, 0.10933474450519239
328.0, 0.11978114779896747
329.0, 0.14122837271753866
330.0, 0.16400774166856605
331.0, 0.1861450317504557
332.0, 0.21076826787919437
333.0, 0.23782576920821402
334.0, 0.25157806587726717
335.0, 0.24639349197236843
336.0, 0.2359576412195567
337.0, 0.24843903127066302
338.0, 0.24437870445787965
339.0, 0.25901192449540317
340.0, 0.2790796888175238
341.0, 0.2812109062315115
342.0, 0.2759576427926002
343.0, 0.23732662215390263
344.0, 0.24840499785853087
345.0, 0.27826828908112267
346.0, 0.240055142186
347.0, 0.24327429048539484
348.0, 0.3082888074966445
349.0, 0.34891663975340903
350.0, 0.36021347330523146
351.0, 0.42290116261106964
352.0, 0.44698837010698605
353.0, 0.46180928009312483
354.0, 0.4637604742528531
355.0, 0.45225973952930404
356.0, 0.44125108619051256
357.0, 0.40616403454641303
358.0, 0.35269507720851273
359.0, 0.3056949016336495
360.0, 0.27668664959085076
361.0, 0.21182214607333097
362.0, 0.13770315804871322
363.0, 0.09406718359926462
364.0, 0.09281861679125386
365.0, 0.11285302485747785
366.0, 0.05066151747731994
367.0, 0.03709216993112778
368.0, 0.06027456626372254
369.0, 0.06411208585042463
370.0, 0.010520313743217442
371.0, 0.04244095063001859
372.0, 0.024392567691946372
373.0, 0.012807920299216246
374.0, 0.03473394160586834
375.0, 0.0113784318200622
376.0, 0.01031465470991353
377.0, 0.043324237913664354
378.0, 0.041317637597880943
379.0, 0.014031328912980884
380.0, 0.008558879862306686
381.0, 0.022754094917498854
382.0, 0.0682324801531709
383.0, 0.09294347669716786
384.0, 0.07146144444181314
385.0, 0.08730239382754644
386.0, 0.0747074221128605
387.0, 0.03815392150912143
388.0, 0.02309854712864914
389.0, 0.044653802384457084
390.0, 0.012873485150325764
391.0, 0.06044157688506986
392.0, 0.13333178712958874
393.0, 0.11767625690751385
394.0, 0.059371986373998445
395.0, 0.08012736317865926
396.0, 0.05652467653178779
397.0, 0.05775964070890433
398.0, 0.10217068709357856
399.0, 0.017659381849503785
400.0, 0.006861377091188406
401.0, 0.03229234507950411
402.0, 0.038604025645794834
403.0, 0.014449882156163635
404.0, 0.0034826005418721125
405.0, 0.0028157054924165784
406.0, 0.06649804865648432
407.0, 0.08738310061093901
408.0, 0.022457718163862588
409.0, 0.011510475500341219
410.0, 0.024047882414957415
411.0, 0.018159392127986923
412.0, 0.055649190811822576
413.0, 0.007764579684738905
414.0, 0.011510136088198512
415.0, 0.035262269368923765
416.0, 0.021219078037653726
417.0, 0.037229480993816656
418.0, 0.07986521508241282
419.0, 0.05002474246705299
420.0, 0.06716381267682525
421.0, 0.0820883722685874
422.0, 0.0784005354421764
423.0, 0.08448726542600958
424.0, 0.08649727056122013
425.0, 0.10829625313617453
426.0, 0.17121634150495077
427.0, 0.2034576918742245
428.0, 0.11966320873831456
429.0, 0.1846004533544362
430.0, 0.22623831671312042
431.0, 0.2725981996977483
432.0, 0.3114752397795982
433.0, 0.2553801053291817
434.0, 0.2658302795683856
435.0, 0.32281392495404704
436.0, 0.29966881107713894
437.0, 0.22281493905612207
438.0, 0.24203466779011276
439.0, 0.19921328703391664
440.0, 0.23517130493349497
441.0, 0.2561674089908449
442.0, 0.24212139672131802
443.0, 0.29675641608919934
444.0, 0.33781205378887574
445.0, 0.34776536876132713
446.0, 0.42168478020976596
447.0, 0.5185314122527036
448.0, 0.45262088351716806
449.0, 0.4409378007939174
450.0, 0.45302963832326854
451.0, 0.51993323192558
452.0, 0.5939286250921977
453.0, 0.5498903502446015
454.0, 0.5236702771514691
455.0, 0.4947404370217405
456.0, 0.4996570863932654
457.0, 0.49893669283857023
458.0, 0.4095023689056394
459.0, 0.32727645925125626
460.0, 0.3082817205055813
461.0, 0.3377029867802875
462.0, 0.33141091853496635
463.0, 0.2201493899671021
464.0, 0.1715491788070148
465.0, 0.17687006650744772
466.0, 0.19568009784607038
467.0, 0.16990704280411625
468.0, 0.07980358427673576
469.0, 0.11703383427644713
470.0, 0.14666663114673736
471.0, 0.19049649147415845
472.0, 0.21825519027781498
473.0, 0.17193206545238057
474.0, 0.22158940763729498
475.0, 0.16535792927852433
476.0, 0.1391651749679213
477.0, 0.16543896693864693
478.0, 0.15758902143713427
479.0, 0.12837483920529988
480.0, 0.13413143033627598
481.0, 0.12970762030199873
482.0, 0.13145694759791948
483.0, 0.17758906218194995
484.0, 0.2427723021120337
485.0, 0.23081521068921804
486.0, 0.19424720476746749
487.0, 0.1892151370360988
488.0, 0.20634106258926027
489.0, 0.13326291732209744
490.0, 0.15601915210014927
491.0, 0.11097146539694988
492.0, 0.05152392199903564
493.0, 0.05070263617917179
494.0, 0.04136584016981342
495.0, 0.02574072795282093
496.0, 0.02549606628695353
497.0, 0.03830399177467826
498.0, 0.05215355589694663
499.0, 0.0605801193586158
500.0, 0.061544399455753636
501.0, 0.10983564671581784
502.0, 0.17252788326245963
503.0, 0.1807386451923734
504.0, 0.08315826752812053
505.0, 0.09026046064114208
506.0, 0.1376159337978926
507.0, 0.13996286002298458
508.0, 0.1206012462865166
509.0, 0.12261546742147736
510.0, 0.055404771161782475
511.0, 0.16167392014612547
512.0, 0.18230904268912143
513.0, 0.13827357778906457
514.0, 0.15525728868847855
515.0, 0.162596754316642
516.0, 0.1446107572448399
517.0, 0.11690144125388244
518.0, 0.10859907261149583
519.0, 0.11460772240324003
520.0, 0.08662354971172165
521.0, 0.048905528173469236
522.0, 0.04102015308553784
523.0, 0.054620391493349386
524.0, 0.05626719843297761
525.0, 0.02699223236546873
526.0, 0.01596617694978452
527.0, 0.014350113517816744
528.0, 0.03135645239637849
529.0, 0.07389217099957
530.0, 0.03988105391438894
531.0, 0.03692427927438431
532.0, 0.009798569328660904
533.0, 0.02547618439273218
534.0, 0.06930963602432205
535.0, 0.059055274009848883
536.0, 0.04832816685472469
537.0, 0.033243033277518964
538.0, 0.008553054827602267
539.0, 0.01922904098085998
540.0, 0.06563193130287774
541.0, 0.0492152420339988
542.0, 0.03335758971842007
543.0, 0.0075149107568644935
544.0, 0.0023560368949212644
545.0, 0.002649820396266427
546.0, 0.007587142024079827
547.0, 0.035977011053545505
548.0, 0.03778659940711985
549.0, 0.035621684388938306
550.0, 0.024451753491004875
551.0, 0.011209029188753567
552.0, 0.031813533660923536
553.0, 0.04862598819829452
554.0, 0.0833984754757956
555.0, 0.0687635857576733
556.0, 0.031739183901666884
557.0, 0.07158666350752281
558.0, 0.14938859306780783
559.0, 0.17390935367014937
560.0, 0.20343363286288776
561.0, 0.24729680537290127
562.0, 0.28838552143686397
563.0, 0.34103801137861545
564.0, 0.32495236499807006
565.0, 0.3900773914583863
566.0, 0.47072771706111477
567.0, 0.5407907277025344
568.0, 0.6639430957967294
569.0, 0.7298920245082637
570.0, 0.7773828157664362
571.0, 0.8521793381245891
572.0, 0.9364889610908783
573.0, 0.9879002255616585
574.0, 0.9862548412971919
575.0, 0.8265869567393891
576.0, 0.6664900932168143
577.0, 0.5335241343343484
578.0, 0.43617500542133414
579.0, 0.40426453702877196
580.0, 0.3336092399123931
581.0, 0.3261102601065254
582.0, 0.28398532279537214
583.0, 0.20527944212709348
584.0, 0.16108411806738768
585.0, 0.15999468937808628
586.0, 0.19834370839504548
587.0, 0.20921163554046995
588.0, 0.22371390413390263
589.0, 0.2508874005400056
590.0, 0.25862904042529256
591.0, 0.2938400551782127
592.0, 0.2924486678474194
593.0, 0.318418820677172
594.0, 0.36960642790682496
595.0, 0.4123063666911197
596.0, 0.4542903437877967
597.0, 0.4320531763053237
598.0, 0.4839565549233133
599.0, 0.49239643266087674
600.0, 0.4596834054356529
601.0, 0.4994437307669758
602.0, 0.47618627368989735
603.0, 0.45451574583555643
604.0, 0.495844692555595
605.0, 0.5117529585295635
606.0, 0.45078102117757074
607.0, 0.4045091012166455
608.0, 0.37830260702642515
609.0, 0.3734894237434916
610.0, 0.3850446454122059
611.0, 0.3774325282598211
612.0, 0.3263636983639021
613.0, 0.27481071606841234
614.0, 0.23410659194324668
615.0, 0.25547341791122774
616.0, 0.27292016444851186
617.0, 0.24931107169379935
618.0, 0.21994759207239506
619.0, 0.17523682969441295
620.0, 0.17160218291203236
621.0, 0.11639075945076234
622.0, 0.0960924673709799
623.0, 0.1546541077679004
624.0, 0.15351779781731026
625.0, 0.07358753764270153
626.0, 0.0823265745159777
627.0, 0.07207864521967391
628.0, 0.03672920077429043
629.0, 0.05182656277750912
630.0, 0.06579989454928208
631.0, 0.03367520883233691
632.0, 0.07317524676003832
633.0, 0.07686165193043036
634.0, 0.034161365033406214
635.0, 0.029926059262873093
636.0, 0.07952055284943073
637.0, 0.0673112841322821
638.0, 0.02512476472327215
639.0, 0.05108884083275631
640.0, 0.010922889799087315
641.0, 0.052179493681166644
642.0, 0.019787249698161733
643.0, 0.01779850699841483
644.0, 0.011719789177882044
645.0, 0.016643961837067914
646.0, 0.005244916846948475
647.0, 0.04922275738020372
648.0, 0.0720458551910117
649.0, 0.06435658369265859
650.0, 0.06326065602948112
651.0, 0.06607143579167266
652.0, 0.06237401420896524
653.0, 0.07957885210215791
654.0, 0.10864399820078854
655.0, 0.09602515610059485
656.0, 0.13289356066470295
657.0, 0.17042191868477397
658.0, 0.1365146979507812
659.0, 0.18256159232536587
660.0, 0.1714637340390244
661.0, 0.1154759176176634
662.0, 0.09371819450039462
663.0, 0.10468792486323376
664.0, 0.10472748944963764
665.0, 0.14503460375819865
666.0, 0.13887003988711716
667.0, 0.14735274842506313
668.0, 0.16348976210437643
669.0, 0.16702419013376182
670.0, 0.1544211851193005
671.0, 0.12150489372332691
672.0, 0.10861899571631076
673.0, 0.11619971049078265
674.0, 0.10046728195863014
675.0, 0.060506224434073774
676.0, 0.04583689155407335
677.0, 0.1020956248532173
678.0, 0.10897486273642099
679.0, 0.12579470169847856
680.0, 0.12476580519154318
681.0, 0.1183756122439538
682.0, 0.15970419979489633
683.0, 0.13634648214341724
684.0, 0.09784275987631061
685.0, 0.12481887407283146
686.0, 0.13882850276670586
687.0, 0.11816865465820336
688.0, 0.13301272880081624
689.0, 0.10927057345651656
690.0, 0.0596385013873933
691.0, 0.11325754802256358
692.0, 0.1587816269244757
693.0, 0.14355582804149195
694.0, 0.1434812710622203
695.0, 0.10741118693495426
696.0, 0.11004371074095394
697.0, 0.1182147592905732
698.0, 0.12045265742030987
699.0, 0.12955326600625494
700.0, 0.14217615835608116
701.0, 0.13055411489621752
702.0, 0.19172855964402277
703.0, 0.14772362243544512
704.0, 0.10855823162814883
705.0, 0.14181962252672176
706.0, 0.18269220934004562
707.0, 0.20969390570451069
708.0, 0.22544662768915866
709.0, 0.17923179198108088
710.0, 0.11572229572426977
711.0, 0.1203767209969799
712.0, 0.17798475800780023
713.0, 0.13811230908154817
714.0, 0.11455987156914255
715.0, 0.14444228042734517
716.0, 0.1553501838281434
717.0, 0.17063172205447893
718.0, 0.20923237606107675
719.0, 0.11913473912610849
720.0, 0.11453853709637078
721.0, 0.12563124110470258
722.0, 0.11221486932008688
723.0, 0.11553593966049923
724.0, 0.15241841937076842
725.0, 0.14942879393751043
726.0, 0.12062986799491288
727.0, 0.11476474463911424
728.0, 0.08840135240520144
729.0, 0.06712601877818332
730.0, 0.07595931165101506
731.0, 0.08224747634850206
732.0, 0.09748705369344647
733.0, 0.02798153592923102
734.0, 0.04532485927182259
735.0, 0.07171689560985413
736.0, 0.027815461777636035
737.0, 0.019224493466338158
738.0, 0.033270303847923545
739.0, 0.008727077666498663
740.0, 0.028809961147462114
741.0, 0.06416743756074647
742.0, 0.06171658828706457
743.0, 0.0052010632943644795
744.0, 0.028878384102951217
745.0, 0.0006029863000723617
746.0, 0.00484242692145845
747.0, 0.05382156492150715
748.0, 0.0852478091727315
749.0, 0.07155091822928424
750.0, 0.05506648085420398
751.0, 0.006972469800907145
752.0, 0.013610523701617722
753.0, 0.05310525186443321
754.0, 0.09379583510125364
755.0, 0.07828625222140656
756.0, 0.012369389004863014
757.0, 0.008044032731912587
758.0, 0.046335149302882093
759.0, 0.014757115571680308
760.0, 0.01454747206415751
761.0, 0.057696241652971186
762.0, 0.03463178763775004
763.0, 0.010209942447400719
764.0, 0.047952133251960925
765.0, 0.10603565688822417
766.0, 0.13916993629790345
767.0, 0.1278471552783862
768.0, 0.09405046280119196
769.0, 0.1037883182702071
770.0, 0.157651700938839
771.0, 0.16297358638800966
772.0, 0.1473041949704109
773.0, 0.13427165552627157
774.0, 0.12222453911837972
775.0, 0.1091388641245164
776.0, 0.11550657893284254
777.0, 0.10144251619345451
778.0, 0.09142468328206463
779.0, 0.09827656427453664
780.0, 0.09410758204776229
781.0, 0.09900517204766784
782.0, 0.14037851206938717
783.0, 0.07007130526918152
784.0, 0.04373873828450734
785.0, 0.06395561968169358
786.0, 0.11191205355562428
787.0, 0.1429369556812126
788.0, 0.11823260729361867
789.0, 0.07251898451520772
790.0, 0.08609709478589504
791.0, 0.02639278534369452
792.0, 0.021429255964225718
793.0, 0.05470196236147992
794.0, 0.0808896695621347
795.0, 0.1158873492821918
796.0, 0.0857425434330462
797.0, 0.025249529712895503
798.0, 0.10319121283073024
799.0, 0.1408416077934507
800.0, 0.12146321962480265
801.0, 0.11793965798168209
802.0, 0.11472634336154486
803.0, 0.11932272463860229
804.0, 0.08609067611542151
805.0, 0.10324875689216285
806.0, 0.06409178150926924
807.0, 0.03498188590001369
808.0, 0.10709165019440073
809.0, 0.0737575872549809
810.0, 0.08034190358973918
811.0, 0.0806170000232268
812.0, 0.1075308325560803
813.0, 0.05356869542739698
814.0, 0.04198796870522742
815.0, 0.0053332733932029905
816.0, 0.025318012698414123
817.0, 0.019350925921153436
818.0, 0.030107005195859942
819.0, 0.009578788837337465
820.0, 0.008005166164743768
821.0, 0.0057410945076134074
822.0, 0.032244903050193965
823.0, 0.00731943986207805
824.0, 0.021499793315821067
825.0, 0.05935936333706041
826.0, 0.14994423338071297
827.0, 0.2110153284377586
828.0, 0.17706352912315074
829.0, 0.14977393492626337
830.0, 0.09891451038881964
831.0, 0.1099931523524201
832.0, 0.05606721899796267
833.0, 0.0038733707688269996
834.0, 0.017241549394394685
835.0, 0.027295577001217007
836.0, 0.05134882270697701
837.0, 0.02727084791309533
838.0, 0.01257104693365171
839.0, 0.05544973205159838
840.0, 0.0379083528925947
841.0, 0.0159554952769672
842.0, 0.05576453961002366
843.0, 0.06988398432637777
844.0, 0.036303421274185246
845.0, 0.04778353140266759
846.0, 0.040000788299709406
847.0, 0.04417352309172938
848.0, 0.055711503928142544
849.0, 0.05706821258108587
850.0, 0.10758301076798582
851.0, 0.0400082225522196
852.0, 0.06019774933549875
853.0, 0.04620611064451979
854.0, 0.021940445241136832
855.0, 0.03419276578713074
856.0, 0.06590070381111417
857.0, 0.08409303977344239
858.0, 0.09935083116477365
859.0, 0.11522347233969056
860.0, 0.17020485952524417
861.0, 0.17999755293475872
862.0, 0.15231882335169258
863.0, 0.13428845697539127
864.0, 0.08518387950078322
865.0, 0.119039590600852
866.0, 0.10802368902570857
867.0, 0.11066509128834737
868.0, 0.1348390881192103
869.0, 0.11881406583500576
870.0, 0.0632591398176988
871.0, 0.07506829107833071
872.0, 0.07002927938801806
873.0, 0.03876468256449063
874.0, 0.07818754712910661
875.0, 0.15679488923564705
876.0, 0.18613296476413135
877.0, 0.17719438062551926
878.0, 0.20534756968334678
879.0, 0.22298327755534383
880.0, 0.23479868695600398
881.0, 0.25904039133976936
882.0, 0.32101581098946896
883.0, 0.3360231213811427
884.0, 0.30383322925225137
885.0, 0.32633627334511517
886.0, 0.33203120069413156
887.0, 0.2737296058787796
888.0, 0.28052009019068047
889.0, 0.2298108160910518
890.0, 0.17101299645388862
891.0, 0.1942598983775586
892.0, 0.24399503550465323
893.0, 0.16675703805612338
894.0, 0.2338805842639628
895.0, 0.28092057922861824
896.0, 0.28534970264494225
897.0, 0.33521557796982726
898.0, 0.3689884449564893
899.0, 0.3268187941828363
900.0, 0.3205957268356994
901.0, 0.36043440672720206
902.0, 0.3403037106084897
903.0, 0.35347750272300893
904.0, 0.32484954045485237
905.0, 0.36515394415100383
906.0, 0.4642322665581611
907.0, 0.48382112364081437
908.0, 0.5657458075868216
909.0, 0.5735700113379587
910.0, 0.5977502177976396
911.0, 0.5739664046585077
912.0, 0.6090915385008234
913.0, 0.6630687214977644
914.0, 0.6615422377009107
915.0, 0.7035711953732537
916.0, 0.7078049739295014
917.0, 0.7456567781973068
918.0, 0.6843469574438226
919.0, 0.6533858776304677
920.0, 0.6369749411565729
921.0, 0.610843161203261
922.0, 0.6291515968338636
923.0, 0.6141831978992215
924.0, 0.508213928601446
925.0, 0.44477635702221885
926.0, 0.37976493873108685
927.0, 0.3397772766286925
928.0, 0.3454423258190537
929.0, 0.3421452416670467
930.0, 0.3104183871562771
931.0, 0.36699727456927717
932.0, 0.29582889666464557
933.0, 0.2513272726674157
934.0, 0.27028239854762015
935.0, 0.27491559453518377
936.0, 0.2260160480724031
937.0, 0.18625724572103944
938.0, 0.21449377197952937
939.0, 0.21549011180206645
940.0, 0.16818036028600417
941.0, 0.11963255947782145
942.0, 0.12454390294364732
943.0, 0.14927422934474366
944.0, 0.12434728252235958
945.0, 0.06079466468778128
946.0, 0.061940654623339954
947.0, 0.07490216929752434
948.0, 0.057321272076904725
949.0, 0.06244741640442326
950.0, 0.08091751925632726
951.0, 0.08393384532716915
952.0, 0.09628796556331416
953.0, 0.12861195116210675
954.0, 0.08897234864946256
955.0, 0.09076656329631796
956.0, 0.07718406506382638
957.0, 0.05064065709113097
958.0, 0.016923285967728324
959.0, 0.005078751962610818
960.0, 0.00363996898384052
961.0, 0.00337467758064733
962.0, 0.004944260639470793
963.0, 0.036598660460382855
964.0, 0.004321790652480274
965.0, 0.03503117398297144
966.0, 0.044277031107708316
967.0, 0.013275948900982895
968.0, 0.04953025584713211
969.0, 0.1101015965861794
970.0, 0.06682558648082969
971.0, 0.0444796995276365
972.0, 0.08901047029335182
973.0, 0.06540534944419414
974.0, 0.04194192296447306
975.0, 0.019009867838866663
976.0, 0.016488872477926284
977.0, 0.10031671389814638
978.0, 0.11466338611344115
979.0, 0.14702841456956586
980.0, 0.10600463615293412
981.0, 0.12423482081927646
982.0, 0.18949219144456997
983.0, 0.24322640197654066
984.0, 0.2383287624889669
985.0, 0.2059145212570474
986.0, 0.2671518719973081
987.0, 0.2310543949827983
988.0, 0.20902626367969643
989.0, 0.1151369981469617
990.0, 0.07324400120535808
991.0, 0.053528855963630835
992.0, 0.040689914655884334
993.0, 0.03869264195393437
994.0, 0.047151091709527054
995.0, 0.03444500975759418
996.0, 0.029415814909176215
997.0, 0.0439638478232399
998.0, 0.06654531937243635
999.0, 0.056438086658088936
1000.0, 0.06129398179621945
1001.0, 0.13150690440774868
1002.0, 0.19296494349624374
1003.0, 0.1103100599385885
1004.0, 0.07306446888742389
1005.0, 0.017214869591855978
1006.0, 0.007418943374393814
1007.0, 0.002822470404395966
1008.0, 0.006758941747127059
1009.0, 0.01889023840219753
1010.0, 0.02278125806834743
1011.0, 0.013336934441098755
1012.0, 0.05366280008597382
1013.0, 0.03187045098004655
1014.0, 0.03388806003740411
1015.0, 0.04144201684571235
1016.0, 0.03338316536485315
1017.0, 0.03822854580160278
1018.0, 0.05427105426753962
1019.0, 0.01745138264685141
1020.0, 0.024384776745352145
1021.0, 0.026227410332174725
1022.0, 0.02113126474782512
1023.0, 0.06486714588498424
1024.0, 0.032863008497296356
1025.0, 0.03849045071198392
1026.0, 0.07089542984755347
1027.0, 0.01161295027933663
1028.0, 0.003115647715948827
1029.0, 0.02540066062437751
1030.0, 0.0596306313620878
1031.0, 0.06851408340839317
1032.0, 0.12882611613794798
1033.0, 0.12943631548700096
1034.0, 0.06295310312691577
1035.0, 0.05441696428644696
1036.0, 0.08034142489151107
1037.0, 0.09206367496211833
1038.0, 0.07442101740761949
1039.0, 0.07604002298705358
1040.0, 0.0928100604918685
1041.0, 0.10835549657702045
1042.0, 0.06464678798841234
1043.0, 0.07244176356842019
1044.0, 0.1459971666091257
1045.0, 0.0839480006699733
1046.0, 0.09625590411658827
1047.0, 0.014276318786287625
1048.0, 0.012323443573548537
1049.0, 0.07320461146234832
1050.0, 0.06132159855169328
1051.0, 0.059157873486648485
1052.0, 0.04150139060176337
1053.0, 0.03066309320711547
1054.0, 0.01903632342601526
1055.0, 0.03486804148974765
1056.0, 0.023043015610081565
1057.0, 0.005434410459051196
1058.0, 0.012708830863289408
1059.0, 0.045921462757922554
1060.0, 0.04708576491461791
1061.0, 0.0377350126859106
1062.0, 0.041754575318809814
1063.0, 0.013769204838518581
1064.0, 0.03524827483608717
1065.0, 0.03375179996781737
1066.0, 0.05831819347128472
1067.0, 0.022369885982918523
1068.0, 0.0036235117959455406
1069.0, 0.0004037530978496731
1070.0, 0.0018787041019153257
1071.0, 0.03297087372253573
1072.0, 0.06691207649320889
1073.0, 0.01715850401390957
1074.0, 0.06930438395279927
1075.0, 0.060177772034129225
1076.0, 0.13271833489459373
1077.0, 0.12775237499968
1078.0, 0.09283634182180221
1079.0, 0.13265751938625112
1080.0, 0.19162167848653244
1081.0, 0.17692437470747277
1082.0, 0.15077184390885118
1083.0, 0.19989211533079415
1084.0, 0.11223532401890085
1085.0, 0.11916062950135348
1086.0, 0.1645645754981477
1087.0, 0.18276643325543243
1088.0, 0.17315051820692992
1089.0, 0.20791439081144075
1090.0, 0.2698073041756834
1091.0, 0.2533101045341554
1092.0, 0.3648678498956297
1093.0, 0.35989679095615273
1094.0, 0.3088987204680501
1095.0, 0.30489852135672674
1096.0, 0.3186464977183142
1097.0, 0.31540989227104926
1098.0, 0.2893360690661383
1099.0, 0.23001282276418045
1100.0, 0.17188967105710595
1101.0, 0.2065274324744815
1102.0, 0.1967178670530918
1103.0, 0.19861897264466272
1104.0, 0.11343055204525049
1105.0, 0.11802509470737184
1106.0, 0.1342821464361328
1107.0, 0.10329940124496706
1108.0, 0.08451917848038223
1109.0, 0.12892673559264411
1110.0, 0.18063243509299268
1111.0, 0.13104523271214397
1112.0, 0.08055975523430173
1113.0, 0.1458467323134167
1114.0, 0.16495282505306205
1115.0, 0.17788419014507226
1116.0, 0.1381384075230513
1117.0, 0.04873761594998382
1118.0, 0.03417287171899319
1119.0, 0.07879969132630106
1120.0, 0.047691145705765735
1121.0, 0.07613859882703165
1122.0, 0.002987177391806239
1123.0, 0.012342874635166066
1124.0, 0.048572581000153534
1125.0, 0.03264434717018665
1126.0, 0.02246132736925145
1127.0, 0.07448939978610226
1128.0, 0.12344484615252338
1129.0, 0.11745615662505432
1130.0, 0.11565277611898298
1131.0, 0.1981507385438782
1132.0, 0.14541289895212053
1133.0, 0.15617333849207732
1134.0, 0.13597723208056145
1135.0, 0.13296111775670003
1136.0, 0.12766250467359253
1137.0, 0.13216620890731867
1138.0, 0.1261104764119627
1139.0, 0.0732513504819889
1140.0, 0.016742451783877906
1141.0, 0.018618847630527676
1142.0, 0.019528155014152233
1143.0, 0.06453224451459862
1144.0, 0.05536103515884635
1145.0, 0.045993194685764044
1146.0, 0.08305480936026471
1147.0, 0.09613327098277787
1148.0, 0.10948480066262772
1149.0, 0.1346408492032747
1150.0, 0.10499911328675629
1151.0, 0.09026761285493497
1152.0, 0.07766034705460093
1153.0, 0.09326241926673347
1154.0, 0.05957617675222439
1155.0, 0.06513422494473228
1156.0, 0.015927244246929383
1157.0, 0.012973040854288829
1158.0, 0.10469479388119254
1159.0, 0.1384972274749352
1160.0, 0.06742880350628734
1161.0, 0.07452118447184516
1162.0, 0.038687446691500184
1163.0, 0.03282829072181062
1164.0, 0.03933490627846194
1165.0, 0.058192941656931785
1166.0, 0.013511555309241923
1167.0, 0.014898932980924286
1168.0, 0.019386987444888353
1169.0, 0.024206506477263107
1170.0, 0.025909541362030004
1171.0, 0.06704439805960577
1172.0, 0.07633824803448624
1173.0, 0.035512326346284165
1174.0, 0.0522560952792329
1175.0, 0.03672721627664864
1176.0, 0.08287954454579613
1177.0, 0.07506046294132666
1178.0, 0.12671205811750075
1179.0, 0.08631306580694179
1180.0, 0.0036848716738610487
1181.0, 0.06831732826633438
1182.0, 0.13058176168338442
1183.0, 0.04768385131138493
1184.0, 0.04102745862944231
1185.0, 0.11973851060074762
1186.0, 0.1292118068757316
1187.0, 0.16409633107560992
1188.0, 0.19507185966654658
1189.0, 0.20449990424664882
1190.0, 0.20729973639889962
1191.0, 0.2004435083803917
1192.0, 0.19106361804739538
1193.0, 0.1494607230183354
1194.0, 0.02186313668699223
1195.0, 0.01351572846964836
1196.0, 0.08216020824743592
1197.0, 0.0978927086008501
1198.0, 0.07732795368113676
1199.0, 0.1038852944390744
1200.0, 0.10188053526142765
1201.0, 0.13009907381796523
1202.0, 0.1029883897148601
1203.0, 0.07670194763188294
1204.0, 0.15310781633918127
1205.0, 0.1598249773841582
1206.0, 0.10325771083492821
1207.0, 0.18141632895167026
1208.0, 0.21273557974087756
1209.0, 0.15664703924390191
1210.0, 0.14374668621645717
1211.0, 0.13120133197818265
1212.0, 0.10423688460520533
1213.0, 0.18405505838982328
1214.0, 0.2167567592629281
1215.0, 0.14918097134520641
1216.0, 0.11282474427798449
1217.0, 0.07360751667462442
1218.0, 0.16363600595073816
1219.0, 0.13238984435381215
1220.0, 0.1533857595662354
1221.0, 0.1438871804749963
1222.0, 0.1277973621374032
1223.0, 0.0772146661770106
1224.0, 0.048696646277491075
1225.0, 0.0865662669010877
1226.0, 0.15095082311642252
1227.0, 0.14553032929301607
1228.0, 0.043143091387203764
1229.0, 0.03664262108801236
1230.0, 0.014352462739494927
1231.0, 0.08628494418227717
1232.0, 0.07303682229601229
1233.0, 0.02563999789644483
1234.0, 0.0939820299705947
1235.0, 0.05248141475278603
1236.0, 0.05195773636239995
1237.0, 0.034066464953269794
1238.0, 0.033270908446755905
1239.0, 0.12041887111095013
1240.0, 0.16927837926452988
1241.0, 0.19123602633909062
1242.0, 0.2349392465244848
1243.0, 0.13310670212885345
1244.0, 0.0875526941692652
1245.0, 0.06154628309775959
1246.0, 0.07589482089183837
1247.0, 0.08019254211383905
1248.0, 0.09217944973051564
1249.0, 0.12848246619196976
1250.0, 0.1949295034933735
1251.0, 0.17622762257909952
1252.0, 0.12358149569637684
1253.0, 0.15127893086662159
1254.0, 0.11411907892434672
1255.0, 0.10860928677741058
1256.0, 0.08231868142440248
1257.0, 0.09569828239858238
1258.0, 0.16180396955288728
1259.0, 0.10758247581064691
1260.0, 0.06882257386000959
1261.0, 0.07677437623177166
1262.0, 0.09341998877859606
1263.0, 0.11138677725020009
1264.0, 0.09174646061448795
1265.0, 0.06395556993922742
1266.0, 0.09283445944963975
1267.0, 0.08780443680703955
1268.0, 0.07718698276203727
1269.0, 0.04036999755831755
1270.0, 0.0030969516140083525
1271.0, 0.007239457921636338
1272.0, 0.03524811072016566
1273.0, 0.06819103190886941
1274.0, 0.07834989606651654
1275.0, 0.03151638610314267
1276.0, 8.826783459933414e-06
1277, 0.0
1278, 0.0
1279, 0.0
1280, 0.0
1281, 0.0
1282, 0.0
1283, 0.0
1284, 0.0
1285, 0.0
1286, 0.0
1287, 0.0
1288, 0.0
1289, 0.0
1290, 0.0
1291, 0.0
1292, 0.0
1293, 0.0
1294, 0.0
1295, 0.0
1296, 0.0
1297, 0.0
1298, 0.0
1299, 0.0
1300, 0.0
1301, 0.0
1302, 0.0
1303, 0.0
1304, 0.0
1305, 0.0
1306, 0.0
1307, 0.0
1308, 0.0
1309, 0.0
1310, 0.0
1311, 0.0
1312, 0.0
1313, 0.0
1314, 0.0
1315, 0.0
1316, 0.0
1317, 0.0
1318, 0.0
1319, 0.0
1320, 0.0
1321, 0.0
1322, 0.0
1323, 0.0
1324, 0.0
1325, 0.0
1326, 0.0
1327, 0.0
1328, 0.0
1329, 0.0
1330, 0.0
1331, 0.0
1332, 0.0
1333, 0.0
1334, 0.0
1335, 0.0
1336, 0.0
1337, 0.0
1338, 0.0
1339, 0.0
1340, 0.0
1341, 0.0
1342, 0.0
1343, 0.0
1344, 0.0
1345, 0.0
1346, 0.0
1347, 0.0
1348, 0.0
1349, 0.0
1350, 0.0
1351, 0.0
1352, 0.0
1353, 0.0
1354, 0.0
1355, 0.0
1356, 0.0
1357, 0.0
1358, 0.0
1359, 0.0
1360, 0.0
1361, 0.0
1362, 0.0
1363, 0.0
1364, 0.0
1365, 0.0
1366, 0.0
1367, 0.0
1368, 0.0
1369, 0.0
1370, 0.0
1371, 0.0
1372, 0.0
1373, 0.0
1374, 0.0
1375, 0.0
1376, 0.0
1377, 0.0
1378, 0.0
1379, 0.0
1380, 0.0
1381, 0.0
1382, 0.0
1383, 0.0
1384, 0.0
1385, 0.0
1386, 0.0
1387, 0.0
1388, 0.0
1389, 0.0
1390, 0.0
1391, 0.0
1392, 0.0
1393, 0.0
1394, 0.0
1395, 0.0
1396, 0.0
1397, 0.0
1398, 0.0
1399, 0.0
1400, 0.0
1401, 0.0
1402, 0.0
1403, 0.0
1404, 0.0
1405, 0.0
1406, 0.0
1407, 0.0
1408, 0.0
1409, 0.0
1410, 0.0
1411, 0.0
1412, 0.0
1413, 0.0
1414, 0.0
1415, 0.0
1416, 0.0
1417, 0.0
1418, 0.0
1419, 0.0
1420, 0.0
1421, 0.0
1422, 0.0
1423, 0.0
1424, 0.0
1425, 0.0
1426, 0.0
1427, 0.0
1428, 0.0
1429, 0.0
1430, 0.0
1431, 0.0
1432, 0.0
1433, 0.0
1434, 0.0
1435, 0.0
1436, 0.0
1437, 0.0
1438, 0.0
1439, 0.0
1440, 0.0
1441, 0.0
1442, 0.0
1443, 0.0
1444, 0.0
1445, 0.0
1446, 0.0
1447, 0.0
1448, 0.0
1449, 0.0
1450, 0.0
1451, 0.0
1452, 0.0
1453, 0.0
1454, 0.0
1455, 0.0
1456, 0.0
1457, 0.0
1458, 0.0
1459, 0.0
1460, 0.0
1461, 0.0
1462, 0.0
1463, 0.0
1464, 0.0
1465, 0.0
1466, 0.0
1467, 0.0
1468, 0.0
1469, 0.0
1470, 0.0
1471, 0.0
1472, 0.0
1473, 0.0
1474, 0.0
1475, 0.0
1476, 0.0
1477, 0.0
1478, 0.0
1479, 0.0
1480, 0.0
1481, 0.0
1482, 0.0
1483, 0.0
1484, 0.0
1485, 0.0
1486, 0.0
1487, 0.0
1488, 0.0
1489, 0.0
1490, 0.0
1491, 0.0
1492, 0.0
1493, 0.0
1494, 0.0
1495, 0.0
1496, 0.0
1497, 0.0
1498, 0.0
1499, 0.0
1500, 0.0
1501, 0.0
1502, 0.0
1503, 0.0
1504, 0.0
1505, 0.0
1506, 0.0
1507, 0.0
1508, 0.0
1509, 0.0
1510, 0.0
1511, 0.0
1512, 0.0
1513, 0.0
1514, 0.0
1515, 0.0
1516, 0.0
1517, 0.0
1518, 0.0
1519, 0.0
1520, 0.0
1521, 0.0
1522, 0.0
1523, 0.0
1524, 0.0
1525, 0.0
1526, 0.0
1527, 0.0
1528, 0.0
1529, 0.0
1530, 0.0
1531, 0.0
1532, 0.0
1533, 0.0
1534, 0.0
1535, 0.0
1536, 0.0
1537, 0.0
1538, 0.0
1539, 0.0
1540, 0.0
1541, 0.0
1542, 0.0
1543, 0.0
1544, 0.0
1545, 0.0
1546, 0.0
1547, 0.0
1548, 0.0
1549, 0.0
1550, 0.0
1551, 0.0
1552, 0.0
1553, 0.0
1554, 0.0
1555, 0.0
1556, 0.0
1557, 0.0
1558, 0.0
1559, 0.0
1560, 0.0
1561, 0.0
1562, 0.0
1563, 0.0
1564, 0.0
1565, 0.0
1566, 0.0
1567, 0.0
1568, 0.0
1569, 0.0
1570, 0.0
1571, 0.0
1572, 0.0
1573, 0.0
1574, 0.0
1575, 0.0
1576, 0.0
1577, 0.0
1578, 0.0
1579, 0.0
1580, 0.0
1581, 0.0
1582, 0.0
1583, 0.0
1584, 0.0
1585, 0.0
1586, 0.0
1587, 0.0
1588, 0.0
1589, 0.0
1590, 0.0
1591, 0.0
1592, 0.0
1593, 0.0
1594, 0.0
1595, 0.0
1596, 0.0
1597, 0.0
1598, 0.0
1599, 0.0
