30, 0.0
31, 0.0
32, 0.0
33, 0.0
34, 0.0
35, 0.0
36, 0.0
37, 0.0
38, 0.0
39, 0.0
40, 0.0
41, 0.0
42, 0.0
43, 0.0
44, 0.0
45, 0.0
46, 0.0
47, 0.0
48, 0.0
49, 0.0
50, 0.0
51, 0.0
52, 0.0
53, 0.0
54, 0.0
55, 0.0
56, 0.0
57, 0.0
58, 0.0
59, 0.0
60, 0.0
61, 0.0
62, 0.0
63, 0.0
64, 0.0
65, 0.0
66, 0.0
67, 0.0
68, 0.0
69, 0.0
70, 0.0
71, 0.0
72, 0.0
73, 0.0
74, 0.0
75, 0.0
76, 0.0
77, 0.0
78, 0.0
79, 0.0
80, 0.0
81, 0.0
82, 0.0
83, 0.0
84, 0.0
85, 0.0
86, 0.0
87, 0.0
88, 0.0
89, 0.0
90, 0.0
91, 0.0
92, 0.0
93, 0.0
94, 0.0
95, 0.0
96.0, 0.0002487487492322674
97.0, 0.0050323785421598636
98.0, 0.002126290459619882
99.0, 0.00161917391370456
100.0, 0.0033599381785929037
101.0, 0.0036269062734796114
102.0, 0.00225609132641448
103.0, 0.0010179165879048303
104.0, 0.004841457159179644
105.0, 0.01240620553956268
106.0, 0.022264065246755796
107.0, 0.03586345064100824
108.0, 0.04583858136604755
109.0, 0.059126375036601245
110.0, 0.06625795060561954
111.0, 0.06144793881581255
112.0, 0.0450283763714129
113.0, 0.03609915205910908
114.0, 0.037058700361472754
115.0, 0.043446021380422084
116.0, 0.048058047785405074
117.0, 0.04470734906832352
118.0, 0.04316425870837829
119.0, 0.03722644149622003
120.0, 0.03335560560919277
121.0, 0.03094553390506288
122.0, 0.027812994761134968
123.0, 0.022060508660519666
124.0, 0.022898470630262114
125.0, 0.01885627900166605
126.0, 0.014227180735043289
127.0, 0.01327870718375162
128.0, 0.018348118944758657
129.0, 0.02478420022295813
130.0, 0.026165634492107768
131.0, 0.02782936553332965
132.0, 0.02926358363285026
133.0, 0.027968020652970743
134.0, 0.029131363842695872
135.0, 0.030557996054103455
136.0, 0.030932583340934666
137.0, 0.032833527523590506
138.0, 0.03785492431426448
139.0, 0.04339797166405087
140.0, 0.05042662873700771
141.0, 0.059642945327989
142.0, 0.0705851913914931
143.0, 0.08455633532725741
144.0, 0.1045209633478086
145.0, 0.13308775758761085
146.0, 0.15635372823407218
147.0, 0.18101447921288644
148.0, 0.20601714061812113
149.0, 0.22722050886131934
150.0, 0.24065253129388203
151.0, 0.24250232322925808
152.0, 0.24534798629976642
153.0, 0.2357926141542625
154.0, 0.2098115178834382
155.0, 0.1836053159787136
156.0, 0.1529023530227048
157.0, 0.12476201970155837
158.0, 0.10290132633516269
159.0, 0.08622565023817871
160.0, 0.0712614506764989
161.0, 0.060967045671573225
162.0, 0.06260188432505627
163.0, 0.06891928246573957
164.0, 0.07643521341710717
165.0, 0.08561391074671049
166.0, 0.10428773618776639
167.0, 0.12561692769945781
168.0, 0.14522976632254456
169.0, 0.1722080685712355
170.0, 0.20509859696316976
171.0, 0.23384990239978898
172.0, 0.2617308930521163
173.0, 0.2719085890396
174.0, 0.27138282402007924
175.0, 0.258564463529127
176.0, 0.23389502027903547
177.0, 0.21034002979809813
178.0, 0.18160832774474076
179.0, 0.15014626739377396
180.0, 0.11993295366026067
181.0, 0.09452542225409416
182.0, 0.07623774018911557
183.0, 0.06228534011724289
184.0, 0.05065719462275593
185.0, 0.04577338222255776
186.0, 0.044841333469775646
187.0, 0.043815853597884306
188.0, 0.04404079657513315
189.0, 0.04453342172404779
190.0, 0.04512013153398665
191.0, 0.045729425485605796
192.0, 0.04790396216418788
193.0, 0.05407082786368083
194.0, 0.05263443231211088
195.0, 0.0572924504934795
196.0, 0.05904489194042875
197.0, 0.06123707852640722
198.0, 0.06804786503239581
199.0, 0.07088444756113711
200.0, 0.08335455881903706
201.0, 0.09220142591320832
202.0, 0.10113187267162067
203.0, 0.1098140308875041
204.0, 0.11324537598815697
205.0, 0.12281145851900556
206.0, 0.12762106533967746
207.0, 0.13788718555379495
208.0, 0.15359375431648903
209.0, 0.17250444396472564
210.0, 0.19674999451119504
211.0, 0.2232199374043841
212.0, 0.2531891578743273
213.0, 0.2820550328696962
214.0, 0.30982278820259973
215.0, 0.33978512650286824
216.0, 0.36210624237340966
217.0, 0.3759297410543268
218.0, 0.3839406822517973
219.0, 0.387395797814999
220.0, 0.3823855990481613
221.0, 0.35462394713355627
222.0, 0.3327222729953248
223.0, 0.3042574376848234
224.0, 0.27796260540743906
225.0, 0.2518520774997024
226.0, 0.21955257589310853
227.0, 0.19614574589221406
228.0, 0.17263110191681827
229.0, 0.15113182018449833
230.0, 0.1297060331170196
231.0, 0.11033998111965733
232.0, 0.1012342886570956
233.0, 0.08673973715687208
234.0, 0.08043737427930397
235.0, 0.0738202742129916
236.0, 0.06533306532372093
237.0, 0.057162726246254854
238.0, 0.052676061386415625
239.0, 0.046742831695504285
240.0, 0.04339638759549467
241.0, 0.04108622497589994
242.0, 0.03922153093687544
243.0, 0.03861818538791233
244.0, 0.039344525278408954
245.0, 0.035658927957880476
246.0, 0.0327359677684824
247.0, 0.02999510654936424
248.0, 0.027293662041089253
249.0, 0.02824753104762213
250.0, 0.02534656632006262
251.0, 0.025408531379184356
252.0, 0.025308368948678262
253.0, 0.02261829357703661
254.0, 0.017029224246779277
255.0, 0.014425677686235126
256.0, 0.010666633523382629
257.0, 0.012711371488335052
258.0, 0.014621052001689892
259.0, 0.016018667150912887
260.0, 0.022315632482142363
261.0, 0.017992439077177826
262.0, 0.026349640219140026
263.0, 0.018423035522162456
264.0, 0.006068285259522533
265.0, 0.0029822236962022022
266.0, 0.0034839050645100312
267.0, 0.0011824167799205439
268.0, 0.00034717339042977113
269.0, 0.0004002661699741865
270.0, 0.001230829482562906
271.0, 0.0024973546028459856
272.0, 0.0020173077969009106
273.0, 0.0031889371816714897
274.0, 0.0017664197145049786
275.0, 0.00036413772846280977
276.0, 0.00022884351605181972
277.0, 0.0006741179690057412
278.0, 0.0007499354542400296
279.0, 0.0012752381590189772
280.0, 0.0020984605792397143
281.0, 0.002835688676938401
282.0, 0.0038230093553411073
283.0, 0.0063281055592447205
284.0, 0.008440579113661417
285.0, 0.009256167258442199
286.0, 0.009551421178847304
287.0, 0.010587939135081707
288.0, 0.01243048213855682
289.0, 0.012059826893265416
290.0, 0.01506134884946454
291.0, 0.01642778704862071
292.0, 0.01632471859344426
293.0, 0.016291675406407108
294.0, 0.01716905081088801
295.0, 0.014437247836935695
296.0, 0.013881819851846848
297.0, 0.014847232549401795
298.0, 0.012098818648986077
299.0, 0.006280558627808864
300.0, 0.0035406511214499657
301.0, 0.010071017908408624
302.0, 0.00972676779052838
303.0, 0.006368847697252607
304.0, 0.006001686318681707
305.0, 0.007934300008620792
306.0, 0.004348999359270247
307.0, 0.008465269082100116
308.0, 0.0030113626104108734
309.0, 0.0018561056723796487
310.0, 0.0034542003827226636
311.0, 0.004678086751212621
312.0, 0.0072204244614665885
313.0, 0.0077932635514862516
314.0, 0.0067919460615513206
315.0, 0.007339520257066543
316.0, 0.006709244558400071
317.0, 0.0034671933495720774
318.0, 0.004547944163353492
319.0, 0.008723034684567206
320.0, 0.012225920762131493
321.0, 0.011747007210519557
322.0, 0.012457461082603365
323.0, 0.018926659141570087
324.0, 0.01988471695896348
325.0, 0.020818283911817913
326.0, 0.02403792775926394
327.0, 0.025013584366222686
328.0, 0.02599053734583518
329.0, 0.03121372307933307
330.0, 0.03278872562918747
331.0, 0.035660354441277645
332.0, 0.03871755294941785
333.0, 0.03975109673536529
334.0, 0.041653517458553786
335.0, 0.04817712656388498
336.0, 0.04472508363371623
337.0, 0.04723293859212364
338.0, 0.048186719275516515
339.0, 0.05029251667904975
340.0, 0.05407197598817904
341.0, 0.05698180769349762
342.0, 0.05952898964926174
343.0, 0.05871957456992888
344.0, 0.06242133557350102
345.0, 0.06479470054740413
346.0, 0.06407921134759827
347.0, 0.0653582487681794
348.0, 0.07023821001471924
349.0, 0.0725506751951209
350.0, 0.0732959516889373
351.0, 0.07488629161086599
352.0, 0.07707530633606904
353.0, 0.07689744878494255
354.0, 0.0806895834111752
355.0, 0.08324639031040092
356.0, 0.08751016265700347
357.0, 0.09097520335126288
358.0, 0.09256215243316582
359.0, 0.09448195513543606
360.0, 0.09574854079076339
361.0, 0.09599776293310358
362.0, 0.09613730185298036
363.0, 0.09565106701047961
364.0, 0.09447707998753348
365.0, 0.09332108456161445
366.0, 0.08880858971304333
367.0, 0.08312726166998088
368.0, 0.07974054194803137
369.0, 0.07564365193471452
370.0, 0.07038457372650543
371.0, 0.06863130013442167
372.0, 0.06840398573987216
373.0, 0.06459478178119499
374.0, 0.06117087300902944
375.0, 0.058224537313190175
376.0, 0.05755163598380101
377.0, 0.06312424912065967
378.0, 0.06595408911756777
379.0, 0.06907174945983706
380.0, 0.07135268799173194
381.0, 0.0735622118223965
382.0, 0.07513945758887199
383.0, 0.0742920784724319
384.0, 0.07877608873001812
385.0, 0.08051738254447029
386.0, 0.08033843240538768
387.0, 0.07630341828122925
388.0, 0.07182034845048603
389.0, 0.07395104718671144
390.0, 0.06616392177658031
391.0, 0.06428119425358604
392.0, 0.05905388261359995
393.0, 0.055093375441669326
394.0, 0.05370206071614979
395.0, 0.05032012747262883
396.0, 0.04209580755064822
397.0, 0.03948237458229558
398.0, 0.039662088795454194
399.0, 0.03929720610626452
400.0, 0.03753003519633005
401.0, 0.03589699983985493
402.0, 0.035556640967501364
403.0, 0.0342608029355635
404.0, 0.033414021823409655
405.0, 0.032498201337730875
406.0, 0.032011188268404635
407.0, 0.03252164848011238
408.0, 0.03131319746103212
409.0, 0.02503047696421005
410.0, 0.024911189414494137
411.0, 0.024437158348658918
412.0, 0.022825854886971378
413.0, 0.022986424708826978
414.0, 0.025151883190278383
415.0, 0.021828825471544768
416.0, 0.020376573006130126
417.0, 0.016208800393609783
418.0, 0.013088794463609893
419.0, 0.013967352740791868
420.0, 0.010788683833755445
421.0, 0.009807427485604557
422.0, 0.007623192471699481
423.0, 0.008275358290151254
424.0, 0.00956530935984878
425.0, 0.009890814784625418
426.0, 0.012326698033732524
427.0, 0.014665449004593191
428.0, 0.016277293176380644
429.0, 0.015689928065923436
430.0, 0.016872183641798794
431.0, 0.019975122944302617
432.0, 0.019800639464744075
433.0, 0.01983468163803681
434.0, 0.01524689763497911
435.0, 0.014988303241586277
436.0, 0.014522138865181852
437.0, 0.010096002879879216
438.0, 0.0028799860522607853
439.0, 0.0024818340949256286
440.0, 0.0019624158797438025
441.0, 0.001283744805810057
442.0, 0.0023021931920684663
443.0, 0.002704508408510335
444.0, 0.0012139885839412895
445.0, 0.006849134053022061
446.0, 0.0026223855612611873
447.0, 0.005322146843520577
448.0, 0.005257901644832824
449.0, 0.0033180748505349756
450.0, 0.003111512033425531
451.0, 0.00375778236814117
452.0, 0.0019429828370213997
453.0, 0.002157404805779874
454.0, 0.002246788958186556
455.0, 0.002126159850996651
456.0, 0.002099223312089234
457.0, 0.0023504675431665345
458.0, 0.0038879152895545128
459.0, 0.0040441147216275725
460.0, 0.0028326091740199727
461.0, 0.002532237553639146
462.0, 0.0023424966878794456
463.0, 0.0005103600149480082
464.0, 0.0011401958072075682
465.0, 0.0045239925944401075
466.0, 0.003173430426545217
467.0, 0.0015219417325549112
468.0, 0.0015763231899190875
469.0, 0.0027633167274325604
470.0, 0.002764546635654639
471.0, 0.000475382406325551
472.0, 0.0007333644419983422
473.0, 0.0004676725444087609
474.0, 0.0016041816869195075
475.0, 0.003862491712348373
476.0, 0.003638033558566234
477.0, 0.002813594087037023
478.0, 0.0009754740786359142
479.0, 0.002265323394477009
480.0, 0.0032075452321938527
481.0, 0.003016264996030893
482.0, 0.0029909642017281776
483.0, 0.002620972393330155
484.0, 0.005271041962457204
485.0, 0.004412857567841258
486.0, 0.005846896159072314
487.0, 0.007046062530437725
488.0, 0.006041759611822426
489.0, 0.00647801018807155
490.0, 0.003992691513301014
491.0, 0.006014022080886459
492.0, 0.008905914713555528
493.0, 0.006967739280752486
494.0, 0.004352005114872577
495.0, 0.00884448267851107
496.0, 0.008820973881501675
497.0, 0.01107970783902251
498.0, 0.014368029180130961
499.0, 0.01623782631767469
500.0, 0.017510516935012006
501.0, 0.01857381789209964
502.0, 0.01673396744743541
503.0, 0.017689727704955315
504.0, 0.018499161575907457
505.0, 0.02015027200996665
506.0, 0.02362248932518913
507.0, 0.02663179633869091
508.0, 0.0263522961312814
509.0, 0.02963062412783263
510.0, 0.02882215268363607
511.0, 0.03142066914717093
512.0, 0.03327847278683961
513.0, 0.03366836561235917
514.0, 0.03557307114063561
515.0, 0.043015813898380016
516.0, 0.038912528292923465
517.0, 0.042896191629917445
518.0, 0.04787788582451433
519.0, 0.052563512863196535
520.0, 0.05663471640584265
521.0, 0.059414660082069234
522.0, 0.0594831610507761
523.0, 0.06230619294759901
524.0, 0.0647053844352761
525.0, 0.06292623805205884
526.0, 0.06016275858911097
527.0, 0.058344244691834767
528.0, 0.05367735768299159
529.0, 0.052108809272141586
530.0, 0.05118060802766545
531.0, 0.04499327011191407
532.0, 0.03915539858957612
533.0, 0.03634632472134605
534.0, 0.034479260379147954
535.0, 0.029270665332209338
536.0, 0.0270676246282659
537.0, 0.0252118307827942
538.0, 0.026459953664323268
539.0, 0.027063969115187027
540.0, 0.02607956319533959
541.0, 0.026217367177289147
542.0, 0.01780745218293361
543.0, 0.017705026757023817
544.0, 0.018363874195934785
545.0, 0.017319637848157925
546.0, 0.016240105748865422
547.0, 0.017140134557651978
548.0, 0.01877554964563799
549.0, 0.02007486563871015
550.0, 0.019223222839379567
551.0, 0.017516716611580753
552.0, 0.015562552948821971
553.0, 0.013753344203574195
554.0, 0.012689299782258027
555.0, 0.013748750551641311
556.0, 0.012853877904739745
557.0, 0.012986429897204079
558.0, 0.013154974343828065
559.0, 0.012876099577731257
560.0, 0.011740485576342666
561.0, 0.010463644461177413
562.0, 0.01569729226167998
563.0, 0.01781527529463646
564.0, 0.017823582283263733
565.0, 0.017397184738075316
566.0, 0.01711044292300058
567.0, 0.01629686928572861
568.0, 0.01380125844839957
569.0, 0.012137633938475823
570.0, 0.015744423029245613
571.0, 0.014679305333726547
572.0, 0.012902559070326624
573.0, 0.012428871831925226
574.0, 0.011888448465275283
575.0, 0.008988897565767479
576.0, 0.010252609591626717
577.0, 0.012121111604664803
578.0, 0.012635464430687549
579.0, 0.010992246586193277
580.0, 0.009387144158190943
581.0, 0.009795977647136437
582.0, 0.0076178967492718744
583.0, 0.005826418025287456
584.0, 0.007012837790722153
585.0, 0.007630912869513959
586.0, 0.004922394485075622
587.0, 0.0015307993426859922
588.0, 0.002282382951379229
589.0, 0.0015206357856397247
590.0, 0.005199439290419994
591.0, 0.002394769477338802
592.0, 0.0034274920129077585
593.0, 0.006556100714854971
594.0, 0.007611885167971565
595.0, 0.006420956266263718
596.0, 0.006697887819651893
597.0, 0.006330813996640147
598.0, 0.0048743508081167675
599.0, 0.003992957673969332
600.0, 0.00473857425894398
601.0, 0.005043807673595597
602.0, 0.001547745428088948
603.0, 0.003890263605553777
604.0, 0.008105481287189605
605.0, 0.007919879149518803
606.0, 0.007558125813741469
607.0, 0.007385639829094227
608.0, 0.006740644440605806
609.0, 0.006934214435955247
610.0, 0.009045768371577738
611.0, 0.011465511610947256
612.0, 0.009022961591990078
613.0, 0.006357708614064895
614.0, 0.006728777266384952
615.0, 0.01058380227079163
616.0, 0.015291786937499115
617.0, 0.012170210886654409
618.0, 0.016007116810249238
619.0, 0.012428243839491362
620.0, 0.01110316637917046
621.0, 0.014420694235164708
622.0, 0.019298035597026805
623.0, 0.023145303712649962
624.0, 0.025370962049543568
625.0, 0.0250062219335062
626.0, 0.027680924776541795
627.0, 0.03262750668265017
628.0, 0.03838489757455894
629.0, 0.042349875825531395
630.0, 0.04222278961070255
631.0, 0.04833878988227471
632.0, 0.04979771040430874
633.0, 0.0538603048014045
634.0, 0.059456887852042575
635.0, 0.06295626887279131
636.0, 0.06429113875159981
637.0, 0.06878483770449198
638.0, 0.07646086597767421
639.0, 0.08096853753331074
640.0, 0.08617322513475525
641.0, 0.09242690073895575
642.0, 0.09786787401700327
643.0, 0.10313098137839233
644.0, 0.1114829989090016
645.0, 0.11791296964437292
646.0, 0.12373664431421046
647.0, 0.12779657755394386
648.0, 0.1340201630671086
649.0, 0.14217239050250255
650.0, 0.1531668466365776
651.0, 0.1689545106087489
652.0, 0.18291163916515535
653.0, 0.19620093474246933
654.0, 0.21975508653415024
655.0, 0.24643731320235202
656.0, 0.2779431736479173
657.0, 0.31764784474145713
658.0, 0.36477119148552994
659.0, 0.41152393831382883
660.0, 0.475875381152405
661.0, 0.552220720102515
662.0, 0.6262381985436712
663.0, 0.7094827466174491
664.0, 0.8003868290582377
665.0, 0.880349074713665
666.0, 0.9322416876004945
667.0, 0.9765589830122724
668.0, 0.9956901096945575
669.0, 0.9826141351173912
670.0, 0.9357357304937833
671.0, 0.865098133996984
672.0, 0.7819541207833459
673.0, 0.6889154878546385
674.0, 0.5947649903386645
675.0, 0.5093034543957085
676.0, 0.4371115452459496
677.0, 0.37725583395961954
678.0, 0.3271390168423617
679.0, 0.2858466491543349
680.0, 0.25363876215727216
681.0, 0.22401769242151265
682.0, 0.19998824350345124
683.0, 0.18131311093201297
684.0, 0.16258758246044766
685.0, 0.1495995892767943
686.0, 0.1419604881323096
687.0, 0.1311676011105714
688.0, 0.11400733706279488
689.0, 0.10681710312261104
690.0, 0.09906415766528584
691.0, 0.09084980432059878
692.0, 0.08110008416470804
693.0, 0.07254283233176514
694.0, 0.06687089101689025
695.0, 0.06077972424716997
696.0, 0.06412979785297657
697.0, 0.05735411386041408
698.0, 0.049642847955221864
699.0, 0.04789851555099624
700.0, 0.04645941471912543
701.0, 0.041352802991920144
702.0, 0.03618774046505176
703.0, 0.028915543359328662
704.0, 0.027742195927368273
705.0, 0.028738869812447002
706.0, 0.03231446615584563
707.0, 0.031009248815990615
708.0, 0.027633055664271745
709.0, 0.027992680881627485
710.0, 0.024330481074672
711.0, 0.020711818367422166
712.0, 0.02564451868458961
713.0, 0.027515512776445334
714.0, 0.02355977326734393
715.0, 0.020244605859928745
716.0, 0.020630568457092165
717.0, 0.01997184475119157
718.0, 0.021692719234458795
719.0, 0.02013392601543803
720.0, 0.020091157173210597
721.0, 0.020173556880158802
722.0, 0.0201100460234362
723.0, 0.01971323943926641
724.0, 0.01944851759022359
725.0, 0.020847871493471892
726.0, 0.019449464866692613
727.0, 0.01935215795740172
728.0, 0.020952556949832925
729.0, 0.021923122130873107
730.0, 0.022456612388377088
731.0, 0.023851799899430422
732.0, 0.02533292008498835
733.0, 0.020983174666394436
734.0, 0.02724630565207185
735.0, 0.024604316517565197
736.0, 0.02764705069039173
737.0, 0.028238393904902844
738.0, 0.026888150130329073
739.0, 0.026535800670601586
740.0, 0.021647027897070903
741.0, 0.027375703708761693
742.0, 0.024086560280141365
743.0, 0.02513773187109653
744.0, 0.02764039131175953
745.0, 0.024508349359771732
746.0, 0.020437266883780978
747.0, 0.024072324126523808
748.0, 0.02569970205333055
749.0, 0.02003115399420582
750.0, 0.019268753850746473
751.0, 0.014953734252834187
752.0, 0.016789924586453685
753.0, 0.018133074779997843
754.0, 0.01465693439803788
755.0, 0.013689831063506708
756.0, 0.01519859565267264
757.0, 0.010017484806200157
758.0, 0.01057553845619974
759.0, 0.012841342810660048
760.0, 0.013862135846564124
761.0, 0.013416532171083002
762.0, 0.013064054042679737
763.0, 0.013566496381692158
764.0, 0.011297181791725579
765.0, 0.013276710341589807
766.0, 0.011261554624084468
767.0, 0.010102495496203717
768.0, 0.011371743313967298
769.0, 0.011787658593554002
770.0, 0.009061763963622326
771.0, 0.007512047481018763
772.0, 0.011055443618349167
773.0, 0.00829077124837074
774.0, 0.004992763045451633
775.0, 0.006399916789655845
776.0, 0.006365665824056247
777.0, 0.005972955620404561
778.0, 0.009333133474395825
779.0, 0.009606937232485666
780.0, 0.008004744509986549
781.0, 0.00666897400440169
782.0, 0.00606672507732849
783.0, 0.0041799322334102286
784.0, 0.0030314938545148527
785.0, 0.0034888288452170108
786.0, 0.003563401818954929
787.0, 0.0013700703686209477
788.0, 0.0021606519037805205
789.0, 0.0014828314619511453
790.0, 0.0017683884688857814
791.0, 0.0015795367886843738
792.0, 0.0028761116828316296
793.0, 0.003806142748561168
794.0, 0.0015644203981415184
795.0, 0.0011789376333487668
796.0, 0.002061827006946078
797.0, 0.0014828765385186547
798.0, 0.0023866827268569633
799.0, 0.0017501661269935678
800.0, 0.003218413141892359
801.0, 0.006983047415074305
802.0, 0.008475198196863553
803.0, 0.005958311342628322
804.0, 0.003309185591715436
805.0, 0.002406379253719714
806.0, 0.0011825262090814283
807.0, 0.0018261285480661521
808.0, 0.0023022265269344575
809.0, 0.0019282326698272746
810.0, 0.0015326866520526995
811.0, 0.0003698147870418384
812.0, 0.001504657227950082
813.0, 0.0003195335748879094
814.0, 0.0014700088934267589
815.0, 0.003253949399302493
816.0, 0.0024010418530338367
817.0, 0.0007501497400408826
818.0, 0.0010659028552411822
819.0, 0.0008448401937227891
820.0, 0.0006631281352667081
821.0, 0.0010868982554303997
822.0, 0.0010340691438199881
823.0, 0.0011609023867790807
824.0, 0.0020022418456914427
825.0, 0.0030922643848217955
826.0, 0.003642403207071565
827.0, 0.0033881535294632043
828.0, 0.002201724434505417
829.0, 0.0002870807837132948
830.0, 0.0009494485083692277
831.0, 0.001936383054279698
832.0, 0.003272938280580009
833.0, 0.002656625929644534
834.0, 0.0009056826808943672
835.0, 0.0022745522673730187
836.0, 0.00465289478010999
837.0, 0.0016841574446261642
838.0, 0.0042879862442868205
839.0, 0.003496010338567989
840.0, 0.00182965188905044
841.0, 0.001878385939490365
842.0, 0.0019671133396914823
843.0, 0.0012547354822908766
844.0, 0.005496939662189821
845.0, 0.004589128253944656
846.0, 0.0031119173607332255
847.0, 0.007308913591515973
848.0, 0.009059562951901953
849.0, 0.009504886495569098
850.0, 0.006712918962113804
851.0, 0.0014383592022931843
852.0, 0.0021964050430072274
853.0, 0.0060588069746483455
854.0, 0.004724581196312977
855.0, 0.0013407968333666075
856.0, 0.0013377479748564111
857.0, 0.003677639369681508
858.0, 0.004517211415668204
859.0, 0.0057027456852689114
860.0, 0.009870103922085639
861.0, 0.007095418523708039
862.0, 0.008456753744111445
863.0, 0.010785348584301538
864.0, 0.00907456813520988
865.0, 0.005743837932257666
866.0, 0.003909706542709451
867.0, 0.0045521818804153515
868.0, 0.006841274643726666
869.0, 0.009402775300583999
870.0, 0.00978432927810075
871.0, 0.006061275649132109
872.0, 0.009013021794229473
873.0, 0.0070304085874440345
874.0, 0.006357072867349322
875.0, 0.00893691337845128
876.0, 0.011266779591779704
877.0, 0.010275638147148554
878.0, 0.008451774512759797
879.0, 0.011263731383367424
880.0, 0.01090994061341035
881.0, 0.009082430859105262
882.0, 0.008858160890944973
883.0, 0.009674348722350663
884.0, 0.010042130193436942
885.0, 0.011688698660373075
886.0, 0.01678547811896685
887.0, 0.017704851636509537
888.0, 0.01707968425075415
889.0, 0.018126203055719898
890.0, 0.01784008296858512
891.0, 0.018811719327902973
892.0, 0.020038188930049314
893.0, 0.021023250315076337
894.0, 0.022266729042143014
895.0, 0.024693090332366115
896.0, 0.033589042535440435
897.0, 0.029368577011080463
898.0, 0.029764664871819353
899.0, 0.03257043617546211
900.0, 0.030212142782387392
901.0, 0.028445356341137668
902.0, 0.02924847938520873
903.0, 0.029967756349690684
904.0, 0.03412891584951777
905.0, 0.03520556395592714
906.0, 0.0351703942949701
907.0, 0.03907483738295006
908.0, 0.042127975501476234
909.0, 0.0413537097514792
910.0, 0.040727898795986886
911.0, 0.044030551938824915
912.0, 0.050116754183892526
913.0, 0.055327026583637216
914.0, 0.05823622016124653
915.0, 0.06340397158761807
916.0, 0.06451698289531421
917.0, 0.0684647162562417
918.0, 0.07613763160489727
919.0, 0.08660835344215236
920.0, 0.0936609204061895
921.0, 0.09568443970393424
922.0, 0.10622533565353454
923.0, 0.11284622853229902
924.0, 0.12503308089373935
925.0, 0.1267382696696786
926.0, 0.12995038175210355
927.0, 0.13689907097978887
928.0, 0.1368011659926308
929.0, 0.13008651170805133
930.0, 0.1245588743914283
931.0, 0.11214180952971414
932.0, 0.09955719763468432
933.0, 0.09891389132988117
934.0, 0.08866181003255942
935.0, 0.07850228850296907
936.0, 0.07261178057550165
937.0, 0.07033391455206445
938.0, 0.06764173192609438
939.0, 0.06491647792771817
940.0, 0.06856377999438112
941.0, 0.06647434429480793
942.0, 0.0609131945344004
943.0, 0.05984332065306937
944.0, 0.05728075850443368
945.0, 0.060709576268942786
946.0, 0.06187182047309913
947.0, 0.059042390592640964
948.0, 0.05630969456818339
949.0, 0.0519062926373712
950.0, 0.051304735362216705
951.0, 0.04897755730505327
952.0, 0.04624210837814059
953.0, 0.041561697695059636
954.0, 0.043230480572585016
955.0, 0.04209166912228093
956.0, 0.039331111858752744
957.0, 0.03944748194500745
958.0, 0.04004518148018128
959.0, 0.04389328969379852
960.0, 0.037934917205476926
961.0, 0.03889143293955546
962.0, 0.034509017991487645
963.0, 0.03697375732775091
964.0, 0.041771188095204574
965.0, 0.039774353506044274
966.0, 0.03382896941458624
967.0, 0.03256337587948859
968.0, 0.0335948239863779
969.0, 0.03892428204229142
970.0, 0.0326251064722558
971.0, 0.03375600504861926
972.0, 0.03165212714077598
973.0, 0.031667845498054785
974.0, 0.03295535925686421
975.0, 0.03443569206080025
976.0, 0.03465617729129678
977.0, 0.03231573730962237
978.0, 0.03363689407380267
979.0, 0.031333521354312235
980.0, 0.034149511228858315
981.0, 0.033074539684888736
982.0, 0.0333389025664835
983.0, 0.035465928918350355
984.0, 0.03622428495838175
985.0, 0.03616512739823971
986.0, 0.037233380273487014
987.0, 0.036558102260446694
988.0, 0.035551170319877284
989.0, 0.035551991344992886
990.0, 0.03669913074309824
991.0, 0.039043666725899775
992.0, 0.04015525698104427
993.0, 0.04164377667154178
994.0, 0.043241190849577005
995.0, 0.04392639837715608
996.0, 0.04449052623271524
997.0, 0.045711255445202915
998.0, 0.044299472561576514
999.0, 0.050614692259304296
1000.0, 0.05635004182071351
1001.0, 0.054070509603121195
1002.0, 0.05666366502239948
1003.0, 0.06035985210194322
1004.0, 0.06166980580299931
1005.0, 0.06485960402880428
1006.0, 0.07235380346303047
1007.0, 0.07620450828321146
1008.0, 0.07884036781684683
1009.0, 0.08750405775050962
1010.0, 0.09072983423819167
1011.0, 0.09546662701087899
1012.0, 0.10005737743279501
1013.0, 0.10758512823402694
1014.0, 0.1152244158105326
1015.0, 0.1181415485328803
1016.0, 0.11728654396377049
1017.0, 0.11599175912359806
1018.0, 0.1294192697288037
1019.0, 0.13112600182737316
1020.0, 0.1340938712107304
1021.0, 0.13943325529588693
1022.0, 0.1376163170139136
1023.0, 0.14046852286009262
1024.0, 0.1464011215935464
1025.0, 0.1492423529617182
1026.0, 0.15247596450006098
1027.0, 0.1483241206598983
1028.0, 0.14620687958279813
1029.0, 0.1403941857372313
1030.0, 0.13915527274496764
1031.0, 0.13319692476268927
1032.0, 0.1294500537829848
1033.0, 0.12339281725930176
1034.0, 0.1195089750461123
1035.0, 0.12245518512370393
1036.0, 0.1291261946559115
1037.0, 0.14043519286853617
1038.0, 0.14541247143409375
1039.0, 0.16169662432384707
1040.0, 0.17047734784877014
1041.0, 0.18800779722493688
1042.0, 0.20974279326963177
1043.0, 0.2293843661578044
1044.0, 0.25810526869190875
1045.0, 0.2851366210901735
1046.0, 0.2976887754225026
1047.0, 0.3246372167180312
1048.0, 0.3519577430990861
1049.0, 0.3683129697150666
1050.0, 0.3951779706184856
1051.0, 0.4068932451946541
1052.0, 0.41539423352566307
1053.0, 0.41231420037635036
1054.0, 0.3964267531253283
1055.0, 0.37882222592906417
1056.0, 0.36021244161961763
1057.0, 0.33163041790575637
1058.0, 0.31096409673401876
1059.0, 0.2908588924266993
1060.0, 0.2700518823378118
1061.0, 0.2567725369615538
1062.0, 0.24161465673876065
1063.0, 0.23129564608853012
1064.0, 0.2172113758720741
1065.0, 0.20071304968950407
1066.0, 0.18531802575530698
1067.0, 0.16794354776031228
1068.0, 0.1484521796754565
1069.0, 0.13131201086521427
1070.0, 0.12010000429386213
1071.0, 0.10021166230659367
1072.0, 0.09252072018407856
1073.0, 0.07993863782696213
1074.0, 0.0690555944238436
1075.0, 0.0612816909101519
1076.0, 0.054499499220525965
1077.0, 0.049393745097890004
1078.0, 0.04682433181173256
1079.0, 0.04347615014734326
1080.0, 0.04245159783432478
1081.0, 0.043304636016518905
1082.0, 0.041745471875145594
1083.0, 0.03310451073986182
1084.0, 0.030060395469593368
1085.0, 0.031230446550528805
1086.0, 0.029627764365150626
1087.0, 0.02794287312687682
1088.0, 0.02941125350260976
1089.0, 0.027848776201861714
1090.0, 0.022617525513025025
1091.0, 0.028865166480507704
1092.0, 0.021645571339788026
1093.0, 0.0264459211131659
1094.0, 0.020336076014068276
1095.0, 0.02053050250539541
1096.0, 0.019558911132504624
1097.0, 0.021695432744765424
1098.0, 0.02373051029234539
1099.0, 0.01948619668966467
1100.0, 0.015281267875500002
1101.0, 0.015505515262011552
1102.0, 0.013537254812919496
1103.0, 0.016725162379491666
1104.0, 0.01785606347283483
1105.0, 0.01401790545810596
1106.0, 0.01407667195061558
1107.0, 0.012651730243222421
1108.0, 0.009699154607696887
1109.0, 0.009601069942014777
1110.0, 0.011036279245316583
1111.0, 0.010821136543867904
1112.0, 0.013058125662334257
1113.0, 0.011188447461222753
1114.0, 0.013219581128596312
1115.0, 0.005444039078432841
1116.0, 0.0018263295699470193
1117.0, 0.0027899054567703746
1118.0, 0.009101702905847452
1119.0, 0.011778136530361586
1120.0, 0.014065860914815586
1121.0, 0.016138072816630336
1122.0, 0.012628837741869643
1123.0, 0.008714994004356824
1124.0, 0.007552614621189026
1125.0, 0.009905419443031869
1126.0, 0.012258052604907064
1127.0, 0.011370920801706484
1128.0, 0.006465581256298779
1129.0, 0.0067810587897627105
1130.0, 0.008257769217070244
1131.0, 0.0052919665120748725
1132.0, 0.0032996740898520254
1133.0, 0.0037103789780565527
1134.0, 0.0007691722019339553
1135.0, 0.0011788090899606729
1136.0, 0.004559188950520765
1137.0, 0.006076188089319482
1138.0, 0.004385082228473325
1139.0, 0.004412734927303896
1140.0, 0.00708054493408933
1141.0, 0.0061958281108064105
1142.0, 0.004744947753737344
1143.0, 0.005048542600101211
1144.0, 0.0038718000179331262
1145.0, 0.0019158771716182277
1146.0, 0.003155356371978622
1147.0, 0.0011519472179682233
1148.0, 0.0037784971069884914
1149.0, 0.0035016981739608884
1150.0, 0.0011202184056738759
1151.0, 0.002912902430608259
1152.0, 0.002120206962126069
1153.0, 0.001876468672382822
1154.0, 0.0030129845864641223
1155.0, 0.003087511916279366
1156.0, 0.002626267085987217
1157.0, 0.0036374767111662675
1158.0, 0.003978874351811618
1159.0, 0.0016819934456233983
1160.0, 0.00402264606015145
1161.0, 0.0025912023598427406
1162.0, 0.003732554817047136
1163.0, 0.003249670123302773
1164.0, 0.003303399142293668
1165.0, 0.0024170366716186674
1166.0, 0.0019149929605050307
1167.0, 0.002135067835263494
1168.0, 0.0017536804947710866
1169.0, 0.0010010151379670708
1170.0, 0.0013575933411119753
1171.0, 0.0020825401580031816
1172.0, 0.003863365131024036
1173.0, 0.0021845990814179234
1174.0, 0.0003939595237914458
1175.0, 0.0023073905638916845
1176.0, 0.004685422638221304
1177.0, 0.00232067197541644
1178.0, 0.0003829392542625766
1179.0, 0.0015928569794899483
1180.0, 0.0038572236674331442
1181.0, 0.00381333738483963
1182.0, 0.0016289356286088828
1183.0, 0.0010669623401306002
1184.0, 0.0015495686494397414
1185.0, 0.0007897618917618258
1186.0, 0.0031297640239315765
1187.0, 0.0027575165763588237
1188.0, 0.004390145823069681
1189.0, 0.004723976716607358
1190.0, 0.004607781821332939
1191.0, 0.004026742104825391
1192.0, 0.0038803465552753784
1193.0, 0.0034502135847580837
1194.0, 0.0026023064559689032
1195.0, 0.002189559706416682
1196.0, 0.000943302415292148
1197.0, 0.0037001713209540133
1198.0, 0.007096895325403167
1199.0, 0.0016198291396621878
1200.0, 0.0022074525875691825
1201.0, 0.0023920919963723855
1202.0, 0.007987041217491789
1203.0, 0.004199335273511628
1204.0, 0.0009246327864740589
1205.0, 0.0011191902891346723
1206.0, 0.0015981394488047403
1207.0, 0.003285866255074195
1208.0, 0.004807101007469686
1209.0, 0.0022390576340172177
1210.0, 0.0028124132616095905
1211.0, 0.00668802982821606
1212.0, 0.003317880626158194
1213.0, 0.0017759903002721176
1214.0, 0.004861486408175928
1215.0, 0.00911400829462624
1216.0, 0.011086797301671928
1217.0, 0.007392923936748772
1218.0, 0.006711334383902767
1219.0, 0.007343074607266627
1220.0, 0.0048040653457631
1221.0, 0.004563780806363684
1222.0, 0.005734877584173557
1223.0, 0.005490918963473336
1224.0, 0.006198597472132698
1225.0, 0.008841810855583368
1226.0, 0.001753907242695953
1227.0, 0.005627437502887659
1228.0, 0.008066576678344373
1229.0, 0.006238740285800127
1230.0, 0.007852712766892063
1231.0, 0.0070712853247492605
1232.0, 0.0027844436627141034
1233.0, 0.003001582511872196
1234.0, 0.006646767809376526
1235.0, 0.007277635884265414
1236.0, 0.011294137703093706
1237.0, 0.005539622787934717
1238.0, 0.00540307221928466
1239.0, 0.003913736467670949
1240.0, 0.003889517379398533
1241.0, 0.0031536949319966997
1242.0, 0.0073250273284154324
1243.0, 0.007663242565929372
1244.0, 0.010106711030832298
1245.0, 0.009619753143127
1246.0, 0.007760460104313982
1247.0, 0.008199806145815247
1248.0, 0.007925733541918752
1249.0, 0.007301991078600018
1250.0, 0.007757813245563438
1251.0, 0.009928019612455647
1252.0, 0.0061025560817810475
1253.0, 0.007363371182500572
1254.0, 0.007633628202070469
1255.0, 0.011920719382650354
1256.0, 0.009263858155426618
1257.0, 0.011775204771106811
1258.0, 0.014368746529580652
1259.0, 0.007503985412935407
1260.0, 0.004890465315698306
1261.0, 0.006641188871732288
1262.0, 0.005682279258444983
1263.0, 0.010182783029231677
1264.0, 0.00979029715035266
1265.0, 0.013934807800691175
1266.0, 0.01102921517399984
1267.0, 0.012748961821721092
1268.0, 0.017063826467450083
1269.0, 0.011410170820619465
1270.0, 0.01272933009681154
1271.0, 0.012214843480136217
1272.0, 0.018120335791983213
1273.0, 0.014621612365734536
1274.0, 0.014402249373631585
1275.0, 0.015731414061469592
1276.0, 0.013584866522187638
1277.0, 0.015837963886109484
1278.0, 0.01399594039617442
1279.0, 0.014184930100793748
1280.0, 0.015497655553978733
1281.0, 0.010325729655064963
1282.0, 0.014315675432071852
1283.0, 0.013850214603050194
1284.0, 0.019144638204019623
1285.0, 0.015978328852473626
1286.0, 0.016782459121452212
1287.0, 0.013743662403873522
1288.0, 0.009895846698911028
1289.0, 0.011798132897688622
1290.0, 0.015864506159670104
1291.0, 0.01392368957530762
1292.0, 0.007962194368260025
1293.0, 0.008241428004283926
1294.0, 0.01405687728545268
1295.0, 0.01660470730717081
1296.0, 0.01943776126420863
1297.0, 0.018884908030685117
1298.0, 0.018751375505304705
1299.0, 0.018850284970623993
1300.0, 0.02160192586415104
1301.0, 0.020300269113833407
1302.0, 0.018066273770093975
1303.0, 0.02093751774574339
1304.0, 0.019560278791100654
1305.0, 0.016538098354000958
1306.0, 0.017122630404997344
1307.0, 0.018265961793686863
1308.0, 0.019066903100141037
1309.0, 0.018668176757830883
1310.0, 0.017469974186564603
1311.0, 0.02281258529764356
1312.0, 0.02217264508671114
1313.0, 0.021767199135637964
1314.0, 0.016512501218496792
1315.0, 0.014195567838481834
1316.0, 0.01559585658028098
1317.0, 0.01811496345659534
1318.0, 0.018762057450505954
1319.0, 0.018889060494087142
1320.0, 0.019699808492768006
1321.0, 0.02164650010080741
1322.0, 0.02268107519825073
1323.0, 0.020474964991274918
1324.0, 0.017155764720284964
1325.0, 0.01677413002280506
1326.0, 0.019559887267834496
1327.0, 0.02243765733153489
1328.0, 0.02028100286649005
1329.0, 0.02125437959066832
1330.0, 0.01927428995326506
1331.0, 0.021289487546075195
1332.0, 0.017636075264908915
1333.0, 0.01601868911354128
1334.0, 0.016797567565783076
1335.0, 0.018421935464707308
1336.0, 0.021975868431772648
1337.0, 0.02007217007376135
1338.0, 0.018491320647231572
1339.0, 0.020121343700689628
1340.0, 0.018475614318413734
1341.0, 0.0164040246011196
1342.0, 0.015135898930402798
1343.0, 0.018268169691843777
1344.0, 0.015023868296213343
1345.0, 0.0192933192371605
1346.0, 0.02014039406680386
1347.0, 0.015289105707139101
1348.0, 0.019301617762075774
1349.0, 0.018999709815271226
1350.0, 0.016072422311828087
1351.0, 0.017004920051304353
1352.0, 0.019537899870207476
1353.0, 0.01751123108751843
1354.0, 0.013849738150432628
1355.0, 0.01467844112399275
1356.0, 0.014516949878361753
1357.0, 0.01115673373428058
1358.0, 0.015120296774571617
1359.0, 0.02106240264052482
1360.0, 0.015516979012125674
1361.0, 0.02090507206241609
1362.0, 0.018772227239355867
1363.0, 0.01661269627139742
1364.0, 0.015866284932967413
1365.0, 0.012736649763184072
1366.0, 0.014415611947402944
1367.0, 0.019272466550412207
1368.0, 0.016336631265279768
1369.0, 0.017677324133636374
1370.0, 0.012199402764199438
1371.0, 0.014270497672677582
1372.0, 0.017011923313287852
1373.0, 0.01389448438258929
1374.0, 0.01351554649916894
1375.0, 0.015315819272720027
1376.0, 0.01331388016950032
1377.0, 0.01218934468288662
1378.0, 0.014236433123436006
1379.0, 0.016063469547203828
1380.0, 0.011525363118789595
1381.0, 0.013252970244233473
1382.0, 0.015440166954536321
1383.0, 0.014761986571523241
1384.0, 0.017836483109548038
1385.0, 0.015513186073509135
1386.0, 0.010125749087738114
1387.0, 0.011485684329392095
1388.0, 0.01266574626359628
1389.0, 0.010973377361416441
1390.0, 0.010800314607230022
1391.0, 0.011301773975752745
1392.0, 0.008949307196007167
1393.0, 0.006996799202527277
1394.0, 0.010189786292405916
1395.0, 0.012426801966534574
1396.0, 0.010232531492445017
1397.0, 0.01350233332009
1398.0, 0.008344624045090667
1399.0, 0.004023997565433362
1400.0, 0.005181290925749534
1401.0, 0.012489677994423739
1402.0, 0.0064543676352510765
1403.0, 0.012854684025643734
1404.0, 0.013184332834673235
1405.0, 0.005791385471922681
1406.0, 0.006233485817670791
1407.0, 0.008772086154913929
1408.0, 0.013602000473729184
1409.0, 0.008848668731333786
1410.0, 0.00652750390358688
1411.0, 0.005494693135568278
1412.0, 0.005846050961124865
1413.0, 0.0074215959008543525
1414.0, 0.0063169768932851795
1415.0, 0.0055584354481730954
1416.0, 0.0054649469981478535
1417.0, 0.008270373475650324
1418.0, 0.007847277539073067
1419.0, 0.01112871959249152
1420.0, 0.006906241317208587
1421.0, 0.003474346465298472
1422.0, 0.004202685634666798
1423.0, 0.007291068098038672
1424.0, 0.011301372287507699
1425.0, 0.00902151313961177
1426.0, 0.0028942926472304955
1427.0, 0.0056065209152671444
1428.0, 0.007553779817050096
1429.0, 0.008326004394761022
1430.0, 0.004650609776547066
1431.0, 0.0017242979418591769
1432.0, 0.002928126619229966
1433.0, 0.0029966685797668856
1434.0, 0.0035421049581411206
1435.0, 0.006137804843291257
1436.0, 0.004681327976486601
1437.0, 0.003592136179698855
1438.0, 0.006678492121615825
1439.0, 0.002850095341442056
1440.0, 0.0045692410191738525
1441.0, 0.002265923530132538
1442.0, 0.006094717276553697
1443.0, 0.0044024244310374725
1444.0, 0.004503626956939111
1445.0, 0.0024061226093099247
1446.0, 0.00826596572135895
1447.0, 0.008053287521738457
1448.0, 0.007549940212905167
1449.0, 0.010086605792583265
1450.0, 0.0067808720702306376
1451.0, 0.0022174441808924714
1452.0, 0.006329640584705189
1453.0, 0.006879371426972933
1454.0, 0.005498829136796637
1455.0, 0.005751606215941994
1456.0, 0.0051931422210835946
1457.0, 0.00484217978747174
1458.0, 0.004697741086989109
1459.0, 0.004315323976781576
1460.0, 0.004730562693926326
1461.0, 0.0033797540953250955
1462.0, 0.003881308460906053
1463.0, 0.0044300765825894045
1464.0, 0.0036960641153230694
1465.0, 0.0055802956041679196
1466.0, 0.005227090396741178
1467.0, 0.00423868553109527
1468.0, 0.004079616802254486
1469.0, 0.0034515586989973227
1470.0, 0.0045673485792912406
1471.0, 0.0032550128557387696
1472.0, 0.0011392030628856933
1473.0, 0.005242148439331965
1474.0, 0.010812380376080611
1475.0, 0.0038174467139789297
1476.0, 0.0022344127529588696
1477.0, 0.005977318657735299
1478.0, 0.00382416154048905
1479.0, 0.004975655019344655
1480.0, 0.0048857648394028
1481.0, 0.002405239332486344
1482.0, 0.0035287242414845927
1483.0, 0.003773441255118369
1484.0, 0.0025446631043180928
1485.0, 0.0018612077311317967
1486.0, 0.004248403743841657
1487.0, 0.006970743994441102
1488.0, 0.00406393984111771
1489.0, 0.004560238176261853
1490.0, 0.0009662562350442362
1491.0, 0.004760917226416279
1492.0, 0.005529440068507296
1493.0, 0.0034538041595856654
1494.0, 0.003311999402026898
1495.0, 0.0028016176049974707
1496.0, 0.002180948813182537
1497.0, 0.0010586787259672151
1498.0, 0.0023763484869538496
1499.0, 0.002047181785591562
1500.0, 0.004528393767701959
1501.0, 0.004165777372445483
1502.0, 0.004026552732943286
1503.0, 0.005623232185799803
1504.0, 0.002844417310025163
1505.0, 0.002338828035651868
1506.0, 0.0017049680234330431
1507.0, 0.001501021779069231
1508.0, 0.004853017780502219
1509.0, 0.0071973183536881
1510.0, 0.006346686694950828
1511.0, 0.005681231458088289
1512.0, 0.005225307628501866
1513.0, 0.002193046546662223
1514.0, 0.0008127236018691716
1515.0, 0.0018616565514515317
1516.0, 0.005111234869825734
1517.0, 0.005667304611613216
1518.0, 0.005551926322627968
1519.0, 0.006361400402833111
1520.0, 0.005661234663143085
1521.0, 0.005871309675664551
1522.0, 0.0040334852941175305
1523.0, 0.004517282586819954
1524.0, 0.003713155134142965
1525.0, 0.00525862962888266
1526.0, 0.006448117577204971
1527.0, 0.0103764556090749
1528.0, 0.006029147658299393
1529.0, 0.008977734818893123
1530.0, 0.005869766691277794
1531.0, 0.0035950749011034624
1532.0, 0.001026306745644505
1533.0, 0.0030556536754907816
1534.0, 0.0023394343763899353
1535.0, 0.00474712278234553
1536.0, 0.006416900775070511
1537.0, 0.0071450331824689465
1538.0, 0.006954403920737236
1539.0, 0.005259963537175876
1540.0, 0.004470773835933745
1541.0, 0.0032741322085379112
1542.0, 0.001324193365900604
1543.0, 0.0012765404731618067
1544.0, 0.0022297423308027873
1545.0, 0.0019613548680411483
1546.0, 0.004570119754104081
1547.0, 0.0020273288946289734
1548.0, 0.00717552776073606
1549.0, 0.00826787648981374
1550.0, 0.006118897537777897
1551.0, 0.006020178013733724
1552.0, 0.0059144294749663906
1553.0, 0.008607337204961462
1554.0, 0.01096111763857228
1555.0, 0.012607206428832556
1556.0, 0.009907564457309802
1557.0, 0.009871646548952251
1558.0, 0.006393718834305076
1559.0, 0.0005562784934958855
1560.0, 0.005770189687622327
1561.0, 0.003513780813952985
1562.0, 0.005300522257971293
1563.0, 0.0027038200781755103
1564.0, 0.0008293769684635435
1565.0, 0.00013035850384457242
1566.0, 0.0052379154168310455
1567.0, 0.0023978275020704464
1568.0, 0.001288546777662872
1569.0, 0.0028160808892248195
1570.0, 0.0012724617820233668
1571, 0.0
1572, 0.0
1573, 0.0
1574, 0.0
1575, 0.0
1576, 0.0
1577, 0.0
1578, 0.0
1579, 0.0
1580, 0.0
1581, 0.0
1582, 0.0
1583, 0.0
1584, 0.0
1585, 0.0
1586, 0.0
1587, 0.0
1588, 0.0
1589, 0.0
1590, 0.0
1591, 0.0
1592, 0.0
1593, 0.0
1594, 0.0
1595, 0.0
1596, 0.0
1597, 0.0
1598, 0.0
1599, 0.0
