30, 0.0
31, 0.0
32, 0.0
33, 0.0
34, 0.0
35, 0.0
36, 0.0
37, 0.0
38, 0.0
39, 0.0
40, 0.0
41, 0.0
42, 0.0
43, 0.0
44, 0.0
45, 0.0
46, 0.0
47, 0.0
48, 0.0
49, 0.0
50, 0.0
51, 0.0
52, 0.0
53, 0.0
54, 0.0
55, 0.0
56, 0.0
57, 0.0
58, 0.0
59, 0.0
60, 0.0
61, 0.0
62, 0.0
63, 0.0
64, 0.0
65, 0.0
66, 0.0
67, 0.0
68, 0.0
69, 0.0
70, 0.0
71, 0.0
72, 0.0
73, 0.0
74, 0.0
75, 0.0
76, 0.0
77, 0.0
78, 0.0
79, 0.0
80, 0.0
81, 0.0
82, 0.0
83, 0.0
84, 0.0
85, 0.0
86, 0.0
87, 0.0
88, 0.0
89, 0.0
90, 0.0
91, 0.0
92, 0.0
93, 0.0
94, 0.0
95, 0.0
96, 0.0
97, 0.0
98, 0.0
99, 0.0
100, 0.0
101, 0.0
102, 0.0
103, 0.0
104, 0.0
105, 0.0
106, 0.0
107, 0.0
108, 0.0
109, 0.0
110, 0.0
111, 0.0
112, 0.0
113, 0.0
114, 0.0
115, 0.0
116, 0.0
117, 0.0
118, 0.0
119, 0.0
120, 0.0
121, 0.0
122, 0.0
123, 0.0
124, 0.0
125, 0.0
126, 0.0
127, 0.0
128, 0.0
129, 0.0
130, 0.0
131, 0.0
132, 0.0
133, 0.0
134, 0.0
135, 0.0
136, 0.0
137, 0.0
138, 0.0
139, 0.0
140, 0.0
141, 0.0
142, 0.0
143, 0.0
144, 0.0
145, 0.0
146, 0.0
147, 0.0
148, 0.0
149, 0.0
150, 0.0
151, 0.0
152, 0.0
153, 0.0
154, 0.0
155, 0.0
156, 0.0
157, 0.0
158, 0.0
159, 0.0
160, 0.0
161, 0.0
162, 0.0
163, 0.0
164, 0.0
165, 0.0
166, 0.0
167.0, 0.0007643623713434602
168.0, 0.008267961361533618
169.0, 0.016983941440450442
170.0, 0.033594819659462594
171.0, 0.04103837106441877
172.0, 0.052827999124205965
173.0, 0.07396353401185415
174.0, 0.08338001600766318
175.0, 0.1051928586629605
176.0, 0.11732872023865415
177.0, 0.11711812316965244
178.0, 0.1090050821891275
179.0, 0.09554853028578789
180.0, 0.059974772385811254
181.0, 0.02128462412792746
182.0, 0.0016278713722253306
183.0, 0.0052964271096683085
184.0, 0.005420659515595941
185.0, 0.001193926764469874
186.0, 0.002570103448186784
187.0, 0.0018475317010970226
188.0, 0.007378635836629965
189.0, 0.01107517434908818
190.0, 0.0015383894036133717
191.0, 0.010442570252809235
192.0, 0.0033355984049989037
193.0, 0.010733070808680113
194.0, 0.01259678243974843
195.0, 0.01214271952229546
196.0, 0.010816586234472196
197.0, 0.016168090962649893
198.0, 0.014521143896357263
199.0, 0.018879552654971956
200.0, 0.030972716880287632
201.0, 0.029703015572065734
202.0, 0.033969107434836006
203.0, 0.039605017075978854
204.0, 0.04601333956727477
205.0, 0.055209173827569714
206.0, 0.06293419265820706
207.0, 0.06402291319230731
208.0, 0.07331457094891433
209.0, 0.09170802402818615
210.0, 0.10034471805858867
211.0, 0.12548726366515636
212.0, 0.14992319381795058
213.0, 0.1681071983064054
214.0, 0.18750212489627352
215.0, 0.2150401088419062
216.0, 0.25404270236227444
217.0, 0.30207943589834574
218.0, 0.3473728395437045
219.0, 0.38314961393299357
220.0, 0.4312835321609982
221.0, 0.45449905909641025
222.0, 0.459270262879266
223.0, 0.4585582295198506
224.0, 0.4481186255706371
225.0, 0.43316185485736064
226.0, 0.4291092825197536
227.0, 0.44052624301972426
228.0, 0.46276395164503464
229.0, 0.4799640960005974
230.0, 0.4836268391077942
231.0, 0.4684942425604156
232.0, 0.43108333534871573
233.0, 0.37257975638069607
234.0, 0.3189659604773185
235.0, 0.2647752157901954
236.0, 0.21580458435546163
237.0, 0.17966601897543705
238.0, 0.15660187751883725
239.0, 0.1444984571835373
240.0, 0.1389249805717057
241.0, 0.1325084497589169
242.0, 0.12195459880364881
243.0, 0.11703744189529619
244.0, 0.12416916610015044
245.0, 0.13298316981353323
246.0, 0.1425085507713763
247.0, 0.15938304968335468
248.0, 0.1475510541844569
249.0, 0.13969676634972464
250.0, 0.1397489743691565
251.0, 0.13364922100572574
252.0, 0.11621194221794799
253.0, 0.10181340478194424
254.0, 0.08868828558100028
255.0, 0.08083865647212149
256.0, 0.07926965851057197
257.0, 0.07056834475756465
258.0, 0.06355163619455707
259.0, 0.05559223880641942
260.0, 0.04910833708057876
261.0, 0.04749409036469738
262.0, 0.04320590605155503
263.0, 0.045637102727643285
264.0, 0.045726800276286575
265.0, 0.03685501309918323
266.0, 0.021840978863860102
267.0, 0.00531447828634035
268.0, 0.005431594787814524
269.0, 0.005971577514067206
270.0, 0.004099012470937439
271.0, 0.00960643159613354
272.0, 0.005391577472288349
273.0, 0.000539705509556782
274.0, 0.0038619187517048128
275.0, 0.00319118069799134
276.0, 0.0006816211559755816
277.0, 0.0016971874495123166
278.0, 0.0021748068703507277
279.0, 0.0034287150803258924
280.0, 0.011853402904617462
281.0, 0.009911310535174968
282.0, 0.014254986279106149
283.0, 0.014606839735117623
284.0, 0.015277579786123978
285.0, 0.024855725803774712
286.0, 0.01753724337000557
287.0, 0.012336616405116628
288.0, 0.011950028562810824
289.0, 0.00963901561538107
290.0, 0.0020280945615421438
291.0, 0.005569139695079189
292.0, 0.003262212246258206
293.0, 0.008135858203616128
294.0, 0.006336607974626309
295.0, 0.0041880356406238835
296.0, 0.004886476825067035
297.0, 0.013580629834155256
298.0, 0.023729089673068318
299.0, 0.027903708570744944
300.0, 0.0252426549324199
301.0, 0.035521976589844705
302.0, 0.04427759935404216
303.0, 0.04755669913809024
304.0, 0.04503557005648338
305.0, 0.03519359872565424
306.0, 0.03913476606804069
307.0, 0.0421547517263955
308.0, 0.04024759117431533
309.0, 0.03573286424531188
310.0, 0.029844026118683194
311.0, 0.01626466007342201
312.0, 0.010239509846347939
313.0, 0.011250671816986045
314.0, 0.011026895140622774
315.0, 0.0035825005833297367
316.0, 0.004512022393289705
317.0, 0.005081869296572192
318.0, 0.0023372550190509742
319.0, 0.0013152237004929776
320.0, 0.0061616378195533525
321.0, 0.008787707698180117
322.0, 0.002545609075195978
323.0, 0.006862787821159006
324.0, 0.009780216305676345
325.0, 0.0036481914769935266
326.0, 0.008313729645221873
327.0, 0.014477144023040449
328.0, 0.01833736618348381
329.0, 0.019440242131491696
330.0, 0.01205927821479795
331.0, 0.004910391225714178
332.0, 0.0054914593255923645
333.0, 0.01053017167564976
334.0, 0.01071364535926146
335.0, 0.0013999815335195018
336.0, 0.000863007193819498
337.0, 0.00597091107660227
338.0, 0.009172730434636874
339.0, 0.003939832112984291
340.0, 0.0036989204803440567
341.0, 0.0191453303486215
342.0, 0.024078859302004648
343.0, 0.027606342699428483
344.0, 0.0380827250014871
345.0, 0.04238692208735761
346.0, 0.04870106642139121
347.0, 0.06191786275402848
348.0, 0.07009196194441097
349.0, 0.06853358766009389
350.0, 0.07161364130253063
351.0, 0.06264955334084193
352.0, 0.07085155768660573
353.0, 0.07707589428038819
354.0, 0.06673916024308109
355.0, 0.058386122076966966
356.0, 0.055886195897523507
357.0, 0.05220593065371147
358.0, 0.052262878364333146
359.0, 0.05886243570955806
360.0, 0.06699202801440439
361.0, 0.07079647310009575
362.0, 0.08282225864377436
363.0, 0.09879563180421624
364.0, 0.12106548830232712
365.0, 0.16043982210603525
366.0, 0.1675472013422752
367.0, 0.18763733510695638
368.0, 0.19451144966970174
369.0, 0.18715945752512905
370.0, 0.1922143818346832
371.0, 0.17981065365029414
372.0, 0.15443236790714715
373.0, 0.13343161549694696
374.0, 0.12122196627239248
375.0, 0.11284825680170171
376.0, 0.10788640996784882
377.0, 0.0878621795786163
378.0, 0.08073456781523897
379.0, 0.07726191819415296
380.0, 0.06718361141534981
381.0, 0.07687326498831693
382.0, 0.07704847226480623
383.0, 0.08599647768285355
384.0, 0.10311094548890824
385.0, 0.11861696456775503
386.0, 0.13314441010000896
387.0, 0.1611509590203961
388.0, 0.18910572920950344
389.0, 0.2213368572751091
390.0, 0.24845501174658183
391.0, 0.2579501818496164
392.0, 0.2694309130772619
393.0, 0.2632525508264602
394.0, 0.23797430061387098
395.0, 0.20751427837054096
396.0, 0.18314325775580573
397.0, 0.15443753766975177
398.0, 0.12501438844078033
399.0, 0.10483776851495967
400.0, 0.09152460559446861
401.0, 0.08174482141141796
402.0, 0.07770834590140807
403.0, 0.07169424143749148
404.0, 0.071474177852564
405.0, 0.07328061831295432
406.0, 0.07443663659521899
407.0, 0.08255946413688896
408.0, 0.10570125645182732
409.0, 0.12213990863755352
410.0, 0.1316841838428463
411.0, 0.14441422577603902
412.0, 0.16286374725806854
413.0, 0.17574724032611627
414.0, 0.18452263132123004
415.0, 0.17657040838872282
416.0, 0.17043978028908943
417.0, 0.16719465038841952
418.0, 0.14226016091966046
419.0, 0.1219999629059974
420.0, 0.10423295347178232
421.0, 0.09178959535156322
422.0, 0.08235635945380657
423.0, 0.07050489116471395
424.0, 0.05752361244149934
425.0, 0.042666488522015815
426.0, 0.0345194847845582
427.0, 0.03323235680899871
428.0, 0.03715164636806615
429.0, 0.04652252439904722
430.0, 0.050142489243589404
431.0, 0.050394375924855385
432.0, 0.04915894139315076
433.0, 0.05172866158346312
434.0, 0.061791421315772546
435.0, 0.06730639100658224
436.0, 0.06807893735012278
437.0, 0.06499398533529376
438.0, 0.053869343578402645
439.0, 0.038126454480612505
440.0, 0.030286277677814555
441.0, 0.021825036979115052
442.0, 0.014330944110908394
443.0, 0.017109552551816603
444.0, 0.022070792801231257
445.0, 0.013540658101089663
446.0, 0.0042782074211410795
447.0, 0.009335371794864296
448.0, 0.008890615369665135
449.0, 0.006368644582256213
450.0, 0.004577206726560232
451.0, 0.005788868059799717
452.0, 0.0016027712618911978
453.0, 0.0013110420976208967
454.0, 0.0004930338568536164
455.0, 0.0035663897696896307
456.0, 0.007230419396705598
457.0, 0.0022469350867856067
458.0, 0.00044856011534699885
459.0, 0.005988750176978083
460.0, 0.008779847024746053
461.0, 0.002213159557308325
462.0, 0.006888297244814812
463.0, 0.007120580704862135
464.0, 0.002999779054568883
465.0, 0.0027696881617764145
466.0, 0.0007173330677863045
467.0, 0.0029490173168010576
468.0, 0.00704210304087826
469.0, 0.012141889823227099
470.0, 0.0051569787950962
471.0, 0.0029014839524575684
472.0, 0.00030453029869959795
473.0, 0.011386825957569839
474.0, 0.003351796534972927
475.0, 0.002336339243030801
476.0, 0.0018009809298500984
477.0, 0.004009209134387826
478.0, 0.0015749173827752884
479.0, 0.0019184688065130445
480.0, 0.0004851486948083497
481.0, 0.0019236641733443903
482.0, 0.004273948835733393
483.0, 0.007431422458714805
484.0, 0.009611296158375847
485.0, 0.006302468724363471
486.0, 0.014023240284865757
487.0, 0.01803828530270152
488.0, 0.01209120220976334
489.0, 0.013825746609925513
490.0, 0.028874575586070796
491.0, 0.018910315061626402
492.0, 0.02227811931211174
493.0, 0.01974071059749933
494.0, 0.01697342664889391
495.0, 0.016696650832289633
496.0, 0.013320762739160483
497.0, 0.011618304880567837
498.0, 0.01667548607735646
499.0, 0.016746106731612465
500.0, 0.014774518065511187
501.0, 0.016802429266644575
502.0, 0.02459914785094496
503.0, 0.03742874859602823
504.0, 0.028034298658116564
505.0, 0.03724687399596585
506.0, 0.049227528523120116
507.0, 0.050130975513602564
508.0, 0.05712576477914164
509.0, 0.06474245829176065
510.0, 0.07130143255843313
511.0, 0.07202595572432823
512.0, 0.08097553735274174
513.0, 0.09645893382903575
514.0, 0.09372190220816917
515.0, 0.10387204178472852
516.0, 0.10952530687552682
517.0, 0.10185965608725389
518.0, 0.09667860917288223
519.0, 0.09977267241259545
520.0, 0.09868006674172915
521.0, 0.11489911254146476
522.0, 0.10826142507400822
523.0, 0.10648346523784968
524.0, 0.11432883278871307
525.0, 0.11679318465228461
526.0, 0.11693452916235342
527.0, 0.13009732308169258
528.0, 0.12631604074780287
529.0, 0.11663520546598131
530.0, 0.1111861853652548
531.0, 0.10468688386939533
532.0, 0.0887800510876101
533.0, 0.08366670191761007
534.0, 0.0810136486667008
535.0, 0.07848887876797171
536.0, 0.07375119569972827
537.0, 0.06798333208896874
538.0, 0.06627481442010656
539.0, 0.05136521203026653
540.0, 0.05022803959026764
541.0, 0.0513788624582256
542.0, 0.05036672091300054
543.0, 0.04875266833986274
544.0, 0.04262401173779593
545.0, 0.035049405332227106
546.0, 0.0277035762020845
547.0, 0.028639982855906777
548.0, 0.0327288607467042
549.0, 0.030959003921159453
550.0, 0.02748632564933479
551.0, 0.03218929254835886
552.0, 0.032589244635217694
553.0, 0.030737092882110968
554.0, 0.03348481931246849
555.0, 0.035104221525083384
556.0, 0.027275369488495693
557.0, 0.033505280497897215
558.0, 0.030546019420036735
559.0, 0.02551258814516482
560.0, 0.026806127268908058
561.0, 0.031036674109049013
562.0, 0.03230553321727157
563.0, 0.038667133464864445
564.0, 0.036497703092920705
565.0, 0.03594989266022898
566.0, 0.03737834849868
567.0, 0.03715226929007337
568.0, 0.03248298892634472
569.0, 0.019036995761406633
570.0, 0.018684088693201283
571.0, 0.017398053869639385
572.0, 0.022360559752557466
573.0, 0.026534692664734738
574.0, 0.017813767174886398
575.0, 0.008912549120462398
576.0, 0.01805542711852984
577.0, 0.014519778036066714
578.0, 0.016186829071655723
579.0, 0.019536511960856963
580.0, 0.020929652111796967
581.0, 0.028592418433414535
582.0, 0.020653104600985926
583.0, 0.01720810442700713
584.0, 0.010192589697805529
585.0, 0.012846457346753387
586.0, 0.017734430592021316
587.0, 0.009111088160721328
588.0, 0.0011678773043324094
589.0, 0.002550429778266538
590.0, 0.007275780085210388
591.0, 0.0029010569351687597
592.0, 0.0009996793065196396
593.0, 0.007358303290283856
594.0, 0.005088226785610134
595.0, 0.0026757316646775957
596.0, 0.0017815591816418624
597.0, 0.0009490075370662895
598.0, 0.001792698774633042
599.0, 0.003309677671195575
600.0, 0.0058095832959094785
601.0, 0.004108474313145613
602.0, 0.0035883878468896875
603.0, 0.00972151756466423
604.0, 0.013965412221005233
605.0, 0.012008212169065448
606.0, 0.00985949345799722
607.0, 0.010595699091790608
608.0, 0.011854913831792525
609.0, 0.012788241108882
610.0, 0.023376404686135086
611.0, 0.02739509016764455
612.0, 0.01741432336379463
613.0, 0.008945037829963118
614.0, 0.01756695377856216
615.0, 0.022710175487440816
616.0, 0.02368311692316888
617.0, 0.02248975945908892
618.0, 0.024587310787996607
619.0, 0.026308453336884825
620.0, 0.022469980923556683
621.0, 0.03698939587569238
622.0, 0.027083297260371522
623.0, 0.021309689311622318
624.0, 0.022199346576236578
625.0, 0.024883608468518417
626.0, 0.029088162365603458
627.0, 0.03216099976096607
628.0, 0.024443069874504897
629.0, 0.02857876764134708
630.0, 0.04064539534248762
631.0, 0.038453767520687965
632.0, 0.028584206704151967
633.0, 0.030661464563656395
634.0, 0.03389750646166427
635.0, 0.03588060451234059
636.0, 0.03178577515280502
637.0, 0.040756071601608455
638.0, 0.049411143772600426
639.0, 0.04441308863064318
640.0, 0.038614469278942826
641.0, 0.043624800114009675
642.0, 0.045296167146837825
643.0, 0.042544061295634726
644.0, 0.04121928496316273
645.0, 0.04718884255126181
646.0, 0.05172490787865101
647.0, 0.04563914842551747
648.0, 0.05330615556861866
649.0, 0.05174390831137138
650.0, 0.06150175645261547
651.0, 0.06817262051223745
652.0, 0.07925873051975586
653.0, 0.10002487806564987
654.0, 0.11064905594836186
655.0, 0.11585441312104959
656.0, 0.12457085709434838
657.0, 0.13573671981912108
658.0, 0.14930668069511555
659.0, 0.1773400118010209
660.0, 0.2096147886834087
661.0, 0.22290082448416462
662.0, 0.2742764946572489
663.0, 0.3110004826621096
664.0, 0.3667796883660351
665.0, 0.43974118077508456
666.0, 0.5187953908119407
667.0, 0.6043213167369976
668.0, 0.6997252431556233
669.0, 0.8034030178144408
670.0, 0.8850926815938909
671.0, 0.9605102991954442
672.0, 0.9982922428471681
673.0, 0.9661016505613933
674.0, 0.872851547701276
675.0, 0.761246324033758
676.0, 0.631709312768464
677.0, 0.5160633788754415
678.0, 0.42146432889219176
679.0, 0.33936632137951245
680.0, 0.272664556914096
681.0, 0.2282674947967892
682.0, 0.19764170190179364
683.0, 0.1567341379014322
684.0, 0.14329860438222677
685.0, 0.12363085809575206
686.0, 0.11316825787583458
687.0, 0.09948810483497578
688.0, 0.08251906970528206
689.0, 0.08381981314153043
690.0, 0.07970961964509098
691.0, 0.06155945140491156
692.0, 0.05366158376459413
693.0, 0.052964449452152354
694.0, 0.05073383457842361
695.0, 0.046580172120103965
696.0, 0.044260315065902084
697.0, 0.04092490329725213
698.0, 0.03939242997895427
699.0, 0.028587351556381365
700.0, 0.024386334965865075
701.0, 0.019467619552653467
702.0, 0.014403292453036166
703.0, 0.01446053638478757
704.0, 0.0057423975909247985
705.0, 0.0019502302312566205
706.0, 0.007969551891777293
707.0, 0.0035862787502764053
708.0, 0.007446453092986788
709.0, 0.00295014953320824
710.0, 0.004316299776374015
711.0, 0.005925152085733433
712.0, 0.003974816417431051
713.0, 0.0038006160242633376
714.0, 0.0024702328679248146
715.0, 0.0002797779545998737
716.0, 0.0010479185541871065
717.0, 0.0019206022102192283
718.0, 0.002066855698004686
719.0, 0.0019473252707765956
720.0, 0.006395477872571121
721.0, 0.00930029259199978
722.0, 0.0038342250365858356
723.0, 0.0036976446358017146
724.0, 0.0022553843986447726
725.0, 0.00387612272597509
726.0, 0.003917021185339794
727.0, 0.0011744848213273336
728.0, 0.004380613418304012
729.0, 0.007821704657175663
730.0, 0.003548477982418879
731.0, 0.006032779854750139
732.0, 0.011007515827841985
733.0, 0.00945015061427404
734.0, 0.014524441731662367
735.0, 0.009074477254037825
736.0, 0.023168395104689484
737.0, 0.03030036819596194
738.0, 0.03916529831729091
739.0, 0.0420566942953271
740.0, 0.03966735117036878
741.0, 0.04335258698282105
742.0, 0.044407919856390865
743.0, 0.038419820720725945
744.0, 0.03998303786562614
745.0, 0.040370021331237634
746.0, 0.051983098921938836
747.0, 0.05853282361039561
748.0, 0.04908120113033551
749.0, 0.04691535061807463
750.0, 0.044258895807391466
751.0, 0.03143943550111879
752.0, 0.03328501109468474
753.0, 0.027140278804291935
754.0, 0.021470588170634287
755.0, 0.022104584728297173
756.0, 0.022779827057758082
757.0, 0.017138157283884882
758.0, 0.002632481462481519
759.0, 0.012490323483586183
760.0, 0.015080610735635918
761.0, 0.01198429646558925
762.0, 0.007569586491363047
763.0, 0.012901192534657659
764.0, 0.02012552808302527
765.0, 0.015534029982568805
766.0, 0.017553334760062708
767.0, 0.01661748760412986
768.0, 0.016291366273797393
769.0, 0.022678559348100254
770.0, 0.016840212246895737
771.0, 0.013891848779383499
772.0, 0.02293747316694098
773.0, 0.02073096493113997
774.0, 0.023130378670970637
775.0, 0.032188939033715225
776.0, 0.016147431565894304
777.0, 0.0165119929055284
778.0, 0.02747632980064558
779.0, 0.02398593081958484
780.0, 0.017685671530442898
781.0, 0.029063348373183816
782.0, 0.03779497603338953
783.0, 0.026393761430080362
784.0, 0.018904833444114623
785.0, 0.03161568956047408
786.0, 0.03858804451336869
787.0, 0.032084780402951665
788.0, 0.028172209024694778
789.0, 0.0326413422864165
790.0, 0.03057266844446223
791.0, 0.031215948177468755
792.0, 0.037523084529954794
793.0, 0.03365554869056097
794.0, 0.036576474888477685
795.0, 0.03813819902825618
796.0, 0.03440123151458159
797.0, 0.0332947083722547
798.0, 0.03392283112556152
799.0, 0.03423779831738774
800.0, 0.023813633899022756
801.0, 0.028069322468339097
802.0, 0.03351532532118108
803.0, 0.03801730112712043
804.0, 0.03611742704671449
805.0, 0.033625638309879365
806.0, 0.039349848444686565
807.0, 0.03856707927708295
808.0, 0.027121581921174583
809.0, 0.023075365661774885
810.0, 0.03536259350276878
811.0, 0.04434698285233041
812.0, 0.05168823037339153
813.0, 0.05273873357759918
814.0, 0.04189492142456934
815.0, 0.032867479190269076
816.0, 0.02895108267482251
817.0, 0.028188702317764006
818.0, 0.03631944887749875
819.0, 0.035429422774787736
820.0, 0.029161129940226176
821.0, 0.0209957900837369
822.0, 0.01823900159000988
823.0, 0.02273911549495802
824.0, 0.02147955126525259
825.0, 0.02591941630441965
826.0, 0.02912162009364497
827.0, 0.029383207980330055
828.0, 0.016683385128857392
829.0, 0.013748994819635627
830.0, 0.020746334446812544
831.0, 0.023299160222066104
832.0, 0.017753521187836047
833.0, 0.01324621924053089
834.0, 0.02402759248567969
835.0, 0.019202186597378386
836.0, 0.0038162262237941232
837.0, 0.005599390637496255
838.0, 0.016606922164765756
839.0, 0.017361106075208382
840.0, 0.013097024926228721
841.0, 0.014686249822644498
842.0, 0.00780833600620848
843.0, 0.010665794724257056
844.0, 0.017508458414264412
845.0, 0.005683934887488457
846.0, 0.00884149658860312
847.0, 0.00941301954045903
848.0, 0.005877652720896998
849.0, 0.01614815068706263
850.0, 0.024648509780297773
851.0, 0.00798841959609124
852.0, 0.007215726995225852
853.0, 0.004473033628538572
854.0, 0.009070656638152886
855.0, 0.0033697923473221068
856.0, 0.0017919329006999512
857.0, 0.0036293964998332638
858.0, 0.00472327175943797
859.0, 0.001648954918026174
860.0, 0.0004691120681838276
861.0, 0.001161931266885748
862.0, 0.001740119138420196
863.0, 0.006503790784126832
864.0, 0.002445192219115069
865.0, 0.0027121447430908923
866.0, 0.0026054977755813093
867.0, 0.007460153301964373
868.0, 0.010705649977333725
869.0, 0.002855295054058352
870.0, 0.006442576603210073
871.0, 0.0013765519721187236
872.0, 0.003589577424019599
873.0, 0.011907578491761741
874.0, 0.0019259599778301325
875.0, 0.0020383896274692387
876.0, 0.0010911554601406987
877.0, 0.0006375309768196792
878.0, 0.0007019875190322042
879.0, 0.004979247123305599
880.0, 0.008215995034626868
881.0, 0.01055834561289471
882.0, 0.010443290012651138
883.0, 0.009766657667632787
884.0, 0.01395573099336686
885.0, 0.012231208517616181
886.0, 0.01182673232357106
887.0, 0.01351427370522011
888.0, 0.01253658160206939
889.0, 0.015360477015184856
890.0, 0.01338216193463363
891.0, 0.017283324004285543
892.0, 0.002893705829357484
893.0, 0.01273154987899059
894.0, 0.008172231676115006
895.0, 0.0024689893295989393
896.0, 0.00561302606270744
897.0, 0.011589516197843088
898.0, 0.015084095202919008
899.0, 0.011104412449850377
900.0, 0.008087747280919192
901.0, 0.019907913675512735
902.0, 0.01808547673674888
903.0, 0.016886485153828953
904.0, 0.020137177096447523
905.0, 0.01727443332665724
906.0, 0.011893886153178577
907.0, 0.014865747031784803
908.0, 0.018289438952951292
909.0, 0.018827416311441355
910.0, 0.021612244715943155
911.0, 0.023209334443696827
912.0, 0.029251920704372218
913.0, 0.031299118269587096
914.0, 0.037561752010390005
915.0, 0.03996473548493349
916.0, 0.038564645914882935
917.0, 0.043523385940935015
918.0, 0.048471643125919624
919.0, 0.04787854037588432
920.0, 0.0441377773768623
921.0, 0.0453630449293746
922.0, 0.05488081518687989
923.0, 0.061150815250672556
924.0, 0.06758789173872314
925.0, 0.07439554281422837
926.0, 0.08720902678596244
927.0, 0.09430153140944034
928.0, 0.096088592286885
929.0, 0.10589276791488562
930.0, 0.1097926814792677
931.0, 0.09596331893962977
932.0, 0.09893570123712246
933.0, 0.08349701117767128
934.0, 0.06825910556936188
935.0, 0.05729054237702336
936.0, 0.040287421899223186
937.0, 0.03535466711769774
938.0, 0.03450561707589924
939.0, 0.02880210657852272
940.0, 0.030578951913126165
941.0, 0.03177401558127825
942.0, 0.03111619465958775
943.0, 0.028748300284080108
944.0, 0.03477619760236765
945.0, 0.0296389035053979
946.0, 0.03396809282782439
947.0, 0.03206876491427766
948.0, 0.026080119676199946
949.0, 0.025994795155714394
950.0, 0.022405748293776572
951.0, 0.01567681490633714
952.0, 0.021777052131814054
953.0, 0.017093640105214147
954.0, 0.010515215786079595
955.0, 0.008534123778650413
956.0, 0.004723353342691694
957.0, 0.010580664133114568
958.0, 0.014924076159114265
959.0, 0.010734551567897991
960.0, 0.012762417220506396
961.0, 0.016023184059980766
962.0, 0.00605850905342358
963.0, 0.0026016738012043846
964.0, 0.0140244600283304
965.0, 0.00990719707022627
966.0, 0.0028447616590462814
967.0, 0.006797088212229089
968.0, 0.0053903140612889585
969.0, 0.0009628748695271711
970.0, 0.006700998907721577
971.0, 0.002977446592185642
972.0, 0.01556145119994073
973.0, 0.008498224610292463
974.0, 0.00378814881264335
975.0, 0.007504663292318328
976.0, 0.01390481130364493
977.0, 0.001076265041754337
978.0, 0.005011941280090123
979.0, 0.010733596181527123
980.0, 0.007807786096737995
981.0, 0.0015987812947461074
982.0, 0.005416565532693834
983.0, 0.004477012505028787
984.0, 0.004387631895274049
985.0, 0.0071108258145945805
986.0, 0.0033882190730593524
987.0, 0.0024631228098890546
988.0, 0.0053255813474064
989.0, 0.007129930700420205
990.0, 0.0019396784708375925
991.0, 0.004296677312120533
992.0, 0.001347415284261615
993.0, 0.006202624731598317
994.0, 0.011133765173203587
995.0, 0.013223824731818852
996.0, 0.013491079181263332
997.0, 0.01632403443633427
998.0, 0.018834763803319676
999.0, 0.019086151897055873
1000.0, 0.037459569175622515
1001.0, 0.03000182021874888
1002.0, 0.01983938126866778
1003.0, 0.03383219981088996
1004.0, 0.022838831861038772
1005.0, 0.030303135613103795
1006.0, 0.04272966593148052
1007.0, 0.03890301158569061
1008.0, 0.027990303640305383
1009.0, 0.026837144437126426
1010.0, 0.03170234887702628
1011.0, 0.03428395007852935
1012.0, 0.04116561153109356
1013.0, 0.04521136106007863
1014.0, 0.053158619370234535
1015.0, 0.05106739521626698
1016.0, 0.0432461134400436
1017.0, 0.05713669899236508
1018.0, 0.052540531950696405
1019.0, 0.07494547364634979
1020.0, 0.08269274938683593
1021.0, 0.08520140822182634
1022.0, 0.09316379543277958
1023.0, 0.09781801043207988
1024.0, 0.11842147788172484
1025.0, 0.14585512806697665
1026.0, 0.15279849123233882
1027.0, 0.15971054955009978
1028.0, 0.1650624815204567
1029.0, 0.16374213445006622
1030.0, 0.15068420834125046
1031.0, 0.13643574357930685
1032.0, 0.1129221814539984
1033.0, 0.1041637111592418
1034.0, 0.09109614266645935
1035.0, 0.07387629863219487
1036.0, 0.05760350023254855
1037.0, 0.04762295727646491
1038.0, 0.05253920536713142
1039.0, 0.04762618632128187
1040.0, 0.04219456612745355
1041.0, 0.03660269036775921
1042.0, 0.03569938765851653
1043.0, 0.039812040642684655
1044.0, 0.04150766890784907
1045.0, 0.03107362713712974
1046.0, 0.046485934233290595
1047.0, 0.05240300728584714
1048.0, 0.05878776803015693
1049.0, 0.06456939930149903
1050.0, 0.0696646405233297
1051.0, 0.08673435726048309
1052.0, 0.09722302347168744
1053.0, 0.10002127133228858
1054.0, 0.10931744138999538
1055.0, 0.11987150920693722
1056.0, 0.11869633118862663
1057.0, 0.1259795416092797
1058.0, 0.12012443218067109
1059.0, 0.12291198626736162
1060.0, 0.11419590919051184
1061.0, 0.09540427669680394
1062.0, 0.08678025735591031
1063.0, 0.07969635903418834
1064.0, 0.07132901955847382
1065.0, 0.07112780498694488
1066.0, 0.07680339916936012
1067.0, 0.0792860575109826
1068.0, 0.0771464976500604
1069.0, 0.07399022281005307
1070.0, 0.06330337864813576
1071.0, 0.051816972316001235
1072.0, 0.043902347629183845
1073.0, 0.03628239371551551
1074.0, 0.03248969500465898
1075.0, 0.03004345614656743
1076.0, 0.024736463173263668
1077.0, 0.023606193998741764
1078.0, 0.023472452036419938
1079.0, 0.013896660698137027
1080.0, 0.009817303458752097
1081.0, 0.017388579106437846
1082.0, 0.013731907363758997
1083.0, 0.001966586627749467
1084.0, 0.004759981269865373
1085.0, 0.015509803889566609
1086.0, 0.0023423372475282907
1087.0, 0.00045566687735573805
1088.0, 0.0008708727091796953
1089.0, 0.010413788091294746
1090.0, 0.00982125720036257
1091.0, 0.004230185123525853
1092.0, 0.0016472851971010257
1093.0, 0.0033915308703137076
1094.0, 0.013022992060377069
1095.0, 0.008387219666426037
1096.0, 0.0029924646425812714
1097.0, 0.008271340931974038
1098.0, 0.004712940147806293
1099.0, 0.004676267118305307
1100.0, 0.0078171195466578
1101.0, 0.0014462966270565153
1102.0, 0.005715202356238099
1103.0, 0.0012463458897194748
1104.0, 0.00322735395044177
1105.0, 0.0025879439108321065
1106.0, 0.006348579766013818
1107.0, 0.002814884366410969
1108.0, 0.004479741748706479
1109.0, 0.002941789359711976
1110.0, 0.0008391678499097886
1111.0, 0.005479070202327962
1112.0, 0.010612832325580072
1113.0, 0.012119790905368659
1114.0, 0.009877693860510997
1115.0, 0.008128149270719663
1116.0, 0.010687330025492022
1117.0, 0.012001268005843991
1118.0, 0.015601219141716619
1119.0, 0.015421479259964822
1120.0, 0.007555732029972748
1121.0, 0.008782389460222851
1122.0, 0.012823779304473433
1123.0, 0.015698567721749452
1124.0, 0.011850873312988949
1125.0, 0.007901250200652186
1126.0, 0.007668623428634782
1127.0, 0.009595737251788177
1128.0, 0.013017245258439308
1129.0, 0.011756800198213494
1130.0, 0.008152141555800083
1131.0, 0.001319737417309276
1132.0, 0.0017358261405565234
1133.0, 0.004366197340265879
1134.0, 0.0010265551272115557
1135.0, 0.007613561028303338
1136.0, 0.009605798053847559
1137.0, 0.0013231425963381859
1138.0, 0.0014826687742500097
1139.0, 0.007078681392808149
1140.0, 0.014602593442548259
1141.0, 0.006673831537936562
1142.0, 0.007655463588138653
1143.0, 0.00834810718913734
1144.0, 0.0010522722131258223
1145.0, 0.010477690914655492
1146.0, 0.004782941818802287
1147.0, 0.002451713081294775
1148.0, 0.008616917864537577
1149.0, 0.00537929173517208
1150.0, 0.0015939302560917816
1151.0, 0.010746004860065963
1152.0, 0.012793087144790553
1153.0, 0.005762350802900656
1154.0, 0.007356561872962407
1155.0, 0.011254039339822637
1156.0, 0.011395008490089238
1157.0, 0.0003837905793309847
1158.0, 0.012891702716611138
1159.0, 0.010582765964431062
1160.0, 0.004618620279082024
1161.0, 0.0028142937882449236
1162.0, 0.005479110881300448
1163.0, 0.002100542584098503
1164.0, 0.0011233681707727323
1165.0, 0.0058482552433443535
1166.0, 0.0020427451993943785
1167.0, 0.005405289930291671
1168.0, 0.011082331067846117
1169.0, 0.015588300818701674
1170.0, 0.0037776278741622716
1171.0, 0.0017114781048516974
1172.0, 0.01333697436012648
1173.0, 0.014303167688146113
1174.0, 0.0026576296601890383
1175.0, 0.0006822590211243891
1176.0, 0.004473381385303662
1177.0, 0.003840238711759755
1178.0, 0.01230347949733744
1179.0, 0.004286800456472586
1180.0, 0.0017625663728185255
1181.0, 0.0025073513304121804
1182.0, 0.0018359977302882336
1183.0, 0.011651698488770288
1184.0, 0.009171919617362417
1185.0, 0.0020697757702802582
1186.0, 0.003225072159500331
1187.0, 0.0089104719714612
1188.0, 0.016798869161744043
1189.0, 0.01774381253673012
1190.0, 0.01014192086498448
1191.0, 0.010882731516960701
1192.0, 0.011207845029876255
1193.0, 0.01600042866692228
1194.0, 0.018083823182756552
1195.0, 0.010919709499053278
1196.0, 0.004162858028715485
1197.0, 0.006724925459591151
1198.0, 0.008036590325091741
1199.0, 0.012391203396978207
1200.0, 0.02284372673835872
1201.0, 0.013653096214750202
1202.0, 0.00977357609525454
1203.0, 0.018922463651865697
1204.0, 0.009870421301633075
1205.0, 0.011532054666970833
1206.0, 0.0015754851335070938
1207.0, 0.010744278667907637
1208.0, 0.015918782587725226
1209.0, 0.002101290381365148
1210.0, 0.011207024629924773
1211.0, 0.011156138017226815
1212.0, 0.015760829250197273
1213.0, 0.02616281099173081
1214.0, 0.01903893830410312
1215.0, 0.021413095659153423
1216.0, 0.017804798265801818
1217.0, 0.014334607128166815
1218.0, 0.014028487177601882
1219.0, 0.013144679518826795
1220.0, 0.02083116815182508
1221.0, 0.0199096738270271
1222.0, 0.018225290248326642
1223.0, 0.024002538921731882
1224.0, 0.022107899697253436
1225.0, 0.018954763202012156
1226.0, 0.017739199219426533
1227.0, 0.020450677767663274
1228.0, 0.01763227594057358
1229.0, 0.008148402265391166
1230.0, 0.021257876118335146
1231.0, 0.02185576739510607
1232.0, 0.018154571029239296
1233.0, 0.022221990020695827
1234.0, 0.0208688749257403
1235.0, 0.013481035352355264
1236.0, 0.01474006581343737
1237.0, 0.015465603284201433
1238.0, 0.009799242970568741
1239.0, 0.0162088614278737
1240.0, 0.004028576791558649
1241.0, 0.02360138755089901
1242.0, 0.021595113538649634
1243.0, 0.011922486546650407
1244.0, 0.016512455820593665
1245.0, 0.022074988728530146
1246.0, 0.018622799304062736
1247.0, 0.008441639003085099
1248.0, 0.010921274502769826
1249.0, 0.018521344014630115
1250.0, 0.02004784652683422
1251.0, 0.015069435174307484
1252.0, 0.008818464285769444
1253.0, 0.012558884075825578
1254.0, 0.015238477016500045
1255.0, 0.013684846731349632
1256.0, 0.026250610143437894
1257.0, 0.025218997226392842
1258.0, 0.0038756751672670243
1259.0, 0.00607236974022418
1260.0, 0.019029334120012807
1261.0, 0.016595176740443033
1262.0, 0.0069002772911452405
1263.0, 0.003257469586007863
1264.0, 0.002239775962078681
1265, 0.0
1266, 0.0
1267, 0.0
1268, 0.0
1269, 0.0
1270, 0.0
1271, 0.0
1272, 0.0
1273, 0.0
1274, 0.0
1275, 0.0
1276, 0.0
1277, 0.0
1278, 0.0
1279, 0.0
1280, 0.0
1281, 0.0
1282, 0.0
1283, 0.0
1284, 0.0
1285, 0.0
1286, 0.0
1287, 0.0
1288, 0.0
1289, 0.0
1290, 0.0
1291, 0.0
1292, 0.0
1293, 0.0
1294, 0.0
1295, 0.0
1296, 0.0
1297, 0.0
1298, 0.0
1299, 0.0
1300, 0.0
1301, 0.0
1302, 0.0
1303, 0.0
1304, 0.0
1305, 0.0
1306, 0.0
1307, 0.0
1308, 0.0
1309, 0.0
1310, 0.0
1311, 0.0
1312, 0.0
1313, 0.0
1314, 0.0
1315, 0.0
1316, 0.0
1317, 0.0
1318, 0.0
1319, 0.0
1320, 0.0
1321, 0.0
1322, 0.0
1323, 0.0
1324, 0.0
1325, 0.0
1326, 0.0
1327, 0.0
1328, 0.0
1329, 0.0
1330, 0.0
1331, 0.0
1332, 0.0
1333, 0.0
1334, 0.0
1335, 0.0
1336, 0.0
1337, 0.0
1338, 0.0
1339, 0.0
1340, 0.0
1341, 0.0
1342, 0.0
1343, 0.0
1344, 0.0
1345, 0.0
1346, 0.0
1347, 0.0
1348, 0.0
1349, 0.0
1350, 0.0
1351, 0.0
1352, 0.0
1353, 0.0
1354, 0.0
1355, 0.0
1356, 0.0
1357, 0.0
1358, 0.0
1359, 0.0
1360, 0.0
1361, 0.0
1362, 0.0
1363, 0.0
1364, 0.0
1365, 0.0
1366, 0.0
1367, 0.0
1368, 0.0
1369, 0.0
1370, 0.0
1371, 0.0
1372, 0.0
1373, 0.0
1374, 0.0
1375, 0.0
1376, 0.0
1377, 0.0
1378, 0.0
1379, 0.0
1380, 0.0
1381, 0.0
1382, 0.0
1383, 0.0
1384, 0.0
1385, 0.0
1386, 0.0
1387, 0.0
1388, 0.0
1389, 0.0
1390, 0.0
1391, 0.0
1392, 0.0
1393, 0.0
1394, 0.0
1395, 0.0
1396, 0.0
1397, 0.0
1398, 0.0
1399, 0.0
1400, 0.0
1401, 0.0
1402, 0.0
1403, 0.0
1404, 0.0
1405, 0.0
1406, 0.0
1407, 0.0
1408, 0.0
1409, 0.0
1410, 0.0
1411, 0.0
1412, 0.0
1413, 0.0
1414, 0.0
1415, 0.0
1416, 0.0
1417, 0.0
1418, 0.0
1419, 0.0
1420, 0.0
1421, 0.0
1422, 0.0
1423, 0.0
1424, 0.0
1425, 0.0
1426, 0.0
1427, 0.0
1428, 0.0
1429, 0.0
1430, 0.0
1431, 0.0
1432, 0.0
1433, 0.0
1434, 0.0
1435, 0.0
1436, 0.0
1437, 0.0
1438, 0.0
1439, 0.0
1440, 0.0
1441, 0.0
1442, 0.0
1443, 0.0
1444, 0.0
1445, 0.0
1446, 0.0
1447, 0.0
1448, 0.0
1449, 0.0
1450, 0.0
1451, 0.0
1452, 0.0
1453, 0.0
1454, 0.0
1455, 0.0
1456, 0.0
1457, 0.0
1458, 0.0
1459, 0.0
1460, 0.0
1461, 0.0
1462, 0.0
1463, 0.0
1464, 0.0
1465, 0.0
1466, 0.0
1467, 0.0
1468, 0.0
1469, 0.0
1470, 0.0
1471, 0.0
1472, 0.0
1473, 0.0
1474, 0.0
1475, 0.0
1476, 0.0
1477, 0.0
1478, 0.0
1479, 0.0
1480, 0.0
1481, 0.0
1482, 0.0
1483, 0.0
1484, 0.0
1485, 0.0
1486, 0.0
1487, 0.0
1488, 0.0
1489, 0.0
1490, 0.0
1491, 0.0
1492, 0.0
1493, 0.0
1494, 0.0
1495, 0.0
1496, 0.0
1497, 0.0
1498, 0.0
1499, 0.0
1500, 0.0
1501, 0.0
1502, 0.0
1503, 0.0
1504, 0.0
1505, 0.0
1506, 0.0
1507, 0.0
1508, 0.0
1509, 0.0
1510, 0.0
1511, 0.0
1512, 0.0
1513, 0.0
1514, 0.0
1515, 0.0
1516, 0.0
1517, 0.0
1518, 0.0
1519, 0.0
1520, 0.0
1521, 0.0
1522, 0.0
1523, 0.0
1524, 0.0
1525, 0.0
1526, 0.0
1527, 0.0
1528, 0.0
1529, 0.0
1530, 0.0
1531, 0.0
1532, 0.0
1533, 0.0
1534, 0.0
1535, 0.0
1536, 0.0
1537, 0.0
1538, 0.0
1539, 0.0
1540, 0.0
1541, 0.0
1542, 0.0
1543, 0.0
1544, 0.0
1545, 0.0
1546, 0.0
1547, 0.0
1548, 0.0
1549, 0.0
1550, 0.0
1551, 0.0
1552, 0.0
1553, 0.0
1554, 0.0
1555, 0.0
1556, 0.0
1557, 0.0
1558, 0.0
1559, 0.0
1560, 0.0
1561, 0.0
1562, 0.0
1563, 0.0
1564, 0.0
1565, 0.0
1566, 0.0
1567, 0.0
1568, 0.0
1569, 0.0
1570, 0.0
1571, 0.0
1572, 0.0
1573, 0.0
1574, 0.0
1575, 0.0
1576, 0.0
1577, 0.0
1578, 0.0
1579, 0.0
1580, 0.0
1581, 0.0
1582, 0.0
1583, 0.0
1584, 0.0
1585, 0.0
1586, 0.0
1587, 0.0
1588, 0.0
1589, 0.0
1590, 0.0
1591, 0.0
1592, 0.0
1593, 0.0
1594, 0.0
1595, 0.0
1596, 0.0
1597, 0.0
1598, 0.0
1599, 0.0
