30, 0.0
31, 0.0
32, 0.0
33, 0.0
34, 0.0
35, 0.0
36, 0.0
37, 0.0
38, 0.0
39, 0.0
40, 0.0
41, 0.0
42, 0.0
43, 0.0
44, 0.0
45, 0.0
46, 0.0
47, 0.0
48, 0.0
49, 0.0
50, 0.0
51, 0.0
52, 0.0
53, 0.0
54, 0.0
55, 0.0
56, 0.0
57, 0.0
58, 0.0
59, 0.0
60, 0.0
61, 0.0
62, 0.0
63, 0.0
64, 0.0
65, 0.0
66, 0.0
67, 0.0
68, 0.0
69, 0.0
70, 0.0
71, 0.0
72, 0.0
73, 0.0
74, 0.0
75, 0.0
76, 0.0
77, 0.0
78, 0.0
79, 0.0
80, 0.0
81, 0.0
82, 0.0
83, 0.0
84, 0.0
85, 0.0
86, 0.0
87, 0.0
88, 0.0
89, 0.0
90, 0.0
91, 0.0
92, 0.0
93, 0.0
94, 0.0
95, 0.0
96, 0.0
97, 0.0
98, 0.0
99, 0.0
100, 0.0
101, 0.0
102, 0.0
103, 0.0
104, 0.0
105, 0.0
106, 0.0
107, 0.0
108.0, 0.0007514230614031024
109.0, 0.0033515028586456595
110.0, 0.006148173351314503
111.0, 0.008753347924036838
112.0, 0.011458864288703366
113.0, 0.017231935328820416
114.0, 0.024175750260926932
115.0, 0.03142251784855389
116.0, 0.03818863417428445
117.0, 0.04904365598210417
118.0, 0.059344862827099755
119.0, 0.06780297363517157
120.0, 0.06911998530934224
121.0, 0.07082614568202072
122.0, 0.07111276280174249
123.0, 0.06800337215753152
124.0, 0.062260056649754494
125.0, 0.055381425588895604
126.0, 0.04747962988317508
127.0, 0.038236790748310844
128.0, 0.030483128805904387
129.0, 0.024942257356447433
130.0, 0.022654557484297122
131.0, 0.018000563248204673
132.0, 0.014863107144787266
133.0, 0.01277200485546104
134.0, 0.009061096339050542
135.0, 0.0063553343592019145
136.0, 0.004365877402611717
137.0, 0.0030674260445881078
138.0, 0.004088605756952452
139.0, 0.003202742862259295
140.0, 0.00126433364388687
141.0, 0.0008278136403855613
142.0, 0.0016356466179211367
143.0, 0.002368095812234729
144.0, 0.0025045780986038702
145.0, 0.0012259449930214408
146.0, 0.0010592401170859077
147.0, 0.0013802471416738164
148.0, 0.0010487912134957097
149.0, 0.002258115841422842
150.0, 0.003860122046148102
151.0, 0.005566528824409722
152.0, 0.0070898808058518685
153.0, 0.008800240526866569
154.0, 0.011191300190284309
155.0, 0.015135230187633783
156.0, 0.014033062508635221
157.0, 0.013982437780986678
158.0, 0.015342524897836137
159.0, 0.013615703855782072
160.0, 0.011992520525766227
161.0, 0.010302039883020307
162.0, 0.008385568289275717
163.0, 0.006550018952819907
164.0, 0.006216057488183487
165.0, 0.006921983628418429
166.0, 0.00656701401735618
167.0, 0.008968882916661926
168.0, 0.013300925702354768
169.0, 0.0194233931827932
170.0, 0.030449947184197298
171.0, 0.04266202708463262
172.0, 0.05795861282840747
173.0, 0.08158624716074123
174.0, 0.10531709152813498
175.0, 0.12871973980447315
176.0, 0.15128302527259052
177.0, 0.16740209513938403
178.0, 0.17176987126016838
179.0, 0.16752596547181897
180.0, 0.1561022869120107
181.0, 0.13742621649794948
182.0, 0.11660596418778454
183.0, 0.09470792479682406
184.0, 0.07404286183813401
185.0, 0.05757728261172884
186.0, 0.04394316168740082
187.0, 0.03278461249593567
188.0, 0.025828484360609822
189.0, 0.018953228985676755
190.0, 0.012976792990865033
191.0, 0.010536739843097177
192.0, 0.007036527923272573
193.0, 0.0049393738322810726
194.0, 0.004868391879893088
195.0, 0.003617645878927402
196.0, 0.00259924348711596
197.0, 0.0017781519016849962
198.0, 0.0011634840289666921
199.0, 0.0009131964789992822
200.0, 0.0009326853854642537
201.0, 0.001174070593460975
202.0, 0.001483533441678128
203.0, 0.0020976434894681216
204.0, 0.002001303549733138
205.0, 0.0005710784748155669
206.0, 0.001466692281163267
207.0, 0.003412352383277827
208.0, 0.006214821725427342
209.0, 0.009689376281018663
210.0, 0.014060300720016265
211.0, 0.018655317540665822
212.0, 0.02352173204645834
213.0, 0.030298100492207915
214.0, 0.038572516090582216
215.0, 0.04939107491927933
216.0, 0.06410936859983898
217.0, 0.0833257356244371
218.0, 0.10258408645720513
219.0, 0.12103428849426541
220.0, 0.1366991024389639
221.0, 0.15269519647108057
222.0, 0.16197950918209797
223.0, 0.16220275942509413
224.0, 0.1578528473791053
225.0, 0.14758801806358093
226.0, 0.1345401993298415
227.0, 0.12149353867879498
228.0, 0.10563200900627226
229.0, 0.09291722129595086
230.0, 0.08326865919529118
231.0, 0.07493101342038679
232.0, 0.06407243536392337
233.0, 0.05519071489598257
234.0, 0.04982267391121225
235.0, 0.04000685167863496
236.0, 0.032523812002657755
237.0, 0.026760436564522587
238.0, 0.022323492211813917
239.0, 0.018332189338922215
240.0, 0.014866194218408136
241.0, 0.012019983029311385
242.0, 0.010227807096853557
243.0, 0.009161138178020082
244.0, 0.008533671351667896
245.0, 0.008334350353455975
246.0, 0.010325660954356249
247.0, 0.011188499687188994
248.0, 0.011586186478083129
249.0, 0.012258330663239891
250.0, 0.01346905368447338
251.0, 0.014279795990373217
252.0, 0.014287696126915895
253.0, 0.012198171620808747
254.0, 0.011543559309260817
255.0, 0.009549974195751425
256.0, 0.005357287603498221
257.0, 0.004160871554265926
258.0, 0.002743953892742484
259.0, 0.0016846307334730506
260.0, 0.0016859719822474254
261.0, 0.0008140712954981367
262.0, 0.00028884054509328654
263.0, 0.00022696870689197077
264.0, 0.0007753701504866458
265.0, 0.0008017502000517823
266.0, 0.0005101464670646684
267.0, 2.1237157820332012e-05
268.0, 0.000169335883525961
269.0, 0.0010594967228432558
270.0, 0.0021147650385865326
271.0, 0.0028843614811532993
272.0, 0.0043341042237100245
273.0, 0.006364002462790841
274.0, 0.008827179305042458
275.0, 0.011484679636666972
276.0, 0.015270289327495126
277.0, 0.018822729636987938
278.0, 0.022152391830543555
279.0, 0.027106009597158733
280.0, 0.03255291769256651
281.0, 0.0374386457091436
282.0, 0.041132028201804956
283.0, 0.043525820347505635
284.0, 0.04511594059344585
285.0, 0.04678636684210072
286.0, 0.04980242265745136
287.0, 0.047109019645629316
288.0, 0.04592107673206414
289.0, 0.04572208805924718
290.0, 0.04207984246895355
291.0, 0.03712165225874359
292.0, 0.03329144707356891
293.0, 0.030965886091426864
294.0, 0.02516012066818636
295.0, 0.020956013330989568
296.0, 0.01771100740733564
297.0, 0.015054298518781423
298.0, 0.014934980600889866
299.0, 0.01520583603848058
300.0, 0.015494592128941904
301.0, 0.015196580727653718
302.0, 0.014838208247126491
303.0, 0.013716877384212883
304.0, 0.011911689643161218
305.0, 0.010162643374471763
306.0, 0.009395085810283497
307.0, 0.00832143715658829
308.0, 0.0066078048831497834
309.0, 0.0064538928961340855
310.0, 0.005294005165984374
311.0, 0.003625749947563591
312.0, 0.0017989144876437392
313.0, 0.0012607522652546299
314.0, 0.0009647078157579457
315.0, 0.0009258268228900861
316.0, 0.001257909944989585
317.0, 0.0007080581466060055
318.0, 0.0004143189156067314
319.0, 0.00044058719847513367
320.0, 0.0004228461500729919
321.0, 0.000850342867596206
322.0, 0.0022460724911451437
323.0, 0.004403551695128083
324.0, 0.002889984490204503
325.0, 0.005639659982279965
326.0, 0.00929011018164057
327.0, 0.011609110484844377
328.0, 0.016746972872560533
329.0, 0.021921691609877426
330.0, 0.02672529403398544
331.0, 0.030521287289883698
332.0, 0.03287154960585835
333.0, 0.03325085418604991
334.0, 0.03185047769818374
335.0, 0.029123834531257584
336.0, 0.02776908767338012
337.0, 0.02450372181938167
338.0, 0.01968885867076709
339.0, 0.020144615926120074
340.0, 0.018138396058167475
341.0, 0.017705370614707942
342.0, 0.020392919539859708
343.0, 0.01918773900250529
344.0, 0.018918533012222304
345.0, 0.01914155420199912
346.0, 0.019524152176393497
347.0, 0.023180419484392485
348.0, 0.025601047605844952
349.0, 0.026824494856984262
350.0, 0.026910216743376784
351.0, 0.03238509868799884
352.0, 0.034221270952926146
353.0, 0.03322516787231195
354.0, 0.034271380430545964
355.0, 0.035872169105938025
356.0, 0.03722454180451079
357.0, 0.037984307315143566
358.0, 0.03728107074071576
359.0, 0.040037764827658515
360.0, 0.046293177817327676
361.0, 0.055950889388240825
362.0, 0.06548087671410283
363.0, 0.07919587567363137
364.0, 0.0964924428098907
365.0, 0.11724654762093174
366.0, 0.14675891257406048
367.0, 0.17303431823102414
368.0, 0.19575058530996686
369.0, 0.21417852494434023
370.0, 0.21757343263911005
371.0, 0.21057375522512287
372.0, 0.1945085426896723
373.0, 0.17049480090179506
374.0, 0.15050287547999158
375.0, 0.12978741826775977
376.0, 0.10905715728399383
377.0, 0.09284931503621761
378.0, 0.07965686644243244
379.0, 0.06841196290617774
380.0, 0.05972389956307893
381.0, 0.05837295809110797
382.0, 0.0564576666442084
383.0, 0.05561236934639743
384.0, 0.056613810149603545
385.0, 0.060219411825701286
386.0, 0.06708061805038464
387.0, 0.07471610442123498
388.0, 0.08195036300751123
389.0, 0.09856524336067655
390.0, 0.113921475485791
391.0, 0.12738419793890693
392.0, 0.13822336524784404
393.0, 0.14642088676669657
394.0, 0.1484147170699517
395.0, 0.14448854391904198
396.0, 0.13465797550206365
397.0, 0.11939353514186188
398.0, 0.10144874324575236
399.0, 0.08379127202398344
400.0, 0.07212615778844363
401.0, 0.05850563393059357
402.0, 0.048210727722553505
403.0, 0.04138383435143555
404.0, 0.036609644025923205
405.0, 0.03236244224446949
406.0, 0.03016215091284952
407.0, 0.02937082432689854
408.0, 0.025894206226120414
409.0, 0.02844625569713906
410.0, 0.030134112656427244
411.0, 0.030220214134025942
412.0, 0.037332601733111835
413.0, 0.040100867217591034
414.0, 0.041543860137141043
415.0, 0.042871153413985424
416.0, 0.04397037714839695
417.0, 0.04270570042380088
418.0, 0.0400444683409853
419.0, 0.03643514871066244
420.0, 0.031247863148532545
421.0, 0.026940256937782084
422.0, 0.023628997032219424
423.0, 0.02137705262096665
424.0, 0.016706906523146416
425.0, 0.014067177204113098
426.0, 0.011814431282349146
427.0, 0.008387575194493832
428.0, 0.007963926934234613
429.0, 0.005939586418368359
430.0, 0.0035388134170380543
431.0, 0.0023080288329199346
432.0, 0.0018770249003179338
433.0, 0.0014506102733937416
434.0, 0.001085273165246466
435.0, 0.00091900089943456
436.0, 0.0016974629837157571
437.0, 0.0021580232058476833
438.0, 0.002149084007202048
439.0, 0.0015238349453057932
440.0, 0.0008553715924009132
441.0, 0.0010612110848473065
442.0, 0.001545090190691295
443.0, 0.0007895185323609584
444.0, 0.0007465588554524239
445.0, 0.0007175185569317388
446.0, 0.000679823258495405
447.0, 0.0008271385987777389
448.0, 0.0012694564882523283
449.0, 0.0010782542097682079
450.0, 0.0007664540519451671
451.0, 0.002393671865589168
452.0, 0.0010975225276430764
453.0, 0.00036892798426275606
454.0, 0.0005855214738398368
455.0, 0.0006162372068581782
456.0, 0.00023821607580727834
457.0, 2.2150178540035183e-05
458.0, 5.67492130415497e-05
459.0, 0.00016312900751822978
460.0, 0.0012669547065728179
461.0, 0.0012729415806126364
462.0, 0.00019517566806203472
463.0, 0.0005958632592379647
464.0, 0.0007756007672339941
465.0, 0.0007249063099856839
466.0, 0.0005337824483346002
467.0, 0.0006684536455300574
468.0, 0.0007750078482099085
469.0, 0.0013661892086312662
470.0, 0.0021254902198064502
471.0, 0.0004956106763809352
472.0, 0.0007604267062639058
473.0, 0.0009852416011379512
474.0, 0.0007954938927443978
475.0, 0.0017058789426920942
476.0, 0.002168683427014374
477.0, 0.0018318445625895837
478.0, 0.0007957661475206299
479.0, 0.00043543571262510733
480.0, 0.0004743209679747195
481.0, 0.00038361232821545137
482.0, 0.00023597777940870886
483.0, 0.0015785880787730537
484.0, 0.002436950642537264
485.0, 0.001981892952011436
486.0, 0.0006742587501084466
487.0, 0.003019334952005022
488.0, 0.00258353289113345
489.0, 0.0015009617014139552
490.0, 0.0009178293230226564
491.0, 0.0031067952899300525
492.0, 0.0015191577452831997
493.0, 0.0007363288703197969
494.0, 0.0017626535100550766
495.0, 0.0015582503824435306
496.0, 0.0013266584501009254
497.0, 0.0008995364715080231
498.0, 0.00037579231570096646
499.0, 0.0005343263756919744
500.0, 0.00046223396272733366
501.0, 0.0004327582501198068
502.0, 0.00044608277590246835
503.0, 0.00012252907714608408
504.0, 0.0012146489280497484
505.0, 0.002083865678100077
506.0, 0.0026798532592823506
507.0, 0.004679994064554371
508.0, 0.003267701099432955
509.0, 0.002955690420765897
510.0, 0.004384193845491018
511.0, 0.005795168166942797
512.0, 0.005979749171042208
513.0, 0.0066398276565100235
514.0, 0.00782949626057318
515.0, 0.008526119278849801
516.0, 0.010147412482477807
517.0, 0.011644372626635764
518.0, 0.012439081836773783
519.0, 0.011453514619900877
520.0, 0.012114850666213492
521.0, 0.012544340313909285
522.0, 0.013086982593470207
523.0, 0.015251124903528606
524.0, 0.015307200939615575
525.0, 0.013857720681142986
526.0, 0.012632393782876917
527.0, 0.014923047148178787
528.0, 0.015000780532883807
529.0, 0.014013475584781665
530.0, 0.013051956762542158
531.0, 0.013743549599636671
532.0, 0.015033296510213744
533.0, 0.015136265960133281
534.0, 0.014074203257803883
535.0, 0.012007168498849516
536.0, 0.01178202826043035
537.0, 0.013110942321186798
538.0, 0.0134653420075421
539.0, 0.010117572140377493
540.0, 0.011773586080866063
541.0, 0.010600822121431238
542.0, 0.009767685334023503
543.0, 0.011796958252502612
544.0, 0.00790947136434945
545.0, 0.009746483730980368
546.0, 0.01172946333857884
547.0, 0.010205699363202026
548.0, 0.008443288020627717
549.0, 0.009262461553813437
550.0, 0.009375669760837705
551.0, 0.0076175121125407405
552.0, 0.009017613318914052
553.0, 0.007596380367197927
554.0, 0.006722149026820662
555.0, 0.007511966622322917
556.0, 0.00859329601110578
557.0, 0.008316765184647508
558.0, 0.0074378028324632
559.0, 0.0069817913952612675
560.0, 0.009983913022405947
561.0, 0.007255837939585214
562.0, 0.005994535406320944
563.0, 0.006801929924456684
564.0, 0.007309356050362703
565.0, 0.0069471827968882625
566.0, 0.007514622769963564
567.0, 0.008379813204834184
568.0, 0.007891957143121613
569.0, 0.006055176211170569
570.0, 0.006889014517347792
571.0, 0.008388363259825277
572.0, 0.007474803361253954
573.0, 0.008638811096335158
574.0, 0.00840491560706429
575.0, 0.008240510332640689
576.0, 0.009575113763530404
577.0, 0.011133782128164769
578.0, 0.010491222790038723
579.0, 0.010618401694392323
580.0, 0.012978257565358144
581.0, 0.011847301452239558
582.0, 0.012329553118256965
583.0, 0.01262554923896538
584.0, 0.012358929473199769
585.0, 0.014063972736627278
586.0, 0.013905605296601606
587.0, 0.012348700272954937
588.0, 0.01031132878756485
589.0, 0.010489135691222598
590.0, 0.009101953908307302
591.0, 0.008613010122227033
592.0, 0.008585283048677426
593.0, 0.007101721273226486
594.0, 0.007504891322387152
595.0, 0.007543342841207173
596.0, 0.007004388319004829
597.0, 0.005882711514435397
598.0, 0.00594518219235431
599.0, 0.0050611264356772365
600.0, 0.0045656460994494405
601.0, 0.0055791172059696395
602.0, 0.005054333602855564
603.0, 0.003890809189629157
604.0, 0.0033774079742054423
605.0, 0.00410822852323353
606.0, 0.004867707791693461
607.0, 0.004456790447551299
608.0, 0.004259921724446225
609.0, 0.004396472518000419
610.0, 0.00338675453520135
611.0, 0.004628635945985186
612.0, 0.004906430099250311
613.0, 0.004429511778358559
614.0, 0.005143589984447012
615.0, 0.0062147263304116965
616.0, 0.0069293444100582535
617.0, 0.007592228387881771
618.0, 0.008699217685655155
619.0, 0.009720634035342944
620.0, 0.010623900694270213
621.0, 0.011394830139407954
622.0, 0.01202422551205846
623.0, 0.012496192743569619
624.0, 0.013929803723727142
625.0, 0.014682074258145985
626.0, 0.014660327186018996
627.0, 0.017676988272023606
628.0, 0.017294035248256925
629.0, 0.017281650956070815
630.0, 0.017868615028018304
631.0, 0.016923706198670917
632.0, 0.018271369674405163
633.0, 0.01819120299721182
634.0, 0.017004942476062948
635.0, 0.015906462559685672
636.0, 0.01804060767873222
637.0, 0.01950176360412992
638.0, 0.0207416609541446
639.0, 0.022214774906509072
640.0, 0.02360064141152873
641.0, 0.026786542083658247
642.0, 0.029841882154258884
643.0, 0.032435678038999924
644.0, 0.03765182209566545
645.0, 0.041344097103834805
646.0, 0.04500835148598962
647.0, 0.04983056233074095
648.0, 0.0578218897134974
649.0, 0.06375948522830797
650.0, 0.07063604067645399
651.0, 0.07813000704801379
652.0, 0.0854510961286574
653.0, 0.09694208392359836
654.0, 0.10242899890802566
655.0, 0.10753777529061782
656.0, 0.11548932805970305
657.0, 0.11883117544577822
658.0, 0.12546224549015614
659.0, 0.1338739195651167
660.0, 0.14362609777263557
661.0, 0.15508387858040276
662.0, 0.17333559926976194
663.0, 0.19871520709794482
664.0, 0.22992580787289854
665.0, 0.26457237457572624
666.0, 0.3183773696016551
667.0, 0.3837322851448937
668.0, 0.46564074173431436
669.0, 0.5680229179034589
670.0, 0.6907810599036583
671.0, 0.803021508498852
672.0, 0.9063743227723102
673.0, 0.9888469624391318
674.0, 0.9986647771934175
675.0, 0.9790349220241998
676.0, 0.9007431615273064
677.0, 0.7827804898128129
678.0, 0.6706867796398133
679.0, 0.5580634974833024
680.0, 0.4643521748589602
681.0, 0.38327790067769657
682.0, 0.3091441339534967
683.0, 0.25801024559356067
684.0, 0.21345696692684427
685.0, 0.17773882674303437
686.0, 0.15095730848580272
687.0, 0.12985718551146241
688.0, 0.11192848131946825
689.0, 0.10012605215539888
690.0, 0.0913165227012134
691.0, 0.07923070058698674
692.0, 0.06986399561781931
693.0, 0.06303666760351688
694.0, 0.057386819947022466
695.0, 0.05179568286704523
696.0, 0.04678774385544529
697.0, 0.04448522876185895
698.0, 0.04249527347327184
699.0, 0.03952470875122505
700.0, 0.03429475697045469
701.0, 0.032347729776307545
702.0, 0.02999679421870271
703.0, 0.028053753335586615
704.0, 0.028172569220994852
705.0, 0.025520038311528707
706.0, 0.023636814784074124
707.0, 0.02287387498336525
708.0, 0.02326137433192213
709.0, 0.023836792684896094
710.0, 0.02923834812379851
711.0, 0.03447477951168277
712.0, 0.03886886376550634
713.0, 0.0437525167092975
714.0, 0.04128214590951355
715.0, 0.036715034098211384
716.0, 0.03132908074274795
717.0, 0.026050723731698765
718.0, 0.020363672890971293
719.0, 0.019185433754331214
720.0, 0.016835167432706886
721.0, 0.01265060267332485
722.0, 0.012141012004438501
723.0, 0.011053453460316469
724.0, 0.01106896393860398
725.0, 0.011114624846702014
726.0, 0.009507057717659556
727.0, 0.007269479742511067
728.0, 0.008645731375762496
729.0, 0.012126523103797904
730.0, 0.014923280034751359
731.0, 0.007932916774416038
732.0, 0.009610748483968586
733.0, 0.009851147828028302
734.0, 0.00994962577130341
735.0, 0.015704520217646813
736.0, 0.013387203984655136
737.0, 0.01122671574356846
738.0, 0.012334326651488047
739.0, 0.017550532533349584
740.0, 0.01854929932797236
741.0, 0.018834665471733222
742.0, 0.01954500170776089
743.0, 0.020547141121422852
744.0, 0.02089590070350242
745.0, 0.02352103028087504
746.0, 0.02798478552270741
747.0, 0.03191294234451954
748.0, 0.0336186391094079
749.0, 0.03591078466884415
750.0, 0.035594337485618875
751.0, 0.03519962276247547
752.0, 0.03547547214127537
753.0, 0.03624789094878349
754.0, 0.02886641981130801
755.0, 0.02437037917381494
756.0, 0.020955998579364792
757.0, 0.016676406254086628
758.0, 0.016579199366800603
759.0, 0.015270862248289914
760.0, 0.011998845460509151
761.0, 0.008477999551911282
762.0, 0.009683596313526655
763.0, 0.008041869849976006
764.0, 0.006491210523232131
765.0, 0.005090788951736964
766.0, 0.0038469917209567103
767.0, 0.004404083614023584
768.0, 0.004094544654702533
769.0, 0.002898372639092665
770.0, 0.002053177715252915
771.0, 0.004568655795057606
772.0, 0.001966134708166616
773.0, 0.001343669579511413
774.0, 0.002312852392281245
775.0, 0.0035747171245558897
776.0, 0.0009844991007666253
777.0, 0.0024342970952509744
778.0, 0.0030750805599220783
779.0, 0.0021678458692913857
780.0, 0.0014251230009620182
781.0, 0.0015160794724830414
782.0, 0.001593942320603332
783.0, 0.0017046847160552166
784.0, 0.001868714901218332
785.0, 0.0017761745692326703
786.0, 0.0006397503885471454
787.0, 0.0005508431492942587
788.0, 0.0012184275698158915
789.0, 0.0011255102789159213
790.0, 0.0016321303479664771
791.0, 0.0009278527608514975
792.0, 0.0009626586551616692
793.0, 0.002234387472276152
794.0, 0.0008329608916818022
795.0, 0.0015015824129043917
796.0, 0.001622389710174313
797.0, 0.0019636838824465094
798.0, 0.004103991971073705
799.0, 0.0009335420994772505
800.0, 0.0013339390325550033
801.0, 0.001871956152947364
802.0, 0.0011819909562726372
803.0, 0.0005568213874063103
804.0, 0.0018781004200972727
805.0, 0.0014187240566293276
806.0, 0.000328868778381544
807.0, 0.00032582781681659895
808.0, 0.0015358463355811397
809.0, 0.002938767720089258
810.0, 0.0024465907279287175
811.0, 0.001137191065341867
812.0, 0.0029935632030924616
813.0, 0.0021104782898173076
814.0, 0.0009719382543037629
815.0, 0.0013722145071471798
816.0, 0.0033820214995286093
817.0, 0.0006977507172066561
818.0, 0.0017157468446735956
819.0, 0.0018419971737548431
820.0, 0.0013048625817680363
821.0, 0.0017587183091400229
822.0, 0.0016480217746189449
823.0, 0.001438673698608446
824.0, 0.0009543637485760784
825.0, 0.0003340374019029555
826.0, 0.0002264467765109746
827.0, 0.0005218362480883085
828.0, 0.00048542504376610944
829.0, 0.0005926381275037348
830.0, 0.0013807018353039792
831.0, 0.0032387534591055644
832.0, 0.0018308085163536254
833.0, 0.002680313802326948
834.0, 0.004286991994500532
835.0, 0.0018593269879041633
836.0, 0.0021145991096690473
837.0, 0.001132512063267242
838.0, 0.00045624752374364796
839.0, 0.0007442938194775159
840.0, 0.0014128193581087324
841.0, 0.002768515522209634
842.0, 0.0030576181521823078
843.0, 0.002967271744657886
844.0, 0.0033994359566876017
845.0, 0.004818749163935483
846.0, 0.0053298060583559514
847.0, 0.004064183823234832
848.0, 0.002789208626850138
849.0, 0.004623541848945804
850.0, 0.004945135846136776
851.0, 0.003960918871958224
852.0, 0.004811276540614194
853.0, 0.007181173457509399
854.0, 0.00552647039613622
855.0, 0.006944060377147622
856.0, 0.007417742690711907
857.0, 0.00781743479869773
858.0, 0.008880865776769394
859.0, 0.008981898581010273
860.0, 0.00945343002433384
861.0, 0.01038022400818808
862.0, 0.011027896035207426
863.0, 0.010531559855058853
864.0, 0.011291952326441179
865.0, 0.011195952056798068
866.0, 0.009283842884914023
867.0, 0.007255520517925209
868.0, 0.009554904605283042
869.0, 0.012926196682998877
870.0, 0.011675434465625736
871.0, 0.011574701807484778
872.0, 0.013653490000803141
873.0, 0.007372533592723948
874.0, 0.0070663007404769
875.0, 0.00738703069915205
876.0, 0.008363092851981644
877.0, 0.010025447638211539
878.0, 0.008143607932135075
879.0, 0.007001719922823528
880.0, 0.009413859181806525
881.0, 0.011713519674451061
882.0, 0.008282113391442551
883.0, 0.009704477691586569
884.0, 0.008557771573393911
885.0, 0.009607753568962313
886.0, 0.012038725534692861
887.0, 0.010154450450328086
888.0, 0.010434730228893007
889.0, 0.0074286217555244805
890.0, 0.007823130624238329
891.0, 0.012285782064352975
892.0, 0.009958739557052369
893.0, 0.009878475858493448
894.0, 0.01041609135445274
895.0, 0.00976843575975035
896.0, 0.007899021165704663
897.0, 0.011751554777051164
898.0, 0.008858677985555053
899.0, 0.007273656517771086
900.0, 0.008919405159791902
901.0, 0.013313089597261463
902.0, 0.011645621526905472
903.0, 0.009796471240034325
904.0, 0.011132388932721688
905.0, 0.012273086575929905
906.0, 0.007272777535878924
907.0, 0.0073732711151969195
908.0, 0.0090198525750714
909.0, 0.01008369144709156
910.0, 0.010579348333302405
911.0, 0.012227951582483713
912.0, 0.011018386434047723
913.0, 0.011091302611691823
914.0, 0.010586271955768277
915.0, 0.009674857530434323
916.0, 0.011546251817839732
917.0, 0.013839559415657907
918.0, 0.013230052146201095
919.0, 0.013548360811235293
920.0, 0.016394624982157605
921.0, 0.017596594948201396
922.0, 0.018385077568157795
923.0, 0.019872707406059772
924.0, 0.023332021293627252
925.0, 0.028925571991715332
926.0, 0.033001976528752974
927.0, 0.03708440874724302
928.0, 0.04003531155880027
929.0, 0.042433495442616646
930.0, 0.04503026157109938
931.0, 0.04747351624223056
932.0, 0.04714848944116704
933.0, 0.044760238011244305
934.0, 0.04119164630145178
935.0, 0.03718846921426614
936.0, 0.030615554233597797
937.0, 0.027892733021336973
938.0, 0.023824163624247243
939.0, 0.020291853545036202
940.0, 0.021318334005206063
941.0, 0.019625740635788282
942.0, 0.016788511734030558
943.0, 0.014561689000618203
944.0, 0.013663840218632614
945.0, 0.014170278904259278
946.0, 0.014028870833851407
947.0, 0.016150870260342585
948.0, 0.015230100977824531
949.0, 0.013655043192739798
950.0, 0.018837789477627723
951.0, 0.011349836442351026
952.0, 0.010929109387285526
953.0, 0.012052677873759072
954.0, 0.012170426100481828
955.0, 0.011104548337696354
956.0, 0.008296728154608865
957.0, 0.007324252852978458
958.0, 0.0076229305944326906
959.0, 0.00837242890387348
960.0, 0.008454581981999788
961.0, 0.00724735013745526
962.0, 0.00831364270882476
963.0, 0.00869916067028778
964.0, 0.00760091983800949
965.0, 0.006664076332827267
966.0, 0.0075948529691430375
967.0, 0.006132590194830694
968.0, 0.005611649443512414
969.0, 0.005883409618917937
970.0, 0.0023995322532676788
971.0, 0.003945120307593477
972.0, 0.005200242827449221
973.0, 0.004598896424914257
974.0, 0.0022591015947589395
975.0, 0.0002946450402315161
976.0, 0.0025566577762094495
977.0, 0.003730149920824885
978.0, 0.004586718813489276
979.0, 0.005094503468025595
980.0, 0.004051682643494636
981.0, 0.004115101768055953
982.0, 0.005680569533223489
983.0, 0.004495838386724664
984.0, 0.0023118799097769007
985.0, 0.008051696327975387
986.0, 0.00436469813855933
987.0, 0.004929768987149564
988.0, 0.006260002440324594
989.0, 0.006030275569314059
990.0, 0.003407539863475391
991.0, 0.00595612336364702
992.0, 0.00733433279787486
993.0, 0.006747744402676763
994.0, 0.005303405883109139
995.0, 0.005828516995668847
996.0, 0.003918384614991435
997.0, 0.007149117118646069
998.0, 0.008589843215632588
999.0, 0.008168839851681252
1000.0, 0.01131799801568872
1001.0, 0.019718994478556635
1002.0, 0.020411403640012624
1003.0, 0.019899480251369377
1004.0, 0.019177937489071782
1005.0, 0.01601827279850845
1006.0, 0.015012179518345251
1007.0, 0.013635372138994272
1008.0, 0.014182481970011894
1009.0, 0.016120132378443803
1010.0, 0.01771075608989405
1011.0, 0.02117521631113613
1012.0, 0.020075556194976637
1013.0, 0.022514267686983436
1014.0, 0.026126508155158122
1015.0, 0.025928317239707854
1016.0, 0.028723240661429394
1017.0, 0.03190530342770243
1018.0, 0.03721498473018917
1019.0, 0.04269646836928679
1020.0, 0.04693703273040565
1021.0, 0.05667230543496956
1022.0, 0.06184803076491215
1023.0, 0.07158367144849902
1024.0, 0.08435506847024003
1025.0, 0.09730471107346143
1026.0, 0.11043376448735122
1027.0, 0.1223275082413433
1028.0, 0.13124955668730054
1029.0, 0.13634950878760088
1030.0, 0.14025846940742334
1031.0, 0.15270171346613223
1032.0, 0.12994713139885994
1033.0, 0.11297992256360342
1034.0, 0.09385037033040532
1035.0, 0.07233684023303176
1036.0, 0.06278607051942597
1037.0, 0.051886320381252564
1038.0, 0.04686684856085366
1039.0, 0.04180507231689699
1040.0, 0.037419545671723474
1041.0, 0.039747310805042346
1042.0, 0.03513244783409498
1043.0, 0.034432529360468304
1044.0, 0.03435147068088322
1045.0, 0.033542819718833966
1046.0, 0.032274878641546524
1047.0, 0.03596805753628624
1048.0, 0.0404376623411518
1049.0, 0.043262776139847324
1050.0, 0.04830157798935353
1051.0, 0.05814495184958408
1052.0, 0.060801288328011155
1053.0, 0.06879995516468443
1054.0, 0.08214360010842293
1055.0, 0.09204437604297107
1056.0, 0.09506059270652692
1057.0, 0.10416503351652592
1058.0, 0.09895397179449038
1059.0, 0.10366937874554624
1060.0, 0.1059337201114164
1061.0, 0.1017181333814197
1062.0, 0.10104409535764006
1063.0, 0.09661101524465616
1064.0, 0.09808793223212184
1065.0, 0.10461757346787973
1066.0, 0.11136778856931556
1067.0, 0.11189506851900968
1068.0, 0.1124433261054739
1069.0, 0.11167362064832623
1070.0, 0.10604674594011346
1071.0, 0.09469804009468519
1072.0, 0.08058094799941541
1073.0, 0.07907861149904043
1074.0, 0.06908609364568008
1075.0, 0.06465337687911828
1076.0, 0.06282618161912945
1077.0, 0.06012687621517111
1078.0, 0.058167874672207645
1079.0, 0.06600199429427951
1080.0, 0.07158900771623258
1081.0, 0.0860740495913252
1082.0, 0.11734716424755309
1083.0, 0.16959451990921354
1084.0, 0.287693303006647
1085.0, 0.449070829276761
1086.0, 0.5319471836109031
1087.0, 0.49985321452677234
1088.0, 0.373283832256584
1089.0, 0.23495162675799047
1090.0, 0.1461153745388303
1091.0, 0.09476853855273165
1092.0, 0.06728783604872059
1093.0, 0.05034804149960409
1094.0, 0.03543490448732915
1095.0, 0.03200382383195038
1096.0, 0.027306281060291187
1097.0, 0.02349059417299166
1098.0, 0.02134973042871371
1099.0, 0.01938444657209084
1100.0, 0.01760768472686385
1101.0, 0.017128303228334894
1102.0, 0.015510545780405253
1103.0, 0.013703900858010494
1104.0, 0.01369470832237441
1105.0, 0.014903294473059003
1106.0, 0.016087617717525097
1107.0, 0.012303144544384852
1108.0, 0.010653384260883438
1109.0, 0.013218438051464755
1110.0, 0.008940446464323955
1111.0, 0.010471704473620396
1112.0, 0.011939360650805347
1113.0, 0.011309245686759712
1114.0, 0.009938317343725491
1115.0, 0.010978985251062045
1116.0, 0.010333907843903943
1117.0, 0.00891865341447564
1118.0, 0.009897621991835854
1119.0, 0.009920973375911664
1120.0, 0.00708680045028786
1121.0, 0.009171948069893172
1122.0, 0.01189231806955965
1123.0, 0.009257998632843252
1124.0, 0.00797557612579233
1125.0, 0.00864487086885219
1126.0, 0.004978332087231045
1127.0, 0.005235805164552692
1128.0, 0.006054015581406222
1129.0, 0.00631940670401207
1130.0, 0.006287605373475344
1131.0, 0.005912151744842781
1132.0, 0.0018177762813421558
1133.0, 0.003199511075075572
1134.0, 0.00679708359084947
1135.0, 0.005640728109885697
1136.0, 0.0014605794106377897
1137.0, 0.006246039272872658
1138.0, 0.0021715013651126477
1139.0, 0.0037831867097963302
1140.0, 0.0035851862356061043
1141.0, 0.0018493835156641182
1142.0, 0.0017453229701079932
1143.0, 0.003596103127063186
1144.0, 0.0010657426420697092
1145.0, 0.0030382322042435215
1146.0, 0.0046823801879350155
1147.0, 0.003223430668043908
1148.0, 0.0008801180449198871
1149.0, 0.0024927362682884537
1150.0, 0.0050439158136018234
1151.0, 0.005394175645432097
1152.0, 0.0034580017882759407
1153.0, 0.0013509908600224249
1154.0, 0.004153171974704191
1155.0, 0.001310274046072615
1156.0, 0.0010815629730126838
1157.0, 0.0021727943198920656
1158.0, 0.0025453910153041878
1159.0, 0.0009886653034089424
1160.0, 0.0034828095399852257
1161.0, 0.001789327574597314
1162.0, 0.001675561958188924
1163.0, 0.002228457443699069
1164.0, 0.0013479292088018563
1165.0, 0.00018003064523799213
1166.0, 0.0021154526160027465
1167.0, 0.0048578047605876635
1168.0, 0.004974348071174362
1169.0, 0.0036161368743592047
1170.0, 0.004549079985880063
1171.0, 0.000652735945326655
1172.0, 0.0024982206934666216
1173.0, 0.0027037229454935823
1174.0, 0.0015408452999620566
1175.0, 0.0012179478772747514
1176.0, 0.003948248399324001
1177.0, 0.006008016500078558
1178.0, 0.0023086907942362987
1179.0, 0.0018258965782844115
1180.0, 0.0036525517869030123
1181.0, 0.002735376631764822
1182.0, 0.0004165395294001117
1183.0, 0.0012689774395030955
1184.0, 0.0023998953104176464
1185.0, 0.0025029463427816666
1186.0, 0.0024320209918493605
1187.0, 0.004417354502625651
1188.0, 0.0011783212055708674
1189.0, 0.0029746073271827347
1190.0, 0.0034261040921939783
1191.0, 0.002239376457096612
1192.0, 0.0014540010596318135
1193.0, 0.003951058207561578
1194.0, 0.0014466212949389467
1195.0, 0.002456832656905112
1196.0, 0.003583595267998642
1197.0, 0.003013118651625956
1198.0, 0.0015049830204180077
1199.0, 0.0056561638258841975
1200.0, 0.003479887417436095
1201.0, 0.004076199033377378
1202.0, 0.005143024378263002
1203.0, 0.004770177958778625
1204.0, 0.0032648842731045663
1205.0, 0.00492899948799436
1206.0, 0.0035242532813728918
1207.0, 0.0025135748094872877
1208.0, 0.002907926731046679
1209.0, 0.003540217947278839
1210.0, 0.0009850003922205496
1211.0, 0.00031227050993495333
1212.0, 0.00397540658638751
1213.0, 0.003675652597859662
1214.0, 0.0017380628195056474
1215.0, 0.0033205700355368887
1216.0, 0.00833097683761106
1217.0, 0.003320258776703561
1218.0, 0.003003825806842469
1219.0, 0.0046933527982015565
1220.0, 0.004987555071399212
1221.0, 0.0029228479286673853
1222.0, 0.007690898268057205
1223.0, 0.004827762507030028
1224.0, 0.002442453130086479
1225.0, 0.002727723740219296
1226.0, 0.003808271809556888
1227.0, 0.0022751016640475898
1228.0, 0.008655860284230144
1229.0, 0.003495129222937988
1230.0, 0.004906804913083117
1231.0, 0.00823310199688748
1232.0, 0.007622087747391701
1233.0, 0.0031911455490308085
1234.0, 0.007508053072782496
1235.0, 0.00617902889540979
1236.0, 0.008905919191184749
1237.0, 0.010545494768368696
1238.0, 0.008333826345575425
1239.0, 0.011562720301587103
1240.0, 0.00499095800288976
1241.0, 0.007574492395610538
1242.0, 0.0067538301184273146
1243.0, 0.0056558998308811025
1244.0, 0.008561191211172305
1245.0, 0.0066043805869970724
1246.0, 0.00578796330700387
1247.0, 0.008604210803075003
1248.0, 0.008956927317953035
1249.0, 0.005987599825736682
1250.0, 0.003301353498950153
1251.0, 0.008510533580710078
1252.0, 0.005234935192534282
1253.0, 0.006392000509316216
1254.0, 0.008918253392800288
1255.0, 0.009137389695355729
1256.0, 0.0060953863030157335
1257.0, 0.0075880663513915895
1258.0, 0.009517212822815277
1259.0, 0.010440289789585964
1260.0, 0.011878908509882147
1261.0, 0.013275280020575217
1262.0, 0.013009717916774112
1263.0, 0.011993357426166813
1264.0, 0.013739810185410133
1265.0, 0.010932663637045108
1266.0, 0.010060349165857938
1267.0, 0.011783655372473037
1268.0, 0.011658717097037249
1269.0, 0.008478692363016698
1270.0, 0.0117415903352287
1271.0, 0.011312324442605454
1272.0, 0.009639000576743478
1273.0, 0.009460720195343629
1274.0, 0.011646808564345312
1275.0, 0.013205001550641733
1276.0, 0.00920606039601838
1277.0, 0.008910821127623748
1278.0, 0.0096168703570145
1279.0, 0.010512753564006733
1280.0, 0.012375227016424486
1281.0, 0.009951190545131331
1282.0, 0.008404543323097565
1283.0, 0.009437079063607842
1284.0, 0.009241179964328258
1285.0, 0.006985056999113618
1286.0, 0.005263976880545671
1287.0, 0.008371857377900197
1288.0, 0.005392725246887365
1289.0, 0.008089908705285333
1290.0, 0.009582330668526253
1291.0, 0.007035053186569017
1292.0, 0.00392002016439071
1293.0, 0.009876808067294334
1294.0, 0.005920769592845399
1295.0, 0.004659684310437577
1296.0, 0.007458273285336422
1297.0, 0.008008627188528905
1298.0, 0.001625877097515
1299.0, 0.004526368283969134
1300.0, 0.008946867170946345
1301.0, 0.008542446037139648
1302.0, 0.007217838351218381
1303.0, 0.005584084123798287
1304.0, 0.0030768743909763323
1305.0, 0.002673394448592402
1306.0, 0.00746958852801776
1307.0, 0.0032263624147046395
1308.0, 0.00788651945180878
1309.0, 0.012518416802947355
1310.0, 0.006239114125081761
1311.0, 0.005358044957535285
1312.0, 0.010323559241329248
1313.0, 0.007865387048540742
1314.0, 0.005824253885608328
1315.0, 0.010363717974122322
1316.0, 0.01716881893592548
1317.0, 0.008110229945677538
1318.0, 0.011429556527993281
1319.0, 0.011588964507028425
1320.0, 0.007033080716539541
1321.0, 0.006257044191189846
1322.0, 0.009811711274634248
1323.0, 0.005853130222343052
1324.0, 0.0038132504797660947
1325.0, 0.011012427239963358
1326.0, 0.008195708713791555
1327.0, 0.004252600727917195
1328.0, 0.006234065647488437
1329.0, 0.010879725893230751
1330.0, 0.002247654014292602
1331.0, 0.004196527713663276
1332.0, 0.006707977651675
1333.0, 0.004639826575878346
1334.0, 0.0025622363015888492
1335.0, 0.00652680183239282
1336.0, 0.005390961602046104
1337.0, 0.005627475412195702
1338.0, 0.0055521460420116485
1339.0, 0.005652465162484105
1340.0, 0.0061280236097637115
1341.0, 0.0067816785881832
1342.0, 0.006971959143148096
1343.0, 0.002558510812864067
1344.0, 0.006147020884436858
1345.0, 0.00728255290055495
1346.0, 0.005829445736549196
1347.0, 0.005857028305142591
1348.0, 0.010564126968468987
1349.0, 0.009410908175892999
1350.0, 0.0057470780686549915
1351.0, 0.010477579161915978
1352.0, 0.010823957111140217
1353.0, 0.005507829390134193
1354.0, 0.005067092661148421
1355.0, 0.009511983292510184
1356.0, 0.0019751587977220693
1357.0, 0.010286223197321876
1358.0, 0.010895355410512309
1359.0, 0.005480114658129758
1360.0, 0.006180275225092834
1361.0, 0.010659559495208932
1362.0, 0.007115055087623367
1363.0, 0.0055135198861346706
1364.0, 0.00568798613671243
1365.0, 0.010102210932131457
1366.0, 0.013317999198406
1367.0, 0.0036657378416183597
1368.0, 0.003164972793716498
1369.0, 0.001760104321780385
1370.0, 0.0061402933373574135
1371.0, 0.007419859855387154
1372.0, 0.006047065141499945
1373.0, 0.00825387251860622
1374.0, 0.010114930027263077
1375.0, 0.0022152596819211556
1376.0, 0.0012506276315776851
1377.0, 0.006606910050668972
1378.0, 0.008380967347298707
1379.0, 0.005736181447677464
1380.0, 0.014414598988267838
1381.0, 0.014335149057730832
1382.0, 0.010125451098336676
1383.0, 0.013608085156924223
1384.0, 0.013860799622780333
1385.0, 0.00952986725107375
1386.0, 0.009036877734378102
1387.0, 0.011553804197884814
1388.0, 0.009935668515905657
1389.0, 0.008951099096806352
1390.0, 0.011627072401567896
1391.0, 0.01152159737087683
1392.0, 0.007115267531836904
1393.0, 0.009868603637771211
1394.0, 0.010428955262666581
1395.0, 0.005271462929031841
1396.0, 0.010289676753233414
1397.0, 0.010518481872666383
1398.0, 0.00614224743122146
1399.0, 0.008613886913575073
1400.0, 0.007903316982210215
1401.0, 0.0027711611063572362
1402.0, 0.008375237484058521
1403.0, 0.01082553677079278
1404.0, 0.006526686130252953
1405.0, 0.00285058536769863
1406.0, 0.010663541713345007
1407.0, 0.0028929142950526736
1408.0, 0.0019048482531521145
1409.0, 0.007382734457233272
1410.0, 0.006494210315819538
1411.0, 0.0035776842141697187
1412.0, 0.007730338662643424
1413.0, 0.007294740863760803
1414.0, 0.001000745295374143
1415, 0.0
1416, 0.0
1417, 0.0
1418, 0.0
1419, 0.0
1420, 0.0
1421, 0.0
1422, 0.0
1423, 0.0
1424, 0.0
1425, 0.0
1426, 0.0
1427, 0.0
1428, 0.0
1429, 0.0
1430, 0.0
1431, 0.0
1432, 0.0
1433, 0.0
1434, 0.0
1435, 0.0
1436, 0.0
1437, 0.0
1438, 0.0
1439, 0.0
1440, 0.0
1441, 0.0
1442, 0.0
1443, 0.0
1444, 0.0
1445, 0.0
1446, 0.0
1447, 0.0
1448, 0.0
1449, 0.0
1450, 0.0
1451, 0.0
1452, 0.0
1453, 0.0
1454, 0.0
1455, 0.0
1456, 0.0
1457, 0.0
1458, 0.0
1459, 0.0
1460, 0.0
1461, 0.0
1462, 0.0
1463, 0.0
1464, 0.0
1465, 0.0
1466, 0.0
1467, 0.0
1468, 0.0
1469, 0.0
1470, 0.0
1471, 0.0
1472, 0.0
1473, 0.0
1474, 0.0
1475, 0.0
1476, 0.0
1477, 0.0
1478, 0.0
1479, 0.0
1480, 0.0
1481, 0.0
1482, 0.0
1483, 0.0
1484, 0.0
1485, 0.0
1486, 0.0
1487, 0.0
1488, 0.0
1489, 0.0
1490, 0.0
1491, 0.0
1492, 0.0
1493, 0.0
1494, 0.0
1495, 0.0
1496, 0.0
1497, 0.0
1498, 0.0
1499, 0.0
1500, 0.0
1501, 0.0
1502, 0.0
1503, 0.0
1504, 0.0
1505, 0.0
1506, 0.0
1507, 0.0
1508, 0.0
1509, 0.0
1510, 0.0
1511, 0.0
1512, 0.0
1513, 0.0
1514, 0.0
1515, 0.0
1516, 0.0
1517, 0.0
1518, 0.0
1519, 0.0
1520, 0.0
1521, 0.0
1522, 0.0
1523, 0.0
1524, 0.0
1525, 0.0
1526, 0.0
1527, 0.0
1528, 0.0
1529, 0.0
1530, 0.0
1531, 0.0
1532, 0.0
1533, 0.0
1534, 0.0
1535, 0.0
1536, 0.0
1537, 0.0
1538, 0.0
1539, 0.0
1540, 0.0
1541, 0.0
1542, 0.0
1543, 0.0
1544, 0.0
1545, 0.0
1546, 0.0
1547, 0.0
1548, 0.0
1549, 0.0
1550, 0.0
1551, 0.0
1552, 0.0
1553, 0.0
1554, 0.0
1555, 0.0
1556, 0.0
1557, 0.0
1558, 0.0
1559, 0.0
1560, 0.0
1561, 0.0
1562, 0.0
1563, 0.0
1564, 0.0
1565, 0.0
1566, 0.0
1567, 0.0
1568, 0.0
1569, 0.0
1570, 0.0
1571, 0.0
1572, 0.0
1573, 0.0
1574, 0.0
1575, 0.0
1576, 0.0
1577, 0.0
1578, 0.0
1579, 0.0
1580, 0.0
1581, 0.0
1582, 0.0
1583, 0.0
1584, 0.0
1585, 0.0
1586, 0.0
1587, 0.0
1588, 0.0
1589, 0.0
1590, 0.0
1591, 0.0
1592, 0.0
1593, 0.0
1594, 0.0
1595, 0.0
1596, 0.0
1597, 0.0
1598, 0.0
1599, 0.0
