30, 0.0
31, 0.0
32, 0.0
33, 0.0
34, 0.0
35, 0.0
36, 0.0
37, 0.0
38, 0.0
39, 0.0
40, 0.0
41, 0.0
42, 0.0
43, 0.0
44, 0.0
45, 0.0
46, 0.0
47, 0.0
48, 0.0
49, 0.0
50, 0.0
51, 0.0
52, 0.0
53, 0.0
54, 0.0
55, 0.0
56, 0.0
57, 0.0
58, 0.0
59, 0.0
60, 0.0
61, 0.0
62, 0.0
63, 0.0
64, 0.0
65, 0.0
66, 0.0
67, 0.0
68, 0.0
69, 0.0
70, 0.0
71, 0.0
72, 0.0
73, 0.0
74, 0.0
75, 0.0
76, 0.0
77, 0.0
78, 0.0
79, 0.0
80, 0.0
81, 0.0
82, 0.0
83, 0.0
84, 0.0
85, 0.0
86, 0.0
87, 0.0
88, 0.0
89, 0.0
90, 0.0
91, 0.0
92, 0.0
93, 0.0
94, 0.0
95, 0.0
96, 0.0
97, 0.0
98, 0.0
99, 0.0
100, 0.0
101, 0.0
102, 0.0
103, 0.0
104, 0.0
105, 0.0
106, 0.0
107, 0.0
108, 0.0
109, 0.0
110, 0.0
111, 0.0
112, 0.0
113, 0.0
114, 0.0
115, 0.0
116, 0.0
117, 0.0
118, 0.0
119, 0.0
120, 0.0
121, 0.0
122, 0.0
123, 0.0
124, 0.0
125, 0.0
126, 0.0
127, 0.0
128, 0.0
129, 0.0
130, 0.0
131, 0.0
132, 0.0
133, 0.0
134, 0.0
135, 0.0
136, 0.0
137, 0.0
138.0, 9.905172114395745e-07
139.0, 8.220569849684624e-06
140.0, 0.0002785018193204616
141.0, 0.0004321656082229439
142.0, 0.0002477585239922979
143.0, 0.000296831015829259
144.0, 0.00021448714879528216
145.0, 0.00013702498115194113
146.0, 0.00035498268100139606
147.0, 0.0005136697588840864
148.0, 0.0005114758208740338
149.0, 0.0003722681298829802
150.0, 0.0005529386572396082
151.0, 0.0005203370740167057
152.0, 0.00039654788966472223
153.0, 0.00026366568695255886
154.0, 0.0001863755211976301
155.0, 0.00010385488728184938
156.0, 2.864764791071221e-05
157.0, 8.696738576857608e-06
158.0, 2.1102745643791017e-05
159.0, 4.854832822238234e-05
160.0, 9.593909302552049e-05
161.0, 0.00030560426545499594
162.0, 0.00039931515830765433
163.0, 0.00043813107521774064
164.0, 0.00047618830740292717
165.0, 0.0003810127903362055
166.0, 0.00021177377477009601
167.0, 6.245785328509823e-05
168.0, 0.000269119636477858
169.0, 0.00024422756557390516
170.0, 0.00025504080632276474
171.0, 0.0004053461733231315
172.0, 0.0006152065447611961
173.0, 0.0006135364697354973
174.0, 0.0006233138560893535
175.0, 0.0009339753320788938
176.0, 0.0009317474421167784
177.0, 0.0011406585460173087
178.0, 0.0014979851083829448
179.0, 0.0015051607515669924
180.0, 0.0022648426613510954
181.0, 0.00295215115623895
182.0, 0.003238662926823181
183.0, 0.003971655490041021
184.0, 0.004222048253216642
185.0, 0.004185781609058207
186.0, 0.004066444571878862
187.0, 0.004034941381314426
188.0, 0.0036271981763821466
189.0, 0.0028892587401943256
190.0, 0.0021985623621887194
191.0, 0.0016423978694137498
192.0, 0.0012707224383571942
193.0, 0.0011062319964309703
194.0, 0.000817315972531635
195.0, 0.0007852451014992279
196.0, 0.0007966507831131389
197.0, 0.0005938296673690208
198.0, 0.0004830566075159988
199.0, 0.00031832027711366803
200.0, 0.00014055572117431986
201.0, 0.00015322512026061082
202.0, 0.00032649614987642845
203.0, 0.0005096512562819091
204.0, 0.0006299587595776368
205.0, 0.00036962976660104616
206.0, 0.00020758826203725372
207.0, 0.00018504754065840995
208.0, 0.00037049780782522367
209.0, 0.00032629143881182817
210.0, 0.00022380919084921295
211.0, 0.00012408506258089225
212.0, 0.00017082312315177807
213.0, 0.00011838688797385234
214.0, 9.766442102949529e-05
215.0, 0.0001494156027083489
216.0, 0.0003062742427613891
217.0, 0.00018552578919452892
218.0, 6.333410906595207e-05
219.0, 0.00014848571513167261
220.0, 9.323162742756391e-05
221.0, 4.3571810500124914e-05
222.0, 5.4156508526576616e-05
223.0, 0.0002397565262198881
224.0, 0.0003635297692631821
225.0, 0.0003702731287123124
226.0, 0.0002742368295922294
227.0, 0.00021587594861328924
228.0, 0.00012035000742449358
229.0, 7.255905833475086e-05
230.0, 0.00011658465007931704
231.0, 0.00016307410036525344
232.0, 0.0001495590360876011
233.0, 0.00011765259645356443
234.0, 0.00011791191163954114
235.0, 7.743449808000933e-05
236.0, 3.532428920012738e-05
237.0, 5.783618475864864e-05
238.0, 0.00035659838923827276
239.0, 0.0003037857630459674
240.0, 0.00027130060487890183
241.0, 0.00036339153253796497
242.0, 0.0005214735628811259
243.0, 0.0006172845812426266
244.0, 0.0007041763103849194
245.0, 0.0008191057120198212
246.0, 0.0009341039660859955
247.0, 0.0007349911827054654
248.0, 0.0004151371097868379
249.0, 0.0002991561606584351
250.0, 0.00046625138486228326
251.0, 0.0005469033072072464
252.0, 0.0005202887754573514
253.0, 0.0005056233990304867
254.0, 0.0005599227570979217
255.0, 0.0005887947221250863
256.0, 0.0005682917073353841
257.0, 0.0006526099872942877
258.0, 0.0006180252880624174
259.0, 0.0006446767633507465
260.0, 0.0008901224870694238
261.0, 0.0009100079623868232
262.0, 0.0009681974886003319
263.0, 0.0011687610035908034
264.0, 0.001717793084611239
265.0, 0.001359586168574565
266.0, 0.0012135600462688779
267.0, 0.0014292229464144544
268.0, 0.0019495013596672942
269.0, 0.001963285439402604
270.0, 0.002154096808587055
271.0, 0.002729231501860182
272.0, 0.003075857082833365
273.0, 0.0033713408845748097
274.0, 0.003923389973703982
275.0, 0.004997755843678328
276.0, 0.005683473520065555
277.0, 0.00678830726091909
278.0, 0.008301371914791933
279.0, 0.010241396275654171
280.0, 0.01322663359136028
281.0, 0.016819329713124106
282.0, 0.020872961730058273
283.0, 0.025117460913718834
284.0, 0.031228393488798835
285.0, 0.03784901317369843
286.0, 0.04467395014609627
287.0, 0.05228140882676473
288.0, 0.05631796011202363
289.0, 0.058891240051877604
290.0, 0.06104740499641012
291.0, 0.059626881746471766
292.0, 0.055502492374859574
293.0, 0.04913553429659423
294.0, 0.04079044928194174
295.0, 0.03442247847880124
296.0, 0.02875716798815549
297.0, 0.023745692377680257
298.0, 0.019551265043524547
299.0, 0.015621383876130938
300.0, 0.01297515551394663
301.0, 0.011389533168822165
302.0, 0.009056027226918437
303.0, 0.007724203585764229
304.0, 0.006772759358217966
305.0, 0.0059811816105157685
306.0, 0.005242808658313545
307.0, 0.004798243440324618
308.0, 0.004434223091425294
309.0, 0.004015517237675268
310.0, 0.0036828801091574746
311.0, 0.003568185265533674
312.0, 0.0034402213457045885
313.0, 0.0030052511013614895
314.0, 0.0027614102240077765
315.0, 0.0026146130568777516
316.0, 0.002471823429980518
317.0, 0.0021379663235619843
318.0, 0.002159320364566426
319.0, 0.0019594784516514456
320.0, 0.0015912770280662669
321.0, 0.0016623565644898694
322.0, 0.0018046887764411434
323.0, 0.001766501830012192
324.0, 0.0014999828107922673
325.0, 0.0013263373951191736
326.0, 0.00113062209833012
327.0, 0.0011545864756751843
328.0, 0.0015146203478995602
329.0, 0.0013549044094099665
330.0, 0.0012834518323105192
331.0, 0.001244077486214718
332.0, 0.0011861908292045006
333.0, 0.0011281488421626272
334.0, 0.001088340901464331
335.0, 0.0010595185647723471
336.0, 0.0010304300323214547
337.0, 0.0009882497625355365
338.0, 0.0009446980721268581
339.0, 0.0009009982473627757
340.0, 0.0008572384261268603
341.0, 0.0009651395916268824
342.0, 0.0010379519350030802
343.0, 0.001070623238368515
344.0, 0.0012016840487389729
345.0, 0.0008753998686309085
346.0, 0.0006202269400632093
347.0, 0.0005816503761178277
348.0, 0.0005083764652249794
349.0, 0.0006212253711284746
350.0, 0.0007434777703674884
351.0, 0.0007717632796689551
352.0, 0.0005087182545405771
353.0, 0.000470037625798298
354.0, 0.0005542037869814896
355.0, 0.0006866558372480579
356.0, 0.000642761230709414
357.0, 0.0006742266128809042
358.0, 0.0007076156844243502
359.0, 0.000649090359887957
360.0, 0.00044128927441716963
361.0, 0.00041605608065835845
362.0, 0.0005080885595293424
363.0, 0.0005708939671075901
364.0, 0.0003517822443693526
365.0, 0.00026444357840626223
366.0, 0.00031401652637617146
367.0, 0.00038751199034707523
368.0, 0.0004978064883887816
369.0, 0.0004588372693804531
370.0, 0.00026970305992405946
371.0, 7.923182367721374e-05
372.0, 0.000423837418105022
373.0, 0.0005948066994144169
374.0, 0.00045077879127742725
375.0, 0.0004936915080374108
376.0, 0.0005024130312381976
377.0, 0.00047627029693271403
378.0, 0.0004223262262277668
379.0, 0.00043653292516194483
380.0, 0.0005032251557110822
381.0, 0.00047120712438622833
382.0, 0.0002774780816654162
383.0, 0.0007446561593480908
384.0, 0.0007137372637594632
385.0, 0.0005137391091477215
386.0, 0.0004110966490017925
387.0, 0.0004547294152127923
388.0, 0.00037352089846248455
389.0, 0.0002494769251450634
390.0, 0.0001755684339531979
391.0, 0.00028204566007886773
392.0, 0.0003383658205396283
393.0, 0.00034172790963111165
394.0, 0.0002968758296274835
395.0, 0.0003688414588317925
396.0, 0.0004013648034149312
397.0, 0.00037870998368725575
398.0, 0.0002892244257494047
399.0, 0.00019995740121021385
400.0, 0.0002747161284255541
401.0, 0.00042957239931580213
402.0, 0.0003995412311112608
403.0, 0.0004978360551752177
404.0, 0.0004759757584567638
405.0, 0.0003680096211617661
406.0, 0.000431623903493774
407.0, 0.00031928885842016024
408.0, 0.00022712157122960504
409.0, 0.00017747158084421326
410.0, 6.940091432126137e-05
411.0, 8.470350922957008e-05
412.0, 0.0002393742952569184
413.0, 0.0004987194718031546
414.0, 0.0006304778656126294
415.0, 0.0006018260279777391
416.0, 0.0005656518356727551
417.0, 0.0005685963010170512
418.0, 0.0005386890029833762
419.0, 0.0005314500700883584
420.0, 0.00041825176246513163
421.0, 0.0002061353756818411
422.0, 0.0005587018506861353
423.0, 0.00047243112572039703
424.0, 0.00036178150448263447
425.0, 0.00044649502563089117
426.0, 0.0006963006979964924
427.0, 0.0007323089245060036
428.0, 0.0006365001558172185
429.0, 0.0004642036538077546
430.0, 0.00039003757398521096
431.0, 0.000534694428319664
432.0, 0.0006394223935600686
433.0, 0.0005264024597254684
434.0, 0.0005705170506313137
435.0, 0.0005634285077000661
436.0, 0.0005804831774463946
437.0, 0.0006800227806486618
438.0, 0.0005473107726147167
439.0, 0.00048408235316355145
440.0, 0.0004889713083045126
441.0, 0.0005616860018143574
442.0, 0.0004579467484755079
443.0, 0.00044223499323717725
444.0, 0.00046624715276197997
445.0, 0.0004803390032872785
446.0, 0.000427346717310328
447.0, 0.0004496911556948685
448.0, 0.0004563416578940417
449.0, 0.000342147551179096
450.0, 0.00045485014048192104
451.0, 0.00048692129548433754
452.0, 0.00042636648219629176
453.0, 0.00026359884303679053
454.0, 0.0005659982813309259
455.0, 0.00048517068060170037
456.0, 0.00036881832953358334
457.0, 0.0006971218441336967
458.0, 0.0006225495143669369
459.0, 0.0007197555363248499
460.0, 0.0007815027562417542
461.0, 0.0005002768938768926
462.0, 0.0008858152450227827
463.0, 0.0008458299939463347
464.0, 0.0005956564559403125
465.0, 0.0004914584045844423
466.0, 0.0006703079701639578
467.0, 0.0006310804545724902
468.0, 0.0005000902232357962
469.0, 0.0004844628357490138
470.0, 0.0006950455596573197
471.0, 0.0006764228035535917
472.0, 0.0004915153263967114
473.0, 0.0002541327970799874
474.0, 0.000328026536587026
475.0, 0.0004251710576824734
476.0, 0.0004717529499225255
477.0, 0.00038220225360517006
478.0, 0.000633112137849124
479.0, 0.0006480909671664873
480.0, 0.0005010753996720601
481.0, 0.00032303800320269624
482.0, 0.0005585260557883046
483.0, 0.0006504715015993108
484.0, 0.0005296478469686986
485.0, 0.00012897373812402447
486.0, 0.0005030699606243178
487.0, 0.00038290812113311564
488.0, 0.00016344345333863317
489.0, 0.000384613784595577
490.0, 0.0004613515593259759
491.0, 0.0005057821194788636
492.0, 0.0004408098253697773
493.0, 0.00017313728139929765
494.0, 0.00027069947827334563
495.0, 0.00046092337809089363
496.0, 0.0005231145686934162
497.0, 0.0002257615494365857
498.0, 0.0005189498927500224
499.0, 0.0005970650456244982
500.0, 0.00043418193365791575
501.0, 1.7887214994613733e-05
502.0, 0.00026010672050892045
503.0, 0.000498343045208134
504.0, 0.0005623868019991305
505.0, 0.00031267785226539414
506.0, 0.00021033895790571944
507.0, 0.00028991887532208886
508.0, 0.000346816080235128
509.0, 0.0002361546371529818
510.0, 0.00035374889550628596
511.0, 0.0004395811680593933
512.0, 0.0003814070710115845
513.0, 0.00012310846075160264
514.0, 3.48162321698404e-05
515.0, 0.00023648266246042158
516.0, 0.0003964534033978442
517.0, 0.00033126098357538964
518.0, 0.0002110662436934012
519.0, 0.0002892886890994733
520.0, 0.00037310890688977425
521.0, 0.0003542694106559826
522.0, 0.00014752910748316167
523.0, 0.00021180497985651974
524.0, 0.00035091831531763293
525.0, 0.0004282061723987079
526.0, 9.950724529505706e-05
527.0, 0.0001492365118860445
528.0, 0.00015752292571828507
529.0, 5.816657641923255e-05
530.0, 0.0002485082285367846
531.0, 0.00025645395078727846
532.0, 0.0002618658485050565
533.0, 0.00030620455242101683
534.0, 0.0003545069022439576
535.0, 0.0002932102378979681
536.0, 0.0002848739221508066
537.0, 0.00033104450108565285
538.0, 0.0003295101705672661
539.0, 0.000288897768381388
540.0, 0.00025914726263532786
541.0, 0.0002447074546805982
542.0, 0.00023702090567586498
543.0, 0.0002211421936231445
544.0, 0.00019979331024053156
545.0, 0.00019277068488909293
546.0, 0.00023592842106049704
547.0, 0.00016720493644200785
548.0, 0.00017369829567216366
549.0, 0.00020539641733867506
550.0, 0.00017364885761298168
551.0, 0.00027265581852685
552.0, 0.00031867508404475036
553.0, 0.00036209919440493166
554.0, 0.0004613700093308462
555.0, 0.00035535583667539673
556.0, 0.000310748128226232
557.0, 0.00022890268054993627
558.0, 4.780379854316515e-05
559.0, 0.00018020962211719182
560.0, 0.0002480931775015124
561.0, 0.00022506468691022507
562.0, 0.00011637233380628883
563.0, 0.00014459054086211976
564.0, 0.00011438023290002578
565.0, 0.00016758073531525998
566.0, 0.0003166011261459114
567.0, 0.00023835203152805122
568.0, 0.00014921912585463408
569.0, 0.00020839459446363976
570.0, 0.0003887892483470711
571.0, 0.000371413950392613
572.0, 0.0002912024741076465
573.0, 0.00016092043599627202
574.0, 4.652965730008089e-05
575.0, 0.00012328301736912845
576.0, 0.0003115769979863453
577.0, 0.00031951900444396266
578.0, 0.0002553372406560849
579.0, 0.0004028029794055389
580.0, 0.0002836701414898475
581.0, 0.00027664432031909546
582.0, 0.0003854813726901731
583.0, 0.0005779070235725302
584.0, 0.000269164264211762
585.0, 0.00024275746124236932
586.0, 0.0003026348345131715
587.0, 0.00025925303381699584
588.0, 0.00031710493258915485
589.0, 0.00036424663144187094
590.0, 0.0003108163011443987
591.0, 0.00012956970484511143
592.0, 0.00011341097953292766
593.0, 0.00017729065880066604
594.0, 0.00017661390254707825
595.0, 8.831612334040473e-05
596.0, 0.00011628193506243665
597.0, 0.0002181587857076597
598.0, 0.0003207019924225041
599.0, 0.0003893901777405244
600.0, 0.00037775138595349015
601.0, 0.00042335969140212847
602.0, 0.00040249878694707754
603.0, 0.0003656738597111035
604.0, 0.00045338475451854723
605.0, 0.0004422081547517546
606.0, 0.00044371171866807677
607.0, 0.000429114573985113
608.0, 0.00035179760019366765
609.0, 0.00019979322005653048
610.0, 0.0001802101329980449
611.0, 0.0001803124819163188
612.0, 0.00010792673531903493
613.0, 4.599388859995701e-05
614.0, 4.613091707645123e-05
615.0, 7.09345856485976e-05
616.0, 0.00011540118722272859
617.0, 0.00027842742671876366
618.0, 0.0004411275836931937
619.0, 0.0005150550638267721
620.0, 0.00044062178626058326
621.0, 0.00010750929321125247
622.0, 0.0002962051689078302
623.0, 0.0003724305525271925
624.0, 0.00030676615191764327
625.0, 0.00027399472551594946
626.0, 0.000409808806772977
627.0, 0.0004483538068684256
628.0, 0.00045306868502410303
629.0, 0.0005287666042049974
630.0, 0.0005495719501407534
631.0, 0.0005124017827138921
632.0, 0.0004621742562940312
633.0, 0.00043333903709608497
634.0, 0.00041086294283918537
635.0, 0.0004987430374802773
636.0, 0.0004830838389935734
637.0, 0.00030840686849014693
638.0, 0.0001852810862825655
639.0, 0.00013751672905207635
640.0, 0.00026260547769207596
641.0, 0.0004824471791087653
642.0, 0.0005250549027144703
643.0, 0.00048496031212633204
644.0, 0.0002746471559039383
645.0, 0.00012986050117378393
646.0, 0.0004147218015268096
647.0, 0.0003136668710118737
648.0, 0.00028633053737407694
649.0, 0.000364466623955229
650.0, 0.0005497050078759103
651.0, 0.0006065972121210896
652.0, 0.0004828381963929396
653.0, 0.00041907351037907456
654.0, 0.000518736709829729
655.0, 0.0006964249512358232
656.0, 0.0003993267434874262
657.0, 0.00041352042110218276
658.0, 0.0006659439028105804
659.0, 0.0004199717340602421
660.0, 0.0006149631225930145
661.0, 0.0006260850786448896
662.0, 0.0005722383454034573
663.0, 0.0007199423691904703
664.0, 0.0003945347872692326
665.0, 0.0004233677797432453
666.0, 0.0004900424325647864
667.0, 0.0003654319079313597
668.0, 0.0004225472202192178
669.0, 0.00042150866389292606
670.0, 0.0003185278741713897
671.0, 0.000186233989899314
672.0, 0.0004082467360505238
673.0, 0.0003208974836137177
674.0, 0.00040674037460697744
675.0, 0.0005422370328644737
676.0, 0.000274003313559034
677.0, 0.0004662975701852197
678.0, 0.00042708176415045824
679.0, 0.00036764079770454947
680.0, 0.0005376398253092443
681.0, 0.00017115960376480992
682.0, 0.00024691634420425106
683.0, 0.000336967159414312
684.0, 0.00023693559391975918
685.0, 0.00020917492734358594
686.0, 0.0003235138111444837
687.0, 0.0005092809624881775
688.0, 0.0005916327831095977
689.0, 0.00016486929704164348
690.0, 0.00031915737534458184
691.0, 0.00035152502595480124
692.0, 0.0002914347119627617
693.0, 0.0002732870515504445
694.0, 0.0003301252756472441
695.0, 0.00029059808582987965
696.0, 0.00026671658991284596
697.0, 0.00030746173069292324
698.0, 0.00021262099141311692
699.0, 0.00042750956131493644
700.0, 0.0004386046882475865
701.0, 0.00031073031389140386
702.0, 0.0007019809206391973
703.0, 0.0005029720337672616
704.0, 0.0005708311513081734
705.0, 0.000720679860381946
706.0, 0.0005664006894315341
707.0, 0.0006874075278157116
708.0, 0.0007203235844055483
709.0, 0.0007348456915663128
710.0, 0.0007926176550705866
711.0, 0.0009858587727054548
712.0, 0.0014242612566083919
713.0, 0.002199318433803521
714.0, 0.0032683854550757483
715.0, 0.004432642714715785
716.0, 0.00688483026829595
717.0, 0.009945829433972245
718.0, 0.012885719755708992
719.0, 0.014846304058190067
720.0, 0.01393074964039802
721.0, 0.011444319117534078
722.0, 0.008539352034728437
723.0, 0.005947044083154442
724.0, 0.003739373344366384
725.0, 0.0026215925536907003
726.0, 0.0021124372705369713
727.0, 0.0018263528241523092
728.0, 0.001169380499597522
729.0, 0.0009396210562462228
730.0, 0.000950939915203545
731.0, 0.0008493825313298931
732.0, 0.0003528655355822264
733.0, 0.0006070312341929598
734.0, 0.0005975334753554719
735.0, 0.0005022467712216425
736.0, 0.00044909653429275745
737.0, 0.0006121170784517383
738.0, 0.000523825337400904
739.0, 0.0003889046225239758
740.0, 0.00027116982195499244
741.0, 0.0002146178856130607
742.0, 0.0003291846079689823
743.0, 0.0003010251505677294
744.0, 0.0002426510173839996
745.0, 0.00025504383280529845
746.0, 0.0004180075957390431
747.0, 0.0001995872642789374
748.0, 0.0001243534867719508
749.0, 0.0002650148087160485
750.0, 0.0003821964154461635
751.0, 0.00025897134246333296
752.0, 0.00022272269904653023
753.0, 0.0002274712033241602
754.0, 0.00019444065848679603
755.0, 0.0002049658042705565
756.0, 0.00021555385070950761
757.0, 0.00022610267660252495
758.0, 0.00024133790139368997
759.0, 0.000279792818090592
760.0, 0.00031605130465459937
761.0, 0.000341501564774766
762.0, 0.0003707559558456297
763.0, 0.00042668928804298113
764.0, 0.00039130039207439527
765.0, 0.0003643905919732737
766.0, 0.0003113827595816909
767.0, 0.00023405221286151745
768.0, 0.00026797248713437386
769.0, 0.00021558732690220943
770.0, 0.000129037989983199
771.0, 6.447527471438811e-05
772.0, 0.00010515921414032331
773.0, 0.0003527731428769142
774.0, 0.0003695527547440217
775.0, 0.00031421179594368477
776.0, 0.00031249662338962383
777.0, 0.00019980990269653402
778.0, 7.522001668809738e-05
779.0, 0.00015368433874437068
780.0, 0.0003292024150356395
781.0, 0.00018643059524863946
782.0, 0.00012987625865805904
783.0, 0.00012170423086821036
784.0, 0.00013264089662532526
785.0, 0.00015650572956361653
786.0, 0.00042768901459541643
787.0, 0.0002098526826095139
788.0, 5.8243308563782155e-05
789.0, 0.00016035376881317414
790.0, 0.00046090006936018153
791.0, 0.00023943279164432863
792.0, 0.0001387078275729951
793.0, 0.00012240372959787494
794.0, 8.85679133935261e-05
795.0, 9.777108389443756e-05
796.0, 8.370266726173212e-05
797.0, 0.00019674436830415277
798.0, 0.0004270890971174824
799.0, 0.0005593898498708388
800.0, 0.0001719958519303915
801.0, 0.00018883528728785991
802.0, 0.0003183826426886246
803.0, 0.00015250565076682814
804.0, 0.00013146442135290965
805.0, 0.00016108659514189086
806.0, 0.00018492125199748102
807.0, 0.00019192222280470638
808.0, 0.00022181389798573017
809.0, 0.0002943995506903037
810.0, 0.0002518529457202746
811.0, 0.00020172919218355406
812.0, 0.00026078301656362384
813.0, 0.00013212875522941958
814.0, 6.287463602875994e-05
815.0, 0.00012377144685983682
816.0, 0.00027993991542579283
817.0, 0.00035077496864189314
818.0, 0.00018101762011839384
819.0, 0.000255325755133322
820.0, 0.0003817279104337148
821.0, 0.000337086859781548
822.0, 0.00039290814218512676
823.0, 0.00037583709080888376
824.0, 0.00029260431760849795
825.0, 0.00017047721336695273
826.0, 7.195280353300824e-05
827.0, 0.0002335340604777624
828.0, 0.0004321719752416677
829.0, 0.00043185298924456537
830.0, 0.00011481016259959505
831.0, 0.00011387242063220964
832.0, 0.0003082732174941723
833.0, 0.00025542870589738496
834.0, 0.0001090534026558288
835.0, 0.0004722120734899595
836.0, 0.0003397764371166699
837.0, 0.0003126406150700389
838.0, 0.00025496944888996244
839.0, 0.00010937042225216976
840.0, 0.000251741544467749
841.0, 0.0003078003365586452
842.0, 0.0001919083281458657
843.0, 0.0001063892134150797
844.0, 0.00040667010492693274
845.0, 0.00010752215999968838
846.0, 0.00021984299820929461
847.0, 0.00040211937170884674
848.0, 0.0004152914488501937
849.0, 0.00013150615464369014
850.0, 0.00021500226917307394
851.0, 0.00035651770695872977
852.0, 0.00036173630849616913
853.0, 9.514054150937997e-05
854.0, 0.0003262891106787213
855.0, 0.0001537024113975209
856.0, 0.00010294717186037897
857.0, 0.00026005663261785534
858.0, 0.00023805095926140307
859.0, 0.0001585416702354177
860.0, 9.204234502247536e-05
861.0, 0.0001830878661866452
862.0, 0.00046657582136241336
863.0, 0.00025944183080609456
864.0, 0.00024221952225953069
865.0, 0.0005182613816737309
866.0, 0.0008776807582062908
867.0, 0.000886415842027727
868.0, 0.0007880925432735965
869.0, 0.0005234669051768999
870.0, 0.0004490149528539255
871.0, 0.0006675323001039964
872.0, 0.0006916729994079172
873.0, 0.0006748069446159268
874.0, 0.000567948301320729
875.0, 0.00035015687401134747
876.0, 5.075252631801168e-05
877.0, 0.0002759178344539614
878.0, 0.00022166744769289119
879.0, 0.0001696629020988656
880.0, 0.00015571826478555983
881.0, 9.802118097609964e-06
882.0, 7.096699805931678e-05
883.0, 0.0002573965155596758
884.0, 0.0003172007129305116
885.0, 0.0001639766755245382
886.0, 0.00033828533108537436
887.0, 0.00011862622890408038
888.0, 2.3164085764342565e-05
889.0, 4.755608288258284e-05
890.0, 4.4766385775628616e-05
891.0, 0.00014615251716946253
892.0, 0.0003067270122083736
893.0, 0.0003147733534289368
894.0, 0.00016914494839611862
895.0, 0.00010745115638911726
896.0, 0.0002926243377267051
897.0, 0.00033932658472050605
898.0, 0.00033204941874955267
899.0, 0.00033419738433241984
900.0, 0.00018762722229639236
901.0, 0.00031839817443480347
902.0, 0.00022575215111333974
903.0, 6.495775768726733e-05
904.0, 0.00018658444328416255
905.0, 0.0004273595115739627
906.0, 0.0005253039810845086
907.0, 0.0005338088555023525
908.0, 0.00041864443111785043
909.0, 3.888612121793903e-05
910.0, 0.00017772629937075593
911.0, 0.00011830863184223464
912.0, 0.00011620571694981849
913.0, 0.00028633089585828665
914.0, 0.00012407752680984233
915.0, 0.0001223482827835264
916.0, 0.00027749406655831223
917.0, 0.00034434505607996676
918.0, 8.51786778164402e-05
919.0, 0.0002331590326385044
920.0, 0.0002457117679790611
921.0, 0.00027178124470782504
922.0, 0.000322405450090899
923.0, 0.00031507514721354946
924.0, 7.814354458158852e-05
925.0, 0.00014914807302424988
926.0, 0.00035042414829102877
927.0, 0.0004769377123453743
928.0, 0.00022109178726368315
929.0, 0.00026291679087190386
930.0, 0.00020326211928183805
931.0, 0.0003165601012595958
932.0, 0.0007609668200516261
933.0, 0.0005828958180674855
934.0, 0.00052218358599643
935.0, 0.0005282651775445699
936.0, 0.000460225604683577
937.0, 0.0001732301169726784
938.0, 0.00048393760223808203
939.0, 0.0004051912749796958
940.0, 0.00030231173471956496
941.0, 0.00029073757244483286
942.0, 0.0002862266752870376
943.0, 0.00023379172378932284
944.0, 0.00044360238556288855
945.0, 0.0006330554752294576
946.0, 0.0006432246421661053
947.0, 0.0005890355518491564
948.0, 0.0005490258532682949
949.0, 0.0005571928374850401
950.0, 0.00047751198179695576
951.0, 0.0002647341747500757
952.0, 0.00047574170897457546
953.0, 0.0005263121412044388
954.0, 0.00038568160884246144
955.0, 0.0001690186421444877
956.0, 4.8580963808444586e-05
957.0, 0.00012599505400053213
958.0, 0.0001753490584150443
959.0, 0.00017736364473091093
960.0, 0.00015594204037476002
961.0, 0.0001695536257855059
962.0, 0.0001902056283429318
963.0, 0.00023613143761231088
964.0, 0.0004237982228780644
965.0, 0.0006325682323769092
966.0, 0.0003596840661857462
967.0, 0.00026345029779319595
968.0, 0.000551183300400273
969.0, 0.0006181334121020663
970.0, 0.00027345201758693114
971.0, 0.0006251031358076716
972.0, 0.0002774173454108305
973.0, 0.00011593033800205704
974.0, 0.00031793486897288645
975.0, 0.0007819364297470099
976.0, 0.0005091039513003288
977.0, 0.0003291668760834771
978.0, 0.000459437448697526
979.0, 0.0005613371565023394
980.0, 0.00021368357090656507
981.0, 0.00036301042655694583
982.0, 0.00041789547705180376
983.0, 0.00035199332873330803
984.0, 0.00030586594660484567
985.0, 0.0005058761389330632
986.0, 0.00020051233848657253
987.0, 0.00028982648736160607
988.0, 0.0004934415304019548
989.0, 0.0006092294189517063
990.0, 0.00047694036383782453
991.0, 0.0004769630843009784
992.0, 0.00044981935432990045
993.0, 0.00046270661877776585
994.0, 0.0005018732269052049
995.0, 0.00041524588919366527
996.0, 0.0007449954330460435
997.0, 0.0009792165841872758
998.0, 0.001186714661690206
999.0, 0.0013418522459206625
1000.0, 0.0010685727928860835
1001.0, 0.0011527004406212185
1002.0, 0.0011478936110767
1003.0, 0.001233892556641439
1004.0, 0.0015575693080982468
1005.0, 0.0018895809710288724
1006.0, 0.0018950168246348203
1007.0, 0.0019243553363083921
1008.0, 0.002104469166961099
1009.0, 0.0023920767331013573
1010.0, 0.002024586886679528
1011.0, 0.0021660396044634253
1012.0, 0.002251318134676945
1013.0, 0.0022524540249714026
1014.0, 0.002313005772586061
1015.0, 0.002761204818676914
1016.0, 0.002546015126752587
1017.0, 0.0022749142200061533
1018.0, 0.0023328907696832197
1019.0, 0.0029310080807660698
1020.0, 0.0029399362861023577
1021.0, 0.003277953800578446
1022.0, 0.0032625659242116987
1023.0, 0.0031177634978597542
1024.0, 0.0034855872568399717
1025.0, 0.0034317282785162034
1026.0, 0.0035262073925108463
1027.0, 0.0037276448600292093
1028.0, 0.003887445941742671
1029.0, 0.003784755116438711
1030.0, 0.0036123183758001226
1031.0, 0.003761148947836007
1032.0, 0.003713652024001045
1033.0, 0.0035528202259769003
1034.0, 0.003841048577160552
1035.0, 0.003693003180075654
1036.0, 0.003705372483967863
1037.0, 0.0038525997722892095
1038.0, 0.0040465594990122524
1039.0, 0.004133718398406212
1040.0, 0.004001863837562378
1041.0, 0.004044943053243801
1042.0, 0.004187249782517401
1043.0, 0.004354511535836904
1044.0, 0.004473907449510447
1045.0, 0.004662202622985436
1046.0, 0.004753778850695535
1047.0, 0.00508344551093477
1048.0, 0.005547799675312714
1049.0, 0.005494158121494124
1050.0, 0.005842347432304382
1051.0, 0.006267343870624159
1052.0, 0.006385851201645483
1053.0, 0.006398220676142197
1054.0, 0.007273987964931974
1055.0, 0.007164800837130813
1056.0, 0.007307517957789288
1057.0, 0.007816496600742516
1058.0, 0.008542765490283221
1059.0, 0.009025776045930065
1060.0, 0.00898457419802323
1061.0, 0.009527177848165022
1062.0, 0.01041432414364359
1063.0, 0.011624152223922525
1064.0, 0.013478544577047126
1065.0, 0.015025782856203781
1066.0, 0.017095244272189912
1067.0, 0.017838747160383216
1068.0, 0.016976803049673084
1069.0, 0.01626084731637721
1070.0, 0.01663096523084525
1071.0, 0.0173216553552965
1072.0, 0.018221138494162965
1073.0, 0.0195694000472666
1074.0, 0.02201125978106139
1075.0, 0.02498654855067169
1076.0, 0.0281534270909838
1077.0, 0.032051156122467714
1078.0, 0.0373854928642498
1079.0, 0.04501811152434787
1080.0, 0.0558382840814352
1081.0, 0.07210430427209018
1082.0, 0.10038526782732497
1083.0, 0.1492120283118504
1084.0, 0.22935122965495136
1085.0, 0.3919441130901694
1086.0, 0.6568185893427456
1087.0, 0.8827408349682299
1088.0, 0.9609274655991566
1089.0, 0.8156638999582666
1090.0, 0.5508830125092523
1091.0, 0.3481112128899983
1092.0, 0.21825831718962316
1093.0, 0.1456752478153294
1094.0, 0.09691683281516528
1095.0, 0.06750789173686807
1096.0, 0.050285321431087694
1097.0, 0.0378827608390076
1098.0, 0.02871219741099671
1099.0, 0.023501947751745706
1100.0, 0.01944092101957949
1101.0, 0.016387503048543035
1102.0, 0.014035025746915418
1103.0, 0.012188825730509046
1104.0, 0.010679579608279274
1105.0, 0.009486377050781168
1106.0, 0.008669576398842539
1107.0, 0.007694881617465334
1108.0, 0.006856816263259927
1109.0, 0.006519174091294492
1110.0, 0.0062391879593103215
1111.0, 0.005582657469877347
1112.0, 0.005300438983596186
1113.0, 0.005020249523953435
1114.0, 0.0044579533521034356
1115.0, 0.004421502357288803
1116.0, 0.0040573708047826436
1117.0, 0.0035298602688294384
1118.0, 0.003105885044440256
1119.0, 0.003029434134694847
1120.0, 0.0034847974520557834
1121.0, 0.002864636058507372
1122.0, 0.0028333502499943014
1123.0, 0.002645225091458103
1124.0, 0.002104198237343536
1125.0, 0.002147409633958557
1126.0, 0.0022365712565742164
1127.0, 0.002187119652872102
1128.0, 0.0022606718276017767
1129.0, 0.002339438925760225
1130.0, 0.0019307580052848321
1131.0, 0.002005234999698543
1132.0, 0.0017962172697783402
1133.0, 0.001726859773702263
1134.0, 0.0016650673672482295
1135.0, 0.001199047772240299
1136.0, 0.0012577580698266118
1137.0, 0.001706731860403316
1138.0, 0.001828134066751977
1139.0, 0.001655317997498769
1140.0, 0.001486047789039565
1141.0, 0.0012266472111372106
1142.0, 0.0011732495954999876
1143.0, 0.00117238398967927
1144.0, 0.001245023242275778
1145.0, 0.0013346337178054186
1146.0, 0.0009638280831942017
1147.0, 0.0008418252767628273
1148.0, 0.0008923199207084746
1149.0, 0.0011326717747682494
1150.0, 0.0013494464927352712
1151.0, 0.0008506934578346767
1152.0, 0.0007806402045378315
1153.0, 0.0010624942195650523
1154.0, 0.0009440201554290102
1155.0, 0.00046959719589242726
1156.0, 0.0005922278485208145
1157.0, 0.0007149720482985807
1158.0, 0.0009865782705659426
1159.0, 0.0009636175473027852
1160.0, 0.0007192967005251996
1161.0, 0.0006300580956187074
1162.0, 0.0006893892423286408
1163.0, 0.000642648968717893
1164.0, 0.0006412390760411995
1165.0, 0.0006494961018051313
1166.0, 0.0005833673885237029
1167.0, 0.0004248732744004353
1168.0, 0.0007319184688371957
1169.0, 0.0005788561403811388
1170.0, 0.0004506374477043787
1171.0, 0.0006091270900065904
1172.0, 0.0003017532769860496
1173.0, 0.0005588041348370938
1174.0, 0.0006113093611578772
1175.0, 0.0005044503199128924
1176.0, 0.000421825121474851
1177.0, 0.0006188637252670081
1178.0, 0.0004382634221342619
1179.0, 0.00035837223513172293
1180.0, 0.00040308956707855363
1181.0, 0.0005071964751584191
1182.0, 0.0005341560613244985
1183.0, 0.00017775057771940276
1184.0, 0.00019438861440774466
1185.0, 0.00019725931243690865
1186.0, 0.00024045252525872017
1187.0, 0.0003832518178480011
1188.0, 0.000330558635284563
1189.0, 0.00016014686728819483
1190.0, 0.0002794636526250473
1191.0, 0.0003521526110738468
1192.0, 0.00027442956607775485
1193.0, 0.0003880542399539239
1194.0, 0.00013717871165927243
1195.0, 0.0003605921782109183
1196.0, 0.00031305649678086284
1197.0, 9.933866383630716e-05
1198.0, 0.0003191781779719209
1199.0, 0.0005420333538845814
1200.0, 0.00023412881272831987
1201.0, 0.00024274287107131295
1202.0, 0.0003359921776483114
1203.0, 0.00020838253372008523
1204.0, 0.0003959926434417906
1205.0, 0.00033281623282821894
1206.0, 0.00028727365892182053
1207.0, 0.0002510849802590729
1208.0, 0.00021277308135574937
1209.0, 0.00019472233212027614
1210.0, 0.00019582879984628252
1211.0, 0.00017998000234279213
1212.0, 0.0003368422905433958
1213.0, 0.0004947218555890523
1214.0, 0.00036678579275259545
1215.0, 0.00042719251628688554
1216.0, 0.00037589417448191594
1217.0, 0.0003070228349987873
1218.0, 0.0003236404278560625
1219.0, 0.000438142321370098
1220.0, 0.00043351649350485114
1221.0, 0.00023086070800122752
1222.0, 0.00010012989899983047
1223.0, 0.00012707891205720887
1224.0, 0.00023858990561006886
1225.0, 0.00022748123698210037
1226.0, 7.412219372731965e-05
1227.0, 0.0002699798745349286
1228.0, 0.00023717380799292723
1229.0, 0.00012810510977321086
1230.0, 0.0002999684363257591
1231.0, 0.0007410665288570204
1232.0, 0.0005744615931075194
1233.0, 0.0005334984014644665
1234.0, 0.0004066813558602397
1235.0, 0.00012922818988381392
1236.0, 1.2826161784318419e-05
1237.0, 5.8439151767620705e-06
1238.0, 0.00014089768233277222
1239.0, 0.00017001350589314354
1240.0, 0.0001384056799070321
1241.0, 0.0002437657203313628
1242.0, 0.0005930666655830072
1243.0, 0.00020138717843488623
1244.0, 0.00020285031989906516
1245.0, 0.00031500111882828855
1246.0, 0.0003309769918572334
1247.0, 0.000664160566121651
1248.0, 0.00044036021557080995
1249.0, 0.0002469037128879023
1250.0, 0.000404755870752331
1251.0, 0.0005435333858823519
1252.0, 7.648718234348263e-05
1253.0, 0.0001198511272128328
1254.0, 0.0002756012678044736
1255.0, 0.00046877545968447386
1256.0, 0.0005718684284524914
1257.0, 0.0005761259777513315
1258.0, 0.0007287577927483506
1259.0, 0.00045784033690653234
1260.0, 0.0004112837788307782
1261.0, 0.00025668320050070155
1262.0, 4.79957225562188e-05
1263.0, 0.0001190815601130228
1264.0, 0.0007398417632648291
1265.0, 0.00036482990532451083
1266.0, 0.0002839434548358295
1267.0, 0.0002462546154390437
1268.0, 5.938318098675572e-05
1269.0, 0.00028708187793318005
1270.0, 0.0008039667817276992
1271.0, 0.0003640651335665803
1272.0, 0.00017880209390513273
1273.0, 0.0002688083204361479
1274.0, 5.3582631862572996e-05
1275.0, 0.00038709937043249665
1276.0, 0.00011941963729771211
1277.0, 9.711091168828714e-05
1278.0, 0.00015729737877281114
1279.0, 0.00013358387316645353
1280.0, 0.00016140227562486448
1281.0, 0.00041395186670837274
1282.0, 0.0002843061864767144
1283.0, 0.00019899601458518072
1284.0, 0.0002534669429870388
1285.0, 0.0003148772328324268
1286.0, 7.616686138706488e-05
1287.0, 0.00033569959515607916
1288.0, 0.00028982601488847253
1289.0, 0.00034377283397668567
1290.0, 0.000576376561327611
1291.0, 0.000511248374593214
1292.0, 0.0002133314193226957
1293.0, 5.553892562830805e-05
1294.0, 0.00016262935793103094
1295.0, 0.0003503455800720666
1296.0, 0.00039126475019288915
1297.0, 0.00027107375957313197
1298.0, 0.00024353020140989196
1299.0, 0.00026074137087798744
1300.0, 0.00025504939534111854
1301.0, 0.0002579130687661423
1302.0, 0.0003421997098976728
1303.0, 0.00025408116826295345
1304.0, 0.00029312845999455224
1305.0, 0.0003082720778828142
1306.0, 0.0002712412210373739
1307.0, 0.00019753045608878877
1308.0, 0.0001284851804109575
1309.0, 7.255413623561088e-05
1310.0, 0.00018377839167875643
1311.0, 0.0002354869376368557
1312.0, 0.0001738492161957087
1313.0, 9.80941501266638e-05
1314.0, 0.0003253200430565097
1315.0, 0.00039391759130917266
1316.0, 0.00019452867622776215
1317.0, 5.0542022411210574e-05
1318.0, 6.394649942951309e-05
1319.0, 9.515185322461968e-05
1320.0, 0.00020190597710164092
1321.0, 0.0002800099467492532
1322.0, 0.00015325985579091157
1323.0, 9.527330318983325e-05
1324.0, 0.000226520254015212
1325.0, 0.00022007630297180084
1326.0, 0.0003424345903459901
1327.0, 0.0001497247097808829
1328.0, 0.0001487178303779208
1329.0, 0.00019805965432531954
1330.0, 3.7261859751427774e-05
1331.0, 5.3834088289689585e-05
1332.0, 0.00021681556142440255
1333.0, 0.0002449780327539738
1334.0, 0.0001618880623117607
1335.0, 0.00011524615945061631
1336.0, 0.0002512441214846134
1337.0, 0.0002099094520050643
1338.0, 0.00021599281413191615
1339.0, 0.000302441828175229
1340.0, 0.00023108202775842552
1341.0, 4.712593333090171e-05
1342.0, 0.00019184373518885638
1343.0, 0.00046423988407308674
1344.0, 0.0001645809620992679
1345.0, 0.00032094818297547867
1346.0, 0.000522047938652439
1347.0, 0.0003072937339777791
1348.0, 0.00016329536827470174
1349.0, 0.00036014602046042355
1350.0, 0.0003186103276684056
1351.0, 0.0003195146689115466
1352.0, 0.0003650238474364557
1353.0, 0.00030615626994269485
1354.0, 3.844433384141621e-05
1355.0, 3.759420214247329e-05
1356.0, 0.00029744789717719284
1357.0, 0.0002725965419377718
1358.0, 0.0001330099776383401
1359.0, 0.00042176322670032303
1360.0, 0.00031285599628608815
1361.0, 0.00034526567147949406
1362.0, 0.00035632457459009944
1363.0, 0.0002482723878847466
1364.0, 0.0001297839970029113
1365.0, 0.00025179157917476394
1366.0, 0.0001158752166811455
1367.0, 0.00038755693437769344
1368.0, 0.0004684893543109371
1369.0, 0.00036999548178318265
1370.0, 0.00022139652792818888
1371.0, 9.339988071756952e-05
1372.0, 0.00020220999368403421
1373.0, 0.00018908484469772334
1374.0, 0.00015694457848878612
1375.0, 0.00031363257819120335
1376.0, 0.0005928752666657317
1377.0, 0.0003359237123766721
1378.0, 0.00027843400869157484
1379.0, 0.00055974743948972
1380.0, 0.0005034001744011302
1381.0, 0.00034703607229292084
1382.0, 0.00046895390881254685
1383.0, 0.00042999594470654657
1384.0, 0.0005504167781142603
1385.0, 0.0006189981687805727
1386.0, 0.0007011235851544633
1387.0, 0.0007793076233184403
1388.0, 0.0008401789591866618
1389.0, 0.00107507027299581
1390.0, 0.0012675714798104228
1391.0, 0.0014212328267966608
1392.0, 0.0014027361588799948
1393.0, 0.001188442243400886
1394.0, 0.0008944434997366452
1395.0, 0.0008556009733424135
1396.0, 0.0010904708933404336
1397.0, 0.000726022272526602
1398.0, 0.0006734761159262933
1399.0, 0.0009612069547905196
1400.0, 0.0009141768628790803
1401.0, 0.0008063155411668824
1402.0, 0.0013005348780004092
1403.0, 0.0014515481437911355
1404.0, 0.0015104878779683799
1405.0, 0.0017083542290469477
1406.0, 0.0020389891320953877
1407.0, 0.002105589556133028
1408.0, 0.0025939791706452798
1409.0, 0.0030578288431612737
1410.0, 0.0036522989496023143
1411.0, 0.0045713613868957545
1412.0, 0.005925418662355296
1413.0, 0.007732774256313723
1414.0, 0.010629382354482533
1415.0, 0.014652197375791388
1416.0, 0.01984659347077656
1417.0, 0.026181755526350565
1418.0, 0.03353419205183149
1419.0, 0.041593547390440216
1420.0, 0.04194349772907216
1421.0, 0.039310662866395236
1422.0, 0.03463160902115807
1423.0, 0.028485109527151754
1424.0, 0.02185112837103067
1425.0, 0.017535431304831775
1426.0, 0.014336425311145595
1427.0, 0.011437650419564826
1428.0, 0.00931588614371923
1429.0, 0.007866506752055418
1430.0, 0.006434705967730733
1431.0, 0.006003318921602206
1432.0, 0.004808829256209352
1433.0, 0.00421091324646353
1434.0, 0.003885130565182662
1435.0, 0.003633431333746541
1436.0, 0.003557161946064196
1437.0, 0.0032341192955350462
1438.0, 0.0030544158197639516
1439.0, 0.002855638511629464
1440.0, 0.0026177281889706427
1441.0, 0.0024236317436700044
1442.0, 0.002411180218733324
1443.0, 0.0026588385696832495
1444.0, 0.002099788813781651
1445.0, 0.002132574090370329
1446.0, 0.002132945572142446
1447.0, 0.0019625435925938305
1448.0, 0.0019323949756173725
1449.0, 0.0018166684188575827
1450.0, 0.0012976771278654417
1451.0, 0.0015155862959488583
1452.0, 0.0017502631592808038
1453.0, 0.0016041136679216105
1454.0, 0.0013217024490798353
1455.0, 0.0020664157351763576
1456.0, 0.0012553501438500331
1457.0, 0.0008908610750553558
1458.0, 0.0009546923180305713
1459.0, 0.0008623251284018542
1460.0, 0.0003832474893909838
1461.0, 0.0008340896167277861
1462.0, 0.0008943100846000333
1463.0, 0.0003381073503114802
1464.0, 0.00022198227450242588
1465.0, 0.0005006981699887396
1466.0, 0.0006648434421690094
1467.0, 0.00042944493662512226
1468.0, 0.0003412378119238413
1469.0, 0.0002540859633115709
1470.0, 0.00035581135213810214
1471.0, 0.00047453279470771554
1472.0, 0.00047047713562999347
1473.0, 0.0004701445618389976
1474.0, 0.00070799462355287
1475.0, 0.0005894959415691926
1476.0, 0.0003375117320406308
1477.0, 0.00030825092020013884
1478.0, 0.0003968206815709021
1479.0, 7.578769816504152e-05
1480.0, 1.2183252230156461e-05
1481.0, 0.0003276401080963432
1482.0, 0.00017655942770896236
1483, 0.0
1484, 0.0
1485, 0.0
1486, 0.0
1487, 0.0
1488, 0.0
1489, 0.0
1490, 0.0
1491, 0.0
1492, 0.0
1493, 0.0
1494, 0.0
1495, 0.0
1496, 0.0
1497, 0.0
1498, 0.0
1499, 0.0
1500, 0.0
1501, 0.0
1502, 0.0
1503, 0.0
1504, 0.0
1505, 0.0
1506, 0.0
1507, 0.0
1508, 0.0
1509, 0.0
1510, 0.0
1511, 0.0
1512, 0.0
1513, 0.0
1514, 0.0
1515, 0.0
1516, 0.0
1517, 0.0
1518, 0.0
1519, 0.0
1520, 0.0
1521, 0.0
1522, 0.0
1523, 0.0
1524, 0.0
1525, 0.0
1526, 0.0
1527, 0.0
1528, 0.0
1529, 0.0
1530, 0.0
1531, 0.0
1532, 0.0
1533, 0.0
1534, 0.0
1535, 0.0
1536, 0.0
1537, 0.0
1538, 0.0
1539, 0.0
1540, 0.0
1541, 0.0
1542, 0.0
1543, 0.0
1544, 0.0
1545, 0.0
1546, 0.0
1547, 0.0
1548, 0.0
1549, 0.0
1550, 0.0
1551, 0.0
1552, 0.0
1553, 0.0
1554, 0.0
1555, 0.0
1556, 0.0
1557, 0.0
1558, 0.0
1559, 0.0
1560, 0.0
1561, 0.0
1562, 0.0
1563, 0.0
1564, 0.0
1565, 0.0
1566, 0.0
1567, 0.0
1568, 0.0
1569, 0.0
1570, 0.0
1571, 0.0
1572, 0.0
1573, 0.0
1574, 0.0
1575, 0.0
1576, 0.0
1577, 0.0
1578, 0.0
1579, 0.0
1580, 0.0
1581, 0.0
1582, 0.0
1583, 0.0
1584, 0.0
1585, 0.0
1586, 0.0
1587, 0.0
1588, 0.0
1589, 0.0
1590, 0.0
1591, 0.0
1592, 0.0
1593, 0.0
1594, 0.0
1595, 0.0
1596, 0.0
1597, 0.0
1598, 0.0
1599, 0.0
