30, 0.0
31, 0.0
32, 0.0
33, 0.0
34, 0.0
35, 0.0
36, 0.0
37, 0.0
38, 0.0
39, 0.0
40, 0.0
41, 0.0
42, 0.0
43, 0.0
44, 0.0
45, 0.0
46, 0.0
47, 0.0
48, 0.0
49, 0.0
50, 0.0
51, 0.0
52, 0.0
53, 0.0
54, 0.0
55, 0.0
56, 0.0
57, 0.0
58, 0.0
59, 0.0
60, 0.0
61, 0.0
62, 0.0
63, 0.0
64, 0.0
65, 0.0
66, 0.0
67, 0.0
68, 0.0
69, 0.0
70, 0.0
71, 0.0
72, 0.0
73, 0.0
74, 0.0
75, 0.0
76, 0.0
77, 0.0
78, 0.0
79, 0.0
80, 0.0
81, 0.0
82, 0.0
83, 0.0
84, 0.0
85, 0.0
86, 0.0
87, 0.0
88, 0.0
89, 0.0
90, 0.0
91, 0.0
92, 0.0
93, 0.0
94, 0.0
95, 0.0
96, 0.0
97, 0.0
98, 0.0
99, 0.0
100, 0.0
101, 0.0
102, 0.0
103, 0.0
104, 0.0
105, 0.0
106, 0.0
107, 0.0
108, 0.0
109, 0.0
110, 0.0
111, 0.0
112, 0.0
113, 0.0
114, 0.0
115, 0.0
116, 0.0
117.0, 0.00042822788923361967
118.0, 0.0020193867870044306
119.0, 0.010839813727739706
120.0, 0.03414509223751761
121.0, 0.0561534960625055
122.0, 0.08667025057765776
123.0, 0.11605119252143087
124.0, 0.1500776970973399
125.0, 0.1932453430780216
126.0, 0.2215799126987663
127.0, 0.25846715676509674
128.0, 0.2930203790725024
129.0, 0.32389951771155345
130.0, 0.35433890827679115
131.0, 0.39385945163070124
132.0, 0.4162850496214312
133.0, 0.4178870570021489
134.0, 0.41583468400207274
135.0, 0.4108712931838176
136.0, 0.3869138148394133
137.0, 0.36571095849593876
138.0, 0.3611218961961862
139.0, 0.33762828954879687
140.0, 0.3047532206885599
141.0, 0.2879903619457271
142.0, 0.26424547285808936
143.0, 0.2434514964283387
144.0, 0.21975611222127886
145.0, 0.19589244383853552
146.0, 0.175596191021212
147.0, 0.16010956678844254
148.0, 0.1399686416745331
149.0, 0.12728745039006312
150.0, 0.11998691351543789
151.0, 0.11121931053223
152.0, 0.09116356344431253
153.0, 0.09328445473930115
154.0, 0.07903047731327273
155.0, 0.064069424910466
156.0, 0.0535470427822487
157.0, 0.04692622828202435
158.0, 0.04775739764121027
159.0, 0.032510613154094925
160.0, 0.023850566881456082
161.0, 0.02362055997305223
162.0, 0.025309528214230777
163.0, 0.013981776912183504
164.0, 0.007628531699154637
165.0, 0.012796093098189265
166.0, 0.015392151907262985
167.0, 0.013322674615488474
168.0, 0.01756404172624422
169.0, 0.006751327344696463
170.0, 0.0021963293683217953
171.0, 0.006113014734569275
172.0, 0.009668484798192052
173.0, 0.0039040965849272483
174.0, 0.0033135260508681797
175.0, 0.009299772033168716
176.0, 0.00955932777098913
177.0, 0.0067177001624063384
178.0, 0.0050757770642216316
179.0, 0.007262306537928271
180.0, 0.008117983411017597
181.0, 0.0052305587151208295
182.0, 0.004373077163015823
183.0, 0.0059501036671774565
184.0, 0.006719177170458484
185.0, 0.008112140755996181
186.0, 0.016803312501064253
187.0, 0.01844777315237125
188.0, 0.015052159878495341
189.0, 0.015707676228052983
190.0, 0.03602778138804308
191.0, 0.044446595337459066
192.0, 0.055519275373945944
193.0, 0.060807896603708396
194.0, 0.06356622215306036
195.0, 0.07915787712974909
196.0, 0.11106487248222838
197.0, 0.1253063957317229
198.0, 0.1568606040415676
199.0, 0.1851272668616331
200.0, 0.19101416002512922
201.0, 0.23275291133302783
202.0, 0.25994156307225624
203.0, 0.3029382595507986
204.0, 0.3308582593252982
205.0, 0.3354721763173983
206.0, 0.34181985781319363
207.0, 0.33199526074000923
208.0, 0.3013614959400184
209.0, 0.2642627661400374
210.0, 0.22777348566671768
211.0, 0.1941888253028011
212.0, 0.1600573874102518
213.0, 0.1259555978131355
214.0, 0.09751925139205693
215.0, 0.07398571391325734
216.0, 0.05750493706255231
217.0, 0.053960832703206923
218.0, 0.04803940933290241
219.0, 0.03453417964617622
220.0, 0.033082698046865575
221.0, 0.03581276843879635
222.0, 0.02974149226101428
223.0, 0.03014993039152353
224.0, 0.018129522539964346
225.0, 0.022654987146880714
226.0, 0.022751190036414133
227.0, 0.015114879803630996
228.0, 0.021646630402313276
229.0, 0.0071225192011228405
230.0, 0.0029772958681996307
231.0, 0.009585374895079823
232.0, 0.011962877981763143
233.0, 0.0005015428027842551
234.0, 0.002166822524839353
235.0, 0.003184214703318325
236.0, 0.005802919681323315
237.0, 0.007282479437780191
238.0, 0.005515963563400382
239.0, 0.0007394358555724177
240.0, 0.0073100712271396955
241.0, 0.003865892441841208
242.0, 0.002873939085469495
243.0, 0.0064011526933160715
244.0, 0.011966003083711263
245.0, 0.014195430408230247
246.0, 0.010870338002877502
247.0, 0.005517496052137643
248.0, 0.004568313267171192
249.0, 0.008357674322034624
250.0, 0.011452395767676973
251.0, 0.0015237287075082458
252.0, 0.00056291156482372
253.0, 0.009616450488903654
254.0, 0.017216289196376744
255.0, 0.01588108043034913
256.0, 0.009321848108209598
257.0, 0.0019599588146201135
258.0, 0.001844491886655993
259.0, 0.008586944596390981
260.0, 0.012400376266634226
261.0, 0.006287254622805959
262.0, 0.00941341051582113
263.0, 0.01532166888297692
264.0, 0.013511869498745334
265.0, 0.008542063472404597
266.0, 0.006613409781640956
267.0, 0.011323088189147304
268.0, 0.0018839716261353804
269.0, 0.004559966609961564
270.0, 0.00854395686416432
271.0, 0.014265910590053919
272.0, 0.0241131461711893
273.0, 0.03836262676543654
274.0, 0.029093818647767975
275.0, 0.04472494417334103
276.0, 0.051584224514308864
277.0, 0.051156411632823605
278.0, 0.05914613486561313
279.0, 0.06394759643924247
280.0, 0.06608000633664037
281.0, 0.07516513841416848
282.0, 0.07701617668198246
283.0, 0.07086558919836958
284.0, 0.07042291428101075
285.0, 0.0715054143918112
286.0, 0.04818871068224569
287.0, 0.05238598780884823
288.0, 0.05463448535446522
289.0, 0.03816977476535355
290.0, 0.04392654546469117
291.0, 0.044783591555188504
292.0, 0.04793114542418574
293.0, 0.04876955868716337
294.0, 0.049630198360857296
295.0, 0.05177829976534087
296.0, 0.042700259275399076
297.0, 0.04498896991868983
298.0, 0.04328414191345843
299.0, 0.040840578517299254
300.0, 0.0408094595496927
301.0, 0.043856913759370696
302.0, 0.043285004174372595
303.0, 0.045170662765142706
304.0, 0.04611467733347089
305.0, 0.046400508253489854
306.0, 0.0459747136036384
307.0, 0.04421809349017891
308.0, 0.048110997420544595
309.0, 0.044138101050023755
310.0, 0.052814376011488945
311.0, 0.0543153827055436
312.0, 0.04100044503967651
313.0, 0.047386589917105856
314.0, 0.05501078855684886
315.0, 0.03786862439382661
316.0, 0.039966318681092836
317.0, 0.05141779211701872
318.0, 0.052109456355768795
319.0, 0.06394658850746536
320.0, 0.06671185423964592
321.0, 0.06785606373244807
322.0, 0.0657697816315335
323.0, 0.06374490992860576
324.0, 0.06722255336377297
325.0, 0.07705952457969485
326.0, 0.07151438033873718
327.0, 0.07404127221681442
328.0, 0.08150532381133388
329.0, 0.08677300226935084
330.0, 0.08496125541474774
331.0, 0.09002255671598094
332.0, 0.0775281455932079
333.0, 0.07842905113876124
334.0, 0.08708010642182337
335.0, 0.0990366656564648
336.0, 0.11674863187740418
337.0, 0.12097198822686414
338.0, 0.13109082660128027
339.0, 0.13820551477313686
340.0, 0.14878857724312924
341.0, 0.1666283403710181
342.0, 0.18618695770344748
343.0, 0.20595889624320018
344.0, 0.23909307677315159
345.0, 0.26972438210410604
346.0, 0.2967626614336529
347.0, 0.32570451235520304
348.0, 0.3649758070690765
349.0, 0.4504997086727555
350.0, 0.4988936635951067
351.0, 0.5573966157600463
352.0, 0.6202287173928036
353.0, 0.6700158631336375
354.0, 0.7120029666239189
355.0, 0.7299782693051218
356.0, 0.7535467700798758
357.0, 0.7695722709616358
358.0, 0.7688311713634165
359.0, 0.7440189606283644
360.0, 0.6866462926086135
361.0, 0.6320894261330039
362.0, 0.5709608530511896
363.0, 0.510844190609989
364.0, 0.46227916472529856
365.0, 0.425373159248027
366.0, 0.36962050887111797
367.0, 0.31159914931776195
368.0, 0.28032913452806174
369.0, 0.2588637523726927
370.0, 0.24035515614971606
371.0, 0.22499458769764805
372.0, 0.21222920037570056
373.0, 0.19584688094860797
374.0, 0.17115341499109452
375.0, 0.14672645815894717
376.0, 0.13815332530396268
377.0, 0.14710100150975833
378.0, 0.12366222143889775
379.0, 0.12420829352566501
380.0, 0.11828511460738993
381.0, 0.11173098573407239
382.0, 0.1110793470119431
383.0, 0.11728557608520684
384.0, 0.11742047495666465
385.0, 0.11072367981877897
386.0, 0.11965229185631908
387.0, 0.11672730213393577
388.0, 0.10741600593879781
389.0, 0.1131577506959345
390.0, 0.1390051365136593
391.0, 0.12725986637883258
392.0, 0.13192705767326493
393.0, 0.1208916106453893
394.0, 0.1024300579910314
395.0, 0.1001216400042354
396.0, 0.11136960247030041
397.0, 0.07596530788319047
398.0, 0.07080690762082166
399.0, 0.056190027533697284
400.0, 0.04704940638273657
401.0, 0.061391696650285627
402.0, 0.05387625138196754
403.0, 0.046465517930751016
404.0, 0.04309861309126609
405.0, 0.040273056658279655
406.0, 0.03938495883670853
407.0, 0.04042208017217818
408.0, 0.036329546689316455
409.0, 0.04259857267984144
410.0, 0.04490514417362944
411.0, 0.05215771548705158
412.0, 0.063274059854346
413.0, 0.06776822323638389
414.0, 0.049909090596449185
415.0, 0.06489832028042525
416.0, 0.05763077888049542
417.0, 0.06226817364776456
418.0, 0.07505671872335078
419.0, 0.08362339943209914
420.0, 0.08319040709286461
421.0, 0.09276358177105473
422.0, 0.08876316318736577
423.0, 0.0960109375329168
424.0, 0.10467853684685524
425.0, 0.10784058383230101
426.0, 0.11046574786165138
427.0, 0.10624937253917661
428.0, 0.10728600270351897
429.0, 0.10524330313587453
430.0, 0.1032040098255437
431.0, 0.10351370915363345
432.0, 0.10555925754498142
433.0, 0.10678395368332862
434.0, 0.10019880350168252
435.0, 0.10715214393697126
436.0, 0.10563176585190077
437.0, 0.10064133280274734
438.0, 0.1076914263375563
439.0, 0.10598790557053403
440.0, 0.09980678430383302
441.0, 0.10477439823736939
442.0, 0.10823193902611698
443.0, 0.10367340628070348
444.0, 0.09558159800370514
445.0, 0.10165387366128631
446.0, 0.1088311644067533
447.0, 0.09607506159664833
448.0, 0.09625872295735044
449.0, 0.09427766719860037
450.0, 0.08484735218728566
451.0, 0.09788944242263732
452.0, 0.1046080088212365
453.0, 0.11240643253333749
454.0, 0.12269766916297635
455.0, 0.12449373922268793
456.0, 0.12024186285204934
457.0, 0.12530288957294322
458.0, 0.13506823791098477
459.0, 0.15837712239924115
460.0, 0.15415034964776755
461.0, 0.15228651402520169
462.0, 0.16141503280802125
463.0, 0.16810303624406447
464.0, 0.15823806163348217
465.0, 0.1460899697218507
466.0, 0.15968452091732985
467.0, 0.14029661461895246
468.0, 0.12054155476430807
469.0, 0.12675835264093427
470.0, 0.1004682021759765
471.0, 0.07841750506581341
472.0, 0.08150973342832771
473.0, 0.0709380139903356
474.0, 0.04853817177319048
475.0, 0.03231883914899374
476.0, 0.03835971086892868
477.0, 0.043838145978605206
478.0, 0.04235049057497061
479.0, 0.04937350389048536
480.0, 0.044943878074148305
481.0, 0.037991772929320856
482.0, 0.04296820948242522
483.0, 0.023829767442275794
484.0, 0.0457446248940581
485.0, 0.036416596219656025
486.0, 0.033977034099209914
487.0, 0.03010500274784825
488.0, 0.020141969891964977
489.0, 0.03226495201186534
490.0, 0.03650159509336049
491.0, 0.029813738174932852
492.0, 0.026300507364797877
493.0, 0.026629927634613068
494.0, 0.02989909425943417
495.0, 0.03459780367607743
496.0, 0.032516523258267885
497.0, 0.03306396910436223
498.0, 0.035196271964618
499.0, 0.034646973274407286
500.0, 0.03386489182716009
501.0, 0.03613281168223531
502.0, 0.039121303889728155
503.0, 0.03936814032444805
504.0, 0.038529977606310925
505.0, 0.042212755400033664
506.0, 0.04514893663272245
507.0, 0.047593819959074996
508.0, 0.05680373851391231
509.0, 0.07247407919119844
510.0, 0.056810163232570356
511.0, 0.05495473356697535
512.0, 0.06065896535064044
513.0, 0.07490067108700167
514.0, 0.09322188273627387
515.0, 0.0911791242846496
516.0, 0.10077520530390005
517.0, 0.09348292728936544
518.0, 0.10135342032409089
519.0, 0.11267174721801797
520.0, 0.11758541559950422
521.0, 0.12054472349091107
522.0, 0.1258900682723451
523.0, 0.14493245071597305
524.0, 0.165156176685198
525.0, 0.17074879563717313
526.0, 0.17489480040911487
527.0, 0.18914639205612693
528.0, 0.19597464244749668
529.0, 0.20641984412862066
530.0, 0.21888068511145478
531.0, 0.2359389168637243
532.0, 0.244824725271435
533.0, 0.24926847180362616
534.0, 0.26113338774769623
535.0, 0.2601632128857654
536.0, 0.28806446283934933
537.0, 0.3002367200101256
538.0, 0.30152039166992484
539.0, 0.31469810562562417
540.0, 0.3466317110361045
541.0, 0.3765669311042788
542.0, 0.42097097413513074
543.0, 0.4725700473079125
544.0, 0.5214352608584724
545.0, 0.576166698899291
546.0, 0.6429082598593885
547.0, 0.7266868868831182
548.0, 0.834971389069745
549.0, 0.8892341555188681
550.0, 0.9357027686012559
551.0, 0.9788300521716837
552.0, 0.9807238139535294
553.0, 0.9362750958008268
554.0, 0.8727948579464123
555.0, 0.7687072825994354
556.0, 0.6688626648814843
557.0, 0.5814801914622151
558.0, 0.4828449712798656
559.0, 0.395133719267007
560.0, 0.3377802618620913
561.0, 0.29434550006642235
562.0, 0.23835736341485544
563.0, 0.22444062643987953
564.0, 0.20324550586235396
565.0, 0.18402165956415312
566.0, 0.15906608059495048
567.0, 0.1295842773270618
568.0, 0.13626478228442881
569.0, 0.11260589137756957
570.0, 0.09657708103508489
571.0, 0.0895384202952452
572.0, 0.0796905396887314
573.0, 0.07179824214047185
574.0, 0.0731019710660826
575.0, 0.054741517905567416
576.0, 0.05981033640596523
577.0, 0.04904521470998009
578.0, 0.03982696205117799
579.0, 0.03307878570426236
580.0, 0.026984624221584177
581.0, 0.020341682693942598
582.0, 0.003680597816850848
583.0, 0.008009853032081314
584.0, 0.004667884560479796
585.0, 0.0040177255416208
586.0, 0.010331832729390946
587.0, 0.01674155457148891
588.0, 0.012052626693790636
589.0, 0.014080359481351824
590.0, 0.010394362792276504
591.0, 0.004070896810775851
592.0, 0.007403842795933258
593.0, 0.010485046498364365
594.0, 0.008693890858263536
595.0, 0.017828086865453747
596.0, 0.01916310974042979
597.0, 0.024251511350364817
598.0, 0.015973868436025787
599.0, 0.01410203012243245
600.0, 0.01248935424824469
601.0, 0.0050154743864026935
602.0, 0.010565521184110974
603.0, 0.001727277637159139
604.0, 0.0067431225032786235
605.0, 0.005441860997526341
606.0, 0.0033046744402647718
607.0, 0.0037700263245543414
608.0, 0.007010552386184993
609.0, 0.013000001911650308
610.0, 0.010774981080389297
611.0, 0.002468130854721927
612.0, 0.007435642920784151
613.0, 0.0061562853372670884
614.0, 0.0036672346785714197
615.0, 0.010632050389794123
616.0, 0.010388889223421491
617.0, 0.020774336260341253
618.0, 0.023137997757311953
619.0, 0.01863034585940883
620.0, 0.01883250070170178
621.0, 0.021478915777457034
622.0, 0.020942008332968384
623.0, 0.025304921125213455
624.0, 0.029065132441642796
625.0, 0.03474330149367756
626.0, 0.03518401011265633
627.0, 0.03764344839982205
628.0, 0.03923092882843459
629.0, 0.037462800061611616
630.0, 0.043263025697592425
631.0, 0.02988783557095454
632.0, 0.02018554880601535
633.0, 0.020202533303867815
634.0, 0.031033986839719294
635.0, 0.037563922363444004
636.0, 0.03310456865705211
637.0, 0.0394857286986376
638.0, 0.051194718011717176
639.0, 0.057992757020598085
640.0, 0.05240591096494943
641.0, 0.04843217132145384
642.0, 0.06511824838711604
643.0, 0.08792113134886924
644.0, 0.06762356443488785
645.0, 0.08256494919552919
646.0, 0.09168628082202418
647.0, 0.09195198459499511
648.0, 0.10372035341506665
649.0, 0.12447648828218641
650.0, 0.13709137896206425
651.0, 0.1321635520272372
652.0, 0.14797936449844534
653.0, 0.16482673480207863
654.0, 0.18258686561493284
655.0, 0.21177944929622367
656.0, 0.23940950507837427
657.0, 0.2580481510479423
658.0, 0.2754550363787918
659.0, 0.2884910923069407
660.0, 0.302380577484759
661.0, 0.3427226963592461
662.0, 0.36582496735155084
663.0, 0.38513162702178355
664.0, 0.40739225678293384
665.0, 0.42662496958766183
666.0, 0.4659607613514576
667.0, 0.5063416044272779
668.0, 0.5521461302771312
669.0, 0.576796384205888
670.0, 0.6061531945753184
671.0, 0.6477930064735841
672.0, 0.6906118054932701
673.0, 0.7318572076147037
674.0, 0.769904621231901
675.0, 0.811098725040497
676.0, 0.8517806377289802
677.0, 0.8868310060892517
678.0, 0.9147428342565559
679.0, 0.9312471471892335
680.0, 0.9334503613493144
681.0, 0.9616143253552825
682.0, 0.9754535628850447
683.0, 0.9609757316919998
684.0, 0.9524635579246863
685.0, 0.9395632467426974
686.0, 0.9123931282239712
687.0, 0.8819233613446438
688.0, 0.8593741013651762
689.0, 0.8351740427990847
690.0, 0.7796900042061132
691.0, 0.7392571282195438
692.0, 0.7103004753607507
693.0, 0.6848177556254758
694.0, 0.6549744594361712
695.0, 0.6077599113273846
696.0, 0.577261092770794
697.0, 0.5421405153853253
698.0, 0.502798678783813
699.0, 0.4721345927286759
700.0, 0.4517335579714646
701.0, 0.43220654036125594
702.0, 0.4047378068565769
703.0, 0.3839346497375669
704.0, 0.3645678838514246
705.0, 0.33861936134906373
706.0, 0.32034659926772163
707.0, 0.301962024561415
708.0, 0.2785892026853814
709.0, 0.25414970052287017
710.0, 0.233384943526906
711.0, 0.21647714171997096
712.0, 0.21983175872596225
713.0, 0.2219165920292157
714.0, 0.221244267768782
715.0, 0.21139889871683995
716.0, 0.20072302096589123
717.0, 0.2061555676374479
718.0, 0.18745022140674197
719.0, 0.1650590165065655
720.0, 0.1542567269650031
721.0, 0.1548161540559954
722.0, 0.149101374393295
723.0, 0.14170730901399958
724.0, 0.14089569512706843
725.0, 0.1254471414287091
726.0, 0.12224932635203702
727.0, 0.11770371654307114
728.0, 0.10861025844476116
729.0, 0.10084388977786883
730.0, 0.09481153033440004
731.0, 0.08889038809446823
732.0, 0.08347669591141191
733.0, 0.08165934945649589
734.0, 0.07976028358597649
735.0, 0.07037933323526346
736.0, 0.07291963267691941
737.0, 0.06829954485617622
738.0, 0.05733792580032555
739.0, 0.05360061334915114
740.0, 0.05806502500308704
741.0, 0.05058550996243183
742.0, 0.03928939811348236
743.0, 0.03994340820976214
744.0, 0.05167064721531398
745.0, 0.053513289961145946
746.0, 0.04880430826740847
747.0, 0.052214602661391926
748.0, 0.051888230768087254
749.0, 0.053750485456832746
750.0, 0.05291352167461569
751.0, 0.059336532321136594
752.0, 0.052379010043317194
753.0, 0.039854514368151586
754.0, 0.03051602179101506
755.0, 0.02749138381474044
756.0, 0.04782004901029751
757.0, 0.03510087592195311
758.0, 0.04008956270186795
759.0, 0.05157201227813049
760.0, 0.04235092938698037
761.0, 0.0372348660657618
762.0, 0.047065882815824106
763.0, 0.043268295662130266
764.0, 0.038390798822573374
765.0, 0.05092939445308019
766.0, 0.04105481371415289
767.0, 0.034498926120240005
768.0, 0.033851226710793596
769.0, 0.029540236278245747
770.0, 0.023870354382655744
771.0, 0.03293633137628483
772.0, 0.03950399425163167
773.0, 0.03264238854846903
774.0, 0.041214986562917826
775.0, 0.03171926054108828
776.0, 0.021682396192297494
777.0, 0.021061402147779084
778.0, 0.028158961427259058
779.0, 0.038577704091879335
780.0, 0.029306991264497234
781.0, 0.0426937575948346
782.0, 0.04289272098256883
783.0, 0.03679653224718036
784.0, 0.03661143020137034
785.0, 0.03821015719485489
786.0, 0.0386367380204873
787.0, 0.04453092780055265
788.0, 0.017131403670004028
789.0, 0.015182021337741861
790.0, 0.04094141060174482
791.0, 0.03367091133719561
792.0, 0.029465131560463063
793.0, 0.03014913429713008
794.0, 0.022296751742859073
795.0, 0.02325842492283348
796.0, 0.02273174203722085
797.0, 0.02700825039877756
798.0, 0.01414204724843706
799.0, 0.02087758048526056
800.0, 0.03276517642546465
801.0, 0.028840783192861714
802.0, 0.014527932336857079
803.0, 0.014571948335813982
804.0, 0.008470467452230422
805.0, 0.009903013567667363
806.0, 0.01613676303979798
807.0, 0.022559591402262633
808.0, 0.02854802819353232
809.0, 0.023644602603966225
810.0, 0.013606516344450429
811.0, 0.018174500304502277
812.0, 0.015215178103057907
813.0, 0.017305551989764224
814.0, 0.022358059236448184
815.0, 0.017715042791142572
816.0, 0.017864503814423664
817.0, 0.023231115242744686
818.0, 0.024115014383317316
819.0, 0.01960081525547795
820.0, 0.028139392593596678
821.0, 0.011584132336352427
822.0, 0.015887684501729032
823.0, 0.013527325644033836
824.0, 0.006571979108647725
825.0, 0.004960742756232525
826.0, 0.0074462505504522564
827.0, 0.006930324080228085
828.0, 0.0068963246126905395
829.0, 0.003927721567441688
830.0, 0.011850178193643196
831.0, 0.0290883326553304
832.0, 0.013396625703863088
833.0, 0.018493627985168275
834.0, 0.027644433188828334
835.0, 0.009976095453933135
836.0, 0.004953804120741498
837.0, 0.004355048424580996
838.0, 0.006461164957771649
839.0, 0.01970062088970582
840.0, 0.008577581434221836
841.0, 0.006739861970893502
842.0, 0.012075481808958552
843.0, 0.0095577303740187
844.0, 0.00242347478934285
845.0, 0.003103702428542823
846.0, 0.00719022744426926
847.0, 0.007871717871690408
848.0, 0.009273756481591051
849.0, 0.009161133704919437
850.0, 0.008041147190967674
851.0, 0.005020769637135435
852.0, 0.0020290657019181218
853.0, 0.006793771455217486
854.0, 0.016927950973481397
855.0, 0.017766590851328725
856.0, 0.01092385108992383
857.0, 0.014467808512209584
858.0, 0.017053593602903136
859.0, 0.01214749651173869
860.0, 0.013696748937164877
861.0, 0.02976267292704002
862.0, 0.020616924356994054
863.0, 0.007016202145054349
864.0, 0.02796672084523886
865.0, 0.010893843021755351
866.0, 0.014761011043487694
867.0, 0.025292638341047884
868.0, 0.020482413761409354
869.0, 0.007042534775427347
870.0, 0.006827198330885907
871.0, 0.017661117975461087
872.0, 0.03297707807169801
873.0, 0.012446964322230364
874.0, 0.015970575936311234
875.0, 0.013343028203656283
876.0, 0.004642932717346237
877.0, 0.005397658502180635
878.0, 0.016972799545960565
879.0, 0.02298311989980971
880.0, 0.01755815279520007
881.0, 0.01037243748536156
882.0, 0.003939194741013341
883.0, 0.005583278593999314
884.0, 0.011056396563425955
885.0, 0.01619292933393013
886.0, 0.0215981090163886
887.0, 0.02827399250212787
888.0, 0.030461710733440606
889.0, 0.0291564625503282
890.0, 0.027383398320058504
891.0, 0.021810779017423128
892.0, 0.0227374318267658
893.0, 0.020164281877737028
894.0, 0.015694272092736262
895.0, 0.011720676783398328
896.0, 0.005282782855954313
897.0, 0.01068623315273707
898.0, 0.005701151168203418
899.0, 0.017195789963172253
900.0, 0.012396309885258004
901.0, 0.004483685093998886
902.0, 0.010715836188404538
903.0, 0.019503519955576205
904.0, 0.01477095069546529
905.0, 0.0048457756864928765
906.0, 0.005503118043644024
907.0, 0.01382899634137007
908.0, 0.036145314161522724
909.0, 0.02801281507764227
910.0, 0.023550149593618532
911.0, 0.024641593819137473
912.0, 0.020916262866499877
913.0, 0.018755186389252856
914.0, 0.0284238665728532
915.0, 0.013926864029232147
916.0, 0.024036264651060447
917.0, 0.016725115631139646
918.0, 0.014237104257749747
919.0, 0.021542810262307668
920.0, 0.02706592811261134
921.0, 0.02340771740900588
922.0, 0.01716181847329691
923.0, 0.019071377243839976
924.0, 0.023619774347128482
925.0, 0.02796021152781721
926.0, 0.0325176874931693
927.0, 0.02517282319432783
928.0, 0.035518865084463856
929.0, 0.02859020819439716
930.0, 0.023159760567622516
931.0, 0.037373462971957705
932.0, 0.04334939795851854
933.0, 0.03359205665886536
934.0, 0.0363824471159506
935.0, 0.044870158198185475
936.0, 0.05287381218620594
937.0, 0.049218996935741485
938.0, 0.05426527561825961
939.0, 0.05582589943813548
940.0, 0.049101063009399586
941.0, 0.05085057498416654
942.0, 0.058077927057004305
943.0, 0.03546436255085726
944.0, 0.047617656022373445
945.0, 0.039924973546998116
946.0, 0.03313893166602211
947.0, 0.035037738171864966
948.0, 0.04614460457734342
949.0, 0.06005409045684153
950.0, 0.06426801374568504
951.0, 0.05409510609221652
952.0, 0.05636067326925363
953.0, 0.054243775931844436
954.0, 0.056565377371988315
955.0, 0.0639441838085666
956.0, 0.058370378136117444
957.0, 0.0484198523065045
958.0, 0.04962367420891725
959.0, 0.05798710733400475
960.0, 0.05774679033135805
961.0, 0.05228560329018136
962.0, 0.03289475831196268
963.0, 0.04932491545950682
964.0, 0.05763307279249002
965.0, 0.053011710691956114
966.0, 0.060497069377725345
967.0, 0.05521161582936376
968.0, 0.0519589027310428
969.0, 0.0667000801169048
970.0, 0.0592093363787321
971.0, 0.05316643913669066
972.0, 0.06551151278198337
973.0, 0.04795556933640073
974.0, 0.05259992160616955
975.0, 0.05818341683377291
976.0, 0.054169079404461515
977.0, 0.05262311754611878
978.0, 0.05866541836472962
979.0, 0.06310287077105366
980.0, 0.06503888339189669
981.0, 0.07066332512526494
982.0, 0.07453767804924358
983.0, 0.0760509442145738
984.0, 0.07740928200096221
985.0, 0.07026873973256273
986.0, 0.06767601710134176
987.0, 0.07232651508785383
988.0, 0.08067170127930105
989.0, 0.08917746388489198
990.0, 0.084584156772205
991.0, 0.07568695739476713
992.0, 0.08456065836097287
993.0, 0.09869723726530737
994.0, 0.08929669088190784
995.0, 0.09461099160292182
996.0, 0.10276764785655625
997.0, 0.10373810290690123
998.0, 0.1119356993223835
999.0, 0.1247785063014512
1000.0, 0.10166954359055662
1001.0, 0.1391453894402035
1002.0, 0.154774304125445
1003.0, 0.14559663584266733
1004.0, 0.1416676218472768
1005.0, 0.1436158792155934
1006.0, 0.12192395548590507
1007.0, 0.09407791660368633
1008.0, 0.08601340895017509
1009.0, 0.0809119004670641
1010.0, 0.06677125357497593
1011.0, 0.06656988668199426
1012.0, 0.055223833926147305
1013.0, 0.050960257718506166
1014.0, 0.040660368135954666
1015.0, 0.04180789011500522
1016.0, 0.04756610196895613
1017.0, 0.044139765606552736
1018.0, 0.03661127270642779
1019.0, 0.03830718971840359
1020.0, 0.041134814033930364
1021.0, 0.05349539733382083
1022.0, 0.0448235675431135
1023.0, 0.0573262919045735
1024.0, 0.06175961204472411
1025.0, 0.05183048424151007
1026.0, 0.052095995668964945
1027.0, 0.054923830647711135
1028.0, 0.049077729086153134
1029.0, 0.04901829055706872
1030.0, 0.06453412788169965
1031.0, 0.0672578587404234
1032.0, 0.050355286259371745
1033.0, 0.06235964080626942
1034.0, 0.06317244552392542
1035.0, 0.0720608311983845
1036.0, 0.07943775542433583
1037.0, 0.07841250680700014
1038.0, 0.07868107413389562
1039.0, 0.08527475342129595
1040.0, 0.08988390003239068
1041.0, 0.10239258384126196
1042.0, 0.10048083752255212
1043.0, 0.10736218336679428
1044.0, 0.11788442067713856
1045.0, 0.10297593544162933
1046.0, 0.10375882830391951
1047.0, 0.11100674342532935
1048.0, 0.11563062367377337
1049.0, 0.11597221592084454
1050.0, 0.11162792985858919
1051.0, 0.11577186367428852
1052.0, 0.12139336740722464
1053.0, 0.12805806862312474
1054.0, 0.13004281731548817
1055.0, 0.1267333894052194
1056.0, 0.1282442871597811
1057.0, 0.1171258772416567
1058.0, 0.10057757511859255
1059.0, 0.08718941751832443
1060.0, 0.08589584180277479
1061.0, 0.10099174072476053
1062.0, 0.10008288199855511
1063.0, 0.1001093819958463
1064.0, 0.1049612245657656
1065.0, 0.09615114763351273
1066.0, 0.0984480043106642
1067.0, 0.09969926732494905
1068.0, 0.0936471000505358
1069.0, 0.09120913647100891
1070.0, 0.09243961742701087
1071.0, 0.09545169646558857
1072.0, 0.10758407753254111
1073.0, 0.10475392968267325
1074.0, 0.08161530699210232
1075.0, 0.11212588903288025
1076.0, 0.11412521637016902
1077.0, 0.11076526944691763
1078.0, 0.12757780890045067
1079.0, 0.13334408727847458
1080.0, 0.12508965032245156
1081.0, 0.12709488476911898
1082.0, 0.13665804643084267
1083.0, 0.13029488304746917
1084.0, 0.13845681084191155
1085.0, 0.14256124376236726
1086.0, 0.15287843088964137
1087.0, 0.1548177318774207
1088.0, 0.15249358757094833
1089.0, 0.1445727129878321
1090.0, 0.1346228077400874
1091.0, 0.12079157715876823
1092.0, 0.10292233229176179
1093.0, 0.08884194707862322
1094.0, 0.08116908780846685
1095.0, 0.06829721848304858
1096.0, 0.08219902537373774
1097.0, 0.05704594969745028
1098.0, 0.053364936782455755
1099.0, 0.03881390486236722
1100.0, 0.04152644069812119
1101.0, 0.04195429900705298
1102.0, 0.03543770310821448
1103.0, 0.02531930941171153
1104.0, 0.024254416112614224
1105.0, 0.03552578472370729
1106.0, 0.024812981410813256
1107.0, 0.00402874597076785
1108.0, 0.025099620800721208
1109.0, 0.008118508389115625
1110.0, 0.0019985847952870245
1111.0, 0.0027603662137548487
1112.0, 0.012316339742933113
1113.0, 0.015527157377789102
1114.0, 0.008723559894262716
1115.0, 0.00877576966067925
1116.0, 0.02025670772076499
1117.0, 0.020407946167669208
1118.0, 0.00824934357284714
1119.0, 0.006081438931517907
1120.0, 0.01408334601108624
1121.0, 0.013766842093107563
1122.0, 0.006353057629929992
1123.0, 0.0032965807438735347
1124.0, 0.006261742356208211
1125.0, 0.007215568285068723
1126.0, 0.0046980086539949485
1127.0, 0.005162720039723822
1128.0, 0.00702931705738081
1129.0, 0.0030989185958631435
1130.0, 0.012097872462451528
1131.0, 0.0043312612437065
1132.0, 0.01532796773190803
1133.0, 0.005684306900669311
1134.0, 0.002320211798629097
1135.0, 0.02262611065285114
1136.0, 0.01777918853851965
1137.0, 0.008376605058092538
1138.0, 0.008846222482333467
1139.0, 0.007329869626234653
1140.0, 0.008641371723549177
1141.0, 0.016501652863561044
1142.0, 0.0011325124085032883
1143.0, 0.004409512357506714
1144.0, 0.02167295380530542
1145.0, 0.004880135218414119
1146.0, 0.005887050418956836
1147.0, 0.014719355066314067
1148.0, 0.008201476250625674
1149.0, 0.0015823061378820063
1150.0, 0.003830565452212701
1151.0, 0.012737409313458877
1152.0, 0.022675708524194916
1153.0, 0.0167588069186478
1154.0, 0.0031414922049640996
1155.0, 0.014644933593695493
1156.0, 0.025493017296020166
1157.0, 0.003459947634815346
1158.0, 0.0027676418542242837
1159.0, 0.0064493911291727945
1160.0, 0.0034039647545291403
1161.0, 0.0010425618190423615
1162.0, 0.01345070437931205
1163.0, 0.02371550575013328
1164.0, 0.016417047574296618
1165.0, 0.014829280793467674
1166.0, 0.017766453679639752
1167.0, 0.0051311977117378844
1168.0, 0.0005273217700322596
1169.0, 0.023490715080364065
1170.0, 0.016525097898277507
1171.0, 0.011663665899462768
1172.0, 0.005856564767131707
1173.0, 0.00840774180534741
1174.0, 0.014505869045886272
1175.0, 0.015473617604446752
1176.0, 0.013665152506268626
1177.0, 0.01203245417007918
1178.0, 0.005810149938125675
1179.0, 0.002969056468451465
1180.0, 0.0026523099770913608
1181.0, 0.008850695071026139
1182.0, 0.002663987601688327
1183.0, 0.015324387064375777
1184.0, 0.017396749617161023
1185.0, 0.014087826221511562
1186.0, 0.011856294646939023
1187.0, 0.0073585823418040675
1188.0, 0.0040516563709887135
1189.0, 0.013900184263257887
1190.0, 0.0279870589927092
1191.0, 0.02021156895337396
1192.0, 0.020176610621157012
1193.0, 0.03504636810676954
1194.0, 0.0133920164936246
1195.0, 0.0070152719532439265
1196.0, 0.02247557003618066
1197.0, 0.01788757483784163
1198.0, 0.021600697868457645
1199.0, 0.0236702157253328
1200.0, 0.014711165684035942
1201.0, 0.008052843489534719
1202.0, 0.008170075324166887
1203.0, 0.008558667629784963
1204.0, 0.01638325365871523
1205.0, 0.021054120500844535
1206.0, 0.009917100209601522
1207.0, 0.016875999012660115
1208.0, 0.016071258458496798
1209.0, 0.016846918708254634
1210.0, 0.02047100507586338
1211.0, 0.023963852203145765
1212.0, 0.019662652996114638
1213.0, 0.01648432259532489
1214.0, 0.010390506196471052
1215.0, 0.007876493733686842
1216.0, 0.016770130119158618
1217.0, 0.023621159861701366
1218.0, 0.03026500986374282
1219.0, 0.026283822063143558
1220.0, 0.018415927311692167
1221.0, 0.016350594043824246
1222.0, 0.027360512531696763
1223.0, 0.025115651761921525
1224.0, 0.03098178888706001
1225.0, 0.030797043784719386
1226.0, 0.013733086811332475
1227.0, 0.00602909451714193
1228.0, 0.007394170044710026
1229.0, 0.008306476725764914
1230.0, 0.011078217034436628
1231.0, 0.014354689124635191
1232.0, 0.03276449618720306
1233.0, 0.036983385782987085
1234.0, 0.04885362643466829
1235.0, 0.04649366415950449
1236.0, 0.029405308039641948
1237.0, 0.03518058373883726
1238.0, 0.026562330129314672
1239.0, 0.023903737041267675
1240.0, 0.022591570130512766
1241.0, 0.02059626256794291
1242.0, 0.017765453795923737
1243.0, 0.015866323257469766
1244.0, 0.016708619581386093
1245.0, 0.012951004985272678
1246.0, 0.007161650570041863
1247.0, 0.028127795320488563
1248.0, 0.0058239037740484695
1249.0, 0.041724895095205654
1250.0, 0.011764297883834953
1251.0, 0.01299647929397113
1252.0, 0.03739058739667262
1253.0, 0.027170758148574555
1254.0, 0.0222755009734061
1255.0, 0.013454190232185706
1256.0, 0.017712147282957284
1257.0, 0.03224237648554049
1258.0, 0.026077022355851614
1259.0, 0.01570036412081556
1260.0, 0.027915890091961673
1261.0, 0.01812817903453293
1262.0, 0.01626654721382247
1263.0, 0.015040191808149056
1264.0, 0.03326524461352932
1265.0, 0.021679288365818047
1266.0, 0.04839377758193615
1267.0, 0.029254900555694806
1268.0, 0.013502623415022078
1269.0, 0.01277121076057477
1270.0, 0.01945459029672183
1271.0, 0.022733085226537622
1272.0, 0.024242556804781858
1273.0, 0.02030384024795701
1274.0, 0.011552435601459651
1275.0, 0.01735340487125462
1276.0, 0.016162827375130834
1277.0, 0.026547127644623945
1278.0, 0.021595412666682946
1279.0, 0.029126185264188274
1280.0, 0.04432111236200442
1281.0, 0.03946557000866997
1282.0, 0.0322632117104746
1283.0, 0.03985209929078572
1284.0, 0.030652604160645115
1285.0, 0.033201467876699794
1286.0, 0.03959935594817394
1287.0, 0.04828832381397024
1288.0, 0.05455901035980712
1289.0, 0.04730048879281513
1290.0, 0.037585869541167605
1291.0, 0.02176909547890398
1292.0, 0.04028735697704156
1293.0, 0.04213444627918134
1294.0, 0.05572386540138046
1295.0, 0.04624592164610381
1296.0, 0.043336086294350755
1297.0, 0.02905679289370037
1298.0, 0.03157454993764809
1299.0, 0.027214263642954782
1300.0, 0.029692957235480034
1301.0, 0.033314254779126355
1302.0, 0.034453388485449016
1303.0, 0.04556001254205016
1304.0, 0.049640028788557784
1305.0, 0.03416590545161047
1306.0, 0.02576321031296626
1307.0, 0.02084907070782357
1308.0, 0.03706630684215876
1309.0, 0.042954587509494
1310.0, 0.05067087925024275
1311.0, 0.03398773010303439
1312.0, 0.03867070201918726
1313.0, 0.021606348651963127
1314.0, 0.028311435259273335
1315.0, 0.02985667319290411
1316.0, 0.023092182129292937
1317.0, 0.0267854222267818
1318.0, 0.024178393618112033
1319.0, 0.022109963491363457
1320.0, 0.023667872477387344
1321.0, 0.021888216364515573
1322.0, 0.023302119258301682
1323.0, 0.02376474262288862
1324.0, 0.026650588587914567
1325.0, 0.017287646827494008
1326.0, 0.024821260907679395
1327.0, 0.03205506860590606
1328.0, 0.013701276951774794
1329.0, 0.01046804100904542
1330.0, 0.009990023910207032
1331.0, 0.027632030117190814
1332.0, 0.014569921006996667
1333.0, 0.023050421948569086
1334.0, 0.043766181593100965
1335.0, 0.03600790707986839
1336.0, 0.028422556599701575
1337.0, 0.02060389196282321
1338.0, 0.010382030721359724
1339.0, 0.016322789421071054
1340.0, 0.008861923652864865
1341.0, 0.0122736652917333
1342.0, 0.02160691685025623
1343.0, 0.024837612102096535
1344.0, 0.01087985891265489
1345.0, 0.004752137491667039
1346.0, 0.010784668325843502
1347.0, 0.03231120171374116
1348.0, 0.022802640290483074
1349.0, 0.024799098837823275
1350.0, 0.017441289875345985
1351.0, 0.027951770077716327
1352.0, 0.031248756117405522
1353.0, 0.035003128804002526
1354.0, 0.02977876846552393
1355.0, 0.025462562710803226
1356.0, 0.03206411620697936
1357.0, 0.028757196201001835
1358.0, 0.02649849209218949
1359.0, 0.026847111014739123
1360.0, 0.025302745372366993
1361.0, 0.014568585479683017
1362.0, 0.012081614936871857
1363.0, 0.01758545089949322
1364.0, 0.006712116840531098
1365.0, 0.00711373348613902
1366.0, 0.007812816207466815
1367.0, 0.004015460855069429
1368.0, 0.00819087595292628
1369.0, 0.011516723122312772
1370.0, 0.012849953726526715
1371.0, 0.01409299052310289
1372.0, 0.012307444757871563
1373.0, 0.009183154508064924
1374.0, 0.011846656173601346
1375.0, 0.01086409416705122
1376.0, 0.008923259902739834
1377.0, 0.026057489693105396
1378.0, 0.022949561276054898
1379.0, 0.0023106811210295954
1380.0, 0.007025916208645757
1381.0, 0.002548019048276012
1382.0, 0.02039853743232249
1383.0, 0.011398025098117175
1384.0, 0.013896130995313224
1385.0, 0.0147936861109486
1386.0, 0.010637538543370467
1387.0, 0.01390853896726631
1388.0, 0.009954926520803481
1389.0, 0.004425518000619772
1390.0, 0.007370806233662555
1391.0, 0.009513177519707317
1392.0, 0.012645295595568097
1393.0, 0.008644522188317846
1394.0, 0.0036789185367259794
1395.0, 0.006962689467357574
1396.0, 0.00408705274043563
1397.0, 0.007095190158529998
1398.0, 0.016175257972250022
1399.0, 0.0033816793582242127
1400.0, 0.01698870711104187
1401.0, 0.022571172784759303
1402.0, 0.010362731506057753
1403.0, 0.01323471814031041
1404.0, 0.003770122346146299
1405.0, 0.001084227646237267
1406.0, 0.019882192184056777
1407.0, 0.012773636766522803
1408.0, 0.010718257190829028
1409.0, 0.01493471760704388
1410.0, 0.008085345006574953
1411.0, 0.014076691843165285
1412.0, 0.011797051884056216
1413.0, 0.005363305243784383
1414.0, 0.004818341986994307
1415.0, 0.00896157118215299
1416.0, 0.015290574987732408
1417.0, 0.01532550790378544
1418.0, 0.015527674174261088
1419.0, 0.0138120716752559
1420.0, 0.017419552327245957
1421.0, 0.004353849367534875
1422.0, 0.013081819434852338
1423.0, 0.01835487560418838
1424.0, 0.0010050188779837637
1425.0, 0.020611301980963215
1426.0, 0.010258509468745805
1427.0, 0.005052535313852378
1428.0, 0.015256489648648428
1429.0, 0.017514871573171324
1430.0, 0.019666590926803975
1431.0, 0.03418118870930384
1432.0, 0.037366961787341425
1433.0, 0.03380505579699992
1434.0, 0.027492539252530198
1435.0, 0.02393033919801011
1436.0, 0.025909381874662078
1437.0, 0.02702851578816432
1438.0, 0.031624117577854854
1439.0, 0.03812848818635977
1440.0, 0.03465864679973809
1441.0, 0.038214313277162175
1442.0, 0.04519300771101789
1443.0, 0.03979251441114055
1444.0, 0.06035702340963117
1445.0, 0.019395525734149925
1446.0, 0.04356871015343557
1447.0, 0.031042828644221688
1448.0, 0.022000328108546685
1449.0, 0.0365826906966337
1450.0, 0.048313603084284285
1451.0, 0.03504368101396179
1452.0, 0.033659004872874106
1453.0, 0.031546421120526
1454.0, 0.047273167091461225
1455.0, 0.05789286572705036
1456.0, 0.041352231349724024
1457.0, 0.03996438081126067
1458.0, 0.03881928924404381
1459.0, 0.04304119904547205
1460.0, 0.047012492366465104
1461.0, 0.03713510061439259
1462.0, 0.033592337925456565
1463.0, 0.03733881276712438
1464.0, 0.03615277307269886
1465.0, 0.04000553093829476
1466.0, 0.0411179489563797
1467.0, 0.04203363133386966
1468.0, 0.043106010615394
1469.0, 0.04502524822826878
1470.0, 0.04601996833488887
1471.0, 0.042203950263997564
1472.0, 0.02799138081509829
1473.0, 0.03429012629058896
1474.0, 0.026202988202545508
1475.0, 0.029917692839874794
1476.0, 0.026538864816450278
1477.0, 0.011682199398531636
1478.0, 0.010538158547104319
1479.0, 0.025476346632285648
1480.0, 0.019993549073886313
1481.0, 0.016695869521727778
1482.0, 0.031150444023080415
1483.0, 0.02615666831994505
1484.0, 0.029792728094837195
1485.0, 0.03157392097626157
1486.0, 0.028693124293872694
1487.0, 0.02384171989500108
1488.0, 0.022201715823898054
1489.0, 0.02490006328991702
1490.0, 0.021762828706072115
1491.0, 0.021022926801968076
1492.0, 0.017035835959964826
1493.0, 0.017405231190685815
1494.0, 0.015884637328668415
1495.0, 0.013642768069920187
1496.0, 0.020347809960255207
1497.0, 0.01530443092232129
1498.0, 0.01393089484657106
1499.0, 0.010807386643776961
1500.0, 0.009925559023861818
1501.0, 0.010370901674345581
1502.0, 0.010125462735595813
1503.0, 0.01207332986359097
1504.0, 0.013632111432586424
1505.0, 0.013852028082173177
1506.0, 0.027584420289321693
1507.0, 0.018334407551017725
1508.0, 0.01908209676286896
1509.0, 0.02351444537661116
1510.0, 0.013915703809506871
1511.0, 0.012318507618567651
1512.0, 0.007221818374559385
1513.0, 0.017617462526854092
1514.0, 0.011181574629636738
1515.0, 0.0007357190867403712
1516.0, 0.014581499594657344
1517.0, 0.021105800607911646
1518.0, 0.015526344750259968
1519.0, 0.02387361100631352
1520.0, 0.027163283885948974
1521.0, 0.01562763527788932
1522.0, 0.017952221607184318
1523.0, 0.019744853549273737
1524.0, 0.011853014113305622
1525.0, 0.024156946443360187
1526.0, 0.007168107432379194
1527.0, 0.006670698328037597
1528.0, 0.016452295873663127
1529.0, 0.0073084048979046145
1530.0, 0.023596772073380932
1531.0, 0.02697016319073245
1532.0, 0.015186887145286567
1533.0, 0.0019208720613251113
1534.0, 0.011685571661683408
1535.0, 0.02347858737405538
1536.0, 0.0165873924530942
1537.0, 0.0285063672561092
1538.0, 0.00644571901215433
1539.0, 0.005809816808489937
1540.0, 0.007937367630828215
1541.0, 0.030862295357216123
1542.0, 0.019763225580756036
1543.0, 0.024338659942969056
1544.0, 0.011484846291988652
1545.0, 0.0026767169610037752
1546.0, 0.005087475685530075
1547.0, 0.006797658214671949
1548.0, 0.01552444020717377
1549.0, 0.018011573439729672
1550.0, 0.024306232657527543
1551.0, 0.015406280639243472
1552.0, 0.021545956804337633
1553.0, 0.025832468109616577
1554.0, 0.020044213759060448
1555.0, 0.02836557708662882
1556.0, 0.015926990281356856
1557.0, 0.014600955198048491
1558.0, 0.006743183986597735
1559.0, 0.009134529340886394
1560.0, 0.02493326557330257
1561.0, 0.024391925176686594
1562.0, 0.011499108495968975
1563, 0.0
1564, 0.0
1565, 0.0
1566, 0.0
1567, 0.0
1568, 0.0
1569, 0.0
1570, 0.0
1571, 0.0
1572, 0.0
1573, 0.0
1574, 0.0
1575, 0.0
1576, 0.0
1577, 0.0
1578, 0.0
1579, 0.0
1580, 0.0
1581, 0.0
1582, 0.0
1583, 0.0
1584, 0.0
1585, 0.0
1586, 0.0
1587, 0.0
1588, 0.0
1589, 0.0
1590, 0.0
1591, 0.0
1592, 0.0
1593, 0.0
1594, 0.0
1595, 0.0
1596, 0.0
1597, 0.0
1598, 0.0
1599, 0.0
