30, 0.0
31, 0.0
32, 0.0
33, 0.0
34, 0.0
35, 0.0
36, 0.0
37, 0.0
38, 0.0
39, 0.0
40, 0.0
41, 0.0
42, 0.0
43, 0.0
44, 0.0
45, 0.0
46, 0.0
47, 0.0
48, 0.0
49, 0.0
50, 0.0
51, 0.0
52, 0.0
53, 0.0
54, 0.0
55, 0.0
56, 0.0
57, 0.0
58, 0.0
59, 0.0
60, 0.0
61, 0.0
62, 0.0
63, 0.0
64, 0.0
65, 0.0
66, 0.0
67, 0.0
68, 0.0
69, 0.0
70, 0.0
71, 0.0
72, 0.0
73, 0.0
74, 0.0
75, 0.0
76, 0.0
77, 0.0
78, 0.0
79, 0.0
80, 0.0
81, 0.0
82, 0.0
83, 0.0
84, 0.0
85, 0.0
86, 0.0
87, 0.0
88, 0.0
89, 0.0
90, 0.0
91, 0.0
92, 0.0
93, 0.0
94, 0.0
95, 0.0
96, 0.0
97, 0.0
98, 0.0
99, 0.0
100, 0.0
101, 0.0
102, 0.0
103, 0.0
104, 0.0
105, 0.0
106, 0.0
107, 0.0
108, 0.0
109, 0.0
110, 0.0
111, 0.0
112, 0.0
113, 0.0
114, 0.0
115, 0.0
116, 0.0
117, 0.0
118, 0.0
119, 0.0
120, 0.0
121, 0.0
122, 0.0
123, 0.0
124, 0.0
125, 0.0
126, 0.0
127, 0.0
128, 0.0
129, 0.0
130, 0.0
131.0, 0.002216054028272521
132.0, 0.0006948699321375346
133.0, 0.005595770378870031
134.0, 0.026908465855723863
135.0, 0.06709595518759656
136.0, 0.12737607051844063
137.0, 0.20697194673416064
138.0, 0.2936501521571975
139.0, 0.3842799281742685
140.0, 0.4683670145065991
141.0, 0.5260626222338967
142.0, 0.5686073634586938
143.0, 0.5551829572662185
144.0, 0.4735427215270885
145.0, 0.3518037781811575
146.0, 0.2286541540775486
147.0, 0.13516484322828268
148.0, 0.06909943395013175
149.0, 0.018108661173854863
150.0, 0.008060792511648637
151.0, 0.004998756702718029
152.0, 0.026240244128951058
153.0, 0.06705619600686767
154.0, 0.1327664766184892
155.0, 0.21072371110633747
156.0, 0.29635370906504166
157.0, 0.38818015253262617
158.0, 0.48451098810210963
159.0, 0.5274637328636474
160.0, 0.5664795936062612
161.0, 0.6025354487885594
162.0, 0.6095442383652189
163.0, 0.6223359572818961
164.0, 0.6620084438480087
165.0, 0.7289492032817654
166.0, 0.8130686576351208
167.0, 0.9078189176700318
168.0, 0.9631302533823537
169.0, 0.9436453449812089
170.0, 0.860124305663517
171.0, 0.7529307779538426
172.0, 0.6132564628629008
173.0, 0.4822443151290443
174.0, 0.38228553324094106
175.0, 0.3240885582815537
176.0, 0.3022141887506969
177.0, 0.3056086912729663
178.0, 0.3191455781612097
179.0, 0.32883650113955953
180.0, 0.3384151473700211
181.0, 0.3512740285163774
182.0, 0.3475705574646242
183.0, 0.315246954877806
184.0, 0.2648846797536079
185.0, 0.19328843387352895
186.0, 0.1334381556768127
187.0, 0.09223505020783465
188.0, 0.05767408971876436
189.0, 0.03636571121163285
190.0, 0.041842337912356316
191.0, 0.06405964218855724
192.0, 0.09201857184414841
193.0, 0.12227209856939086
194.0, 0.1494536231968246
195.0, 0.1728579956651184
196.0, 0.18960603659172612
197.0, 0.19769928669600528
198.0, 0.20921565996606448
199.0, 0.21910481821908318
200.0, 0.23580168636289772
201.0, 0.26403214526329394
202.0, 0.2882042521925729
203.0, 0.32628415290965535
204.0, 0.37466012192752574
205.0, 0.4226372641188771
206.0, 0.46484182334525864
207.0, 0.532941328034421
208.0, 0.6147619821071612
209.0, 0.6984102387304114
210.0, 0.7790528851976027
211.0, 0.8587199031632974
212.0, 0.9268774286425392
213.0, 0.9766302090041022
214.0, 0.9997979631802342
215.0, 0.9830523592523387
216.0, 0.9275484489220691
217.0, 0.8450917764482595
218.0, 0.7477171340488925
219.0, 0.64891854026225
220.0, 0.5646736985796529
221.0, 0.47796459476451225
222.0, 0.3948403754156619
223.0, 0.32770240257436584
224.0, 0.27655072005221176
225.0, 0.23160112994782925
226.0, 0.18897063803598785
227.0, 0.15153405321581237
228.0, 0.12220204122461571
229.0, 0.08324666701183148
230.0, 0.06424501032551107
231.0, 0.05025824595064185
232.0, 0.02682235406836101
233.0, 0.01296352608293578
234.0, 0.008074314020912026
235.0, 0.004477165007623495
236.0, 0.015176098104024358
237.0, 0.018235549480751338
238.0, 0.02495686738442822
239.0, 0.02928414851898736
240.0, 0.026743636569049694
241.0, 0.02168321019165098
242.0, 0.023741567220130985
243.0, 0.018992640917726587
244.0, 0.011784456240918516
245.0, 0.003503167586050419
246.0, 0.012007962401370482
247.0, 0.01985223868017981
248.0, 0.02832691617283459
249.0, 0.036843970208488064
250.0, 0.046836087971645284
251.0, 0.0651602255905634
252.0, 0.0764597501352846
253.0, 0.0930519308547591
254.0, 0.11288230624132334
255.0, 0.12756288462666865
256.0, 0.145981785241647
257.0, 0.16648514830162073
258.0, 0.1892192175304607
259.0, 0.21576194639404322
260.0, 0.2482335191606826
261.0, 0.28289555003940753
262.0, 0.3231672065312858
263.0, 0.36544210397709687
264.0, 0.4067475199491282
265.0, 0.45304226030932193
266.0, 0.4938194505874444
267.0, 0.5200925870864526
268.0, 0.5319183598944813
269.0, 0.5287984067665534
270.0, 0.49852368745205206
271.0, 0.45979991262237535
272.0, 0.4142594871873102
273.0, 0.36453465376710487
274.0, 0.3218162824303928
275.0, 0.29092009163991306
276.0, 0.2549881413666627
277.0, 0.21200782770793358
278.0, 0.17123218701864068
279.0, 0.1469682698001958
280.0, 0.11623464995811655
281.0, 0.08697072300611049
282.0, 0.07002250925426738
283.0, 0.0694496678832145
284.0, 0.055330924306968704
285.0, 0.048446619267230234
286.0, 0.04792819190146908
287.0, 0.04776463427866149
288.0, 0.04902883703879356
289.0, 0.04858222928470132
290.0, 0.0530786619594557
291.0, 0.06051687128026999
292.0, 0.0657862926785279
293.0, 0.06893798621731134
294.0, 0.07365517276953708
295.0, 0.08204379605212127
296.0, 0.09307780643524836
297.0, 0.10524806005263464
298.0, 0.11509525746888799
299.0, 0.11691442251384096
300.0, 0.11997125093290593
301.0, 0.12369025890918069
302.0, 0.11107855324555517
303.0, 0.08656103776620583
304.0, 0.08544467712540667
305.0, 0.08544182548032407
306.0, 0.06719779920934398
307.0, 0.05854724477592893
308.0, 0.05965106641382743
309.0, 0.05936825478678693
310.0, 0.06039292488511863
311.0, 0.07058739468457362
312.0, 0.08786892085280314
313.0, 0.09295525505745889
314.0, 0.1006534204373297
315.0, 0.1110364659478933
316.0, 0.11289153828715687
317.0, 0.12484212323607723
318.0, 0.13065052573432276
319.0, 0.1304246551172044
320.0, 0.12181010746572193
321.0, 0.09531707869073278
322.0, 0.06204715332441158
323.0, 0.030653451394069903
324.0, 0.00999166005819486
325.0, 0.0018361715842802517
326.0, 0.014013851213307811
327.0, 0.008916962206899087
328.0, 0.002125243086663403
329.0, 0.014385177105470895
330.0, 0.03527698510850701
331.0, 0.05999244144293268
332.0, 0.0875554668076711
333.0, 0.1125348443671648
334.0, 0.1378763758444676
335.0, 0.1678788896306922
336.0, 0.1958015010803927
337.0, 0.2398730553806992
338.0, 0.27534739492134347
339.0, 0.3093928183273624
340.0, 0.36193506215803883
341.0, 0.4030862925482783
342.0, 0.4544738396078858
343.0, 0.5082579646352029
344.0, 0.5654405647989432
345.0, 0.6350138672409094
346.0, 0.7011141742390312
347.0, 0.7570373090767052
348.0, 0.8027187147621364
349.0, 0.8370086171048207
350.0, 0.8540276000679984
351.0, 0.8469309663893841
352.0, 0.7932658095892398
353.0, 0.7212664764347178
354.0, 0.6353404790236454
355.0, 0.5233923299401788
356.0, 0.43052965677453764
357.0, 0.35083596656116056
358.0, 0.2838741894410812
359.0, 0.22772791728519795
360.0, 0.17728269528028062
361.0, 0.14148483268362774
362.0, 0.12073997908794806
363.0, 0.10998463870470285
364.0, 0.10405516097184085
365.0, 0.10090601635319152
366.0, 0.10942036287276544
367.0, 0.1087579637293573
368.0, 0.10418259509303984
369.0, 0.10338462454174809
370.0, 0.09825190832052091
371.0, 0.09142814797868411
372.0, 0.08169242169974084
373.0, 0.07571247104580633
374.0, 0.07582933368781945
375.0, 0.07755415254512708
376.0, 0.08506832262696179
377.0, 0.0939185750220567
378.0, 0.10379700236687207
379.0, 0.11711062039786053
380.0, 0.13510316215708423
381.0, 0.15191212154973174
382.0, 0.1624727233013098
383.0, 0.16664543514749117
384.0, 0.16565009558825175
385.0, 0.16055407807927569
386.0, 0.14498815070814303
387.0, 0.13057035825598304
388.0, 0.1152605297831426
389.0, 0.09498091125703026
390.0, 0.0695769908537816
391.0, 0.054136535642202555
392.0, 0.04086441358356102
393.0, 0.033466399609313136
394.0, 0.0329545849637294
395.0, 0.03302850275003943
396.0, 0.029886183015771315
397.0, 0.031289481163673305
398.0, 0.025154615958875956
399.0, 0.017364681045545977
400.0, 0.024509468594122237
401.0, 0.028057849592546764
402.0, 0.03512234607347078
403.0, 0.042906054212342684
404.0, 0.048188020197266326
405.0, 0.05102001509044255
406.0, 0.05495836505654733
407.0, 0.05849673128032661
408.0, 0.061711932578036
409.0, 0.06220452780416403
410.0, 0.058803469385940485
411.0, 0.05713410610163748
412.0, 0.05286781601748972
413.0, 0.046560813065815505
414.0, 0.034703171877650416
415.0, 0.018632666270594733
416.0, 0.00894814841251546
417.0, 0.005889616583622411
418.0, 0.0007533952508556774
419.0, 0.010778535120293531
420.0, 0.01708800986474925
421.0, 0.014764915783461634
422.0, 0.019430116345626944
423.0, 0.020111046888984907
424.0, 0.019531501500812388
425.0, 0.017411461730093218
426.0, 0.007468994579663962
427.0, 0.005230043186184677
428.0, 0.01441454053522883
429.0, 0.023513047443433733
430.0, 0.03502627971771212
431.0, 0.0482198501655414
432.0, 0.05895015610037851
433.0, 0.06959662366042642
434.0, 0.08155437691584669
435.0, 0.09542059598945231
436.0, 0.11174465985574988
437.0, 0.13200044909246456
438.0, 0.15881312396143957
439.0, 0.18765766147693472
440.0, 0.21643934501343315
441.0, 0.24816670695655949
442.0, 0.2887635324023809
443.0, 0.3165906882391994
444.0, 0.3285690090263264
445.0, 0.32712429416534117
446.0, 0.3073234773834628
447.0, 0.25688660440566574
448.0, 0.21059723740942937
449.0, 0.1668235120939686
450.0, 0.12781293343425382
451.0, 0.0976900923473466
452.0, 0.08036741162911062
453.0, 0.07496235074650223
454.0, 0.06518882364691021
455.0, 0.058760668013790325
456.0, 0.061654974687772764
457.0, 0.07169544543809904
458.0, 0.08468241049218066
459.0, 0.10183214123746571
460.0, 0.11683710870322542
461.0, 0.1399458828123755
462.0, 0.1710417260011491
463.0, 0.1980586938999017
464.0, 0.22261465403622768
465.0, 0.23429823678818748
466.0, 0.2267512702727319
467.0, 0.20300108177967388
468.0, 0.17102710030507956
469.0, 0.13795200944715766
470.0, 0.10691952550210565
471.0, 0.08384171816933193
472.0, 0.07269685302177938
473.0, 0.06932489114002072
474.0, 0.06687972635522171
475.0, 0.06890293202208776
476.0, 0.07205545604905692
477.0, 0.075535741520674
478.0, 0.08178652123220255
479.0, 0.0916764831125325
480.0, 0.09872805394111911
481.0, 0.10859600609705747
482.0, 0.12266850503091799
483.0, 0.13706836854604346
484.0, 0.15501602821785085
485.0, 0.18538261885560428
486.0, 0.2060304756884395
487.0, 0.23906757450222577
488.0, 0.2728635243838439
489.0, 0.30053989404938986
490.0, 0.3219383143525898
491.0, 0.3287194061320132
492.0, 0.32107256751534535
493.0, 0.3142837076711425
494.0, 0.2914561010896666
495.0, 0.24819884490835636
496.0, 0.2061089466465575
497.0, 0.16837786551572714
498.0, 0.13500860634927728
499.0, 0.10887723124047255
500.0, 0.08858807008007294
501.0, 0.0718582928285655
502.0, 0.06221700436667671
503.0, 0.05170283142474301
504.0, 0.04326742871719694
505.0, 0.03633815933871664
506.0, 0.03031136961291461
507.0, 0.025812963275322728
508.0, 0.019061343046300104
509.0, 0.010469791642410926
510.0, 0.0031870550780256895
511.0, 0.0003582771813469009
512.0, 0.0003837755203931428
513.0, 0.0015609961196715678
514.0, 0.0031889235582639856
515.0, 0.003824808487358423
516.0, 0.002538082707177897
517.0, 0.00084080094463402
518.0, 0.0017576012168312794
519.0, 0.004033112151667197
520.0, 0.0036242246567097396
521.0, 0.0007270203276935194
522.0, 0.0036683949518846715
523.0, 0.006469387695234427
524.0, 0.008691724876771577
525.0, 0.010663578981790742
526.0, 0.012749610317741144
527.0, 0.019168779429862032
528.0, 0.024140514616938873
529.0, 0.023033135448387202
530.0, 0.0244913962243289
531.0, 0.016471100505085306
532.0, 0.01235789117022727
533.0, 0.008934888448566809
534.0, 0.004537805626747459
535.0, 0.0020963872154102997
536.0, 0.0012287356048224448
537.0, 0.0008575843273641534
538.0, 0.0005491761308592619
539.0, 0.004076641570069216
540.0, 0.009943428970060238
541.0, 0.00801007001502339
542.0, 0.000550088880535326
543.0, 0.0028689022819287885
544.0, 0.003462863314133327
545.0, 0.0031965425144922064
546.0, 0.007504560850597318
547.0, 0.010622389635052307
548.0, 0.005853849108723164
549.0, 0.006815985804754709
550.0, 0.00669501948080657
551.0, 0.006680471978911156
552.0, 0.009480857378203448
553.0, 0.011400828676081824
554.0, 0.0116918480532341
555.0, 0.010983526002323052
556.0, 0.013481173064990094
557.0, 0.014574122377498963
558.0, 0.01112145513597182
559.0, 0.01040956426575798
560.0, 0.011239676436382616
561.0, 0.013325130359297941
562.0, 0.015281170500158295
563.0, 0.01783916562573652
564.0, 0.02262608494660885
565.0, 0.028840383743200994
566.0, 0.029880841478968276
567.0, 0.03580538925369529
568.0, 0.04229181217221124
569.0, 0.04385984863351031
570.0, 0.04366684510579126
571.0, 0.05003217883538263
572.0, 0.05363723540793885
573.0, 0.055320726180590044
574.0, 0.06028289910309847
575.0, 0.06745648303061191
576.0, 0.07384088240866093
577.0, 0.08150764833059654
578.0, 0.0892199642760415
579.0, 0.10579862504173257
580.0, 0.11989254463015099
581.0, 0.13530045801249455
582.0, 0.15494045551771052
583.0, 0.16625599267630708
584.0, 0.18181475570834127
585.0, 0.18296533042746438
586.0, 0.17180452184698913
587.0, 0.15212407574978193
588.0, 0.12776846351820423
589.0, 0.106142917854702
590.0, 0.08305221600546416
591.0, 0.06206124915720043
592.0, 0.048579551086065695
593.0, 0.04134657200525473
594.0, 0.03465053180120991
595.0, 0.026697093181134817
596.0, 0.02577663330788149
597.0, 0.017305024841972078
598.0, 0.011502933603844969
599.0, 0.011020561534391071
600.0, 0.009903499477746833
601.0, 0.007242130522482488
602.0, 0.006209159518502913
603.0, 0.005718294074627971
604.0, 0.00396788876613446
605.0, 0.0038474535975887374
606.0, 0.004900983533256453
607.0, 0.00452719525635209
608.0, 0.007840951599937782
609.0, 0.0031218200304400003
610.0, 0.001056535082248428
611.0, 0.001621476628695585
612.0, 0.008089893508259944
613.0, 0.010550458525395223
614.0, 0.008673710392097238
615.0, 0.010968460945766666
616.0, 0.011820428180460175
617.0, 0.013329069214231704
618.0, 0.01567240209617059
619.0, 0.01810605534403634
620.0, 0.02432157285353698
621.0, 0.024932591120432366
622.0, 0.027610281867507008
623.0, 0.03459005515641809
624.0, 0.04133499587391941
625.0, 0.043991542365521975
626.0, 0.04641466077910805
627.0, 0.051060826599869616
628.0, 0.06124302064828209
629.0, 0.06894505490833981
630.0, 0.07709205767566864
631.0, 0.0873684666486801
632.0, 0.09726882730445334
633.0, 0.11400417347816477
634.0, 0.12695773097507496
635.0, 0.14025993785038599
636.0, 0.15590223351706065
637.0, 0.16377779071760093
638.0, 0.1566718235925173
639.0, 0.14738878737066083
640.0, 0.11823215048234487
641.0, 0.09284712536954873
642.0, 0.07011876805067273
643.0, 0.05327943772957057
644.0, 0.04457929471848808
645.0, 0.03679928942956835
646.0, 0.02612831401437421
647.0, 0.024266888652364073
648.0, 0.013744878292385038
649.0, 0.0052460264909094416
650.0, 0.00672891373652687
651.0, 0.008734736222315168
652.0, 0.002347818953279948
653.0, 0.0024138677301333115
654.0, 0.0011377384025876905
655.0, 0.0025779023838949124
656.0, 0.0032347459153923928
657.0, 0.0009446020640276941
658.0, 0.0011209905012375472
659.0, 0.004040935952792768
660.0, 0.0049382481759035176
661.0, 0.0020478607984679657
662.0, 0.00013144487351778765
663.0, 0.0012661839494922163
664.0, 0.0024119931492576456
665.0, 0.003837771049844911
666.0, 0.005233765868471793
667.0, 0.0014302890429674885
668.0, 0.007801056248629821
669.0, 0.010755105137042004
670.0, 0.008947456624876029
671.0, 0.01536796772545622
672.0, 0.01325091144490085
673.0, 0.018587736579368883
674.0, 0.018203153380935505
675.0, 0.015560454410577818
676.0, 0.016499121126818162
677.0, 0.02002854852480675
678.0, 0.020761919824300968
679.0, 0.019571709938141352
680.0, 0.014888167359198562
681.0, 0.013245584556783973
682.0, 0.011086585414755797
683.0, 0.0073020190096881234
684.0, 0.004652002752077092
685.0, 0.003885525472205897
686.0, 0.002838766218381366
687.0, 0.001354364480729661
688.0, 0.0010436069607416925
689.0, 0.0032903970590956806
690.0, 0.002057503924792101
691.0, 0.000833402948961862
692.0, 0.000576302630396065
693.0, 0.003584478976196207
694.0, 0.001635947454036018
695.0, 0.00027933068431489896
696.0, 0.00094172527505504
697.0, 0.0008722156251775464
698.0, 0.0015945111460824197
699.0, 0.0002114257311039541
700.0, 0.001077151758010555
701.0, 0.0006728531391507161
702.0, 0.0013117625047933692
703.0, 0.0013800181910817223
704.0, 0.004402352747393977
705.0, 0.0030732377682416373
706.0, 0.003412413120364009
707.0, 0.006299851000944385
708.0, 0.006819201706714693
709.0, 0.00692054671150948
710.0, 0.007684494755057978
711.0, 0.0076922573005175484
712.0, 0.007620075710697951
713.0, 0.009948369838048261
714.0, 0.008257353057804626
715.0, 0.013130182096262563
716.0, 0.015018784058236343
717.0, 0.0152032810973862
718.0, 0.017881162058999728
719.0, 0.017081434526233435
720.0, 0.017195243677430635
721.0, 0.024635457933952762
722.0, 0.02461698862360177
723.0, 0.02754050379240674
724.0, 0.03194195430638619
725.0, 0.03454055663108345
726.0, 0.03909938044026743
727.0, 0.03938077607515808
728.0, 0.03983398340677624
729.0, 0.03963381062483486
730.0, 0.034803055720902525
731.0, 0.02699211118591362
732.0, 0.021608945109230733
733.0, 0.018528698199688484
734.0, 0.011580743147429809
735.0, 0.010521214533843432
736.0, 0.012913181590544621
737.0, 0.009452428226792788
738.0, 0.005190245002838756
739.0, 0.0052844281333491025
740.0, 0.007820976389218276
741.0, 0.008415618495785952
742.0, 0.0040420312666454876
743.0, 0.004918976440139911
744.0, 0.00800265418875251
745.0, 0.0065605941410134955
746.0, 0.003722644515904302
747.0, 0.004791635558897618
748.0, 0.006218985322463942
749.0, 0.004556438333299428
750.0, 0.004084716670917223
751.0, 0.0069128366308493765
752.0, 0.004756665256001798
753.0, 0.004693877233468296
754.0, 0.009535588480288463
755.0, 0.008383209737949695
756.0, 0.006623712665253089
757.0, 0.004071663275373751
758.0, 0.009383331421882017
759.0, 0.01269854934806248
760.0, 0.015347387286848669
761.0, 0.019511236842982456
762.0, 0.020294548624293047
763.0, 0.020132206534466637
764.0, 0.024780586567751683
765.0, 0.024970168931003914
766.0, 0.025931976394799064
767.0, 0.027937562712915642
768.0, 0.032622816043258944
769.0, 0.040451163098127005
770.0, 0.045960326391277465
771.0, 0.049180191345921644
772.0, 0.05714866015758665
773.0, 0.07367338997496387
774.0, 0.07781733248970894
775.0, 0.08021336441421474
776.0, 0.08230365203486738
777.0, 0.0759151964716162
778.0, 0.06779458774398682
779.0, 0.0556479218532297
780.0, 0.04996808410087856
781.0, 0.040616190724830574
782.0, 0.03322175368142735
783.0, 0.030966042991581275
784.0, 0.028729566042541527
785.0, 0.02337814064699159
786.0, 0.021485940463009678
787.0, 0.023739853409587404
788.0, 0.019730633752456206
789.0, 0.02118954394736355
790.0, 0.019271538367836395
791.0, 0.015676158261788847
792.0, 0.016839693453430598
793.0, 0.014846818879297195
794.0, 0.016727296163848267
795.0, 0.01619987990422965
796.0, 0.015860259163911337
797.0, 0.016151814525000124
798.0, 0.015076232348651882
799.0, 0.015821137451033744
800.0, 0.018325501650825214
801.0, 0.014527240518093384
802.0, 0.012527399762528863
803.0, 0.011158279377398552
804.0, 0.009411051773209472
805.0, 0.012552428396045883
806.0, 0.012089232544224593
807.0, 0.009790749932655229
808.0, 0.010698422507343035
809.0, 0.00691086237826837
810.0, 0.008142310445243803
811.0, 0.007882604726867668
812.0, 0.009048298520107674
813.0, 0.0060566450471645815
814.0, 0.006798283762100879
815.0, 0.008523078976166729
816.0, 0.0033665177707836746
817.0, 0.002742163980169678
818.0, 0.007411128215587543
819.0, 0.0038925176658371344
820.0, 0.002628225526395504
821.0, 0.004613118696340911
822.0, 0.006010604247778031
823.0, 0.0040204885904332865
824.0, 0.0001059829743321767
825.0, 0.0011597535310145088
826.0, 0.0020499344072545706
827.0, 0.0033564110774867498
828.0, 0.0024067789260428297
829.0, 0.0019283386699542567
830.0, 0.0017023641042549626
831.0, 0.0015844833335214722
832.0, 0.0017592044319787498
833.0, 0.0005254596080845605
834.0, 0.002563374547872417
835.0, 0.000973685040820574
836.0, 0.00406043306711047
837.0, 0.0036835137522127355
838.0, 0.003520556764583795
839.0, 0.00481221803090086
840.0, 0.004260015203031329
841.0, 0.0029992034778071005
842.0, 0.005317845798266331
843.0, 0.0023750041645824917
844.0, 0.005459024309244817
845.0, 0.005432937411735535
846.0, 0.005145962394840162
847.0, 0.006814643742373283
848.0, 0.007166981309026841
849.0, 0.004598646126274993
850.0, 0.001654790814576211
851.0, 0.00588732479858683
852.0, 0.001566105101363971
853.0, 0.0016880276270613138
854.0, 0.002570111745643594
855.0, 0.0028068173571298076
856.0, 0.008477030934026903
857.0, 0.014428851882489865
858.0, 0.011531962239885637
859.0, 0.014354804974545072
860.0, 0.01902205829578659
861.0, 0.022609369688061504
862.0, 0.02560217272935056
863.0, 0.028193218242538
864.0, 0.026453859033332805
865.0, 0.02121747606682182
866.0, 0.01690200595590381
867.0, 0.014763317535073331
868.0, 0.014071801863471414
869.0, 0.0070297144894643565
870.0, 0.0040629820139389695
871.0, 0.00615913511196996
872.0, 0.006452824422855472
873.0, 0.0073105194788610625
874.0, 0.009930375756627129
875.0, 0.011378242170085748
876.0, 0.015666539035970616
877.0, 0.01866051346297588
878.0, 0.031018075341572592
879.0, 0.038501185690466455
880.0, 0.04554807700039513
881.0, 0.056772215089611854
882.0, 0.07165431784596428
883.0, 0.08596772882260359
884.0, 0.096035893328273
885.0, 0.10733253911133199
886.0, 0.13304315338834952
887.0, 0.15655182881905613
888.0, 0.17518927237791715
889.0, 0.1912936959551981
890.0, 0.2032885366858442
891.0, 0.2071438621030283
892.0, 0.19939968598393196
893.0, 0.1815768814563472
894.0, 0.16093315175575745
895.0, 0.13997913742911589
896.0, 0.11675822113387789
897.0, 0.09885292292491857
898.0, 0.08283632636207282
899.0, 0.07651695581889732
900.0, 0.07028973997553917
901.0, 0.0648068175529973
902.0, 0.07136383855071626
903.0, 0.07214034911190931
904.0, 0.06958402824605203
905.0, 0.08074892768982685
906.0, 0.08222064990453237
907.0, 0.09204773438518661
908.0, 0.10541588322234108
909.0, 0.11681894895360728
910.0, 0.13596518797240933
911.0, 0.16414799559736365
912.0, 0.18961757208600558
913.0, 0.2216922033258358
914.0, 0.25983876309000664
915.0, 0.28938305744930404
916.0, 0.33568462666181204
917.0, 0.3752192604587342
918.0, 0.40015268558545214
919.0, 0.4133526579808047
920.0, 0.4052679366392321
921.0, 0.3698135775850497
922.0, 0.33195732044741794
923.0, 0.2971768632548857
924.0, 0.2588153940056369
925.0, 0.228227652767749
926.0, 0.21373278281160404
927.0, 0.20671079937363515
928.0, 0.19773887381597083
929.0, 0.19759573565126257
930.0, 0.21167790089288238
931.0, 0.2264111921826744
932.0, 0.2475930709941273
933.0, 0.26466648676854604
934.0, 0.2897406632108961
935.0, 0.3247728001174551
936.0, 0.36671340527219104
937.0, 0.40065878600210364
938.0, 0.4280874020734008
939.0, 0.4605885783265243
940.0, 0.4881531292083084
941.0, 0.4915127539438351
942.0, 0.48381251444064943
943.0, 0.4551056820507919
944.0, 0.4053955845529736
945.0, 0.3570420892226295
946.0, 0.3119517734174856
947.0, 0.2728689401367429
948.0, 0.23582781754108476
949.0, 0.21049819341107856
950.0, 0.1985620648179329
951.0, 0.17406988463801068
952.0, 0.15428522224406915
953.0, 0.14356231356714783
954.0, 0.12867452368746635
955.0, 0.10685482391204426
956.0, 0.09666099620093783
957.0, 0.08426826530271989
958.0, 0.06755755935320805
959.0, 0.0598733985959387
960.0, 0.05854194719085738
961.0, 0.05343394030469194
962.0, 0.05812587655051863
963.0, 0.05736570715096934
964.0, 0.0631784393185266
965.0, 0.07142017137007975
966.0, 0.07558498029654515
967.0, 0.0920474776386058
968.0, 0.10850217462611211
969.0, 0.12158324889563306
970.0, 0.14229832870042816
971.0, 0.16326665223528264
972.0, 0.1737713772767501
973.0, 0.19734361918365825
974.0, 0.2245093582258955
975.0, 0.25170533319319754
976.0, 0.28392881525327207
977.0, 0.3089049014252073
978.0, 0.34280361083140337
979.0, 0.38214845909559925
980.0, 0.41809113741312653
981.0, 0.449525812045614
982.0, 0.46244688402435874
983.0, 0.46498426312544566
984.0, 0.4484603520377618
985.0, 0.413829945568194
986.0, 0.3594650382511455
987.0, 0.30725711784346615
988.0, 0.26004763354979743
989.0, 0.22238130667969858
990.0, 0.18993195282796807
991.0, 0.1626820708936491
992.0, 0.1495219601361605
993.0, 0.13681541502018263
994.0, 0.1266138685882227
995.0, 0.12943448342089517
996.0, 0.1237134703951293
997.0, 0.1278600886130486
998.0, 0.1304201217356884
999.0, 0.1213069111133435
1000.0, 0.1112067974160838
1001.0, 0.10111425546071147
1002.0, 0.08482833365520445
1003.0, 0.06623299946705274
1004.0, 0.05235031381462168
1005.0, 0.039868193743956004
1006.0, 0.022236138389223413
1007.0, 0.0245251095634575
1008.0, 0.0190309217088065
1009.0, 0.014496373047982113
1010.0, 0.008025552596167931
1011.0, 0.0030744010320000095
1012.0, 0.000920038935322487
1013.0, 0.0015996362903812039
1014.0, 0.0036562538803034616
1015.0, 0.004137059704444594
1016.0, 0.005451892360570364
1017.0, 0.008717122473075956
1018.0, 0.008990394143763335
1019.0, 0.006750250989687045
1020.0, 0.0047273877387255196
1021.0, 0.007180788138008879
1022.0, 0.0075427391826096485
1023.0, 0.007218497829920278
1024.0, 0.00631405475066205
1025.0, 0.004685307603415997
1026.0, 0.004774342141749214
1027.0, 0.0018394628162168298
1028.0, 0.0035769017892749093
1029.0, 0.0009238023669567744
1030.0, 0.0028189441253290205
1031.0, 0.005152660236005148
1032.0, 0.005916932452869
1033.0, 0.008963552770786733
1034.0, 0.006572207540107356
1035.0, 0.003865620685901452
1036.0, 0.008395571796743296
1037.0, 0.013370078258356306
1038.0, 0.012277853598080892
1039.0, 0.012702575501122425
1040.0, 0.016555113751385967
1041.0, 0.019531498554790413
1042.0, 0.019458014683224396
1043.0, 0.02387497658405535
1044.0, 0.02483511625807567
1045.0, 0.024057029571037364
1046.0, 0.02726301333023985
1047.0, 0.029212680833592422
1048.0, 0.03237914553130791
1049.0, 0.03853172449660589
1050.0, 0.040275731849614846
1051.0, 0.03699046430357118
1052.0, 0.035933600947400016
1053.0, 0.03797815486840806
1054.0, 0.03194851171213076
1055.0, 0.027035362609045398
1056.0, 0.019098783390292706
1057.0, 0.017393241908404224
1058.0, 0.02217415555977987
1059.0, 0.02170457571874078
1060.0, 0.015076845548289525
1061.0, 0.012824669755711782
1062.0, 0.016437192842876088
1063.0, 0.018371723556246403
1064.0, 0.018054534403187845
1065.0, 0.016873533248424936
1066.0, 0.01771613118127233
1067.0, 0.01622611637338804
1068.0, 0.013314351936685731
1069.0, 0.013839669026196082
1070.0, 0.014694515455764804
1071.0, 0.015202859168029428
1072.0, 0.013109494299071666
1073.0, 0.013899780315564629
1074.0, 0.013782227851175215
1075.0, 0.009719226673246428
1076.0, 0.009280399098837332
1077.0, 0.012082474185086274
1078.0, 0.014072815975026054
1079.0, 0.006400781664763995
1080.0, 0.011618233565538053
1081.0, 0.007956727675273412
1082.0, 0.002882162173891904
1083.0, 0.003509437984328562
1084.0, 0.004427970102176487
1085.0, 0.0037413460245845054
1086.0, 0.006682261105161955
1087.0, 0.005956393847151405
1088.0, 0.002307623517264577
1089.0, 0.0012218698994529618
1090.0, 0.0005486978168448703
1091.0, 0.0006897331248733821
1092.0, 0.00017961157451797701
1093.0, 0.002191612863213057
1094.0, 0.0019099894253330532
1095.0, 0.001404759243942699
1096.0, 0.00043143889759403835
1097.0, 0.001677889146562579
1098.0, 0.004480253907216481
1099.0, 0.0023727433064591485
1100.0, 0.0023745626555404372
1101.0, 0.0019984693867966916
1102.0, 0.0037668662140603916
1103.0, 0.006579204877916149
1104.0, 0.0014244854705731445
1105.0, 0.0008709947195951116
1106.0, 0.0014258061835906283
1107.0, 0.0017045799906734212
1108.0, 0.006214796314332968
1109.0, 0.007132207156835196
1110.0, 0.0011005278789622249
1111.0, 0.004277325573938436
1112.0, 0.006143022373653097
1113.0, 0.0027191763979469256
1114.0, 0.00352246678450042
1115.0, 0.003085820243263597
1116.0, 0.0022604117703887328
1117.0, 0.004122628307218412
1118.0, 0.0038673595742380364
1119.0, 0.002637609470384475
1120.0, 0.004827155332609812
1121.0, 0.00521074835173766
1122.0, 0.0058042357533879515
1123.0, 0.006406526475453636
1124.0, 0.005133038935365876
1125.0, 0.005173378071496969
1126.0, 0.00883330707819499
1127.0, 0.005194881488580109
1128.0, 0.0036795676286866547
1129.0, 0.0007848159210663962
1130.0, 0.005978675163023034
1131.0, 0.010259496395488947
1132.0, 0.0059494724095591
1133.0, 0.003927164824642376
1134.0, 0.005167826021725433
1135.0, 0.005522888540395883
1136.0, 0.004688180387560866
1137.0, 0.007263214811906892
1138.0, 0.009187601836141573
1139.0, 0.0030574059838896113
1140.0, 0.0038691400970380105
1141.0, 0.005965446728492646
1142.0, 0.0070504094014356925
1143.0, 0.007133626249735525
1144.0, 0.00826940746791584
1145.0, 0.007788893016235189
1146.0, 0.008093641429828935
1147.0, 0.009948585840404625
1148.0, 0.011335781396216204
1149.0, 0.009789770567849597
1150.0, 0.004849690871821744
1151.0, 0.002945898023997519
1152.0, 0.0062298614126197515
1153.0, 0.009348574167108657
1154.0, 0.008104344661955178
1155.0, 0.00816299798766305
1156.0, 0.006660668811868567
1157.0, 0.007485646183394685
1158.0, 0.008195955982934032
1159.0, 0.007917122849907364
1160.0, 0.004832849317321457
1161.0, 0.008185844807205864
1162.0, 0.01316978904789396
1163.0, 0.013378140728980203
1164.0, 0.01001257248087474
1165.0, 0.010395852379238941
1166.0, 0.01175302565172618
1167.0, 0.008320473955901412
1168.0, 0.007929485763400466
1169.0, 0.008011749481667108
1170.0, 0.00984276109061219
1171.0, 0.0030688011032159066
1172.0, 0.004375131790353065
1173.0, 0.0032379379906311624
1174.0, 0.0038696305415287595
1175.0, 0.0064361995753038845
1176.0, 0.005350693341290587
1177.0, 0.003109959425690717
1178.0, 0.005267357377771159
1179.0, 0.0028352941773674774
1180.0, 0.004292004686482719
1181.0, 0.005704621037932083
1182.0, 0.0037737908556018216
1183.0, 0.0025303402871830146
1184.0, 0.0020777677616176946
1185.0, 0.002701782946546994
1186.0, 0.0017864662852000882
1187.0, 0.0013474401694151478
1188.0, 0.001446475826128551
1189.0, 0.004828323141977627
1190.0, 0.003549046660140335
1191.0, 0.0036246176207870217
1192.0, 0.001571574463150238
1193.0, 0.0029336938852824136
1194.0, 0.00040954744891428017
1195.0, 0.003584826336569942
1196.0, 0.009006224088083572
1197.0, 0.003205804132880017
1198.0, 2.2350561333033903e-05
1199.0, 0.002433614288843531
1200.0, 0.0013238488923007705
1201.0, 0.0019163287721436126
1202.0, 0.0035222153862781297
1203.0, 0.0021074565574803104
1204.0, 0.0024355467673608864
1205.0, 0.004222638823557154
1206.0, 0.001775344240205386
1207.0, 0.0049235237936050774
1208.0, 0.005245869363005335
1209.0, 0.0017379624691352341
1210.0, 0.000706619254140062
1211.0, 5.641786893217755e-05
1212.0, 0.0012817270822922508
1213.0, 0.004312998707849944
1214.0, 0.007253770985377787
1215.0, 0.007038566644803876
1216.0, 0.006447539689076564
1217.0, 0.009507585928392681
1218.0, 0.012543017435566569
1219.0, 0.009328264361195042
1220.0, 0.00883471942896934
1221.0, 0.006076094836342004
1222.0, 0.007458813975047059
1223.0, 0.011060563149635914
1224.0, 0.010942122150094465
1225.0, 0.013487057582996054
1226.0, 0.013030728525483957
1227.0, 0.008543298161571832
1228.0, 0.009329992077334863
1229.0, 0.008544281820633968
1230.0, 0.011420014316413329
1231.0, 0.010971877811705624
1232.0, 0.014890099854040719
1233.0, 0.00936312502490785
1234.0, 0.010444298046248541
1235.0, 0.0075354431433071
1236.0, 0.010829126215127926
1237.0, 0.012128345070004777
1238.0, 0.014257017416723541
1239.0, 0.00527742831724007
1240.0, 0.009528638619815621
1241.0, 0.011625884886071153
1242.0, 0.010940471879408577
1243.0, 0.0076007050409889945
1244.0, 0.007934973225449482
1245.0, 0.008204442255909694
1246.0, 0.0023442085563338934
1247.0, 0.002671159538740714
1248.0, 0.006961782395401082
1249.0, 0.005917122940986055
1250.0, 0.0033335458341373692
1251.0, 0.004062434072283475
1252.0, 0.006825374484315744
1253.0, 0.005415459345543495
1254.0, 0.0069402483505678365
1255.0, 0.008164264337816444
1256.0, 0.004978123389609102
1257.0, 0.0031405391396427344
1258.0, 0.0023617463723345582
1259.0, 0.0012445498921333155
1260.0, 0.0017025743653329732
1261.0, 0.002579305588712648
1262.0, 0.005889861790618703
1263.0, 0.0024714082180173217
1264.0, 0.0002691354259474596
1265.0, 0.00035111637377397987
1266.0, 0.004077944903284826
1267.0, 0.004358835513497012
1268.0, 0.0065416335632266145
1269.0, 0.005972439270389877
1270.0, 0.0013242057511561281
1271.0, 0.002818880133122893
1272.0, 0.0040751381705500505
1273.0, 0.0008390059188919058
1274.0, 0.0009909921908782756
1275.0, 0.0027008114725030727
1276.0, 0.005228983974477745
1277.0, 0.0022841374031012172
1278.0, 0.004113962209268178
1279.0, 0.006559954144014089
1280.0, 0.00317008093432117
1281.0, 0.003539880676062146
1282.0, 0.0049921688044309446
1283.0, 0.0028755475144148107
1284.0, 0.00020185879064703915
1285.0, 0.00041828169419175855
1286.0, 0.0015802364126541468
1287.0, 0.003423239888681741
1288, 0.0
1289, 0.0
1290, 0.0
1291, 0.0
1292, 0.0
1293, 0.0
1294, 0.0
1295, 0.0
1296, 0.0
1297, 0.0
1298, 0.0
1299, 0.0
1300, 0.0
1301, 0.0
1302, 0.0
1303, 0.0
1304, 0.0
1305, 0.0
1306, 0.0
1307, 0.0
1308, 0.0
1309, 0.0
1310, 0.0
1311, 0.0
1312, 0.0
1313, 0.0
1314, 0.0
1315, 0.0
1316, 0.0
1317, 0.0
1318, 0.0
1319, 0.0
1320, 0.0
1321, 0.0
1322, 0.0
1323, 0.0
1324, 0.0
1325, 0.0
1326, 0.0
1327, 0.0
1328, 0.0
1329, 0.0
1330, 0.0
1331, 0.0
1332, 0.0
1333, 0.0
1334, 0.0
1335, 0.0
1336, 0.0
1337, 0.0
1338, 0.0
1339, 0.0
1340, 0.0
1341, 0.0
1342, 0.0
1343, 0.0
1344, 0.0
1345, 0.0
1346, 0.0
1347, 0.0
1348, 0.0
1349, 0.0
1350, 0.0
1351, 0.0
1352, 0.0
1353, 0.0
1354, 0.0
1355, 0.0
1356, 0.0
1357, 0.0
1358, 0.0
1359, 0.0
1360, 0.0
1361, 0.0
1362, 0.0
1363, 0.0
1364, 0.0
1365, 0.0
1366, 0.0
1367, 0.0
1368, 0.0
1369, 0.0
1370, 0.0
1371, 0.0
1372, 0.0
1373, 0.0
1374, 0.0
1375, 0.0
1376, 0.0
1377, 0.0
1378, 0.0
1379, 0.0
1380, 0.0
1381, 0.0
1382, 0.0
1383, 0.0
1384, 0.0
1385, 0.0
1386, 0.0
1387, 0.0
1388, 0.0
1389, 0.0
1390, 0.0
1391, 0.0
1392, 0.0
1393, 0.0
1394, 0.0
1395, 0.0
1396, 0.0
1397, 0.0
1398, 0.0
1399, 0.0
1400, 0.0
1401, 0.0
1402, 0.0
1403, 0.0
1404, 0.0
1405, 0.0
1406, 0.0
1407, 0.0
1408, 0.0
1409, 0.0
1410, 0.0
1411, 0.0
1412, 0.0
1413, 0.0
1414, 0.0
1415, 0.0
1416, 0.0
1417, 0.0
1418, 0.0
1419, 0.0
1420, 0.0
1421, 0.0
1422, 0.0
1423, 0.0
1424, 0.0
1425, 0.0
1426, 0.0
1427, 0.0
1428, 0.0
1429, 0.0
1430, 0.0
1431, 0.0
1432, 0.0
1433, 0.0
1434, 0.0
1435, 0.0
1436, 0.0
1437, 0.0
1438, 0.0
1439, 0.0
1440, 0.0
1441, 0.0
1442, 0.0
1443, 0.0
1444, 0.0
1445, 0.0
1446, 0.0
1447, 0.0
1448, 0.0
1449, 0.0
1450, 0.0
1451, 0.0
1452, 0.0
1453, 0.0
1454, 0.0
1455, 0.0
1456, 0.0
1457, 0.0
1458, 0.0
1459, 0.0
1460, 0.0
1461, 0.0
1462, 0.0
1463, 0.0
1464, 0.0
1465, 0.0
1466, 0.0
1467, 0.0
1468, 0.0
1469, 0.0
1470, 0.0
1471, 0.0
1472, 0.0
1473, 0.0
1474, 0.0
1475, 0.0
1476, 0.0
1477, 0.0
1478, 0.0
1479, 0.0
1480, 0.0
1481, 0.0
1482, 0.0
1483, 0.0
1484, 0.0
1485, 0.0
1486, 0.0
1487, 0.0
1488, 0.0
1489, 0.0
1490, 0.0
1491, 0.0
1492, 0.0
1493, 0.0
1494, 0.0
1495, 0.0
1496, 0.0
1497, 0.0
1498, 0.0
1499, 0.0
1500, 0.0
1501, 0.0
1502, 0.0
1503, 0.0
1504, 0.0
1505, 0.0
1506, 0.0
1507, 0.0
1508, 0.0
1509, 0.0
1510, 0.0
1511, 0.0
1512, 0.0
1513, 0.0
1514, 0.0
1515, 0.0
1516, 0.0
1517, 0.0
1518, 0.0
1519, 0.0
1520, 0.0
1521, 0.0
1522, 0.0
1523, 0.0
1524, 0.0
1525, 0.0
1526, 0.0
1527, 0.0
1528, 0.0
1529, 0.0
1530, 0.0
1531, 0.0
1532, 0.0
1533, 0.0
1534, 0.0
1535, 0.0
1536, 0.0
1537, 0.0
1538, 0.0
1539, 0.0
1540, 0.0
1541, 0.0
1542, 0.0
1543, 0.0
1544, 0.0
1545, 0.0
1546, 0.0
1547, 0.0
1548, 0.0
1549, 0.0
1550, 0.0
1551, 0.0
1552, 0.0
1553, 0.0
1554, 0.0
1555, 0.0
1556, 0.0
1557, 0.0
1558, 0.0
1559, 0.0
1560, 0.0
1561, 0.0
1562, 0.0
1563, 0.0
1564, 0.0
1565, 0.0
1566, 0.0
1567, 0.0
1568, 0.0
1569, 0.0
1570, 0.0
1571, 0.0
1572, 0.0
1573, 0.0
1574, 0.0
1575, 0.0
1576, 0.0
1577, 0.0
1578, 0.0
1579, 0.0
1580, 0.0
1581, 0.0
1582, 0.0
1583, 0.0
1584, 0.0
1585, 0.0
1586, 0.0
1587, 0.0
1588, 0.0
1589, 0.0
1590, 0.0
1591, 0.0
1592, 0.0
1593, 0.0
1594, 0.0
1595, 0.0
1596, 0.0
1597, 0.0
1598, 0.0
1599, 0.0
