30, 0.0
31, 0.0
32, 0.0
33, 0.0
34, 0.0
35, 0.0
36, 0.0
37, 0.0
38, 0.0
39, 0.0
40, 0.0
41, 0.0
42, 0.0
43, 0.0
44, 0.0
45, 0.0
46, 0.0
47, 0.0
48, 0.0
49, 0.0
50, 0.0
51, 0.0
52, 0.0
53, 0.0
54, 0.0
55, 0.0
56, 0.0
57, 0.0
58, 0.0
59, 0.0
60, 0.0
61, 0.0
62, 0.0
63, 0.0
64, 0.0
65, 0.0
66, 0.0
67, 0.0
68, 0.0
69, 0.0
70, 0.0
71, 0.0
72, 0.0
73, 0.0
74, 0.0
75, 0.0
76, 0.0
77, 0.0
78, 0.0
79, 0.0
80, 0.0
81, 0.0
82, 0.0
83, 0.0
84, 0.0
85, 0.0
86, 0.0
87, 0.0
88, 0.0
89, 0.0
90, 0.0
91, 0.0
92, 0.0
93, 0.0
94, 0.0
95, 0.0
96, 0.0
97, 0.0
98, 0.0
99, 0.0
100, 0.0
101, 0.0
102, 0.0
103, 0.0
104, 0.0
105, 0.0
106, 0.0
107, 0.0
108, 0.0
109, 0.0
110, 0.0
111, 0.0
112.0, 0.0057873785439260285
113.0, 0.058523143396363116
114.0, 0.14378067555247834
115.0, 0.3253152934421147
116.0, 0.46215674947575924
117.0, 0.4781372701504244
118.0, 0.3803398602688537
119.0, 0.3998549247277162
120.0, 0.5508482297505607
121.0, 0.7321055982039861
122.0, 0.8105479852017964
123.0, 0.7946019730901898
124.0, 0.8517006482702965
125.0, 0.9542733967374837
126.0, 0.9980712755974124
127.0, 0.9424030963780273
128.0, 0.91489532606142
129.0, 0.932278400296304
130.0, 0.9414201157214079
131.0, 0.7415734848999554
132.0, 0.8331790474041122
133.0, 0.8683338403387466
134.0, 0.6992455625851943
135.0, 0.6228793307750224
136.0, 0.5123540270540635
137.0, 0.5396131260773085
138.0, 0.6105797446145477
139.0, 0.45297721459336404
140.0, 0.17931372175659055
141.0, 0.11489689449001546
142.0, 0.18488118243634874
143.0, 0.15293835078111984
144.0, 0.148712911110872
145.0, 0.2623162966829083
146.0, 0.29353771517199806
147.0, 0.13418209583451385
148.0, 0.024362040523298278
149.0, 0.10396256226628438
150.0, 0.1893603940018651
151.0, 0.16317786878057886
152.0, 0.15209012985399772
153.0, 0.21821364047309294
154.0, 0.19776756105548246
155.0, 0.0741801996328161
156.0, 0.03580137821852004
157.0, 0.10004974674834578
158.0, 0.10499213778031688
159.0, 0.017136462858248915
160.0, 0.09946563215407835
161.0, 0.1089158717489641
162.0, 0.09613883661926827
163.0, 0.04887786158632731
164.0, 0.02476548692340319
165.0, 0.03515925425153066
166.0, 0.013681407223186837
167.0, 0.005114139879150225
168.0, 0.012223518257990985
169.0, 0.019935422858026845
170.0, 0.035542612858125544
171.0, 0.026483715303742907
172.0, 0.0399243242801425
173.0, 0.014996875939982762
174.0, 0.087860185806795
175.0, 0.0457186240088342
176.0, 0.01933870857206923
177.0, 0.002028006058476783
178.0, 0.0077851058521225015
179.0, 0.13277194493765962
180.0, 0.24065227805369838
181.0, 0.2226347585271067
182.0, 0.07627820430561451
183.0, 0.08535360015464553
184.0, 0.132079934431099
185.0, 0.19913289986250204
186.0, 0.2743316372563637
187.0, 0.09989480343493917
188.0, 0.08424048793430597
189.0, 0.20813930552418997
190.0, 0.3119606046036438
191.0, 0.17267581503702442
192.0, 0.24498432635304115
193.0, 0.34202406626190013
194.0, 0.3571919670140215
195.0, 0.3457451893394729
196.0, 0.38277033200788424
197.0, 0.3769183448893493
198.0, 0.3397061287136956
199.0, 0.33145023082359076
200.0, 0.43068607922482116
201.0, 0.4393704957787685
202.0, 0.5166432470454372
203.0, 0.6293222510143374
204.0, 0.4370044782937218
205.0, 0.5495677931225565
206.0, 0.6756065158321372
207.0, 0.6762095863913284
208.0, 0.5970590244799856
209.0, 0.6772547543383174
210.0, 0.6710208309530052
211.0, 0.7088897613169565
212.0, 0.7907370833319509
213.0, 0.6599023460488638
214.0, 0.729240935211768
215.0, 0.7705011983252946
216.0, 0.7009366712228977
217.0, 0.6372084069085464
218.0, 0.7326619734767614
219.0, 0.6013077629970965
220.0, 0.5492615715545632
221.0, 0.5313950919851578
222.0, 0.4897307083100788
223.0, 0.4882165011090971
224.0, 0.4583627275285678
225.0, 0.5010451541442615
226.0, 0.46035421441994123
227.0, 0.5118029344067213
228.0, 0.49234354508136335
229.0, 0.40608727670948097
230.0, 0.4329732938257844
231.0, 0.45245274008207553
232.0, 0.44297104796896214
233.0, 0.37483154909334154
234.0, 0.3506780847732314
235.0, 0.35197980760714015
236.0, 0.38147112896754065
237.0, 0.3485503014331855
238.0, 0.3191409697150467
239.0, 0.3315598080901262
240.0, 0.3264857835629193
241.0, 0.26049579727044075
242.0, 0.25858813259557084
243.0, 0.23139586801192327
244.0, 0.30104448902294895
245.0, 0.30190116166785846
246.0, 0.2652892823003491
247.0, 0.30282282943949407
248.0, 0.30269345883094295
249.0, 0.2715509190724869
250.0, 0.19489318820757515
251.0, 0.1700296592732591
252.0, 0.21917726928445067
253.0, 0.2746366619186747
254.0, 0.2759157612384033
255.0, 0.29549885917708557
256.0, 0.3577633834956015
257.0, 0.36237272393199427
258.0, 0.2536168063174924
259.0, 0.42464201544772234
260.0, 0.4170887838946282
261.0, 0.3306861280614979
262.0, 0.31779653371093153
263.0, 0.2603853851895014
264.0, 0.3367947131159203
265.0, 0.3778217648925929
266.0, 0.3545763352267824
267.0, 0.36498011061117475
268.0, 0.5437981908081944
269.0, 0.41298291896839934
270.0, 0.27516703238299955
271.0, 0.34905865355822246
272.0, 0.3345762592975185
273.0, 0.40528169817813664
274.0, 0.4156983719075116
275.0, 0.40463031117545195
276.0, 0.46340454529063957
277.0, 0.40401709477607267
278.0, 0.36186168486012604
279.0, 0.34640791065685783
280.0, 0.3521147114059095
281.0, 0.3883218668104977
282.0, 0.38009174822178493
283.0, 0.35293440868620607
284.0, 0.3608559156463043
285.0, 0.38441681573606684
286.0, 0.33933797037435004
287.0, 0.40275226507881934
288.0, 0.4564217650857159
289.0, 0.4212967936660468
290.0, 0.3021888897991898
291.0, 0.19118940540260407
292.0, 0.19075345119715248
293.0, 0.1610928716770983
294.0, 0.1119005259338539
295.0, 0.14963180013203073
296.0, 0.1249577608197984
297.0, 0.11476093419821469
298.0, 0.13455773328383724
299.0, 0.15449603184433686
300.0, 0.13113313594272302
301.0, 0.12752140642430393
302.0, 0.08827544491842075
303.0, 0.10430199036098625
304.0, 0.17177037672430093
305.0, 0.04781356040484695
306.0, 0.014856540386575318
307.0, 0.005356030301795977
308.0, 0.022930624358149986
309.0, 0.09144696729831359
310.0, 0.011537068419449237
311.0, 0.01703289336862105
312.0, 0.037079449673929454
313.0, 0.062022836919809664
314.0, 0.005216795370454547
315.0, 0.004624550888404576
316.0, 0.03116644824891427
317.0, 0.051268862659673224
318.0, 0.014835755085804621
319.0, 0.03327940289054404
320.0, 0.09125368033422736
321.0, 0.056903228901802994
322.0, 0.028131576747447568
323.0, 0.10027936455731215
324.0, 0.031194221583609325
325.0, 0.14590136484766625
326.0, 0.13752925639768204
327.0, 0.05361571003446481
328.0, 0.12623280140228163
329.0, 0.08648297337865876
330.0, 0.0238591388190635
331.0, 0.03711512130539249
332.0, 0.034515511371505984
333.0, 0.02855318562068568
334.0, 0.05247818765104362
335.0, 0.05150510698423604
336.0, 0.13996912936858108
337.0, 0.18772603320290826
338.0, 0.24835517841474622
339.0, 0.165765664720639
340.0, 0.1688783256025164
341.0, 0.27092304622534524
342.0, 0.3669275879447697
343.0, 0.3583338739909801
344.0, 0.3605992145765256
345.0, 0.36149502365845404
346.0, 0.2639384327329304
347.0, 0.14508965011653255
348.0, 0.21943666663002276
349.0, 0.45651017726052845
350.0, 0.5206835452781847
351.0, 0.45466581789101657
352.0, 0.38369135894191886
353.0, 0.3705259658225555
354.0, 0.3187027073879698
355.0, 0.29257554492114085
356.0, 0.3232835611420864
357.0, 0.36777762872044745
358.0, 0.31352880808944084
359.0, 0.17687119476210053
360.0, 0.15480131046761966
361.0, 0.1942476538480045
362.0, 0.23656223987776362
363.0, 0.3441368258795276
364.0, 0.28688253747142967
365.0, 0.18672577826334574
366.0, 0.13795943560418195
367.0, 0.16135607467439492
368.0, 0.22339159936435957
369.0, 0.14465229134173663
370.0, 0.2866068675699936
371.0, 0.33223249269819927
372.0, 0.2046741982664689
373.0, 0.3405485932785267
374.0, 0.24467121542849865
375.0, 0.2750269581927475
376.0, 0.39268157577743046
377.0, 0.447369011899367
378.0, 0.4303752275334899
379.0, 0.37096243513131666
380.0, 0.4816647249548797
381.0, 0.5662971624100657
382.0, 0.45971630116561074
383.0, 0.4401938756854976
384.0, 0.4050592567381614
385.0, 0.47655569998971736
386.0, 0.5022522864400413
387.0, 0.42247981979172095
388.0, 0.4581828273403364
389.0, 0.44282970923131243
390.0, 0.4023637515966602
391.0, 0.4093579909168501
392.0, 0.4085229957418771
393.0, 0.3101870907706062
394.0, 0.3066598936038552
395.0, 0.39968159517854207
396.0, 0.439450224261333
397.0, 0.37956335856968443
398.0, 0.29021880169197367
399.0, 0.207090551205246
400.0, 0.1729667941701351
401.0, 0.26364264606926613
402.0, 0.34517150310976175
403.0, 0.24388093953636936
404.0, 0.30410978060560445
405.0, 0.26348280653545636
406.0, 0.1655436587522439
407.0, 0.13907405540122014
408.0, 0.19807173637592185
409.0, 0.08745160443894857
410.0, 0.14609742598753633
411.0, 0.23283186073997536
412.0, 0.2575819862904717
413.0, 0.23141962897484714
414.0, 0.11025525375938285
415.0, 0.13916717608041532
416.0, 0.1951073459420417
417.0, 0.17257208216281528
418.0, 0.07348574005814106
419.0, 0.10043449024688458
420.0, 0.1271494131001343
421.0, 0.16701295277386427
422.0, 0.19226969539539046
423.0, 0.16851334489669026
424.0, 0.12003905241785642
425.0, 0.08230223911027747
426.0, 0.028214214596077238
427.0, 0.050625239707443814
428.0, 0.13140433346526192
429.0, 0.04831323268757612
430.0, 0.024356288829833945
431.0, 0.16709885659521112
432.0, 0.0721484587451307
433.0, 0.07407001256856204
434.0, 0.2095819897431822
435.0, 0.12385312670276116
436.0, 0.07903696287987805
437.0, 0.12534752567755522
438.0, 0.13017873265956886
439.0, 0.03645246217991721
440.0, 0.028709022936669586
441.0, 0.0750625090036524
442.0, 0.055327151129925
443.0, 0.004884625010729779
444.0, 0.004691344023747312
445.0, 0.045511641617512394
446.0, 0.0951316989911535
447.0, 0.0298676787932458
448.0, 0.01837394709997215
449.0, 0.07965360621360645
450.0, 0.07428291578968474
451.0, 0.017604359468569804
452.0, 0.060763698423169324
453.0, 0.04438003387675973
454.0, 0.030659203396280376
455.0, 0.04874097156700531
456.0, 0.02661878468538983
457.0, 0.019771927259834954
458.0, 0.06491683006402278
459.0, 0.05539166580814083
460.0, 0.09142480756776554
461.0, 0.07483482097108207
462.0, 0.1260408151466617
463.0, 0.11418108146193506
464.0, 0.10612494446236376
465.0, 0.13363431368801054
466.0, 0.14605953253179588
467.0, 0.15616779238752707
468.0, 0.1569171804991328
469.0, 0.13884270487429748
470.0, 0.07382774842006343
471.0, 0.009041894929565824
472.0, 0.1560985778508415
473.0, 0.09123400893797565
474.0, 0.02283118584285261
475.0, 0.08144075832570997
476.0, 0.21641952100809436
477.0, 0.21449689325225407
478.0, 0.20913724304584508
479.0, 0.14009877134735463
480.0, 0.16369264221997792
481.0, 0.21979570262307285
482.0, 0.17031182112915547
483.0, 0.16632369317611378
484.0, 0.11691714773489668
485.0, 0.13268463737445452
486.0, 0.21002047877589142
487.0, 0.2331959479620757
488.0, 0.10489017551171902
489.0, 0.06622744833828256
490.0, 0.02938004199088215
491.0, 0.08568258687773259
492.0, 0.156656826091039
493.0, 0.10418615011272793
494.0, 0.16488519386177294
495.0, 0.2550145661591675
496.0, 0.17265145033173934
497.0, 0.197508493070552
498.0, 0.31545765483343763
499.0, 0.2214031283957674
500.0, 0.22943727451616155
501.0, 0.24773539903348687
502.0, 0.18480425636936498
503.0, 0.17179164985067305
504.0, 0.27912390018324934
505.0, 0.3217466049867874
506.0, 0.25290643968423027
507.0, 0.23888636252220247
508.0, 0.2524827298145083
509.0, 0.2356882832043711
510.0, 0.21007508657977225
511.0, 0.2231709516159126
512.0, 0.24528737360123973
513.0, 0.29421441632616535
514.0, 0.2854186237229487
515.0, 0.23272185533879675
516.0, 0.2350956950341606
517.0, 0.25789835696854035
518.0, 0.25465430991342713
519.0, 0.3045537029907789
520.0, 0.30147826458865506
521.0, 0.1951095907172395
522.0, 0.19425595609654864
523.0, 0.17328891631726442
524.0, 0.20037871210819147
525.0, 0.2041903995274766
526.0, 0.18119318018654432
527.0, 0.21211880691479174
528.0, 0.2700369554253763
529.0, 0.20350781669048468
530.0, 0.1546842975492845
531.0, 0.17864743764439417
532.0, 0.22321350264524956
533.0, 0.23297933214058894
534.0, 0.308946176191776
535.0, 0.2258331677699785
536.0, 0.15461559520788204
537.0, 0.17626630720544545
538.0, 0.24099638686712202
539.0, 0.23229182337323828
540.0, 0.026726548379045888
541.0, 0.07287068662523985
542.0, 0.17261222422599215
543.0, 0.1969644494270267
544.0, 0.17947497456716086
545.0, 0.1208111030859725
546.0, 0.0671585981856448
547.0, 0.15086809444182697
548.0, 0.18590954814898988
549.0, 0.15994577218885314
550.0, 0.1803273352291877
551.0, 0.12878002220492168
552.0, 0.08185585054503286
553.0, 0.14077145141628977
554.0, 0.21010714262868305
555.0, 0.20420353238518907
556.0, 0.15623832002933086
557.0, 0.15890513065859269
558.0, 0.1736879901134065
559.0, 0.1761336764567515
560.0, 0.13482493189883485
561.0, 0.12336916012050395
562.0, 0.21471018837856254
563.0, 0.16358903207428235
564.0, 0.09794895857477688
565.0, 0.05420958266712301
566.0, 0.05075425793986289
567.0, 0.08372475164237153
568.0, 0.11146108452091621
569.0, 0.10015423110707744
570.0, 0.017818746300358408
571.0, 0.08828945301877256
572.0, 0.10167458705635972
573.0, 0.04916649106092473
574.0, 0.06733219365902124
575.0, 0.055825598264149436
576.0, 0.025554549385876507
577.0, 0.06364552094475084
578.0, 0.1845820876441099
579.0, 0.1874670412908622
580.0, 0.15214040488414537
581.0, 0.1887653577714579
582.0, 0.15737263446444547
583.0, 0.14196688626205117
584.0, 0.09689227134024715
585.0, 0.04284379299250625
586.0, 0.08484381729517897
587.0, 0.01553454316872118
588.0, 0.01978284479259125
589.0, 0.05418838304902164
590.0, 0.053154320877507946
591.0, 0.04631456263098246
592.0, 0.0792439322557778
593.0, 0.07446764793643029
594.0, 0.04922265670063406
595.0, 0.07451164947978856
596.0, 0.06425810534602734
597.0, 0.05514134685466027
598.0, 0.03582678072720599
599.0, 0.026510520098485296
600.0, 0.016860524493195975
601.0, 0.03664877939656723
602.0, 0.02808438373343091
603.0, 0.045957949652516795
604.0, 0.07038393031755891
605.0, 0.0749298571930586
606.0, 0.147775783952509
607.0, 0.0638919361015728
608.0, 0.018096530423764252
609.0, 0.031959723938813245
610.0, 0.08991947986080731
611.0, 0.009055233349624634
612.0, 0.08172880979084472
613.0, 0.09387129447246387
614.0, 0.03943583328863942
615.0, 0.02077857225367524
616.0, 0.05781227451536788
617.0, 0.06133278984699889
618.0, 0.04783867743985885
619.0, 0.07620328319029426
620.0, 0.17156623835735685
621.0, 0.17866642489761775
622.0, 0.10387452339483139
623.0, 0.15135534055719804
624.0, 0.1476182650461041
625.0, 0.19252567090379005
626.0, 0.18158572575594756
627.0, 0.13062437126735393
628.0, 0.0893184829528958
629.0, 0.1229029495840645
630.0, 0.31602494133376685
631.0, 0.2916193375277133
632.0, 0.20804402470208627
633.0, 0.25695608735843073
634.0, 0.33977786160781764
635.0, 0.3141654291305934
636.0, 0.294931823602409
637.0, 0.3810326502070588
638.0, 0.4783998017116338
639.0, 0.43271334165787567
640.0, 0.42367744610058533
641.0, 0.5146668952394898
642.0, 0.569863372165282
643.0, 0.6686250496232857
644.0, 0.7099840395839162
645.0, 0.8259744591135456
646.0, 0.8059430855462852
647.0, 0.7183181252806367
648.0, 0.7665430557512469
649.0, 0.8210600204745229
650.0, 0.8454148960734211
651.0, 0.9591231579734903
652.0, 0.9371285172625684
653.0, 0.8768684960885726
654.0, 0.8682343114567828
655.0, 0.773222381447158
656.0, 0.7229883179651524
657.0, 0.6897020588657049
658.0, 0.6167066063636364
659.0, 0.5333615657404689
660.0, 0.5379608840793373
661.0, 0.5911418564649507
662.0, 0.5171330380397184
663.0, 0.34575253718046395
664.0, 0.3859034361343675
665.0, 0.38504772037926727
666.0, 0.31685940146054825
667.0, 0.31271351957417487
668.0, 0.2947253686241054
669.0, 0.14446561981797054
670.0, 0.205423356428311
671.0, 0.19435525453418467
672.0, 0.1425754572663522
673.0, 0.09937056515672316
674.0, 0.06554979297081413
675.0, 0.14094796769157728
676.0, 0.20770778935198445
677.0, 0.15195074535479547
678.0, 0.1839951259107622
679.0, 0.1840165119443022
680.0, 0.09724932947037694
681.0, 0.09011469797976755
682.0, 0.07178677318451256
683.0, 0.03552595978897912
684.0, 0.07726133925586712
685.0, 0.04671492870441833
686.0, 0.050163615279143335
687.0, 0.110399754055707
688.0, 0.06361538683723987
689.0, 0.20815468616511745
690.0, 0.06457619240793624
691.0, 0.03198590657123558
692.0, 0.032928107358997254
693.0, 0.027965267383289236
694.0, 0.0814672271691353
695.0, 0.062383173213878214
696.0, 0.07110255757479605
697.0, 0.03270263758441534
698.0, 0.048067471639478915
699.0, 0.010766485188714247
700.0, 0.013475983914235446
701.0, 0.0692440711077947
702.0, 0.05665982469586387
703.0, 0.10542250393114545
704.0, 0.112512652211696
705.0, 0.07155410781183008
706.0, 0.018396339504249192
707.0, 0.0033907259680546298
708.0, 0.008128716043354195
709.0, 0.010549665595666268
710.0, 0.023481532285173697
711.0, 0.014110038602961086
712.0, 0.03194317322940156
713.0, 0.0714089427652091
714.0, 0.09381943405202409
715.0, 0.11319268874968798
716.0, 0.08945435563104441
717.0, 0.01957196294430789
718.0, 0.0954526945992131
719.0, 0.05374711440075737
720.0, 0.0459911922495074
721.0, 0.14183558327850385
722.0, 0.17492832514352386
723.0, 0.17277420993576303
724.0, 0.19924529317241899
725.0, 0.23378030084111084
726.0, 0.17003803683705876
727.0, 0.13798482589888966
728.0, 0.1686180899485086
729.0, 0.17346563987754407
730.0, 0.14310676828335137
731.0, 0.1728983768215422
732.0, 0.2605565804663167
733.0, 0.22746285465480529
734.0, 0.14640569168168432
735.0, 0.21363524871703488
736.0, 0.3390935151911153
737.0, 0.23837857028461187
738.0, 0.14966006878044075
739.0, 0.1336576552723164
740.0, 0.13824027720004267
741.0, 0.1715017440088158
742.0, 0.18823677243925874
743.0, 0.1527981395069212
744.0, 0.11161462662926878
745.0, 0.1276198824678154
746.0, 0.1012646035212208
747.0, 0.09560650050599923
748.0, 0.16817604192954594
749.0, 0.15215878884537112
750.0, 0.04651581993671329
751.0, 0.01666520493745753
752.0, 0.08419039757748792
753.0, 0.13142670783718713
754.0, 0.08242002468290388
755.0, 0.09552211484940025
756.0, 0.039977394292777
757.0, 0.021617414514847055
758.0, 0.034955893256465455
759.0, 0.11896582255290078
760.0, 0.11261187398105119
761.0, 0.021239270731683142
762.0, 0.01093300680016431
763.0, 0.1059883421192712
764.0, 0.08313714606249842
765.0, 0.008516729051203643
766.0, 0.08630451536945424
767.0, 0.08516700859812036
768.0, 0.03013505039150658
769.0, 0.14920575234983144
770.0, 0.17444643932936016
771.0, 0.045001512214481044
772.0, 0.062186988995249624
773.0, 0.042693112549609794
774.0, 0.05385579018913106
775.0, 0.16489561046116222
776.0, 0.08948078292771008
777.0, 0.013347799705548582
778.0, 0.1304024010432777
779.0, 0.18705542973456332
780.0, 0.05122682355948775
781.0, 0.047497484016317995
782.0, 0.12045638745686177
783.0, 0.14164900320310592
784.0, 0.14078078420949566
785.0, 0.06438558833596368
786.0, 0.045822866428228366
787.0, 0.07740844436939905
788.0, 0.14420144416177014
789.0, 0.2737204903273551
790.0, 0.2526482531253194
791.0, 0.23551635483244268
792.0, 0.24404372415769152
793.0, 0.1892323420842106
794.0, 0.16711390059303255
795.0, 0.14485765885522509
796.0, 0.09202068904793825
797.0, 0.09491527013007311
798.0, 0.0069262254816669
799.0, 0.14251300961576494
800.0, 0.2498403450565942
801.0, 0.22197664923988444
802.0, 0.10163172477896
803.0, 0.09397797609690932
804.0, 0.26719527888243905
805.0, 0.2957652333005124
806.0, 0.2478103257589007
807.0, 0.257690387392904
808.0, 0.303419657373852
809.0, 0.35356206742479823
810.0, 0.3021534670843774
811.0, 0.15934494973885524
812.0, 0.1039472390187079
813.0, 0.2201192460476159
814.0, 0.23010948115721797
815.0, 0.2872588651855941
816.0, 0.3560645402363985
817.0, 0.277397312729785
818.0, 0.17751805756726144
819.0, 0.19578940576869167
820.0, 0.27856210411642
821.0, 0.30670449408353906
822.0, 0.3097443966511759
823.0, 0.28350768115316116
824.0, 0.27532164300176554
825.0, 0.26488640460355545
826.0, 0.26029168843372963
827.0, 0.3230041477480984
828.0, 0.44474526932576575
829.0, 0.43137894765222196
830.0, 0.18798752173531566
831.0, 0.377596023296172
832.0, 0.38368235435527676
833.0, 0.3668622490314424
834.0, 0.3914798281810243
835.0, 0.37865792775846213
836.0, 0.369016054330799
837.0, 0.37676507104394413
838.0, 0.3341704285643452
839.0, 0.4430359412484266
840.0, 0.46887074350506547
841.0, 0.4396811327104515
842.0, 0.39336740361653244
843.0, 0.3284555759296709
844.0, 0.34313278158416255
845.0, 0.46751565857263144
846.0, 0.4519336946357291
847.0, 0.38480066950746916
848.0, 0.41200525177670816
849.0, 0.41766526132275594
850.0, 0.42995368056363936
851.0, 0.3822145335765729
852.0, 0.341023073914378
853.0, 0.3997854605354583
854.0, 0.4365319421992212
855.0, 0.40853294272825386
856.0, 0.355494023646062
857.0, 0.33657493730441773
858.0, 0.40686953305142226
859.0, 0.4096905349528865
860.0, 0.33539203005652357
861.0, 0.31254926411270295
862.0, 0.33629460956116963
863.0, 0.4082033923028508
864.0, 0.4337049851298931
865.0, 0.4017315431354016
866.0, 0.4188349425961388
867.0, 0.4355998419723434
868.0, 0.372159936671846
869.0, 0.3208681876149201
870.0, 0.4205721496858864
871.0, 0.5363215659763187
872.0, 0.37674477715158244
873.0, 0.5272341881214611
874.0, 0.2767916130878663
875.0, 0.22223601125789838
876.0, 0.28857325437533865
877.0, 0.32383883106592115
878.0, 0.2935780546378931
879.0, 0.2047974822448034
880.0, 0.23223204868003966
881.0, 0.3243256349134865
882.0, 0.2963824984250768
883.0, 0.24783039200964777
884.0, 0.3229698835338634
885.0, 0.2927610220884563
886.0, 0.20798794048945188
887.0, 0.22154679051405524
888.0, 0.21198286595377652
889.0, 0.11023836948805191
890.0, 0.1579469666244305
891.0, 0.17851543464925965
892.0, 0.09856347888839183
893.0, 0.19424083903328687
894.0, 0.12500521920732802
895.0, 0.05762207499475373
896.0, 0.09940861266201363
897.0, 0.07900360500048122
898.0, 0.1952414653534011
899.0, 0.2240535927792566
900.0, 0.07636390430420487
901.0, 0.09363597020342652
902.0, 0.1661533305491334
903.0, 0.20958670860375783
904.0, 0.15712629860540545
905.0, 0.0594140361120746
906.0, 0.06275069098755814
907.0, 0.13408636848093108
908.0, 0.11332617002079597
909.0, 0.15924596304849906
910.0, 0.08259552274204755
911.0, 0.0873477587654489
912.0, 0.053031289834300485
913.0, 0.04047212386602683
914.0, 0.03558483837374005
915.0, 0.037507869295828666
916.0, 0.03638417293382863
917.0, 0.05800039733922044
918.0, 0.04231338252019062
919.0, 0.012625525705269411
920.0, 0.05225148596929143
921.0, 0.07045401283842304
922.0, 0.133513863631301
923.0, 0.10356799012997286
924.0, 0.07631472624634886
925.0, 0.09262185189043562
926.0, 0.03029416370431532
927.0, 0.0364818048985239
928.0, 0.038175273909404346
929.0, 0.11530481075709356
930.0, 0.1272167472516471
931.0, 0.07843151386494689
932.0, 0.047618225916495005
933.0, 0.06929720769404651
934.0, 0.09837415697893484
935.0, 0.041835061873099745
936.0, 0.029831068693881843
937.0, 0.0016764166011929938
938.0, 0.05026847141083648
939.0, 0.0813304946077322
940.0, 0.03458342736998057
941.0, 0.04435122033433995
942.0, 0.08018278083015094
943.0, 0.05083958247886114
944.0, 0.06160367664451762
945.0, 0.21036917965274662
946.0, 0.10675098210799817
947.0, 0.12758024163501808
948.0, 0.0169475192327056
949.0, 0.025298363714932805
950.0, 0.09319635683731727
951.0, 0.13886910579311992
952.0, 0.15883854030946076
953.0, 0.1562390102953817
954.0, 0.07060593884277888
955.0, 0.0505008689736262
956.0, 0.13230609360756843
957.0, 0.06988898538912461
958.0, 0.018603992996711977
959.0, 0.027917487808769386
960.0, 0.08619470097196967
961.0, 0.08557408136270077
962.0, 0.07557546349007173
963.0, 0.0628238217453462
964.0, 0.019990284742191288
965.0, 0.027870652702895703
966.0, 0.08790804998048178
967.0, 0.05499255109124405
968.0, 0.009133964124549856
969.0, 0.0676759130620525
970.0, 0.07431724332280475
971.0, 0.14585874101532403
972.0, 0.15933683590701841
973.0, 0.10517910542150657
974.0, 0.10366982790250415
975.0, 0.14536193177228482
976.0, 0.18158285101520513
977.0, 0.21521898902265388
978.0, 0.18690772318682436
979.0, 0.19777068405093035
980.0, 0.18036160162334294
981.0, 0.18277281916031676
982.0, 0.2173508767720801
983.0, 0.20806666861501596
984.0, 0.2361651992119923
985.0, 0.30156875743539335
986.0, 0.26911700745230666
987.0, 0.2758010351332528
988.0, 0.28321568111104595
989.0, 0.3599677476734282
990.0, 0.4496356797368165
991.0, 0.47088753788615034
992.0, 0.45220411998483573
993.0, 0.39670992230719054
994.0, 0.38581390085065514
995.0, 0.40447209150264
996.0, 0.38402577286877987
997.0, 0.43106720501373785
998.0, 0.44302920410176583
999.0, 0.5986037765831301
1000.0, 0.5591339623629904
1001.0, 0.63017713203012
1002.0, 0.5452546260505217
1003.0, 0.44905238905349815
1004.0, 0.47755843241812246
1005.0, 0.4187131943199944
1006.0, 0.38748983360363126
1007.0, 0.48525901333037125
1008.0, 0.4547938926553554
1009.0, 0.41041452314183624
1010.0, 0.3627863278887043
1011.0, 0.259641470049353
1012.0, 0.2399053320009414
1013.0, 0.29048559661293993
1014.0, 0.3366351761680027
1015.0, 0.24065590485239988
1016.0, 0.22819509126918447
1017.0, 0.2110907537428146
1018.0, 0.18266586681285713
1019.0, 0.18400025617094898
1020.0, 0.15836619475545935
1021.0, 0.1916938149938692
1022.0, 0.15686459758669113
1023.0, 0.20098774008117962
1024.0, 0.18915163268444463
1025.0, 0.118903316394539
1026.0, 0.13653091596926792
1027.0, 0.1468703143625938
1028.0, 0.14221634674495864
1029.0, 0.08879131510863834
1030.0, 0.09302471151983921
1031.0, 0.14566678564715102
1032.0, 0.11382352286724536
1033.0, 0.13786892955912827
1034.0, 0.1131153836358432
1035.0, 0.06958633910946958
1036.0, 0.05974710523088977
1037.0, 0.08628078735184896
1038.0, 0.09959182268501865
1039.0, 0.09113148037831238
1040.0, 0.04418211645918698
1041.0, 0.012897109532578171
1042.0, 0.07487502697845488
1043.0, 0.16908111190883846
1044.0, 0.13807227836415667
1045.0, 0.0639814924300277
1046.0, 0.12900190265530148
1047.0, 0.022294533467502195
1048.0, 0.03502763407622851
1049.0, 0.20583678097717492
1050.0, 0.1721752799505411
1051.0, 0.10340093483978603
1052.0, 0.11205754531790109
1053.0, 0.10689174562531868
1054.0, 0.0636870841205282
1055.0, 0.049075922094889333
1056.0, 0.10307167836991254
1057.0, 0.1130268860717221
1058.0, 0.14782029274719538
1059.0, 0.04359546311665743
1060.0, 0.04283407398547197
1061.0, 0.033867429728063045
1062.0, 0.04779065333605635
1063.0, 0.05593887548662105
1064.0, 0.04627823596056898
1065.0, 0.05151631521148009
1066.0, 0.07577835335910013
1067.0, 0.13563018647910213
1068.0, 0.15129465260111846
1069.0, 0.1452312458472791
1070.0, 0.14085514262495247
1071.0, 0.009035305593767744
1072.0, 0.07289410085306362
1073.0, 0.18442055162411813
1074.0, 0.1508551191923276
1075.0, 0.028764165428332374
1076.0, 0.027545637337699054
1077.0, 0.10340878675409279
1078.0, 0.09153336275377263
1079.0, 0.045913386610585374
1080.0, 0.0357990096268374
1081.0, 0.06290183529415934
1082.0, 0.13537594355862304
1083.0, 0.0833107856930815
1084.0, 0.0799862878026384
1085.0, 0.13604824104487087
1086.0, 0.10268789649866453
1087.0, 0.12324718566170839
1088.0, 0.023238331249560235
1089.0, 0.10990192525586648
1090.0, 0.136073407290382
1091.0, 0.07019695050810179
1092.0, 0.14295054273740992
1093.0, 0.1570931534478891
1094.0, 0.06122835693791827
1095.0, 0.07584089644739177
1096.0, 0.02357054447435218
1097.0, 0.10287320905295384
1098.0, 0.11870122194627301
1099.0, 0.19914645074163956
1100.0, 0.174148683285077
1101.0, 0.1219082024463675
1102.0, 0.017267926347152664
1103.0, 0.030178198425770412
1104.0, 0.07796198297785012
1105.0, 0.09686145351192661
1106.0, 0.15493633762914594
1107.0, 0.18267788933519483
1108.0, 0.09074259854118945
1109.0, 0.010571818354237143
1110.0, 0.044966816023499015
1111.0, 0.12117661007789893
1112.0, 0.08744615021019528
1113.0, 0.14994469537116492
1114.0, 0.16590764395747182
1115.0, 0.15362204331033263
1116.0, 0.09779922692811881
1117.0, 0.0700931425447432
1118.0, 0.042606958317134534
1119.0, 0.10136535683614757
1120.0, 0.09039045519038717
1121.0, 0.05648292259876271
1122.0, 0.06373683610437582
1123.0, 0.021514781651300347
1124.0, 0.021110572233632094
1125.0, 0.0788087100359431
1126.0, 0.017477208243273264
1127.0, 0.0581808009518741
1128.0, 0.10455424214953088
1129.0, 0.15163280885175007
1130.0, 0.037233762918081975
1131.0, 0.08489997428787514
1132.0, 0.18520998452552642
1133.0, 0.18831803116180637
1134.0, 0.1923978445846196
1135.0, 0.204707819154948
1136.0, 0.08680894017323136
1137.0, 0.028561644154405905
1138.0, 0.05834154138622031
1139.0, 0.1107892565860533
1140.0, 0.08662868057505359
1141.0, 0.10088202963422195
1142.0, 0.02675220024215218
1143.0, 0.13392825404890965
1144.0, 0.163502370850384
1145.0, 0.137365255933536
1146.0, 0.16539966371464018
1147.0, 0.12841806755136304
1148.0, 0.09052093234358817
1149.0, 0.04353674829349483
1150.0, 0.01868055321191941
1151.0, 0.0676122473636178
1152.0, 0.12706286587482518
1153.0, 0.12167556960498707
1154.0, 0.11771155785510826
1155.0, 0.11173285685929225
1156.0, 0.04008248860516725
1157.0, 0.06510343729322773
1158.0, 0.13218174903269025
1159.0, 0.05081047563416915
1160.0, 0.22478063977318627
1161.0, 0.15097591580219635
1162.0, 0.1419902829238532
1163.0, 0.1593210590954278
1164.0, 0.2112651692953202
1165.0, 0.19334307323415548
1166.0, 0.1798217077283372
1167.0, 0.1861383210873414
1168.0, 0.160321207270122
1169.0, 0.16939666902377248
1170.0, 0.17351040390254022
1171.0, 0.10300013899119814
1172.0, 0.10215963143088505
1173.0, 0.17040632394512456
1174.0, 0.12324452079483791
1175.0, 0.18566590890563284
1176.0, 0.17146599794623452
1177.0, 0.11068588117056988
1178.0, 0.17133916105696967
1179.0, 0.11388651742137909
1180.0, 0.17789195902372362
1181.0, 0.10267689939374917
1182.0, 0.0808230941555442
1183.0, 0.05421218893186413
1184.0, 0.07908246259986472
1185.0, 0.07406448548413358
1186.0, 0.12351587196182084
1187.0, 0.14088377415208717
1188.0, 0.06678792263856771
1189.0, 0.017738889723372377
1190.0, 0.05541052931731713
1191.0, 0.1424191648852563
1192.0, 0.03669535323115417
1193.0, 0.04735798301133639
1194.0, 0.11612419820997619
1195.0, 0.1915868426013113
1196.0, 0.12427779302265454
1197.0, 0.04384775092937795
1198.0, 0.08870820787985212
1199.0, 0.09202505522001055
1200.0, 0.0033129534473238208
1201.0, 0.14506174607794373
1202.0, 0.13629075185692688
1203.0, 0.025898310652940026
1204.0, 0.04530033384346398
1205.0, 0.1244476996883858
1206.0, 0.23855569252455994
1207.0, 0.13680683758651457
1208.0, 0.06662706362195181
1209.0, 0.02188949851248197
1210.0, 0.024942094472645462
1211.0, 0.15183486289892933
1212.0, 0.1851724019186883
1213.0, 0.08624932738791068
1214.0, 0.14955753840801755
1215.0, 0.013482486676108022
1216.0, 0.09042061169729149
1217.0, 0.17199072445244595
1218.0, 0.049072930492450324
1219.0, 0.11326209848884061
1220.0, 0.2322191005198145
1221.0, 0.168443818037237
1222.0, 0.12553596673944542
1223.0, 0.11544263486121663
1224.0, 0.09700387110277313
1225.0, 0.09670102987321536
1226.0, 0.10658959698538908
1227.0, 0.15913591450382522
1228.0, 0.09078581485163961
1229.0, 0.037238479581729884
1230.0, 0.07680785417984994
1231.0, 0.1054925398175953
1232.0, 0.1620871601299264
1233.0, 0.22440434877183765
1234.0, 0.21742045191557088
1235.0, 0.09548869532949661
1236.0, 0.12399921166882721
1237.0, 0.1773270710558762
1238.0, 0.1923743198989449
1239.0, 0.17415943926619798
1240.0, 0.1961008856301382
1241.0, 0.1935892548602128
1242.0, 0.059519955070127736
1243.0, 0.01513969539230711
1244.0, 0.056548762221318515
1245.0, 0.1131306193251794
1246.0, 0.05198958988197644
1247.0, 0.18609608915194498
1248.0, 0.2193732529530691
1249.0, 0.1450521992428987
1250.0, 0.08098552685984077
1251.0, 0.19172892608180164
1252.0, 0.15878432843115117
1253.0, 0.04427645422125072
1254.0, 0.035517002519475635
1255.0, 0.05827332579645034
1256.0, 0.1087888845807664
1257.0, 0.10470697611946019
1258.0, 0.11132930848207591
1259.0, 0.17043832639578593
1260.0, 0.1484128814145499
1261.0, 0.03383736364258261
1262.0, 0.03551269307287766
1263.0, 0.1256349781989539
1264.0, 0.024762786864581766
1265.0, 0.17114690811501387
1266.0, 0.13127917103362283
1267.0, 0.2597141348862173
1268.0, 0.0483479328014933
1269.0, 0.029484426260875704
1270.0, 0.10480254258683044
1271.0, 0.10854073484583387
1272.0, 0.11423038913570503
1273.0, 0.10186884032024206
1274.0, 0.016074025798584003
1275, 0.0
1276, 0.0
1277, 0.0
1278, 0.0
1279, 0.0
1280, 0.0
1281, 0.0
1282, 0.0
1283, 0.0
1284, 0.0
1285, 0.0
1286, 0.0
1287, 0.0
1288, 0.0
1289, 0.0
1290, 0.0
1291, 0.0
1292, 0.0
1293, 0.0
1294, 0.0
1295, 0.0
1296, 0.0
1297, 0.0
1298, 0.0
1299, 0.0
1300, 0.0
1301, 0.0
1302, 0.0
1303, 0.0
1304, 0.0
1305, 0.0
1306, 0.0
1307, 0.0
1308, 0.0
1309, 0.0
1310, 0.0
1311, 0.0
1312, 0.0
1313, 0.0
1314, 0.0
1315, 0.0
1316, 0.0
1317, 0.0
1318, 0.0
1319, 0.0
1320, 0.0
1321, 0.0
1322, 0.0
1323, 0.0
1324, 0.0
1325, 0.0
1326, 0.0
1327, 0.0
1328, 0.0
1329, 0.0
1330, 0.0
1331, 0.0
1332, 0.0
1333, 0.0
1334, 0.0
1335, 0.0
1336, 0.0
1337, 0.0
1338, 0.0
1339, 0.0
1340, 0.0
1341, 0.0
1342, 0.0
1343, 0.0
1344, 0.0
1345, 0.0
1346, 0.0
1347, 0.0
1348, 0.0
1349, 0.0
1350, 0.0
1351, 0.0
1352, 0.0
1353, 0.0
1354, 0.0
1355, 0.0
1356, 0.0
1357, 0.0
1358, 0.0
1359, 0.0
1360, 0.0
1361, 0.0
1362, 0.0
1363, 0.0
1364, 0.0
1365, 0.0
1366, 0.0
1367, 0.0
1368, 0.0
1369, 0.0
1370, 0.0
1371, 0.0
1372, 0.0
1373, 0.0
1374, 0.0
1375, 0.0
1376, 0.0
1377, 0.0
1378, 0.0
1379, 0.0
1380, 0.0
1381, 0.0
1382, 0.0
1383, 0.0
1384, 0.0
1385, 0.0
1386, 0.0
1387, 0.0
1388, 0.0
1389, 0.0
1390, 0.0
1391, 0.0
1392, 0.0
1393, 0.0
1394, 0.0
1395, 0.0
1396, 0.0
1397, 0.0
1398, 0.0
1399, 0.0
1400, 0.0
1401, 0.0
1402, 0.0
1403, 0.0
1404, 0.0
1405, 0.0
1406, 0.0
1407, 0.0
1408, 0.0
1409, 0.0
1410, 0.0
1411, 0.0
1412, 0.0
1413, 0.0
1414, 0.0
1415, 0.0
1416, 0.0
1417, 0.0
1418, 0.0
1419, 0.0
1420, 0.0
1421, 0.0
1422, 0.0
1423, 0.0
1424, 0.0
1425, 0.0
1426, 0.0
1427, 0.0
1428, 0.0
1429, 0.0
1430, 0.0
1431, 0.0
1432, 0.0
1433, 0.0
1434, 0.0
1435, 0.0
1436, 0.0
1437, 0.0
1438, 0.0
1439, 0.0
1440, 0.0
1441, 0.0
1442, 0.0
1443, 0.0
1444, 0.0
1445, 0.0
1446, 0.0
1447, 0.0
1448, 0.0
1449, 0.0
1450, 0.0
1451, 0.0
1452, 0.0
1453, 0.0
1454, 0.0
1455, 0.0
1456, 0.0
1457, 0.0
1458, 0.0
1459, 0.0
1460, 0.0
1461, 0.0
1462, 0.0
1463, 0.0
1464, 0.0
1465, 0.0
1466, 0.0
1467, 0.0
1468, 0.0
1469, 0.0
1470, 0.0
1471, 0.0
1472, 0.0
1473, 0.0
1474, 0.0
1475, 0.0
1476, 0.0
1477, 0.0
1478, 0.0
1479, 0.0
1480, 0.0
1481, 0.0
1482, 0.0
1483, 0.0
1484, 0.0
1485, 0.0
1486, 0.0
1487, 0.0
1488, 0.0
1489, 0.0
1490, 0.0
1491, 0.0
1492, 0.0
1493, 0.0
1494, 0.0
1495, 0.0
1496, 0.0
1497, 0.0
1498, 0.0
1499, 0.0
1500, 0.0
1501, 0.0
1502, 0.0
1503, 0.0
1504, 0.0
1505, 0.0
1506, 0.0
1507, 0.0
1508, 0.0
1509, 0.0
1510, 0.0
1511, 0.0
1512, 0.0
1513, 0.0
1514, 0.0
1515, 0.0
1516, 0.0
1517, 0.0
1518, 0.0
1519, 0.0
1520, 0.0
1521, 0.0
1522, 0.0
1523, 0.0
1524, 0.0
1525, 0.0
1526, 0.0
1527, 0.0
1528, 0.0
1529, 0.0
1530, 0.0
1531, 0.0
1532, 0.0
1533, 0.0
1534, 0.0
1535, 0.0
1536, 0.0
1537, 0.0
1538, 0.0
1539, 0.0
1540, 0.0
1541, 0.0
1542, 0.0
1543, 0.0
1544, 0.0
1545, 0.0
1546, 0.0
1547, 0.0
1548, 0.0
1549, 0.0
1550, 0.0
1551, 0.0
1552, 0.0
1553, 0.0
1554, 0.0
1555, 0.0
1556, 0.0
1557, 0.0
1558, 0.0
1559, 0.0
1560, 0.0
1561, 0.0
1562, 0.0
1563, 0.0
1564, 0.0
1565, 0.0
1566, 0.0
1567, 0.0
1568, 0.0
1569, 0.0
1570, 0.0
1571, 0.0
1572, 0.0
1573, 0.0
1574, 0.0
1575, 0.0
1576, 0.0
1577, 0.0
1578, 0.0
1579, 0.0
1580, 0.0
1581, 0.0
1582, 0.0
1583, 0.0
1584, 0.0
1585, 0.0
1586, 0.0
1587, 0.0
1588, 0.0
1589, 0.0
1590, 0.0
1591, 0.0
1592, 0.0
1593, 0.0
1594, 0.0
1595, 0.0
1596, 0.0
1597, 0.0
1598, 0.0
1599, 0.0
