30, 0.0
31, 0.0
32, 0.0
33, 0.0
34, 0.0
35, 0.0
36, 0.0
37, 0.0
38, 0.0
39, 0.0
40, 0.0
41, 0.0
42, 0.0
43, 0.0
44, 0.0
45, 0.0
46, 0.0
47, 0.0
48, 0.0
49, 0.0
50, 0.0
51, 0.0
52, 0.0
53, 0.0
54, 0.0
55, 0.0
56, 0.0
57, 0.0
58, 0.0
59, 0.0
60, 0.0
61, 0.0
62, 0.0
63, 0.0
64, 0.0
65, 0.0
66, 0.0
67, 0.0
68, 0.0
69, 0.0
70, 0.0
71, 0.0
72, 0.0
73, 0.0
74, 0.0
75, 0.0
76, 0.0
77, 0.0
78, 0.0
79, 0.0
80, 0.0
81, 0.0
82, 0.0
83, 0.0
84, 0.0
85, 0.0
86, 0.0
87, 0.0
88, 0.0
89, 0.0
90, 0.0
91, 0.0
92, 0.0
93, 0.0
94, 0.0
95, 0.0
96, 0.0
97, 0.0
98.0, 0.00044976264678796453
99.0, 0.0009327622449877317
100.0, 0.0016713937486789307
101.0, 0.002186417993994074
102.0, 0.003141542785047321
103.0, 0.003986997965905183
104.0, 0.004123614202582437
105.0, 0.0050632360457841885
106.0, 0.0034646299991014816
107.0, 0.0019139596525085093
108.0, 0.001059602063402968
109.0, 0.00016884146217433865
110.0, 2.8002879248174194e-05
111.0, 0.00045201231516085863
112.0, 0.0012537250956682784
113.0, 0.0011564575268154206
114.0, 0.0009282048251428173
115.0, 0.0031702104906987014
116.0, 0.004994482588892279
117.0, 0.006398702761748729
118.0, 0.008494392955810883
119.0, 0.01051269405776205
120.0, 0.011475109444771802
121.0, 0.011386570412200182
122.0, 0.012317580600136758
123.0, 0.01605394854438847
124.0, 0.01982972292401771
125.0, 0.02316137151520103
126.0, 0.028892442823577672
127.0, 0.03456999832844968
128.0, 0.03881803146071963
129.0, 0.04235124581382367
130.0, 0.04650952541476205
131.0, 0.04850238193794547
132.0, 0.0496863113317253
133.0, 0.05038251335712855
134.0, 0.050602139309449845
135.0, 0.05157782318424261
136.0, 0.05432143761893121
137.0, 0.058211851179569424
138.0, 0.06257095974058588
139.0, 0.06776328563351716
140.0, 0.07614845875523521
141.0, 0.09229515264989885
142.0, 0.11690252519901116
143.0, 0.14695676519774245
144.0, 0.16976043479184302
145.0, 0.1708223242028612
146.0, 0.15524246291835794
147.0, 0.13694371519997037
148.0, 0.13162100292937498
149.0, 0.12950737177717492
150.0, 0.13159903735487824
151.0, 0.13912911016551427
152.0, 0.14493219958052897
153.0, 0.15079047141360133
154.0, 0.15703586952470583
155.0, 0.16570812909595675
156.0, 0.1800038504002726
157.0, 0.200124797126628
158.0, 0.23613994651326667
159.0, 0.29948532553469864
160.0, 0.402041653137797
161.0, 0.585288089934272
162.0, 0.8805413220608352
163.0, 0.9127316971220001
164.0, 0.5229574271819282
165.0, 0.22331501976426596
166.0, 0.10216894622812125
167.0, 0.06704048705817454
168.0, 0.05279236753012714
169.0, 0.046291528401262154
170.0, 0.04177424173548836
171.0, 0.03812898335910534
172.0, 0.03545789892523644
173.0, 0.033332511244234135
174.0, 0.030639732547327273
175.0, 0.02943586434136492
176.0, 0.029181714606433578
177.0, 0.028285823818301407
178.0, 0.02594554786718942
179.0, 0.024061397786662286
180.0, 0.023615971325466705
181.0, 0.02357741003768739
182.0, 0.022418260171685724
183.0, 0.022277513820453277
184.0, 0.02268737920875137
185.0, 0.022252129110117258
186.0, 0.0200143404512005
187.0, 0.01650843493030751
188.0, 0.01657978194749226
189.0, 0.017226252711461335
190.0, 0.016180568340662792
191.0, 0.014873816654007409
192.0, 0.0141042279337361
193.0, 0.014140887222677756
194.0, 0.01404803545226988
195.0, 0.013004770275208839
196.0, 0.013004754350829506
197.0, 0.01281027124055057
198.0, 0.013179497513136289
199.0, 0.01502553408195383
200.0, 0.018345404023368088
201.0, 0.020641895784702064
202.0, 0.0228966428779963
203.0, 0.02433293396683713
204.0, 0.02359398792557999
205.0, 0.025306322255567865
206.0, 0.028934891325476907
207.0, 0.030672366977281817
208.0, 0.03022839018602092
209.0, 0.03493677244918295
210.0, 0.03770939687872164
211.0, 0.04176751271266447
212.0, 0.04835427046174651
213.0, 0.05619306036061724
214.0, 0.06936696032113938
215.0, 0.08604472659217086
216.0, 0.11110978423603868
217.0, 0.1466563532207218
218.0, 0.18483602422413453
219.0, 0.18342896178559773
220.0, 0.13823950243312816
221.0, 0.07669617463311963
222.0, 0.03636234648705074
223.0, 0.016110298886670364
224.0, 0.006440799803317086
225.0, 0.002383454528400264
226.0, 0.0015103247350013753
227.0, 0.0006618324080181324
228.0, 0.001932041004316724
229.0, 0.0038318905995794483
230.0, 0.005285166946403636
231.0, 0.0030476973981621138
232.0, 0.00322868374909945
233.0, 0.003575586041219825
234.0, 0.0023619540712295373
235.0, 0.0003737273101548943
236.0, 0.0010269925383555698
237.0, 0.004390276294294216
238.0, 0.008723288745356722
239.0, 0.014290637150107775
240.0, 0.023455157435116246
241.0, 0.03856044296120264
242.0, 0.05708379596429741
243.0, 0.07587471412317716
244.0, 0.0911838079906777
245.0, 0.09896341251842722
246.0, 0.10726859970919271
247.0, 0.11660079259599225
248.0, 0.12786568920954908
249.0, 0.14285727569173573
250.0, 0.1610383897950579
251.0, 0.1836378284908908
252.0, 0.2116681234162124
253.0, 0.24587665085611732
254.0, 0.2885044308001407
255.0, 0.3527814008202502
256.0, 0.44193126169213787
257.0, 0.5563850264089036
258.0, 0.69446967968664
259.0, 0.8581539452916626
260.0, 0.9837515646580237
261.0, 0.955315002001327
262.0, 0.7615491317617092
263.0, 0.4994384143153625
264.0, 0.31219459898168267
265.0, 0.1988036880350863
266.0, 0.13444612045684398
267.0, 0.0972848150170155
268.0, 0.07051024949933096
269.0, 0.05219673873941621
270.0, 0.0401550793597666
271.0, 0.03151353682160378
272.0, 0.023731366912255546
273.0, 0.018912037614201446
274.0, 0.016087346966003804
275.0, 0.013477095387451565
276.0, 0.011052916860313327
277.0, 0.010894400982287262
278.0, 0.009616503957860035
279.0, 0.007953783475334687
280.0, 0.007004487589084843
281.0, 0.007789261174873516
282.0, 0.011091920996535169
283.0, 0.010556218413279033
284.0, 0.008909437386080863
285.0, 0.008909221105078058
286.0, 0.010280037667528585
287.0, 0.011490964648445748
288.0, 0.014591466981594352
289.0, 0.019008979071841403
290.0, 0.024331430766673923
291.0, 0.03277971022689078
292.0, 0.0404449358500532
293.0, 0.04934983895093085
294.0, 0.0547316932325319
295.0, 0.05043660795065837
296.0, 0.03791977627578546
297.0, 0.024790906377655735
298.0, 0.014835290433776564
299.0, 0.00882399221100757
300.0, 0.00561891626944028
301.0, 0.0034311967129247666
302.0, 0.0016721749538461048
303.0, 0.0019822025060252293
304.0, 0.004048227973568552
305.0, 0.004508672347124053
306.0, 0.0047512958477426955
307.0, 0.005157371329630774
308.0, 0.005891523031685425
309.0, 0.006326578366425796
310.0, 0.004860850976037258
311.0, 0.003921622322564559
312.0, 0.0013837308803495345
313.0, 0.0040475164525521
314.0, 0.005040778682027824
315.0, 0.006627770625258575
316.0, 0.005854339136335456
317.0, 0.005042944932826009
318.0, 0.004827458871633555
319.0, 0.003343476253332194
320.0, 0.0005946664693141925
321.0, 0.003720625879400214
322.0, 0.008858815654215726
323.0, 0.01541341899320525
324.0, 0.022350999594374726
325.0, 0.026735843432313645
326.0, 0.03225435886889567
327.0, 0.039128766203817514
328.0, 0.04623080285261071
329.0, 0.053073215323800875
330.0, 0.06422612828636728
331.0, 0.07733239093464278
332.0, 0.09238156706513674
333.0, 0.11066191618616113
334.0, 0.13404876649998362
335.0, 0.1644505653817631
336.0, 0.2009100762333114
337.0, 0.24187561107634986
338.0, 0.2811498658543951
339.0, 0.3028387572261265
340.0, 0.2823905363580734
341.0, 0.2278912691534791
342.0, 0.16482484434773084
343.0, 0.11581368520582977
344.0, 0.08018128482757594
345.0, 0.060440797384495315
346.0, 0.0497753624973006
347.0, 0.042739372482292225
348.0, 0.040312879978285227
349.0, 0.03915589190326624
350.0, 0.043367717705831074
351.0, 0.0501312281166713
352.0, 0.057079954224082276
353.0, 0.06905583527448111
354.0, 0.08495623530123204
355.0, 0.10286366180877693
356.0, 0.12037378453291955
357.0, 0.13760716734323147
358.0, 0.15868983724209026
359.0, 0.17935055205577025
360.0, 0.20355867224101729
361.0, 0.23461021447531283
362.0, 0.2727486336619865
363.0, 0.3146764304032944
364.0, 0.37287711227541037
365.0, 0.4427754651266042
366.0, 0.5278621459431528
367.0, 0.6331971101933705
368.0, 0.7495142350498386
369.0, 0.8558353568344979
370.0, 0.9067822227335072
371.0, 0.8832395716786324
372.0, 0.7894507665584362
373.0, 0.6430337638941828
374.0, 0.4913909015434548
375.0, 0.36478513189650674
376.0, 0.2721269817708244
377.0, 0.20694186511029222
378.0, 0.1583148738044436
379.0, 0.12651048102712992
380.0, 0.10398160943317383
381.0, 0.08744569051373713
382.0, 0.08007801517044591
383.0, 0.07866245640352074
384.0, 0.08579631380885808
385.0, 0.0974794884756294
386.0, 0.10816941935985679
387.0, 0.11512389722502106
388.0, 0.12610124057996325
389.0, 0.14267640099656123
390.0, 0.16054249057374978
391.0, 0.17941183486730755
392.0, 0.2040909408474533
393.0, 0.23453559252860107
394.0, 0.27100334679815186
395.0, 0.32170263792697346
396.0, 0.3897164788947546
397.0, 0.4720101931305146
398.0, 0.5771646442786007
399.0, 0.7019796604964371
400.0, 0.8207391380182786
401.0, 0.8853793409552698
402.0, 0.8297024863080564
403.0, 0.69756084649493
404.0, 0.5759146196190681
405.0, 0.492558477868462
406.0, 0.42797358432447236
407.0, 0.34148634604409467
408.0, 0.2447739602768
409.0, 0.16730010806900364
410.0, 0.11565067845135203
411.0, 0.08340215498935867
412.0, 0.06300377002340805
413.0, 0.04836155940843999
414.0, 0.03697268408775223
415.0, 0.029628342860241658
416.0, 0.02519238990313176
417.0, 0.020494449617268012
418.0, 0.015832096531269726
419.0, 0.013034843174274252
420.0, 0.010318773016322407
421.0, 0.007952641472032297
422.0, 0.007534360912730298
423.0, 0.005109514318192659
424.0, 0.0053786271987811074
425.0, 0.004603882189391759
426.0, 0.002220784370333792
427.0, 0.0009295603049759641
428.0, 0.0009598360725256191
429.0, 0.0028036686521272823
430.0, 0.0027228633802642483
431.0, 0.0012598228037392907
432.0, 0.0017391373650842564
433.0, 0.0022303369795091295
434.0, 0.003619045274546429
435.0, 0.005425461865620318
436.0, 0.006729257352320332
437.0, 0.00722070084216226
438.0, 0.00779890368502813
439.0, 0.005351051017784365
440.0, 0.0042098796795100165
441.0, 0.0030486160601230806
442.0, 0.0005887008705711519
443.0, 0.002041214476109113
444.0, 0.001008268231833785
445.0, 0.0004819729413533372
446.0, 0.0005396170997588089
447.0, 0.0015198543322671417
448.0, 0.0008995884994067475
449.0, 0.000676231830585298
450.0, 0.0010314285760532954
451.0, 0.001165904452134139
452.0, 0.0009167379023099208
453.0, 0.0010450729096402045
454.0, 0.00042591698965693527
455.0, 0.0015915736685467806
456.0, 0.0019429269704069067
457.0, 0.0011600699082542627
458.0, 0.0018231839378168306
459.0, 0.000944380591206946
460.0, 0.0006855269217174786
461.0, 0.0007160614419639753
462.0, 0.0006668740993725431
463.0, 0.0007779933038527431
464.0, 0.0007585851484109945
465.0, 0.000948277134240085
466.0, 0.0010024077052428282
467.0, 0.0010471558098553622
468.0, 0.000990653387754848
469.0, 0.0007184132160351927
470.0, 0.0010373687641637814
471.0, 0.00043190251617317003
472.0, 0.0007768586249088614
473.0, 0.0021857907054426
474.0, 0.0019090691504028367
475.0, 0.0014756895163861746
476.0, 0.0021856503855908144
477.0, 0.003331422048922037
478.0, 0.00419839865386425
479.0, 0.004823957703938724
480.0, 0.0046422700328283585
481.0, 0.006192126970547314
482.0, 0.006191423318984088
483.0, 0.004786705884848346
484.0, 0.004237697320430427
485.0, 0.0032371543395057637
486.0, 0.0031922149611696778
487.0, 0.002380991080489233
488.0, 0.0014148424439131082
489.0, 0.001421933780345375
490.0, 0.001526524376880269
491.0, 0.0004160342021888278
492.0, 0.0006084777521570601
493.0, 0.0012634601370195995
494.0, 0.000988414960206972
495.0, 0.0030468583751025323
496.0, 0.003126799882804501
497.0, 0.003209648094321416
498.0, 0.003456541021202226
499.0, 0.0035981960361913035
500.0, 0.003565054159796278
501.0, 0.0031286022149714047
502.0, 0.0027757443987591855
503.0, 0.003041964212694881
504.0, 0.003989144307216299
505.0, 0.004790069624044476
506.0, 0.004248756564335928
507.0, 0.0036703930126931014
508.0, 0.0034596292272953536
509.0, 0.00326772166541347
510.0, 0.0034445079956224537
511.0, 0.004490550694711819
512.0, 0.004242533419070734
513.0, 0.004456259897313395
514.0, 0.004566147727803645
515.0, 0.004869578558863825
516.0, 0.005086372464531132
517.0, 0.003294845830280977
518.0, 0.0034176744804071957
519.0, 0.003996071855793569
520.0, 0.004685602931853549
521.0, 0.005737752052867396
522.0, 0.007122419752723733
523.0, 0.0069754377344915675
524.0, 0.007603969697245478
525.0, 0.008534863856406949
526.0, 0.010609107461330397
527.0, 0.014334580358074245
528.0, 0.015740212249282147
529.0, 0.017245157729064625
530.0, 0.02091701702657948
531.0, 0.024540258821652474
532.0, 0.02745537967804101
533.0, 0.0324081413814531
534.0, 0.038113553618164146
535.0, 0.043241970505379236
536.0, 0.0473960847241006
537.0, 0.05063558322021593
538.0, 0.053784681692557554
539.0, 0.05897566294407706
540.0, 0.06516788134049957
541.0, 0.07274583468197254
542.0, 0.08163925328928494
543.0, 0.08907806170744155
544.0, 0.0908311618717621
545.0, 0.0857789161622977
546.0, 0.07488586658850042
547.0, 0.06405347047240241
548.0, 0.054787015301336284
549.0, 0.046077233613734905
550.0, 0.04150822156025039
551.0, 0.041312257009939825
552.0, 0.04149389134736257
553.0, 0.043054025858804267
554.0, 0.045943998334564244
555.0, 0.04762045875845617
556.0, 0.05097649948551033
557.0, 0.052557919212641996
558.0, 0.05219749969933845
559.0, 0.050345680774692245
560.0, 0.04678258185080889
561.0, 0.04104709312567989
562.0, 0.03420644754725318
563.0, 0.029137079473765645
564.0, 0.02528256332387084
565.0, 0.021750316796963046
566.0, 0.01895662810277204
567.0, 0.018921422815635643
568.0, 0.01590655623605676
569.0, 0.01376507013709933
570.0, 0.013284760509935314
571.0, 0.01416343117409294
572.0, 0.01651346293200732
573.0, 0.01132697612094916
574.0, 0.00853884446006289
575.0, 0.009140354222838588
576.0, 0.009714797484569448
577.0, 0.007971428225840788
578.0, 0.0070024980692581975
579.0, 0.010679709310424538
580.0, 0.009572359156029251
581.0, 0.007575729018983138
582.0, 0.007475301120450529
583.0, 0.006166648047619181
584.0, 0.005282850416732327
585.0, 0.00621268164193065
586.0, 0.005433972431592783
587.0, 0.004685320838352816
588.0, 0.0054567446294304985
589.0, 0.00587577570984602
590.0, 0.005991337981724781
591.0, 0.005537963840609565
592.0, 0.005439173459379476
593.0, 0.004774085163534298
594.0, 0.003524187655174706
595.0, 0.004155924474530625
596.0, 0.003004287791482267
597.0, 0.0032010295864211497
598.0, 0.0037437795792763756
599.0, 0.003014292060392535
600.0, 0.0017530480682935322
601.0, 0.0034153141229786846
602.0, 0.003876945098397293
603.0, 0.003089228323693878
604.0, 0.0026065665088882265
605.0, 0.002527931486145225
606.0, 0.0022607073325512446
607.0, 0.0018117257501815318
608.0, 0.003473781610839095
609.0, 0.004182669212485218
610.0, 0.0034253966665078878
611.0, 0.0025359427317409432
612.0, 0.0023884464422012515
613.0, 0.002241678954311379
614.0, 0.00220605366670179
615.0, 0.0018131608743035671
616.0, 0.001970389433753657
617.0, 0.003030776525426122
618.0, 0.003241269292099667
619.0, 0.0015553390299562415
620.0, 0.0012586604725185481
621.0, 0.0012092094546755567
622.0, 0.0009479275226950666
623.0, 0.0012097528466056065
624.0, 0.0020681489588651124
625.0, 0.001676086535567288
626.0, 0.001812525206217547
627.0, 0.0016917145572394896
628.0, 0.0010554880760868751
629.0, 0.0003577385002257477
630.0, 0.00023030497304887658
631.0, 0.0013708286267049314
632.0, 0.00060250195205553
633.0, 0.00012129430911845613
634.0, 0.0004250558925905499
635.0, 0.0005643519713330956
636.0, 0.0011133821904720847
637.0, 0.000409917328605921
638.0, 0.0007485998989474964
639.0, 0.000651799730716042
640.0, 2.9682414711366205e-05
641.0, 6.36176915873554e-05
642.0, 0.0007212242162174792
643.0, 0.0014526083347453642
644.0, 0.0025603341740752994
645.0, 0.001618581293963247
646.0, 0.0003040838324847997
647.0, 0.001055144529108554
648.0, 0.0006368383209037198
649.0, 0.00041619355317150565
650.0, 0.00029777443564314276
651.0, 0.0007735095063233837
652.0, 0.0008706392506284627
653.0, 7.204936717345462e-05
654.0, 0.0013708473868960062
655.0, 0.00042565342741279213
656.0, 0.00021674864461232663
657.0, 0.0002707549139186773
658.0, 0.0006351081118166689
659.0, 0.0010796352613265075
660.0, 0.0002344493014814262
661.0, 0.0019717755957636943
662.0, 0.001575055165928287
663.0, 0.0007601514342247685
664.0, 0.0009345471230849596
665.0, 0.0009168072332991599
666.0, 0.0002232437424291566
667.0, 0.00028718339050072235
668.0, 0.0008362010010410125
669.0, 0.0021952649547434884
670.0, 0.0026229436575532145
671.0, 0.002251016034198874
672.0, 0.002985644334379469
673.0, 0.004973698601491423
674.0, 0.0061451036278391494
675.0, 0.007967821926284672
676.0, 0.010609239172306965
677.0, 0.01339793560751821
678.0, 0.016214203131189122
679.0, 0.018921896086310445
680.0, 0.02263037306345583
681.0, 0.027931529382352896
682.0, 0.03364088145519761
683.0, 0.03951451312497907
684.0, 0.04653970495104512
685.0, 0.05411139396298962
686.0, 0.06327636056046973
687.0, 0.06966878815779606
688.0, 0.07652446547041727
689.0, 0.08293399202648294
690.0, 0.08476529080603856
691.0, 0.08444424244380727
692.0, 0.07640265098024815
693.0, 0.06763845241872504
694.0, 0.057208137938060115
695.0, 0.04715434180550059
696.0, 0.040808349691176714
697.0, 0.03689169140605384
698.0, 0.03490852892888325
699.0, 0.034489853544834616
700.0, 0.03523844103840473
701.0, 0.03735027495836538
702.0, 0.04103169132915095
703.0, 0.04606330056299499
704.0, 0.05245671658504003
705.0, 0.05925765567436974
706.0, 0.06817993285395832
707.0, 0.07753918608674376
708.0, 0.08727157114259255
709.0, 0.09906915791487379
710.0, 0.11141392036871438
711.0, 0.1258805161602616
712.0, 0.14234587758002107
713.0, 0.15825718833035335
714.0, 0.17144001065411746
715.0, 0.18232793197628047
716.0, 0.19163688445881077
717.0, 0.18976460320584143
718.0, 0.17771012955461116
719.0, 0.15832057611624403
720.0, 0.13475682305290781
721.0, 0.10956133447307646
722.0, 0.08554717956285957
723.0, 0.06508192389020143
724.0, 0.05250057239311517
725.0, 0.042273784354327555
726.0, 0.03191947194813893
727.0, 0.023947710617395146
728.0, 0.019721004944636817
729.0, 0.01381058193452174
730.0, 0.010526935111090369
731.0, 0.0067279551533494545
732.0, 0.004522940526065399
733.0, 0.002551018168475648
734.0, 0.0004002615826896543
735.0, 0.0007970703776592588
736.0, 0.0005646590541462314
737.0, 0.0017449746228288133
738.0, 0.0020733944793346116
739.0, 0.0014983768522148693
740.0, 0.00044878992652697266
741.0, 0.0009202464400486904
742.0, 0.0009730938216862893
743.0, 0.0018114985143839206
744.0, 0.004365495844362148
745.0, 0.00724125158423818
746.0, 0.009304239215657572
747.0, 0.01107704370938046
748.0, 0.014109208056401368
749.0, 0.02010563299951949
750.0, 0.02096420500534044
751.0, 0.026029914789306233
752.0, 0.030582197659803623
753.0, 0.032284877772376895
754.0, 0.03353547677218574
755.0, 0.03474646397798569
756.0, 0.03529985193437557
757.0, 0.035909976274463004
758.0, 0.03664669025460608
759.0, 0.036836581284546095
760.0, 0.03838395028487395
761.0, 0.04379203221347078
762.0, 0.050928180731313166
763.0, 0.058658311823085015
764.0, 0.06768005570712889
765.0, 0.07968823451445864
766.0, 0.0942253959160474
767.0, 0.11098455350976835
768.0, 0.13067602699444775
769.0, 0.1518666254788124
770.0, 0.1782200184614898
771.0, 0.20688301209725138
772.0, 0.23972073233163627
773.0, 0.2771816419294677
774.0, 0.31868400440302286
775.0, 0.36566888845909523
776.0, 0.4173710122464973
777.0, 0.47653771193684924
778.0, 0.5372749718660802
779.0, 0.5955203883610042
780.0, 0.6421265673292876
781.0, 0.6654038220205528
782.0, 0.6594185404098358
783.0, 0.6192929859287027
784.0, 0.5559556383610915
785.0, 0.4773817963232899
786.0, 0.401392192817885
787.0, 0.33447356181339694
788.0, 0.2727558401183438
789.0, 0.224328134939829
790.0, 0.18465918749150298
791.0, 0.15655542632432473
792.0, 0.1328375489424999
793.0, 0.11212166954926732
794.0, 0.0969957470380137
795.0, 0.08670648476005124
796.0, 0.07524920510006083
797.0, 0.06408778680536444
798.0, 0.056867989830889525
799.0, 0.050245243685112205
800.0, 0.043643889532345236
801.0, 0.03854112669623751
802.0, 0.03400573530258802
803.0, 0.027406906117855557
804.0, 0.02369619735907138
805.0, 0.020492659157669214
806.0, 0.017308355029247782
807.0, 0.014902738547303984
808.0, 0.013193906239784425
809.0, 0.011056548676133806
810.0, 0.0092613972675694
811.0, 0.0083465193946526
812.0, 0.006535496030413978
813.0, 0.00433667019722611
814.0, 0.0035617647124527186
815.0, 0.003959149801124198
816.0, 0.0034853667701913184
817.0, 0.0028640102690452706
818.0, 0.001784831628538213
819.0, 0.0005269107384799625
820.0, 0.0012205730958354426
821.0, 0.0008513047143134889
822.0, 0.0008771695471078178
823.0, 0.0005136964187191041
824.0, 0.0003019981795843249
825.0, 0.0016455730789795486
826.0, 0.0009532047039272072
827.0, 0.0010177934430968402
828.0, 0.0018512255571579996
829.0, 0.002952048790279012
830.0, 0.004123703264267639
831.0, 0.0010171482664148765
832.0, 0.0033768340143634826
833.0, 0.0038569298493184726
834.0, 0.001991121373435082
835.0, 0.0007173655522786348
836.0, 0.0008877864245667778
837.0, 0.0016343186350860936
838.0, 0.003895177634006063
839.0, 0.006055757128301568
840.0, 0.006871549870510044
841.0, 0.00827573598926668
842.0, 0.011611203858534966
843.0, 0.014402714250416745
844.0, 0.015536796584337494
845.0, 0.020616233870633115
846.0, 0.0251711590256981
847.0, 0.02958440075432977
848.0, 0.03500154402115474
849.0, 0.03976416885806614
850.0, 0.04452916297494494
851.0, 0.05019055303255501
852.0, 0.05591684334333471
853.0, 0.06422093115850512
854.0, 0.06979705506761771
855.0, 0.07219417481571556
856.0, 0.07227549150361529
857.0, 0.06959647567496911
858.0, 0.06379793187886237
859.0, 0.05675236416903972
860.0, 0.05182556360758848
861.0, 0.04274944361389482
862.0, 0.03636952806773315
863.0, 0.02997299574151266
864.0, 0.02452086846889046
865.0, 0.020813876024209168
866.0, 0.01715873635084622
867.0, 0.013796411247290221
868.0, 0.012140502074583823
869.0, 0.009463999304068955
870.0, 0.006885684864243573
871.0, 0.006085042908932318
872.0, 0.0053537691415610645
873.0, 0.003723902161330498
874.0, 0.0032688960478150517
875.0, 0.0029416588199346395
876.0, 0.002037456025296608
877.0, 0.0012411280059246947
878.0, 0.0015344532763537117
879.0, 0.0011229815791506837
880.0, 0.0003430529538276655
881.0, 0.0006121582833825964
882.0, 0.00010755184759679977
883.0, 0.0010856368915890297
884.0, 0.000507784009569364
885.0, 0.0002513053069588924
886.0, 0.00016701713232270134
887.0, 0.000529197226276221
888.0, 0.0012682411490015848
889.0, 0.0011688880449413567
890.0, 0.0009846194753539
891.0, 0.00037622103267385184
892.0, 0.0005918641564141128
893.0, 0.0013151093737559425
894.0, 0.0007659464497070236
895.0, 0.0001027353351805455
896.0, 0.0004663584006826132
897.0, 0.0018605460003815486
898.0, 0.0006659026468229578
899.0, 0.0020758007541391245
900.0, 0.0014360367586194066
901.0, 0.0027435947834887385
902.0, 0.003664963118723195
903.0, 0.0034145218400978856
904.0, 0.004937137199602769
905.0, 0.0058125367430729045
906.0, 0.006620578176101983
907.0, 0.007179666778166423
908.0, 0.007225357489781451
909.0, 0.007311699725894091
910.0, 0.008057732422124781
911.0, 0.008532224104822218
912.0, 0.008259920267239727
913.0, 0.01030688865593479
914.0, 0.011087883353145441
915.0, 0.010396903782702438
916.0, 0.010903707218369913
917.0, 0.011784187576399931
918.0, 0.012205708706001015
919.0, 0.012543417456912447
920.0, 0.013222295226737301
921.0, 0.014031041262200101
922.0, 0.01249128193078633
923.0, 0.014405175793088568
924.0, 0.013527183257109063
925.0, 0.012788003314584672
926.0, 0.013529100309229285
927.0, 0.013642213806856648
928.0, 0.013097436452759457
929.0, 0.013480517497546056
930.0, 0.011823618602051554
931.0, 0.0112292466086698
932.0, 0.010684515455920742
933.0, 0.011099161926904843
934.0, 0.01179358607921722
935.0, 0.010753438349591823
936.0, 0.008782400074498245
937.0, 0.009646945009684695
938.0, 0.01000730945881328
939.0, 0.008753342674969787
940.0, 0.007862019589773823
941.0, 0.007264977553337238
942.0, 0.007587219358731828
943.0, 0.008139733977513212
944.0, 0.007227076900841168
945.0, 0.00715880968451487
946.0, 0.006062463650391618
947.0, 0.004622263254069405
948.0, 0.0033201441920330476
949.0, 0.0024162561199854637
950.0, 0.002443660924102017
951.0, 0.0024173695665949536
952.0, 0.0014133322973219307
953.0, 0.002170034263929253
954.0, 0.002529158321518719
955.0, 0.002616383042160643
956.0, 0.003429487938215594
957.0, 0.00382698242759639
958.0, 0.004548500045767557
959.0, 0.005177011892106406
960.0, 0.004867641832783713
961.0, 0.005732798680730382
962.0, 0.005687419178852486
963.0, 0.006319641419517444
964.0, 0.007310942947680946
965.0, 0.00899849105153364
966.0, 0.010417336585806203
967.0, 0.010467298069414127
968.0, 0.01035709839212945
969.0, 0.012681777995181928
970.0, 0.016213747727856772
971.0, 0.017102149245440373
972.0, 0.01708594309839076
973.0, 0.016374557693499197
974.0, 0.015962108501395136
975.0, 0.014722123717370972
976.0, 0.012331628932887478
977.0, 0.009816287001569316
978.0, 0.0068021591621077945
979.0, 0.00579907152906131
980.0, 0.004718885642755465
981.0, 0.004992747155752011
982.0, 0.0038766418914940723
983.0, 0.0029321211332403313
984.0, 0.0027373986924422535
985.0, 0.0014994388184182516
986.0, 0.0006085535885571086
987.0, 0.0029089764741313156
988.0, 0.0009868432686871318
989.0, 0.0013408838794625724
990.0, 0.0005574855067591126
991.0, 0.0006144701525949414
992.0, 0.0013319742727952656
993.0, 0.0014454038198343047
994.0, 0.000928546911572143
995.0, 0.0006763738786589156
996.0, 0.00027666763530004193
997.0, 0.0002991515720966102
998.0, 0.0005635160169479582
999.0, 0.0008542890781232629
1000.0, 0.0009757402273314664
1001.0, 0.0004634127867461513
1002.0, 0.00047220140761550765
1003.0, 0.001318248773310913
1004.0, 0.00010431803651471104
1005.0, 0.0006174751331381652
1006.0, 0.0003391222584936672
1007.0, 0.0003050619053955474
1008.0, 0.0002910592366390782
1009.0, 0.0002808187212497448
1010.0, 0.00020986092558486174
1011.0, 0.0001351204192284271
1012.0, 0.0002611488815498245
1013.0, 0.00011949705658835324
1014.0, 0.0005041300695574112
1015.0, 0.0003223494781293406
1016.0, 0.00040386350469480555
1017.0, 0.0007133774002984992
1018.0, 0.0005118824683007687
1019.0, 5.6692702839969044e-05
1020.0, 0.0005615447548647208
1021.0, 0.00046858675569221063
1022.0, 0.0007020467660912002
1023.0, 0.0002903865999375005
1024.0, 0.0005573010301122112
1025.0, 0.0006095840057436605
1026.0, 0.0008850159084792868
1027.0, 0.0009196432577279952
1028.0, 0.0010233246768714004
1029.0, 0.0020010510435340342
1030.0, 0.0027878465550811734
1031.0, 0.0015419989912924923
1032.0, 0.0019404107335555514
1033.0, 0.0030179168531102914
1034.0, 0.0033841735582959063
1035.0, 0.0027479442015262744
1036.0, 0.003312940625351581
1037.0, 0.0035317856595995082
1038.0, 0.002580271756023709
1039.0, 0.003127455345234321
1040.0, 0.004040358961773469
1041.0, 0.004243507694204962
1042.0, 0.0030375377283473784
1043.0, 0.002924616640768408
1044.0, 0.0013428018626770598
1045.0, 0.0023718989671439013
1046.0, 0.003236014842187667
1047.0, 0.0034350034916518996
1048.0, 0.005624145818393089
1049.0, 0.0047762334087538705
1050.0, 0.0035180973092780008
1051.0, 0.003859503694504827
1052.0, 0.004750312959206391
1053.0, 0.004733894850425106
1054.0, 0.004844483580937308
1055.0, 0.0046860832841897964
1056.0, 0.005097189237191747
1057.0, 0.00605085729394052
1058.0, 0.005621320273612749
1059.0, 0.006096867524746176
1060.0, 0.007195189387520572
1061.0, 0.008101309947145459
1062.0, 0.008102987075306212
1063.0, 0.008422484169243637
1064.0, 0.00915165001105872
1065.0, 0.008558145162029525
1066.0, 0.006733704557578561
1067.0, 0.006725968873891516
1068.0, 0.008888083214793022
1069.0, 0.008103432939529026
1070.0, 0.0076875436207042465
1071.0, 0.006879465670607223
1072.0, 0.006561235531330689
1073.0, 0.006566903582357946
1074.0, 0.00716810861545722
1075.0, 0.007100924131053141
1076.0, 0.0059810843088796365
1077.0, 0.005604240646230164
1078.0, 0.005431199154387963
1079.0, 0.005042541180190532
1080.0, 0.004187723642929707
1081.0, 0.0043865880611622925
1082.0, 0.005110627526086391
1083.0, 0.005254713569566172
1084.0, 0.005894847949540346
1085.0, 0.0059882783619987215
1086.0, 0.0049096711093731095
1087.0, 0.004222005761890258
1088.0, 0.0028183451067549828
1089.0, 0.0037064546491234057
1090.0, 0.00379166597881074
1091.0, 0.004656235955297983
1092.0, 0.004462726236878541
1093.0, 0.004857767946664975
1094.0, 0.004602176332329596
1095.0, 0.004313105738652918
1096.0, 0.004552621496587844
1097.0, 0.0035141759958099575
1098.0, 0.0036449045404504327
1099.0, 0.0028991813221531104
1100.0, 0.0015626391778149678
1101.0, 0.00459851860613056
1102.0, 0.0031056066621266056
1103.0, 0.0032621926225670735
1104.0, 0.003390220282794961
1105.0, 0.0032141883898728907
1106.0, 0.004272169240982753
1107.0, 0.003559384792703414
1108.0, 0.0026058417274565752
1109.0, 0.002302132946508571
1110.0, 0.002609878297044414
1111.0, 0.0020335715484698013
1112.0, 0.001935908466766712
1113.0, 0.002588050912363722
1114.0, 0.0026336987425338533
1115.0, 0.00283216283374839
1116.0, 0.0021326544253230184
1117.0, 9.92119231714558e-05
1118.0, 0.00044843653620549307
1119.0, 0.001295483452196286
1120.0, 0.000655822840488359
1121.0, 0.0006680745281134254
1122.0, 0.0001448600510190493
1123.0, 0.000305473649540009
1124.0, 0.0004889564253752841
1125.0, 0.0007349474955373625
1126.0, 0.0008193921567999784
1127.0, 0.0007874878716992977
1128.0, 0.0005060423652523293
1129.0, 0.00017158487970954584
1130.0, 0.0003070143952135617
1131.0, 3.646006161871315e-05
1132.0, 4.498969709669003e-05
1133.0, 5.876262623134849e-05
1134.0, 0.0006884995189041461
1135.0, 0.0003809700844465456
1136.0, 0.0015974385006618465
1137.0, 0.0022435048435177113
1138.0, 0.0020063034466789066
1139.0, 0.0030462547032651423
1140.0, 0.004431306217886332
1141.0, 0.0038799146540588643
1142.0, 0.004334325386275122
1143.0, 0.005235055931225693
1144.0, 0.006770596612899772
1145.0, 0.0071425711918751056
1146.0, 0.006644908437545754
1147.0, 0.0073142205921818745
1148.0, 0.008905041505489208
1149.0, 0.01024754422632381
1150.0, 0.011299802519962264
1151.0, 0.011487789067878345
1152.0, 0.01393640278324634
1153.0, 0.0139676250404435
1154.0, 0.015757696138407846
1155.0, 0.016916458811392372
1156.0, 0.017938933018000633
1157.0, 0.01795551736894322
1158.0, 0.019245165861353008
1159.0, 0.021192282245100905
1160.0, 0.021966078094422515
1161.0, 0.024415682874857937
1162.0, 0.026348304692728426
1163.0, 0.02711703828634676
1164.0, 0.028213084142014743
1165.0, 0.032866268807426394
1166.0, 0.03535662470019563
1167.0, 0.03672824402115601
1168.0, 0.03726511328705904
1169.0, 0.038843208196206395
1170.0, 0.04157941032871744
1171.0, 0.04443206523350352
1172.0, 0.04768744760661423
1173.0, 0.04988971746457513
1174.0, 0.05087625460478736
1175.0, 0.0554275977404804
1176.0, 0.05794323695878195
1177.0, 0.06086925425287883
1178.0, 0.06396706169969053
1179.0, 0.06715399740884404
1180.0, 0.07115875286135746
1181.0, 0.07423396681491906
1182.0, 0.0771135499958807
1183.0, 0.08157714363809929
1184.0, 0.08596200986545938
1185.0, 0.09062401734915976
1186.0, 0.09490291512898001
1187.0, 0.09954568356745305
1188.0, 0.104385401618918
1189.0, 0.10850285754483997
1190.0, 0.11364875130069436
1191.0, 0.11777987586942046
1192.0, 0.11834254087508021
1193.0, 0.11841029641199785
1194.0, 0.12112267062470716
1195.0, 0.12253884022205434
1196.0, 0.11900009459637104
1197.0, 0.11877906717683047
1198.0, 0.1152289086070515
1199.0, 0.10857904004131093
1200.0, 0.10422115103934138
1201.0, 0.09721639317879656
1202.0, 0.09185961713033215
1203.0, 0.08441217238188208
1204.0, 0.07788516828191462
1205.0, 0.07317512959443802
1206.0, 0.06775956469045298
1207.0, 0.06217752150572859
1208.0, 0.057010580725714605
1209.0, 0.05212531465215646
1210.0, 0.048998433294469554
1211.0, 0.04439764931784651
1212.0, 0.03965061844373495
1213.0, 0.03812316423537713
1214.0, 0.03628465195401676
1215.0, 0.03239768279675595
1216.0, 0.027907060561881167
1217.0, 0.026427743080215928
1218.0, 0.025467216793159088
1219.0, 0.02233669693843905
1220.0, 0.02021098798613705
1221.0, 0.020005273370487332
1222.0, 0.018228564667262404
1223.0, 0.015434911384784965
1224.0, 0.014013559531762441
1225.0, 0.012814468305048744
1226.0, 0.011886240486011281
1227.0, 0.01088380242979983
1228.0, 0.00967014533735275
1229.0, 0.008916574691848866
1230.0, 0.0073697807427378
1231.0, 0.00558510121007645
1232.0, 0.005584891100967154
1233.0, 0.006331792761352875
1234.0, 0.00566537188233345
1235.0, 0.0041423739019267195
1236.0, 0.00417955181237937
1237.0, 0.004147465772562788
1238.0, 0.004203276429323728
1239.0, 0.003526164950108497
1240.0, 0.002806913482934435
1241.0, 0.0035262127752550628
1242.0, 0.0023530023768915938
1243.0, 0.002340080226633346
1244.0, 0.0031831116601918996
1245.0, 0.001637596413989157
1246.0, 0.0009506979722439784
1247.0, 0.0022406934228120074
1248.0, 0.002374596247462865
1249.0, 0.00033046990239817
1250.0, 0.0002949333697745362
1251.0, 0.0015230892956338345
1252.0, 0.0013725270249884598
1253.0, 0.0014428861654495078
1254.0, 0.00040858937695409543
1255.0, 0.0005227366221970154
1256.0, 0.00031004744056301346
1257.0, 0.0004265533010598193
1258.0, 0.00016168210018103042
1259.0, 0.00021131278933244252
1260.0, 0.0004231051458990344
1261.0, 0.0005415207576901374
1262.0, 0.0005885869387148699
1263.0, 0.0003484875659246422
1264.0, 0.00027557061613775686
1265.0, 0.00043910563532313543
1266.0, 0.0006529234088477877
1267.0, 0.0001425859541187662
1268.0, 3.5593509199344476e-05
1269.0, 0.00045270626046251623
1270.0, 0.00030940211477796406
1271.0, 0.0006715140479967669
1272.0, 0.0003575486857737458
1273.0, 7.286879560637125e-05
1274.0, 9.818901524908187e-05
1275.0, 0.0006810718993934058
1276.0, 0.00032213547617424964
1277.0, 0.0017249959695975372
1278.0, 0.0017232821523997606
1279.0, 0.0016781197276433057
1280.0, 0.0015353460241346853
1281.0, 0.002232836596521586
1282.0, 0.002637625308185024
1283.0, 0.0032604613801460727
1284.0, 0.002869179063567404
1285.0, 0.003336369952026373
1286.0, 0.004010244765932594
1287.0, 0.002561359195736015
1288.0, 0.0017644642697556736
1289.0, 0.001810432328428198
1290.0, 0.0016825212139478173
1291.0, 0.0010597646806470766
1292.0, 0.0014723481853864137
1293.0, 0.0005197262933707845
1294.0, 0.0014954754036994443
1295.0, 0.0015611939647996915
1296.0, 0.0007717346248311269
1297.0, 0.000875565059149383
1298.0, 0.0013632138891635833
1299.0, 0.002290437404298473
1300.0, 0.002500389810670506
1301.0, 0.0008948837541367051
1302.0, 0.00015335263724409527
1303.0, 0.00046158028458748277
1304, 0.0
1305, 0.0
1306, 0.0
1307, 0.0
1308, 0.0
1309, 0.0
1310, 0.0
1311, 0.0
1312, 0.0
1313, 0.0
1314, 0.0
1315, 0.0
1316, 0.0
1317, 0.0
1318, 0.0
1319, 0.0
1320, 0.0
1321, 0.0
1322, 0.0
1323, 0.0
1324, 0.0
1325, 0.0
1326, 0.0
1327, 0.0
1328, 0.0
1329, 0.0
1330, 0.0
1331, 0.0
1332, 0.0
1333, 0.0
1334, 0.0
1335, 0.0
1336, 0.0
1337, 0.0
1338, 0.0
1339, 0.0
1340, 0.0
1341, 0.0
1342, 0.0
1343, 0.0
1344, 0.0
1345, 0.0
1346, 0.0
1347, 0.0
1348, 0.0
1349, 0.0
1350, 0.0
1351, 0.0
1352, 0.0
1353, 0.0
1354, 0.0
1355, 0.0
1356, 0.0
1357, 0.0
1358, 0.0
1359, 0.0
1360, 0.0
1361, 0.0
1362, 0.0
1363, 0.0
1364, 0.0
1365, 0.0
1366, 0.0
1367, 0.0
1368, 0.0
1369, 0.0
1370, 0.0
1371, 0.0
1372, 0.0
1373, 0.0
1374, 0.0
1375, 0.0
1376, 0.0
1377, 0.0
1378, 0.0
1379, 0.0
1380, 0.0
1381, 0.0
1382, 0.0
1383, 0.0
1384, 0.0
1385, 0.0
1386, 0.0
1387, 0.0
1388, 0.0
1389, 0.0
1390, 0.0
1391, 0.0
1392, 0.0
1393, 0.0
1394, 0.0
1395, 0.0
1396, 0.0
1397, 0.0
1398, 0.0
1399, 0.0
1400, 0.0
1401, 0.0
1402, 0.0
1403, 0.0
1404, 0.0
1405, 0.0
1406, 0.0
1407, 0.0
1408, 0.0
1409, 0.0
1410, 0.0
1411, 0.0
1412, 0.0
1413, 0.0
1414, 0.0
1415, 0.0
1416, 0.0
1417, 0.0
1418, 0.0
1419, 0.0
1420, 0.0
1421, 0.0
1422, 0.0
1423, 0.0
1424, 0.0
1425, 0.0
1426, 0.0
1427, 0.0
1428, 0.0
1429, 0.0
1430, 0.0
1431, 0.0
1432, 0.0
1433, 0.0
1434, 0.0
1435, 0.0
1436, 0.0
1437, 0.0
1438, 0.0
1439, 0.0
1440, 0.0
1441, 0.0
1442, 0.0
1443, 0.0
1444, 0.0
1445, 0.0
1446, 0.0
1447, 0.0
1448, 0.0
1449, 0.0
1450, 0.0
1451, 0.0
1452, 0.0
1453, 0.0
1454, 0.0
1455, 0.0
1456, 0.0
1457, 0.0
1458, 0.0
1459, 0.0
1460, 0.0
1461, 0.0
1462, 0.0
1463, 0.0
1464, 0.0
1465, 0.0
1466, 0.0
1467, 0.0
1468, 0.0
1469, 0.0
1470, 0.0
1471, 0.0
1472, 0.0
1473, 0.0
1474, 0.0
1475, 0.0
1476, 0.0
1477, 0.0
1478, 0.0
1479, 0.0
1480, 0.0
1481, 0.0
1482, 0.0
1483, 0.0
1484, 0.0
1485, 0.0
1486, 0.0
1487, 0.0
1488, 0.0
1489, 0.0
1490, 0.0
1491, 0.0
1492, 0.0
1493, 0.0
1494, 0.0
1495, 0.0
1496, 0.0
1497, 0.0
1498, 0.0
1499, 0.0
1500, 0.0
1501, 0.0
1502, 0.0
1503, 0.0
1504, 0.0
1505, 0.0
1506, 0.0
1507, 0.0
1508, 0.0
1509, 0.0
1510, 0.0
1511, 0.0
1512, 0.0
1513, 0.0
1514, 0.0
1515, 0.0
1516, 0.0
1517, 0.0
1518, 0.0
1519, 0.0
1520, 0.0
1521, 0.0
1522, 0.0
1523, 0.0
1524, 0.0
1525, 0.0
1526, 0.0
1527, 0.0
1528, 0.0
1529, 0.0
1530, 0.0
1531, 0.0
1532, 0.0
1533, 0.0
1534, 0.0
1535, 0.0
1536, 0.0
1537, 0.0
1538, 0.0
1539, 0.0
1540, 0.0
1541, 0.0
1542, 0.0
1543, 0.0
1544, 0.0
1545, 0.0
1546, 0.0
1547, 0.0
1548, 0.0
1549, 0.0
1550, 0.0
1551, 0.0
1552, 0.0
1553, 0.0
1554, 0.0
1555, 0.0
1556, 0.0
1557, 0.0
1558, 0.0
1559, 0.0
1560, 0.0
1561, 0.0
1562, 0.0
1563, 0.0
1564, 0.0
1565, 0.0
1566, 0.0
1567, 0.0
1568, 0.0
1569, 0.0
1570, 0.0
1571, 0.0
1572, 0.0
1573, 0.0
1574, 0.0
1575, 0.0
1576, 0.0
1577, 0.0
1578, 0.0
1579, 0.0
1580, 0.0
1581, 0.0
1582, 0.0
1583, 0.0
1584, 0.0
1585, 0.0
1586, 0.0
1587, 0.0
1588, 0.0
1589, 0.0
1590, 0.0
1591, 0.0
1592, 0.0
1593, 0.0
1594, 0.0
1595, 0.0
1596, 0.0
1597, 0.0
1598, 0.0
1599, 0.0
