30, 0.0
31, 0.0
32, 0.0
33, 0.0
34, 0.0
35, 0.0
36, 0.0
37, 0.0
38, 0.0
39, 0.0
40, 0.0
41, 0.0
42, 0.0
43, 0.0
44, 0.0
45, 0.0
46, 0.0
47, 0.0
48, 0.0
49, 0.0
50, 0.0
51, 0.0
52, 0.0
53, 0.0
54, 0.0
55, 0.0
56, 0.0
57, 0.0
58, 0.0
59, 0.0
60, 0.0
61, 0.0
62, 0.0
63, 0.0
64, 0.0
65, 0.0
66, 0.0
67, 0.0
68, 0.0
69, 0.0
70, 0.0
71, 0.0
72, 0.0
73, 0.0
74, 0.0
75, 0.0
76, 0.0
77, 0.0
78, 0.0
79, 0.0
80, 0.0
81, 0.0
82, 0.0
83, 0.0
84, 0.0
85, 0.0
86, 0.0
87, 0.0
88, 0.0
89, 0.0
90, 0.0
91, 0.0
92, 0.0
93, 0.0
94.0, 5.0510518305076534e-05
95.0, 0.00018207390780253894
96.0, 4.326671704769971e-07
97.0, 0.00028454769241209344
98.0, 0.0004909865410905468
99.0, 0.0004565053311033004
100.0, 0.00033165182981698295
101.0, 0.00039076319090029305
102.0, 0.00046544479482555484
103.0, 0.0005473303389292508
104.0, 0.0006107100976771161
105.0, 0.00047270981038796206
106.0, 0.00040408871133587463
107.0, 0.0003519601129174548
108.0, 0.00020644437752994225
109.0, 3.465558116297162e-05
110.0, 3.2703495222053064e-05
111.0, 5.76448911571458e-05
112.0, 0.0001342336684191305
113.0, 4.5297676391310254e-05
114.0, 0.00016865802027147105
115.0, 7.476782204930253e-05
116.0, 0.00014295785434825776
117.0, 0.0002043234674204617
118.0, 0.00016327699153806122
119.0, 0.0002940194127551184
120.0, 0.0004451204437644983
121.0, 0.0004784264412528629
122.0, 0.0005364684014831781
123.0, 0.000803281811638224
124.0, 0.001112615682771387
125.0, 0.0014340964114688552
126.0, 0.0019718315179854742
127.0, 0.0027134582534251617
128.0, 0.0033900361585981523
129.0, 0.003806836817385123
130.0, 0.003939046567452616
131.0, 0.004427405166251976
132.0, 0.004692768442532351
133.0, 0.004584525273131065
134.0, 0.0043154894092075425
135.0, 0.0042569411703421815
136.0, 0.0044252964098580195
137.0, 0.004610696411297029
138.0, 0.00486024794130661
139.0, 0.005699976276854597
140.0, 0.0060839734909872295
141.0, 0.006255144484141389
142.0, 0.006576843973294794
143.0, 0.007176428163176208
144.0, 0.007553612956087981
145.0, 0.008108953993955427
146.0, 0.008833065078410536
147.0, 0.009592232099830613
148.0, 0.01071187423329268
149.0, 0.012184776565859609
150.0, 0.014516993845261377
151.0, 0.017794656111700315
152.0, 0.021279472281441794
153.0, 0.02534792343520168
154.0, 0.030549642481708574
155.0, 0.037023740909139846
156.0, 0.045615282477274074
157.0, 0.045365563949719655
158.0, 0.041909500819799536
159.0, 0.03970374700083197
160.0, 0.04129157975657058
161.0, 0.04683503246666519
162.0, 0.054020159290128794
163.0, 0.06097215105762827
164.0, 0.06801385393409348
165.0, 0.07932112972076029
166.0, 0.09482371137039872
167.0, 0.11630314629818157
168.0, 0.14352046820373052
169.0, 0.17153820114046384
170.0, 0.1820588384867043
171.0, 0.16461097309553335
172.0, 0.13310398271466065
173.0, 0.1095257651321101
174.0, 0.10001860012865291
175.0, 0.10349228004140032
176.0, 0.1173250405721157
177.0, 0.14030397575546183
178.0, 0.17229880392860486
179.0, 0.2067182366386573
180.0, 0.2170345094705186
181.0, 0.18936181350859535
182.0, 0.13084727058811718
183.0, 0.0804490906853935
184.0, 0.048656340998861
185.0, 0.03163568698347861
186.0, 0.02219985816429301
187.0, 0.01644838673091895
188.0, 0.012954604016507469
189.0, 0.010968761838224171
190.0, 0.00960614378502553
191.0, 0.008038404722466282
192.0, 0.006442161810413657
193.0, 0.004849174459662699
194.0, 0.0034476851301304366
195.0, 0.0024054260272780245
196.0, 0.001440391311958989
197.0, 0.0009288995945258002
198.0, 0.0003437312020819042
199.0, 0.0006019554032552769
200.0, 0.0008213852510807224
201.0, 0.00107800453103361
202.0, 0.0010659142031536294
203.0, 0.0008405737075871862
204.0, 0.0008093103432965245
205.0, 0.0007051507325523078
206.0, 0.0003193676112532436
207.0, 0.00015877827752874325
208.0, 0.0006052080024573236
209.0, 0.0012982190510239361
210.0, 0.0021509562071692747
211.0, 0.0032814881132446493
212.0, 0.004741898318543384
213.0, 0.006362130645058827
214.0, 0.007114010489762718
215.0, 0.007430640986878746
216.0, 0.00786776787590107
217.0, 0.008662090880206627
218.0, 0.009329892502756287
219.0, 0.010995798887816707
220.0, 0.013946909959733921
221.0, 0.0177543039041058
222.0, 0.02172351890486535
223.0, 0.025430621522312204
224.0, 0.028419181255941336
225.0, 0.03119835276636811
226.0, 0.034251311999661194
227.0, 0.037208388819104356
228.0, 0.041081022866285476
229.0, 0.04560485433559755
230.0, 0.05024305445828245
231.0, 0.0549417191071914
232.0, 0.06258573889462914
233.0, 0.07252608549797002
234.0, 0.08661954862037376
235.0, 0.10721689787290999
236.0, 0.13462106532252904
237.0, 0.1686145558117463
238.0, 0.20602940230242286
239.0, 0.23128827734296736
240.0, 0.22076475063600573
241.0, 0.16488750122811496
242.0, 0.105485953014773
243.0, 0.06188988910519035
244.0, 0.03757701467625243
245.0, 0.024899068529947877
246.0, 0.017913682159105954
247.0, 0.01419222578930636
248.0, 0.01240655717036215
249.0, 0.011822871511660667
250.0, 0.012875007499579589
251.0, 0.014521311902075182
252.0, 0.017025413448827322
253.0, 0.020909969623743606
254.0, 0.02663302654372339
255.0, 0.03382035248311232
256.0, 0.04296703724233035
257.0, 0.05437507368556612
258.0, 0.06751482446384877
259.0, 0.08066912494630032
260.0, 0.09051689376267559
261.0, 0.09064664987605979
262.0, 0.07981376843596083
263.0, 0.06249629777936066
264.0, 0.0509219255236793
265.0, 0.04639695180909875
266.0, 0.04760096828578978
267.0, 0.0531673005331838
268.0, 0.062147068263747995
269.0, 0.07335661503443133
270.0, 0.08671190211277532
271.0, 0.1007940438002648
272.0, 0.11236592615964604
273.0, 0.1187917464372599
274.0, 0.1140446607584226
275.0, 0.09921637836661766
276.0, 0.07903962300553474
277.0, 0.05886247307561426
278.0, 0.04215064895646109
279.0, 0.029843156293863023
280.0, 0.021289689912119023
281.0, 0.015204774403243922
282.0, 0.010206761017167894
283.0, 0.006368888178840841
284.0, 0.003773451186419583
285.0, 0.002134239235341233
286.0, 0.0008871768453076773
287.0, 0.0003936512112451062
288.0, 0.0005756231653232295
289.0, 0.0006630201031482466
290.0, 0.0012643785332143664
291.0, 0.001210849065591446
292.0, 0.0009227527894948033
293.0, 0.00010310373938533606
294.0, 0.0011985973845544094
295.0, 0.0014940793179546983
296.0, 0.0014976552317209223
297.0, 0.001049858439047104
298.0, 0.00030590578341094563
299.0, 0.0010265942778665816
300.0, 0.0015956154077702185
301.0, 0.002039714668240763
302.0, 0.0020772660280302256
303.0, 0.0017841494268649666
304.0, 0.0013168074458375664
305.0, 0.0007505769153470984
306.0, 0.00031250864707027954
307.0, 0.0007105859162311275
308.0, 0.0021993271735547292
309.0, 0.003588739090980532
310.0, 0.004540092515310861
311.0, 0.006016017055661383
312.0, 0.007111425344033887
313.0, 0.007747205912338998
314.0, 0.008538986015695894
315.0, 0.009677873136698696
316.0, 0.010260892601077203
317.0, 0.011300467195563246
318.0, 0.013215598133710895
319.0, 0.015515737048698193
320.0, 0.01719608094800016
321.0, 0.019554012211788672
322.0, 0.022744346983635706
323.0, 0.026539671597221825
324.0, 0.03067146536489976
325.0, 0.03446709775079264
326.0, 0.0391965477858679
327.0, 0.044466484732820236
328.0, 0.04986143874237271
329.0, 0.05621230346478066
330.0, 0.06572198974246117
331.0, 0.07527790892188674
332.0, 0.08580283721025866
333.0, 0.09981601930815542
334.0, 0.11684321801421876
335.0, 0.1357117473936374
336.0, 0.1562310511311974
337.0, 0.1787557482805443
338.0, 0.2032485120190696
339.0, 0.22736162793450063
340.0, 0.25429427676425354
341.0, 0.2832510805795314
342.0, 0.31427433005784433
343.0, 0.34959766601574643
344.0, 0.3890595295852779
345.0, 0.4343346714923715
346.0, 0.48885325719504086
347.0, 0.5538517140540805
348.0, 0.6279092666680295
349.0, 0.7090314813368764
350.0, 0.7938121884670856
351.0, 0.8758735957119023
352.0, 0.9450630025455933
353.0, 0.9899470374498077
354.0, 0.9967903313339478
355.0, 0.9642296622650242
356.0, 0.8949710213771996
357.0, 0.7968923490283947
358.0, 0.6877782829805674
359.0, 0.5764862669546502
360.0, 0.47734975601870155
361.0, 0.3950921166946945
362.0, 0.32882473109453336
363.0, 0.27574793123866675
364.0, 0.23398201548497138
365.0, 0.19934849760675868
366.0, 0.17097840459565614
367.0, 0.1493694534405645
368.0, 0.1317481298629693
369.0, 0.11731798384812878
370.0, 0.10535002612063353
371.0, 0.095496794941701
372.0, 0.08764449204910603
373.0, 0.08311540163305675
374.0, 0.0795872557027452
375.0, 0.07798893066858202
376.0, 0.07829227184485797
377.0, 0.07916178554532911
378.0, 0.08135217516086357
379.0, 0.08224604443254044
380.0, 0.08178680639344667
381.0, 0.07884146816071369
382.0, 0.07135174866037555
383.0, 0.06156962781801239
384.0, 0.05249283489400065
385.0, 0.04431203406411936
386.0, 0.03739209320432635
387.0, 0.03303182829706492
388.0, 0.029855346005604907
389.0, 0.027860749069980404
390.0, 0.026954102657729614
391.0, 0.02678795724747732
392.0, 0.027039661030244886
393.0, 0.027837998111358765
394.0, 0.0279975881144119
395.0, 0.027424153264952348
396.0, 0.026233932073093227
397.0, 0.024364249084174013
398.0, 0.0218381139790065
399.0, 0.018801278033743155
400.0, 0.016595503970204525
401.0, 0.01564511194287674
402.0, 0.015298989262067984
403.0, 0.015821691578020183
404.0, 0.016899788708654377
405.0, 0.01852923806455845
406.0, 0.02064992004833431
407.0, 0.023077747197063618
408.0, 0.02610089662073275
409.0, 0.029208069124128887
410.0, 0.03176722964232057
411.0, 0.03285068862150546
412.0, 0.0314589135435165
413.0, 0.02755693747728087
414.0, 0.02317731663282697
415.0, 0.019595561762322855
416.0, 0.017626970174583454
417.0, 0.01759627154324708
418.0, 0.018743008233269617
419.0, 0.01853652183413804
420.0, 0.016828638625570422
421.0, 0.014006215456576933
422.0, 0.010444890700491084
423.0, 0.00731747300870547
424.0, 0.0045699598661666715
425.0, 0.002284347751745289
426.0, 0.0007024030381759354
427.0, 8.227699586365645e-05
428.0, 0.0003645303798025881
429.0, 0.00031212573878900535
430.0, 8.049180834320617e-05
431.0, 0.0003100249842439625
432.0, 0.00021953504788388927
433.0, 0.0006338061504856767
434.0, 0.0007887007987715166
435.0, 0.0010343145506555725
436.0, 0.0009157484303612877
437.0, 0.00010960681261391998
438.0, 0.0004234864357562537
439.0, 0.0009682769435995578
440.0, 0.0013970363991256097
441.0, 0.0017691682402712146
442.0, 0.002038451803570035
443.0, 0.0015861489763969454
444.0, 0.0015303349605247443
445.0, 0.0013842689098258476
446.0, 0.0011776185881175376
447.0, 0.001156906709999648
448.0, 0.0012354189606432141
449.0, 0.000891021305421742
450.0, 0.0003906915922906359
451.0, 0.0003344640482063387
452.0, 0.0006765192681212205
453.0, 0.0006018308276369864
454.0, 0.00048229313075006975
455.0, 0.0001698867990155252
456.0, 0.0006135090535989453
457.0, 0.0006431511440981025
458.0, 0.000916452684578709
459.0, 0.0012226262466379586
460.0, 0.001476783228472041
461.0, 0.0015138119906289381
462.0, 0.0012379841217113395
463.0, 0.0007329213020695797
464.0, 0.00026143389807270755
465.0, 0.00016145127775055594
466.0, 0.0004646759900372737
467.0, 0.000816268202079363
468.0, 0.0010671056170122669
469.0, 0.0020070390939696393
470.0, 0.0023082664516150984
471.0, 0.002013284855672753
472.0, 0.0019475054853685255
473.0, 0.002332589958480136
474.0, 0.002160176762504864
475.0, 0.0018341650701951997
476.0, 0.0017968691756460756
477.0, 0.0016018107797419053
478.0, 0.0013000397388064763
479.0, 0.0014858271463708502
480.0, 0.0015771894996522312
481.0, 0.0018429791961806735
482.0, 0.0016886403643448507
483.0, 0.0015073128675739738
484.0, 0.001947037787103084
485.0, 0.0019432319655173736
486.0, 0.002370768704395043
487.0, 0.0028349940266586132
488.0, 0.0033514937549473465
489.0, 0.0039980632982901864
490.0, 0.004436566211339842
491.0, 0.004767458115984384
492.0, 0.005491401475625279
493.0, 0.006154015275750501
494.0, 0.006519263776852237
495.0, 0.007018331630705024
496.0, 0.007506519613586007
497.0, 0.008208939469098188
498.0, 0.008638338906760008
499.0, 0.008975192339233912
500.0, 0.00980492183436364
501.0, 0.01097668060232695
502.0, 0.012018244801360933
503.0, 0.013384975162818715
504.0, 0.015281725758422383
505.0, 0.017510803717299413
506.0, 0.019749361785521457
507.0, 0.02235968500940403
508.0, 0.024834518442963832
509.0, 0.02773538707252295
510.0, 0.03130856310184918
511.0, 0.03502270752954106
512.0, 0.03854605518286705
513.0, 0.04291709124534231
514.0, 0.04823702917926393
515.0, 0.0548432543134755
516.0, 0.06278241931203814
517.0, 0.07095217991198667
518.0, 0.08056526819980368
519.0, 0.091873916491349
520.0, 0.10350422617726425
521.0, 0.11411228232911742
522.0, 0.12321264244547347
523.0, 0.13082158942613203
524.0, 0.13261508745903886
525.0, 0.1283136887607749
526.0, 0.11910567742329554
527.0, 0.10630786039018617
528.0, 0.09113743389807236
529.0, 0.07658678130478021
530.0, 0.06302062097285725
531.0, 0.05121855224143001
532.0, 0.0417144796245761
533.0, 0.03420345400178524
534.0, 0.027828717268626568
535.0, 0.023023755376498707
536.0, 0.01888602563928384
537.0, 0.015190258690979789
538.0, 0.012290186004131573
539.0, 0.010247847824319596
540.0, 0.008607881783572425
541.0, 0.007257308353712499
542.0, 0.006174959199214879
543.0, 0.005220477429454901
544.0, 0.0042238682226934145
545.0, 0.003449048036028254
546.0, 0.002784499231163955
547.0, 0.0023005764939859545
548.0, 0.002231184725541504
549.0, 0.0025537357150680765
550.0, 0.002353270976581624
551.0, 0.0027909530983622373
552.0, 0.003035527775793872
553.0, 0.002681409684433637
554.0, 0.0020495833579562916
555.0, 0.0017538844641289096
556.0, 0.0016407680558797745
557.0, 0.002097973856140125
558.0, 0.0022678179597148134
559.0, 0.002639359491002263
560.0, 0.00361983836985745
561.0, 0.0038840445977140876
562.0, 0.005504709072562496
563.0, 0.006952440760968001
564.0, 0.008565612085198947
565.0, 0.010358604949846799
566.0, 0.011952752111314715
567.0, 0.014520405041202061
568.0, 0.01687072921353163
569.0, 0.01988312904340037
570.0, 0.02338760816363521
571.0, 0.026931376011307823
572.0, 0.030773763772126764
573.0, 0.03478052481644742
574.0, 0.03911558188179261
575.0, 0.04397261760769426
576.0, 0.04942376593628076
577.0, 0.05535924731403881
578.0, 0.061369299604253726
579.0, 0.06879661602430558
580.0, 0.0743271159551151
581.0, 0.07800393388234104
582.0, 0.0809624924748955
583.0, 0.08281004409367253
584.0, 0.08139355732966148
585.0, 0.07948683761926538
586.0, 0.07755925610376514
587.0, 0.07592198962282866
588.0, 0.07508189174079914
589.0, 0.07549795017565229
590.0, 0.07762617461571486
591.0, 0.080353728145879
592.0, 0.08346143232322911
593.0, 0.08735275303419471
594.0, 0.09200097378205328
595.0, 0.09618681771410907
596.0, 0.09884456089596068
597.0, 0.10052970935412628
598.0, 0.09906534593638892
599.0, 0.09450847636479316
600.0, 0.08820392065097517
601.0, 0.07948983740339696
602.0, 0.07064072242916679
603.0, 0.06212007224174108
604.0, 0.05382616953303813
605.0, 0.04649723630739468
606.0, 0.04098527656756535
607.0, 0.03562188633374732
608.0, 0.03102151482255667
609.0, 0.027174769718600864
610.0, 0.02379470570968998
611.0, 0.020934072379810622
612.0, 0.018680988906992234
613.0, 0.016475018743780115
614.0, 0.014788499872258063
615.0, 0.013602902478389368
616.0, 0.012689885678228948
617.0, 0.011796030368018792
618.0, 0.010854291403865875
619.0, 0.010320211448235216
620.0, 0.009369403992929572
621.0, 0.008767127301754796
622.0, 0.008210227335957738
623.0, 0.007303174152753761
624.0, 0.006723718089049638
625.0, 0.006206052892274607
626.0, 0.005202213656413772
627.0, 0.004347936952318757
628.0, 0.0038226227011377628
629.0, 0.003339369482727419
630.0, 0.00260984875755646
631.0, 0.0019526606488390608
632.0, 0.0016424692729797448
633.0, 0.0013195932937175095
634.0, 0.0008922108199247838
635.0, 0.0006146060043044451
636.0, 0.0006545787679437995
637.0, 0.0003293682033662596
638.0, 0.00013219076294976092
639.0, 6.816315562918127e-05
640.0, 3.560818079877243e-05
641.0, 0.00016011811023648593
642.0, 0.00013528660733333974
643.0, 0.00014835554878322015
644.0, 0.0004573488937068841
645.0, 0.0005079247601840608
646.0, 0.0004324243252938947
647.0, 0.0005996596906331619
648.0, 0.0005868926750785128
649.0, 0.0008076769958653416
650.0, 0.000792286838309714
651.0, 0.0006828729946264272
652.0, 0.0007227920611188635
653.0, 0.0008954070927470792
654.0, 0.0009895309096553903
655.0, 0.0008208554991784002
656.0, 0.001079271784853691
657.0, 0.0009405049384595158
658.0, 0.0005964080573688186
659.0, 0.0006230165426768682
660.0, 0.0007209861098855888
661.0, 0.0006743732247768426
662.0, 0.0007562275236442289
663.0, 0.0006680994583086991
664.0, 0.00045316335373010735
665.0, 0.00028335669946086706
666.0, 6.86829052887291e-05
667.0, 0.0001137935402017375
668.0, 0.000355468907870718
669.0, 0.00018209657212083996
670.0, 2.3481714643540045e-05
671.0, 0.00012571906105584147
672.0, 0.0002158717036026372
673.0, 0.00022820250662093812
674.0, 0.00028660977076735555
675.0, 0.0003896157180971863
676.0, 0.000548908592675024
677.0, 0.0006712453716153573
678.0, 0.0006284295543324894
679.0, 0.0008625694634667411
680.0, 0.0009550295757262164
681.0, 0.001137734539865745
682.0, 0.0014217648274914157
683.0, 0.0015514180574512312
684.0, 0.0014091142601982815
685.0, 0.0014719874059681357
686.0, 0.0016999321940173568
687.0, 0.001839421725908351
688.0, 0.0019607723845975647
689.0, 0.0021866435920666993
690.0, 0.00243138420699366
691.0, 0.0025607480364914356
692.0, 0.003479954577072513
693.0, 0.00390807006638267
694.0, 0.004443636704014424
695.0, 0.005313375068363622
696.0, 0.006001405184743758
697.0, 0.00607431193521341
698.0, 0.006957115519823228
699.0, 0.007880974594187844
700.0, 0.008903147949795392
701.0, 0.009769327473181483
702.0, 0.010538285993259186
703.0, 0.011844127976328871
704.0, 0.013412512581889137
705.0, 0.01481371185909631
706.0, 0.015992320093370843
707.0, 0.01806524346251821
708.0, 0.020552421437909724
709.0, 0.022218488703528962
710.0, 0.02471901952433206
711.0, 0.026990306303388917
712.0, 0.02965944885977057
713.0, 0.03292924337920445
714.0, 0.03660490805747289
715.0, 0.04049571995388258
716.0, 0.044743929273929
717.0, 0.05053291066792464
718.0, 0.05671262608144227
719.0, 0.0632783059790876
720.0, 0.07043485371504597
721.0, 0.07816534971848803
722.0, 0.08680250146374298
723.0, 0.09803507350406628
724.0, 0.10976049631260672
725.0, 0.12353350564871837
726.0, 0.1383550387176397
727.0, 0.15415450718314322
728.0, 0.17229089459330146
729.0, 0.19226083452252465
730.0, 0.21274717601170823
731.0, 0.23634420807719292
732.0, 0.2599030672654647
733.0, 0.2837103189529976
734.0, 0.30841210767406
735.0, 0.3319962445343059
736.0, 0.35556858015329995
737.0, 0.3752978132168285
738.0, 0.39298473479425555
739.0, 0.4050054901686322
740.0, 0.41042565140422954
741.0, 0.4106390209390725
742.0, 0.4028521902938137
743.0, 0.38869958166358226
744.0, 0.36644202979135493
745.0, 0.3382093067371632
746.0, 0.3066362385854887
747.0, 0.2737844813303652
748.0, 0.2416530767721095
749.0, 0.21257888290731702
750.0, 0.18499217832805265
751.0, 0.15967942170692992
752.0, 0.1385752650806431
753.0, 0.12025813063425829
754.0, 0.103431876685036
755.0, 0.0904713241040882
756.0, 0.07791768615093848
757.0, 0.0671717939132878
758.0, 0.05834680348945053
759.0, 0.05123258176884215
760.0, 0.0452414168690891
761.0, 0.03973394412955701
762.0, 0.034933168568474574
763.0, 0.030841038526534918
764.0, 0.027471926262837777
765.0, 0.023990686761641726
766.0, 0.021019285298074192
767.0, 0.01922047783757305
768.0, 0.017794245513178365
769.0, 0.015838568549405307
770.0, 0.01447548769470144
771.0, 0.01335611427082629
772.0, 0.012443598070886653
773.0, 0.011594821496276761
774.0, 0.010600268955554298
775.0, 0.009701836335522063
776.0, 0.009999740985157757
777.0, 0.009695490656462857
778.0, 0.008697072872850658
779.0, 0.008338035300060885
780.0, 0.008638650558580865
781.0, 0.00861291072329753
782.0, 0.008664719461457767
783.0, 0.008759615115935019
784.0, 0.00914167130158262
785.0, 0.009534940724522743
786.0, 0.009543746095042256
787.0, 0.0096270884616172
788.0, 0.01020951548026244
789.0, 0.010245879614359858
790.0, 0.009893001767810985
791.0, 0.009626135444582181
792.0, 0.008839255090157948
793.0, 0.008263376452171048
794.0, 0.007881039588872634
795.0, 0.00673719200915046
796.0, 0.006305016036836035
797.0, 0.005693928699002093
798.0, 0.00508907934353899
799.0, 0.004317855372966001
800.0, 0.004121114839147896
801.0, 0.004482764458595727
802.0, 0.004230233648115771
803.0, 0.0037989026443026866
804.0, 0.003660508653675189
805.0, 0.0034440775528952567
806.0, 0.0035911615404693982
807.0, 0.003617766421492338
808.0, 0.0033397388560391992
809.0, 0.003471949879681219
810.0, 0.0033221604790080275
811.0, 0.0038160376973957145
812.0, 0.003947237530210866
813.0, 0.003967074173611806
814.0, 0.004272342435956004
815.0, 0.004675720613229202
816.0, 0.004909642618403255
817.0, 0.00543278372098313
818.0, 0.005548037738344245
819.0, 0.00615753318663984
820.0, 0.006674304927477265
821.0, 0.006914090545166974
822.0, 0.007041502142525943
823.0, 0.00699282883546359
824.0, 0.006811809942689649
825.0, 0.006197245518763473
826.0, 0.005294140480841404
827.0, 0.0041559232168551456
828.0, 0.0032025829775758925
829.0, 0.002431841626598744
830.0, 0.0015078213792248437
831.0, 0.000979408894345741
832.0, 0.00042476904301967644
833.0, 0.0002830250890334686
834.0, 0.0006790191876512083
835.0, 0.0006355066292613111
836.0, 0.000709678522817773
837.0, 0.0011555464055982459
838.0, 0.0009570733140557324
839.0, 0.000976955971106444
840.0, 0.001078194213381187
841.0, 0.0010906975988044382
842.0, 0.001038300764119523
843.0, 0.0009740746547441524
844.0, 0.0009616925683730597
845.0, 0.0010368507233081312
846.0, 0.0007417485389996422
847.0, 0.0007341106923912988
848.0, 0.000689583849475387
849.0, 0.00039090541759153593
850.0, 6.152159082241645e-05
851.0, 0.00014184853544997069
852.0, 0.00034641399344622546
853.0, 0.0009098993362390106
854.0, 0.0007791412835248699
855.0, 0.0009467284474044877
856.0, 0.0015317385476605538
857.0, 0.001973068000522335
858.0, 0.0020601055924533837
859.0, 0.002122634175152366
860.0, 0.0024077343086329984
861.0, 0.002769033219837876
862.0, 0.0026497482286683737
863.0, 0.0027012193992060844
864.0, 0.0028668162926686544
865.0, 0.002869323001361444
866.0, 0.00271569270184887
867.0, 0.002502739875394438
868.0, 0.002424093995733145
869.0, 0.002515870752557616
870.0, 0.002538606278794179
871.0, 0.00230899162419665
872.0, 0.0021705067680522295
873.0, 0.0022950039619754952
874.0, 0.0023950240037863917
875.0, 0.002730629275940578
876.0, 0.0026802909613277835
877.0, 0.002613244105389691
878.0, 0.003101424878731405
879.0, 0.003612393176245123
880.0, 0.0038357714023967925
881.0, 0.004232843263839268
882.0, 0.004910058443090694
883.0, 0.005158490061529961
884.0, 0.0057090119968771945
885.0, 0.006564687985810567
886.0, 0.0074764967136838455
887.0, 0.008108067030558296
888.0, 0.00900743123773533
889.0, 0.010815951498344564
890.0, 0.011829862497873763
891.0, 0.013094084453423334
892.0, 0.014367328104739065
893.0, 0.015914512489361907
894.0, 0.017630196076474803
895.0, 0.019279544744619164
896.0, 0.020732293213975534
897.0, 0.021749418720813794
898.0, 0.022683214044758364
899.0, 0.023452237294961892
900.0, 0.023352587965811106
901.0, 0.022464512678894096
902.0, 0.02090150107779576
903.0, 0.018975477404588395
904.0, 0.016956939145133076
905.0, 0.01444972832033756
906.0, 0.011916459879146767
907.0, 0.009355177527008459
908.0, 0.007883708562876261
909.0, 0.006543135756156773
910.0, 0.005333531351270601
911.0, 0.004514211261300739
912.0, 0.0037570732232033153
913.0, 0.003355603474725572
914.0, 0.0027614562806685104
915.0, 0.0024665620721542854
916.0, 0.0023655469410396013
917.0, 0.0021913778884897917
918.0, 0.002023757596110655
919.0, 0.0019037481350857896
920.0, 0.0017566957851956099
921.0, 0.0018740953215157852
922.0, 0.0016185449428162172
923.0, 0.0016180582900042703
924.0, 0.0016776441861451187
925.0, 0.0015811606199477796
926.0, 0.00137148125586958
927.0, 0.0012412635481488853
928.0, 0.001283187207542076
929.0, 0.0011454877109372762
930.0, 0.001111880768404321
931.0, 0.000812455125562356
932.0, 0.0006728520850006063
933.0, 0.0004948671601785103
934.0, 0.00022005729096036156
935.0, 0.00012560178903381526
936.0, 0.00024813829364974337
937.0, 0.0002320263986773312
938.0, 0.00012147285550737857
939.0, 6.185846444419827e-06
940.0, 9.56712396831803e-06
941.0, 7.587075269433566e-05
942.0, 0.00015276720279676432
943.0, 4.9167456414152836e-05
944.0, 1.83194006174783e-05
945.0, 7.076259547173466e-05
946.0, 0.00032651058187127703
947.0, 0.0004265383131190961
948.0, 0.0005320412000332906
949.0, 0.0004753192424241455
950.0, 0.0005257105077264032
951.0, 0.0006600738436009127
952.0, 0.0006122359069502272
953.0, 0.0009039777961203114
954.0, 0.0005822907892395516
955.0, 0.000650211270119362
956.0, 0.0006689934547805936
957.0, 0.0006206938804927444
958.0, 0.0007192735528868526
959.0, 0.0007552387214781527
960.0, 0.000554387860670047
961.0, 0.0005549829928409998
962.0, 0.0006805934974176574
963.0, 0.0007087074285701409
964.0, 0.00048772996050057426
965.0, 0.00047172616568599027
966.0, 0.0006942309821544473
967.0, 0.000818757041921164
968.0, 0.0008416486625920708
969.0, 0.0010521538080843864
970.0, 0.000944756643339504
971.0, 0.0011923435017116059
972.0, 0.0013466730405550945
973.0, 0.0013105849381833546
974.0, 0.001358432785130598
975.0, 0.0015701216643417867
976.0, 0.0016872680761062288
977.0, 0.0015339888803545209
978.0, 0.001559447585785863
979.0, 0.0026164729871203294
980.0, 0.002216583412594194
981.0, 0.002250818415019419
982.0, 0.0022309644719399556
983.0, 0.002158463763480737
984.0, 0.002161765618912355
985.0, 0.0020667372657254893
986.0, 0.001993793228203274
987.0, 0.0022055470749597545
988.0, 0.0019829168940097503
989.0, 0.0019016331690076972
990.0, 0.0019222040744574869
991.0, 0.0018043375872585803
992.0, 0.0016116881427528653
993.0, 0.0016856667985530734
994.0, 0.0018067495368551713
995.0, 0.001244369867028533
996.0, 0.0014640717942602242
997.0, 0.0016000965999097966
998.0, 0.001799272924097882
999.0, 0.00160414593448163
1000.0, 0.0012802743440563232
1001.0, 0.0011983028461031162
1002.0, 0.0013953797328357463
1003.0, 0.0015562573613086344
1004.0, 0.0012056440417269275
1005.0, 0.001397177288200375
1006.0, 0.0012642390557046214
1007.0, 0.0010278850153691377
1008.0, 0.000968078683987134
1009.0, 0.0010894966777970914
1010.0, 0.0010902508505078825
1011.0, 0.000933898399074336
1012.0, 0.0009635046661267277
1013.0, 0.000993771871411345
1014.0, 0.0007166896800941631
1015.0, 0.0006121387814156294
1016.0, 0.0007118049898513481
1017.0, 0.0008104143093869194
1018.0, 0.0007417909256595689
1019.0, 0.0006214099036005602
1020.0, 0.0006146442130079901
1021.0, 0.0006344375789952627
1022.0, 0.0004999410731629928
1023.0, 0.0005236407528571623
1024.0, 0.00025182007625939467
1025.0, 0.0001512305562668508
1026.0, 0.00026815719293255675
1027.0, 0.000507465112168599
1028.0, 0.000480573518718033
1029.0, 0.00020703099161475074
1030.0, 0.000171375235084104
1031.0, 0.00019516773748665624
1032.0, 5.727821205825899e-05
1033.0, 4.2991967568053784e-05
1034.0, 0.00011597266067171518
1035.0, 6.605528651626959e-05
1036.0, 6.394196409798668e-05
1037.0, 6.842548675785857e-05
1038.0, 0.0001364652834496444
1039.0, 2.378519425152256e-05
1040.0, 3.311544763399063e-05
1041.0, 1.56660037845916e-05
1042.0, 2.6864192816660227e-05
1043.0, 0.0002185480398917337
1044.0, 0.00012124701923570396
1045.0, 9.232361316193697e-05
1046.0, 8.082160958380878e-05
1047.0, 3.515772870653298e-05
1048.0, 3.928761955255621e-05
1049.0, 7.581143904461942e-05
1050.0, 0.00032745587188040266
1051.0, 0.0001325625991233385
1052.0, 1.3950086166741707e-05
1053.0, 1.7707279320428334e-05
1054.0, 0.00012859409911122899
1055.0, 0.00022698325650756851
1056.0, 0.0001506764247865992
1057.0, 2.4879945655014202e-05
1058.0, 0.00013509224732713605
1059.0, 0.0005018591003060636
1060.0, 0.0001829252254838715
1061.0, 0.0001289226537828693
1062.0, 0.00017721094133810978
1063.0, 0.00029396917488000337
1064.0, 0.000465885314170827
1065.0, 0.0005055163987081088
1066.0, 0.00035378607372198005
1067.0, 0.0003316426919911914
1068.0, 0.000646184318245002
1069.0, 0.0008079453219634799
1070.0, 0.0010105271675344071
1071.0, 0.0008245200427894856
1072.0, 0.0006890170621230503
1073.0, 0.0010597590318278287
1074.0, 0.001291625029187864
1075.0, 0.0013840085496939203
1076.0, 0.001613467761725822
1077.0, 0.0016543957636172683
1078.0, 0.0016834890402346483
1079.0, 0.0019236957686057906
1080.0, 0.002008785758168239
1081.0, 0.002158889931921764
1082.0, 0.002423939674880548
1083.0, 0.0026595945213309714
1084.0, 0.0028401727880555875
1085.0, 0.0028755400204511588
1086.0, 0.0029137354580751574
1087.0, 0.0032265507270556
1088.0, 0.0032541381920173423
1089.0, 0.0031567836692915152
1090.0, 0.003499637875608908
1091.0, 0.0036839166951850195
1092.0, 0.0033198430915102133
1093.0, 0.003383996166859888
1094.0, 0.0036037513217871894
1095.0, 0.003625676363590368
1096.0, 0.0036712893907967043
1097.0, 0.0037391807774108565
1098.0, 0.003876184983344907
1099.0, 0.0037012535653638792
1100.0, 0.0036708698787049727
1101.0, 0.003727539839939394
1102.0, 0.003544037572428367
1103.0, 0.0035760424571891483
1104.0, 0.0035457358504241304
1105.0, 0.0034729513366930863
1106.0, 0.0036231848303299335
1107.0, 0.0036108373387231754
1108.0, 0.003235034367321636
1109.0, 0.002804915472286136
1110.0, 0.003125288966183822
1111.0, 0.0031307409502235417
1112.0, 0.003015470802391915
1113.0, 0.0027298874153551655
1114.0, 0.00258038396905044
1115.0, 0.002417648853322905
1116.0, 0.002162638684151231
1117.0, 0.0021447947769192535
1118.0, 0.002156307899748978
1119.0, 0.0017992822298126781
1120.0, 0.0018259195915784354
1121.0, 0.0015449642651649766
1122.0, 0.0013722854239821523
1123.0, 0.0013153932684835635
1124.0, 0.0010624126423880794
1125.0, 0.0008585222937165863
1126.0, 0.0007742919087307842
1127.0, 0.0006074646478977498
1128.0, 0.0005033405993879529
1129.0, 0.0007171403373040223
1130.0, 0.0006061014592393728
1131.0, 0.00046596482907101407
1132.0, 0.0003913586758641075
1133.0, 0.00028519180982537474
1134.0, 0.00029496377627890626
1135.0, 0.0001236448380642788
1136.0, 6.010474469037356e-05
1137.0, 4.360605288789431e-05
1138.0, 1.6631915859633176e-05
1139.0, 7.831286177139974e-05
1140.0, 0.00014669938943944917
1141.0, 0.00014651467803437543
1142.0, 8.180518745702728e-05
1143.0, 4.6456058204105513e-05
1144.0, 1.6148212471929416e-05
1145.0, 0.0001533681636721985
1146.0, 0.0001783761742239463
1147.0, 5.669364246430031e-05
1148.0, 0.00010935024035758067
1149.0, 3.6365034247667726e-05
1150.0, 2.298106259348249e-05
1151.0, 6.506311457336384e-05
1152.0, 0.0002806397350852905
1153.0, 0.0002146202657967457
1154.0, 0.0004536388280820347
1155.0, 0.0005469881699832829
1156.0, 0.0005953676522221913
1157.0, 0.0005755085895227256
1158.0, 0.0005943643377115451
1159.0, 0.0008668549522959734
1160.0, 0.0012432056362736614
1161.0, 0.0013590788716783496
1162.0, 0.0012638947814662374
1163.0, 0.0012021549700394888
1164.0, 0.0014307682235813472
1165.0, 0.0018452877832846463
1166.0, 0.0022128449933795083
1167.0, 0.0025152855125286475
1168.0, 0.00263321272340913
1169.0, 0.0028153012430354894
1170.0, 0.0029695505598770888
1171.0, 0.003105665744848684
1172.0, 0.0035440662327774603
1173.0, 0.003874761808221958
1174.0, 0.0041393120655367184
1175.0, 0.0043200856747157524
1176.0, 0.004551535666288406
1177.0, 0.005125044421964044
1178.0, 0.005228170092686638
1179.0, 0.0058184186895323285
1180.0, 0.00640408711470735
1181.0, 0.006683048843818696
1182.0, 0.007048631594277952
1183.0, 0.007395610063121005
1184.0, 0.007614898046746388
1185.0, 0.00839096598754814
1186.0, 0.008777639295771567
1187.0, 0.009332156831908996
1188.0, 0.009666080299704253
1189.0, 0.01030221236466829
1190.0, 0.01041812494081232
1191.0, 0.010399266958106569
1192.0, 0.011005133221448015
1193.0, 0.011415771044549874
1194.0, 0.011460073955125726
1195.0, 0.011897843568088687
1196.0, 0.012278064941161008
1197.0, 0.012057898495284438
1198.0, 0.01190137278518381
1199.0, 0.011890028522911145
1200.0, 0.0118067443847335
1201.0, 0.011660387560140678
1202.0, 0.011597868737173148
1203.0, 0.011359848185497736
1204.0, 0.01111448750554271
1205.0, 0.010707086420352419
1206.0, 0.010083368103501559
1207.0, 0.009541200724645394
1208.0, 0.009151344310135635
1209.0, 0.008785021324011134
1210.0, 0.007883380253858404
1211.0, 0.007426843235441038
1212.0, 0.0069667050823978005
1213.0, 0.006691284399372692
1214.0, 0.0061175419630040105
1215.0, 0.005561787422090193
1216.0, 0.0051094689842827975
1217.0, 0.00479619777936334
1218.0, 0.0044153920518524735
1219.0, 0.0037688643860872965
1220.0, 0.0032586529541537416
1221.0, 0.003069011179080346
1222.0, 0.0024361422651560604
1223.0, 0.002257597854644941
1224.0, 0.002149210762193888
1225.0, 0.0017577869133752137
1226.0, 0.001476230155688045
1227.0, 0.001258712933292349
1228.0, 0.0010915015324697325
1229.0, 0.0009113231034212764
1230.0, 0.0006457372699030234
1231.0, 0.0003526881231801585
1232.0, 0.0001755787771489884
1233.0, 0.0001609861453796684
1234.0, 0.00019763979081147728
1235.0, 0.00022700168101587922
1236.0, 3.230784885353365e-05
1237.0, 0.0001669919156025359
1238.0, 6.14921959799575e-05
1239.0, 0.00012352895316505857
1240.0, 3.0114227312868456e-05
1241.0, 0.0001509069383186553
1242.0, 0.00021875145751288982
1243.0, 0.00023673465555926003
1244.0, 0.0001551620992287942
1245.0, 0.00016215123194154144
1246.0, 0.00028400881430774584
1247.0, 0.0003250452120895253
1248.0, 0.0006840650649209625
1249.0, 0.0008743350387365327
1250.0, 0.0007100006693978316
1251.0, 0.001185469356930257
1252.0, 0.001319004375701064
1253.0, 0.0013409009992078696
1254.0, 0.0017421239329549584
1255.0, 0.002099858012330228
1256.0, 0.0021949870267420667
1257.0, 0.0024344280187089725
1258.0, 0.0028370457826398777
1259.0, 0.0032833078535953464
1260.0, 0.0037565259552337724
1261.0, 0.0038495497906507995
1262.0, 0.004152067013627553
1263.0, 0.004877817764101379
1264.0, 0.005319454745049351
1265.0, 0.005349976167659848
1266.0, 0.005837007374657975
1267.0, 0.005815420184774549
1268.0, 0.006436764880340862
1269.0, 0.006910421211227142
1270.0, 0.007193519846209439
1271.0, 0.007450549497661043
1272.0, 0.007558383899990996
1273.0, 0.007664127148662723
1274.0, 0.007656754500914008
1275.0, 0.007506033776897691
1276.0, 0.007308042455821635
1277.0, 0.00712281965540713
1278.0, 0.007117313212196715
1279.0, 0.007005217022670337
1280.0, 0.0063129489535532265
1281.0, 0.006223830958931184
1282.0, 0.006124026588563419
1283.0, 0.005571182704237314
1284.0, 0.005062846784919778
1285.0, 0.004791523871485172
1286.0, 0.00436297681004936
1287.0, 0.003941645891288841
1288.0, 0.003660320839160916
1289.0, 0.00307522003188361
1290.0, 0.0026945175607526683
1291.0, 0.0021187539627974777
1292.0, 0.0019537889591752563
1293.0, 0.0016112503968353166
1294.0, 0.001414470962732867
1295.0, 0.0010321548380744215
1296.0, 0.0006388784899369846
1297.0, 0.0004103059093331806
1298.0, 0.00031343263167359146
1299.0, 0.0001750520643127691
1300.0, 0.00032825792670603996
1301.0, 0.00025138573690340453
1302.0, 8.428333920792738e-06
1303.0, 8.672050726544645e-05
1304, 0.0
1305, 0.0
1306, 0.0
1307, 0.0
1308, 0.0
1309, 0.0
1310, 0.0
1311, 0.0
1312, 0.0
1313, 0.0
1314, 0.0
1315, 0.0
1316, 0.0
1317, 0.0
1318, 0.0
1319, 0.0
1320, 0.0
1321, 0.0
1322, 0.0
1323, 0.0
1324, 0.0
1325, 0.0
1326, 0.0
1327, 0.0
1328, 0.0
1329, 0.0
1330, 0.0
1331, 0.0
1332, 0.0
1333, 0.0
1334, 0.0
1335, 0.0
1336, 0.0
1337, 0.0
1338, 0.0
1339, 0.0
1340, 0.0
1341, 0.0
1342, 0.0
1343, 0.0
1344, 0.0
1345, 0.0
1346, 0.0
1347, 0.0
1348, 0.0
1349, 0.0
1350, 0.0
1351, 0.0
1352, 0.0
1353, 0.0
1354, 0.0
1355, 0.0
1356, 0.0
1357, 0.0
1358, 0.0
1359, 0.0
1360, 0.0
1361, 0.0
1362, 0.0
1363, 0.0
1364, 0.0
1365, 0.0
1366, 0.0
1367, 0.0
1368, 0.0
1369, 0.0
1370, 0.0
1371, 0.0
1372, 0.0
1373, 0.0
1374, 0.0
1375, 0.0
1376, 0.0
1377, 0.0
1378, 0.0
1379, 0.0
1380, 0.0
1381, 0.0
1382, 0.0
1383, 0.0
1384, 0.0
1385, 0.0
1386, 0.0
1387, 0.0
1388, 0.0
1389, 0.0
1390, 0.0
1391, 0.0
1392, 0.0
1393, 0.0
1394, 0.0
1395, 0.0
1396, 0.0
1397, 0.0
1398, 0.0
1399, 0.0
1400, 0.0
1401, 0.0
1402, 0.0
1403, 0.0
1404, 0.0
1405, 0.0
1406, 0.0
1407, 0.0
1408, 0.0
1409, 0.0
1410, 0.0
1411, 0.0
1412, 0.0
1413, 0.0
1414, 0.0
1415, 0.0
1416, 0.0
1417, 0.0
1418, 0.0
1419, 0.0
1420, 0.0
1421, 0.0
1422, 0.0
1423, 0.0
1424, 0.0
1425, 0.0
1426, 0.0
1427, 0.0
1428, 0.0
1429, 0.0
1430, 0.0
1431, 0.0
1432, 0.0
1433, 0.0
1434, 0.0
1435, 0.0
1436, 0.0
1437, 0.0
1438, 0.0
1439, 0.0
1440, 0.0
1441, 0.0
1442, 0.0
1443, 0.0
1444, 0.0
1445, 0.0
1446, 0.0
1447, 0.0
1448, 0.0
1449, 0.0
1450, 0.0
1451, 0.0
1452, 0.0
1453, 0.0
1454, 0.0
1455, 0.0
1456, 0.0
1457, 0.0
1458, 0.0
1459, 0.0
1460, 0.0
1461, 0.0
1462, 0.0
1463, 0.0
1464, 0.0
1465, 0.0
1466, 0.0
1467, 0.0
1468, 0.0
1469, 0.0
1470, 0.0
1471, 0.0
1472, 0.0
1473, 0.0
1474, 0.0
1475, 0.0
1476, 0.0
1477, 0.0
1478, 0.0
1479, 0.0
1480, 0.0
1481, 0.0
1482, 0.0
1483, 0.0
1484, 0.0
1485, 0.0
1486, 0.0
1487, 0.0
1488, 0.0
1489, 0.0
1490, 0.0
1491, 0.0
1492, 0.0
1493, 0.0
1494, 0.0
1495, 0.0
1496, 0.0
1497, 0.0
1498, 0.0
1499, 0.0
1500, 0.0
1501, 0.0
1502, 0.0
1503, 0.0
1504, 0.0
1505, 0.0
1506, 0.0
1507, 0.0
1508, 0.0
1509, 0.0
1510, 0.0
1511, 0.0
1512, 0.0
1513, 0.0
1514, 0.0
1515, 0.0
1516, 0.0
1517, 0.0
1518, 0.0
1519, 0.0
1520, 0.0
1521, 0.0
1522, 0.0
1523, 0.0
1524, 0.0
1525, 0.0
1526, 0.0
1527, 0.0
1528, 0.0
1529, 0.0
1530, 0.0
1531, 0.0
1532, 0.0
1533, 0.0
1534, 0.0
1535, 0.0
1536, 0.0
1537, 0.0
1538, 0.0
1539, 0.0
1540, 0.0
1541, 0.0
1542, 0.0
1543, 0.0
1544, 0.0
1545, 0.0
1546, 0.0
1547, 0.0
1548, 0.0
1549, 0.0
1550, 0.0
1551, 0.0
1552, 0.0
1553, 0.0
1554, 0.0
1555, 0.0
1556, 0.0
1557, 0.0
1558, 0.0
1559, 0.0
1560, 0.0
1561, 0.0
1562, 0.0
1563, 0.0
1564, 0.0
1565, 0.0
1566, 0.0
1567, 0.0
1568, 0.0
1569, 0.0
1570, 0.0
1571, 0.0
1572, 0.0
1573, 0.0
1574, 0.0
1575, 0.0
1576, 0.0
1577, 0.0
1578, 0.0
1579, 0.0
1580, 0.0
1581, 0.0
1582, 0.0
1583, 0.0
1584, 0.0
1585, 0.0
1586, 0.0
1587, 0.0
1588, 0.0
1589, 0.0
1590, 0.0
1591, 0.0
1592, 0.0
1593, 0.0
1594, 0.0
1595, 0.0
1596, 0.0
1597, 0.0
1598, 0.0
1599, 0.0
