30, 0.0
31, 0.0
32, 0.0
33, 0.0
34, 0.0
35, 0.0
36, 0.0
37, 0.0
38, 0.0
39, 0.0
40, 0.0
41, 0.0
42, 0.0
43, 0.0
44, 0.0
45, 0.0
46, 0.0
47, 0.0
48, 0.0
49, 0.0
50, 0.0
51, 0.0
52, 0.0
53, 0.0
54, 0.0
55, 0.0
56, 0.0
57, 0.0
58, 0.0
59, 0.0
60, 0.0
61, 0.0
62, 0.0
63, 0.0
64, 0.0
65, 0.0
66, 0.0
67, 0.0
68, 0.0
69, 0.0
70, 0.0
71, 0.0
72, 0.0
73, 0.0
74, 0.0
75, 0.0
76, 0.0
77, 0.0
78, 0.0
79, 0.0
80, 0.0
81, 0.0
82, 0.0
83, 0.0
84, 0.0
85, 0.0
86, 0.0
87, 0.0
88, 0.0
89, 0.0
90, 0.0
91, 0.0
92, 0.0
93, 0.0
94, 0.0
95, 0.0
96, 0.0
97, 0.0
98, 0.0
99, 0.0
100, 0.0
101, 0.0
102, 0.0
103.0, 2.573219052165959e-05
104.0, 0.00027423023484758613
105.0, 0.0014498371222472057
106.0, 0.0008767101527304077
107.0, 0.0005856489308943855
108.0, 0.0014380596572431234
109.0, 0.001427316197298036
110.0, 0.0026924033132127863
111.0, 0.003963570102916869
112.0, 0.002449455188841496
113.0, 0.003909144522985393
114.0, 0.005697335030064232
115.0, 0.007061552866389386
116.0, 0.006951660367090258
117.0, 0.009084400047362882
118.0, 0.010857767555000584
119.0, 0.008570451860818616
120.0, 0.011732815602616818
121.0, 0.012980562469483814
122.0, 0.011946830572098983
123.0, 0.01487948786362993
124.0, 0.016543009870567716
125.0, 0.018647981268712328
126.0, 0.022725644331510406
127.0, 0.026079252833239395
128.0, 0.02983468251168345
129.0, 0.0352408881263995
130.0, 0.04736285525354652
131.0, 0.05769446194740052
132.0, 0.07109713762162925
133.0, 0.09025018833945782
134.0, 0.11502701631687826
135.0, 0.13750913491166314
136.0, 0.1573632567136062
137.0, 0.1732101892756452
138.0, 0.16505911629027287
139.0, 0.15070317949624235
140.0, 0.13470844529798642
141.0, 0.12155471392525255
142.0, 0.11787340568752433
143.0, 0.12120227833354075
144.0, 0.13059990258763685
145.0, 0.13905266767688682
146.0, 0.1484406860007016
147.0, 0.1548605482235322
148.0, 0.13615083013327237
149.0, 0.12336958361300697
150.0, 0.11033851733230887
151.0, 0.09343486101456006
152.0, 0.08921902340979651
153.0, 0.08670188802382778
154.0, 0.0842283109213113
155.0, 0.07827097950242148
156.0, 0.07054943681861146
157.0, 0.059977794350214095
158.0, 0.04680268347436719
159.0, 0.041282532197311886
160.0, 0.03592746285277179
161.0, 0.030475334780182016
162.0, 0.02460388591902793
163.0, 0.020757114634904282
164.0, 0.01619458789086912
165.0, 0.011390252695281707
166.0, 0.009871215533475931
167.0, 0.007255792682705556
168.0, 0.005260602180851965
169.0, 0.004807033342723802
170.0, 0.004292538700855605
171.0, 0.003484439592741561
172.0, 0.0026421344031673996
173.0, 0.0022638960660325536
174.0, 0.001270376622091573
175.0, 0.0017682193389960076
176.0, 0.0038284127771519823
177.0, 0.004151397630601678
178.0, 0.005293940530937784
179.0, 0.006299974320254406
180.0, 0.006393827817908682
181.0, 0.007648576947601022
182.0, 0.008831421253388958
183.0, 0.009577149652395124
184.0, 0.00891719884225109
185.0, 0.00840002961493776
186.0, 0.007359793664876256
187.0, 0.0057369136885932585
188.0, 0.006143515061300176
189.0, 0.005852624695204939
190.0, 0.005373229930062961
191.0, 0.0052132991471397746
192.0, 0.0050261237892611135
193.0, 0.005087814938274277
194.0, 0.0054463055498637425
195.0, 0.006237521942528637
196.0, 0.0058081108075801234
197.0, 0.005594971681218212
198.0, 0.006137155450608216
199.0, 0.006489050658687768
200.0, 0.005781698307377466
201.0, 0.005122252125374613
202.0, 0.005966679631495493
203.0, 0.003787110118543591
204.0, 0.004404424575784135
205.0, 0.0068763435236558115
206.0, 0.004400716509950789
207.0, 0.0031675087445608603
208.0, 0.002817861706808624
209.0, 0.0032905953750997086
210.0, 0.005000179370672293
211.0, 0.006430326170499708
212.0, 0.006387824608134356
213.0, 0.002906324762633178
214.0, 0.0033010383887207917
215.0, 0.003998317660173136
216.0, 0.0046592251351915675
217.0, 0.0056792590047923626
218.0, 0.006561437226180087
219.0, 0.007311399866273807
220.0, 0.007893963505294168
221.0, 0.007572603550854794
222.0, 0.006806786554466646
223.0, 0.006030581063492193
224.0, 0.005802598017139934
225.0, 0.008194868841616527
226.0, 0.009296244511876857
227.0, 0.009268475554575724
228.0, 0.010147988397857249
229.0, 0.008707192524403483
230.0, 0.008379847541389129
231.0, 0.01008083254369799
232.0, 0.006282772185450548
233.0, 0.0067628309256154056
234.0, 0.007515464540090723
235.0, 0.004357269944592363
236.0, 0.006108420849346678
237.0, 0.0063725697220278045
238.0, 0.005069456452772762
239.0, 0.003048246953684044
240.0, 0.005847337064402894
241.0, 0.005767205459141511
242.0, 0.0016952363326619862
243.0, 0.005056375015896783
244.0, 0.006156528381848481
245.0, 0.005528946600770155
246.0, 0.003340614944626315
247.0, 0.0048114094630049755
248.0, 0.003672341516799488
249.0, 0.002369020055145432
250.0, 0.0061961127685682005
251.0, 0.00444134251711863
252.0, 0.0038961295172798534
253.0, 0.005183656749870617
254.0, 0.004919442496988316
255.0, 0.0037156594037789825
256.0, 0.003406114545890245
257.0, 0.004781390622709186
258.0, 0.0014056028812690531
259.0, 0.001679937779058521
260.0, 0.0029700343045800663
261.0, 0.0021637608201978188
262.0, 0.0020029082816324325
263.0, 0.00239324654340678
264.0, 0.003252733430787412
265.0, 0.0044236150421583
266.0, 0.0033450131875845074
267.0, 0.003973874901234236
268.0, 0.006515702716457742
269.0, 0.0026018114960527907
270.0, 0.0022476928416546474
271.0, 0.0028285402505099214
272.0, 0.002698195093857839
273.0, 0.0015004424471211115
274.0, 0.001065292864823955
275.0, 0.0013141786010276396
276.0, 0.00221309262442179
277.0, 0.0026293021154641747
278.0, 0.002778167765229674
279.0, 0.002976363896744771
280.0, 0.004301525461988852
281.0, 0.0034321972383432754
282.0, 0.0037158734807445624
283.0, 0.005672355145542892
284.0, 0.00281770011313535
285.0, 0.0036634225043042814
286.0, 0.004520372134211783
287.0, 0.002732531619487734
288.0, 0.004192452673648524
289.0, 0.00426520946499135
290.0, 0.0031949940257891196
291.0, 0.001286461024873449
292.0, 0.004656053239497453
293.0, 0.005121072028154402
294.0, 0.0034353198490411248
295.0, 0.005394030510380458
296.0, 0.0046865110970683976
297.0, 0.0037348816688839645
298.0, 0.0033383317739557887
299.0, 0.004216766138481185
300.0, 0.003141713029675919
301.0, 0.0029694417435816092
302.0, 0.0054508675097420245
303.0, 0.0034970357153030524
304.0, 0.002684623515263054
305.0, 0.002941200538430773
306.0, 0.004317961667961806
307.0, 0.0025359226906126516
308.0, 0.0031340903575326562
309.0, 0.0048509412025815515
310.0, 0.0034548781029094637
311.0, 0.0050189511183418856
312.0, 0.004586536886189562
313.0, 0.0019365810877274255
314.0, 0.001594935119900174
315.0, 0.0027567108277302163
316.0, 0.002904170262297506
317.0, 0.0013370240427335541
318.0, 0.0047177351650711285
319.0, 0.004543057717767942
320.0, 0.0038254812422964532
321.0, 0.0049727760630145935
322.0, 0.0033536560879564867
323.0, 0.0018581686366679355
324.0, 0.0015587635797303693
325.0, 0.004212731082108881
326.0, 0.002610632963700998
327.0, 0.002466943290094841
328.0, 0.0030411386380263658
329.0, 0.0005731986372192052
330.0, 0.0024168607260019186
331.0, 0.0034807711445865377
332.0, 0.002720289848294506
333.0, 0.0008408311348147579
334.0, 0.00291692477257142
335.0, 0.004145852688558219
336.0, 0.002804990502583834
337.0, 0.0038468044896359578
338.0, 0.0035532069446689257
339.0, 0.0025759105790206347
340.0, 0.0013520160447996134
341.0, 0.004710241719117951
342.0, 0.003839334387762999
343.0, 0.002976675850434725
344.0, 0.007753191991339046
345.0, 0.0033566383935517796
346.0, 0.003429731942539843
347.0, 0.0062841109023731466
348.0, 0.006360523462287824
349.0, 0.00505365388206208
350.0, 0.004898043814431039
351.0, 0.005322710326421358
352.0, 0.002636159417489012
353.0, 0.003337727661981843
354.0, 0.0039816610207305805
355.0, 0.0038150823352911404
356.0, 0.0045855106303955544
357.0, 0.006020056715661931
358.0, 0.005183256062370391
359.0, 0.0012041616336702036
360.0, 0.004390116012068603
361.0, 0.005101360415063848
362.0, 0.004433448066650997
363.0, 0.0031507277275914006
364.0, 0.006495743927439377
365.0, 0.0053410501506376065
366.0, 0.0034907622388916986
367.0, 0.005559265446389258
368.0, 0.003018689041001375
369.0, 0.0034423199832448754
370.0, 0.005294293892638026
371.0, 0.005112947247839993
372.0, 0.004892898860598389
373.0, 0.005599507843309866
374.0, 0.006094895639810541
375.0, 0.002794900477843347
376.0, 0.00461543209191676
377.0, 0.005150952797324913
378.0, 0.003951379035346669
379.0, 0.004821456236343703
380.0, 0.0055526662222107484
381.0, 0.00492199239743693
382.0, 0.003331524974150589
383.0, 0.006548085674821563
384.0, 0.005656287646370729
385.0, 0.004444526536194589
386.0, 0.004676834114338248
387.0, 0.006439578181743389
388.0, 0.004876853244101965
389.0, 0.004641342580439698
390.0, 0.008545115058130971
391.0, 0.003940576273004115
392.0, 0.004055890065541128
393.0, 0.0053635494856056655
394.0, 0.004640169796432859
395.0, 0.004056016207112714
396.0, 0.00462899216715189
397.0, 0.004867338438559639
398.0, 0.0027773957993760846
399.0, 0.00602298815848233
400.0, 0.005065926988645461
401.0, 0.0031371261853924
402.0, 0.00672820387062202
403.0, 0.005793680589855663
404.0, 0.004998617840754601
405.0, 0.005268270207923911
406.0, 0.007757634177390296
407.0, 0.0037780352962933123
408.0, 0.003207886051794995
409.0, 0.005396662687520804
410.0, 0.0037960136129274705
411.0, 0.0032390878829343587
412.0, 0.004859396727201919
413.0, 0.007445469160608668
414.0, 0.005075439700654962
415.0, 0.005242125101863431
416.0, 0.0045750160588692735
417.0, 0.002980354510798729
418.0, 0.005146681460511318
419.0, 0.005444621033067762
420.0, 0.005111413648980557
421.0, 0.004918896238226533
422.0, 0.0073036718413237
423.0, 0.005094205897016891
424.0, 0.0038338326993418615
425.0, 0.005495315750421186
426.0, 0.004425881477449428
427.0, 0.0032675539007600376
428.0, 0.0034358988388806075
429.0, 0.005358958724621594
430.0, 0.003209958682642842
431.0, 0.0048764878357323085
432.0, 0.005099284603599916
433.0, 0.0008519184753621241
434.0, 0.0030182249507696764
435.0, 0.0040947400945135016
436.0, 0.0036727907581587406
437.0, 0.0015600032610916153
438.0, 0.005616452062124146
439.0, 0.00466494967414236
440.0, 0.0033531998795206736
441.0, 0.005807559295063972
442.0, 0.004128860463690233
443.0, 0.002909209901820208
444.0, 0.0026917178240280734
445.0, 0.0040629690000440625
446.0, 0.0013551931834024393
447.0, 0.0031995802632044153
448.0, 0.005341992789239544
449.0, 0.002728733885988037
450.0, 0.0041132973669698834
451.0, 0.005143513415481275
452.0, 0.004741858381512875
453.0, 0.0016088874130124257
454.0, 0.005328919598624568
455.0, 0.0041084131542879565
456.0, 0.001616453760021439
457.0, 0.0035263972011638322
458.0, 0.006460192843519541
459.0, 0.004953081500893775
460.0, 0.0032720367342602323
461.0, 0.008150855640976852
462.0, 0.00421314680881783
463.0, 0.0038365248192256825
464.0, 0.004768018189243405
465.0, 0.0023880147300924266
466.0, 0.0020866104678595333
467.0, 0.003266205297691185
468.0, 0.0040310934894464
469.0, 0.0013356621823222322
470.0, 0.005591918685439573
471.0, 0.005650235691290048
472.0, 0.003104238200826937
473.0, 0.001827923054115971
474.0, 0.004062132118241149
475.0, 0.0040900969539499725
476.0, 0.0036835211323256794
477.0, 0.006514732668773424
478.0, 0.004322686789640189
479.0, 0.003493848336383977
480.0, 0.003967896128213044
481.0, 0.004905969083168606
482.0, 0.003916721883798042
483.0, 0.005376205311077753
484.0, 0.00624623023059798
485.0, 0.0010142303987900926
486.0, 0.003068493026477217
487.0, 0.004623658128954148
488.0, 0.004288740254980602
489.0, 0.0006362551831793645
490.0, 0.004152558992596327
491.0, 0.003514938497226028
492.0, 0.0015038371692020593
493.0, 0.003231861100499829
494.0, 0.0030012483988834083
495.0, 0.0030671351995680196
496.0, 0.003925931171967466
497.0, 0.006130491610167776
498.0, 0.002698008571143091
499.0, 0.0029476838739436115
500.0, 0.004270827156071407
501.0, 0.0028330476258712437
502.0, 0.0035531573325909014
503.0, 0.004843482497941673
504.0, 0.004665573214114709
505.0, 0.0006813570800096019
506.0, 0.0037500885639208292
507.0, 0.0026683764345213695
508.0, 0.0011864564352287645
509.0, 0.0033920847828824755
510.0, 0.003537893752387679
511.0, 0.003043230153845825
512.0, 0.002839568039238558
513.0, 0.003716385549426533
514.0, 0.0011659260787014528
515.0, 0.003104583556049543
516.0, 0.005101349375651569
517.0, 0.0036380192305211466
518.0, 0.0015626636907040657
519.0, 0.004326990311290647
520.0, 0.006047118286849718
521.0, 0.003194920566329893
522.0, 0.005565789306304539
523.0, 0.004110162408537054
524.0, 0.0018806301453581566
525.0, 0.0010240225178335944
526.0, 0.005142440761068612
527.0, 0.0026795718108383925
528.0, 0.0017999621235359
529.0, 0.005070016380082534
530.0, 0.0009253759778352741
531.0, 0.001480373185029288
532.0, 0.0029446531787968846
533.0, 0.0034773700685886534
534.0, 0.001240247944151888
535.0, 0.0034785000209668292
536.0, 0.0039060009484348165
537.0, 0.001860189875579681
538.0, 0.0034406807146787053
539.0, 0.004622603339390975
540.0, 0.0034560351118552903
541.0, 0.0014336750979675526
542.0, 0.005243095524107258
543.0, 0.0042436484550188594
544.0, 0.0033405244790867734
545.0, 0.0034117498856655794
546.0, 0.004356153925576169
547.0, 0.0018782092579664443
548.0, 0.003107037493594551
549.0, 0.005317872756530372
550.0, 0.0013233945091729424
551.0, 0.002657233817292338
552.0, 0.002366569064013923
553.0, 0.0012165306387352938
554.0, 0.001205050299155414
555.0, 0.005040250190951223
556.0, 0.003659971769567564
557.0, 0.0018068539093904342
558.0, 0.005157596234869095
559.0, 0.003709530801332168
560.0, 0.0017172991710143152
561.0, 0.0012042427008728583
562.0, 0.003638083449431646
563.0, 0.003626035917780036
564.0, 0.003959849294370582
565.0, 0.0033334771537343504
566.0, 0.0014072541715479678
567.0, 0.003014639233099077
568.0, 0.003873005915338175
569.0, 0.0028704386074743433
570.0, 0.0006982612342721767
571.0, 0.004510658671044623
572.0, 0.00484580637006945
573.0, 0.004589868992663781
574.0, 0.004552046407926367
575.0, 0.004380136537131969
576.0, 0.0029531717190146058
577.0, 0.003742557697354522
578.0, 0.00541105836006721
579.0, 0.0026790113519178952
580.0, 0.0027544220003828026
581.0, 0.004307505575951849
582.0, 0.004842478361140778
583.0, 0.0002959704744173288
584.0, 0.004823348478018609
585.0, 0.0036013223791394305
586.0, 0.0008689141396575943
587.0, 0.0026266289449794365
588.0, 0.003575995003764964
589.0, 0.002807086642957773
590.0, 0.0031044977245147927
591.0, 0.006168057056492392
592.0, 0.0023139657378560994
593.0, 0.0021296935453922216
594.0, 0.0038528233279582
595.0, 0.005742957711688268
596.0, 0.00220997259451396
597.0, 0.004911403944759634
598.0, 0.00499840760507156
599.0, 0.0011433658891649274
600.0, 0.0005164862105179244
601.0, 0.003830064631495235
602.0, 0.0037747998667108664
603.0, 0.0019630112388845018
604.0, 0.006124419705633138
605.0, 0.0021016172175198
606.0, 0.002941178672597684
607.0, 0.005711442097924088
608.0, 0.0037765762968573055
609.0, 0.0015297591533860412
610.0, 0.0024467143651138354
611.0, 0.00339142631213255
612.0, 0.0014502278166011566
613.0, 0.003682416898644278
614.0, 0.00371248920875292
615.0, 0.002634901438500253
616.0, 0.0015449099484154034
617.0, 0.003784906977107966
618.0, 0.0019721346108030583
619.0, 0.0021344501585132142
620.0, 0.004564305556507414
621.0, 0.0015002878162413036
622.0, 0.0013209624136019317
623.0, 0.003294934548323297
624.0, 0.004832648271473146
625.0, 0.00037608597513100455
626.0, 0.004586707582379609
627.0, 0.004505358960287489
628.0, 0.0023040867309762343
629.0, 0.002452847831981975
630.0, 0.006604147961524328
631.0, 0.00492996801215148
632.0, 0.0030601799862432803
633.0, 0.004972178363284569
634.0, 0.0019015321380586524
635.0, 0.0015141991507010768
636.0, 0.003243692936763718
637.0, 0.005488141021390497
638.0, 0.001448702255270815
639.0, 0.0035798677899182294
640.0, 0.0038198477545185157
641.0, 0.0016486871998552006
642.0, 0.0009901186739404147
643.0, 0.004590075089225088
644.0, 0.0044356971316647726
645.0, 0.0034699298770592005
646.0, 0.007162329326968828
647.0, 0.003366197153554627
648.0, 0.003768948125855837
649.0, 0.005688769938694916
650.0, 0.006380412488036632
651.0, 0.0013661531575227047
652.0, 0.0036121107186406717
653.0, 0.0045124069395471225
654.0, 0.0018126015657336295
655.0, 0.0029266144081204464
656.0, 0.004763664908126273
657.0, 0.0039183513216863985
658.0, 0.002192249465998398
659.0, 0.005405014079000467
660.0, 0.0035179489248191352
661.0, 0.0035652249897719767
662.0, 0.004525973138183389
663.0, 0.004429980121979935
664.0, 0.0014549759795330576
665.0, 0.0039573008598463326
666.0, 0.005162163764887618
667.0, 0.0018802121804762854
668.0, 0.003802006157269295
669.0, 0.004434319683846747
670.0, 0.0034555447843398184
671.0, 0.0026250553280283695
672.0, 0.007777917727136048
673.0, 0.0038724330509533242
674.0, 0.002473454582737433
675.0, 0.004238227488517844
676.0, 0.007616379048072514
677.0, 0.0019226118276777354
678.0, 0.003914685315933849
679.0, 0.006071939516583545
680.0, 0.0028553591991796225
681.0, 0.003322827105384585
682.0, 0.005803356956228626
683.0, 0.00601024939984889
684.0, 0.0038979016736364214
685.0, 0.005649776675343855
686.0, 0.005479022395024559
687.0, 0.005455908696518443
688.0, 0.006017920318876131
689.0, 0.0072950873356558265
690.0, 0.0038481858649593113
691.0, 0.006689075377003073
692.0, 0.009711415902768217
693.0, 0.008125468257973424
694.0, 0.011347122325558682
695.0, 0.015197326544838942
696.0, 0.013778371989719642
697.0, 0.008377573093418883
698.0, 0.012736268074979101
699.0, 0.008859619103068607
700.0, 0.007370891573217665
701.0, 0.008487080588304032
702.0, 0.009602556390148745
703.0, 0.005165357648274656
704.0, 0.006471184240819574
705.0, 0.006829694184805097
706.0, 0.002050821630337251
707.0, 0.005276157756965263
708.0, 0.007093874090731992
709.0, 0.005750561964529238
710.0, 0.003110709589822548
711.0, 0.006987676349761984
712.0, 0.006199589386687646
713.0, 0.0048528765079823
714.0, 0.0040953623728976615
715.0, 0.004705739090826343
716.0, 0.003060417710613209
717.0, 0.0051134709058449366
718.0, 0.0065699388575218886
719.0, 0.005009727911668334
720.0, 0.00287525517490565
721.0, 0.005033287347142593
722.0, 0.003925110424066055
723.0, 0.0021497726377173727
724.0, 0.010259996096340672
725.0, 0.0055271866005437275
726.0, 0.0047891678784860005
727.0, 0.006992509948907608
728.0, 0.00923432395241658
729.0, 0.003039324026475308
730.0, 0.003903998957649092
731.0, 0.0047637848725611415
732.0, 0.003575669251799238
733.0, 0.004575847321422488
734.0, 0.008836085939081393
735.0, 0.006326600950122506
736.0, 0.0031291928842657186
737.0, 0.010335491956611955
738.0, 0.0047721265486010914
739.0, 0.003823708232164022
740.0, 0.005382898468181099
741.0, 0.006910874772827622
742.0, 0.0021343299514950285
743.0, 0.0070076469654212796
744.0, 0.007578898504326291
745.0, 0.004460068841903102
746.0, 0.006297464844849966
747.0, 0.009474515871919506
748.0, 0.006521109276223502
749.0, 0.004367799330326642
750.0, 0.008133169083419201
751.0, 0.005170040292248915
752.0, 0.0035014504971041817
753.0, 0.005694219860431524
754.0, 0.008509218955504595
755.0, 0.0006448277928020763
756.0, 0.004971117138145858
757.0, 0.005377486816248337
758.0, 0.0035148681589401883
759.0, 0.003041302858282013
760.0, 0.006279146476801651
761.0, 0.0035265007344307464
762.0, 0.0030245117377242876
763.0, 0.006207617176911003
764.0, 0.005525668417710653
765.0, 0.0033768485403367623
766.0, 0.005532625550491364
767.0, 0.007251502106445592
768.0, 0.002207755757157655
769.0, 0.0064364453135796135
770.0, 0.00665033373737899
771.0, 0.004431852561065969
772.0, 0.0023150678225264273
773.0, 0.006868032360190511
774.0, 0.004639738024900875
775.0, 0.003929958783949532
776.0, 0.0044815083914133535
777.0, 0.004081598587422513
778.0, 0.0015964970134954516
779.0, 0.006680087076274597
780.0, 0.007333025878469455
781.0, 0.0011801916647318166
782.0, 0.00589925695156834
783.0, 0.006462067878255843
784.0, 0.003922761039147778
785.0, 0.003267435082024405
786.0, 0.010683314534423944
787.0, 0.0023387660055759424
788.0, 0.0028446419951058685
789.0, 0.0052562598921747725
790.0, 0.0053016670124574365
791.0, 0.001536183628809612
792.0, 0.006349032072113555
793.0, 0.005647934383844474
794.0, 0.002550631406893979
795.0, 0.0043730234094571255
796.0, 0.00811260049852172
797.0, 0.003939623121221016
798.0, 0.0032549058574421544
799.0, 0.008000075736363584
800.0, 0.0035335044780918936
801.0, 0.003899375383450533
802.0, 0.006649890808136845
803.0, 0.007612145993763571
804.0, 0.0028980628330529446
805.0, 0.007299638000324406
806.0, 0.005315588970333122
807.0, 0.0020953494695962176
808.0, 0.0012149454161768897
809.0, 0.006486541820260575
810.0, 0.0024801315465940187
811.0, 0.003729952603987085
812.0, 0.006311078190290094
813.0, 0.004679977841063172
814.0, 0.0015196048076744212
815.0, 0.005105243403914771
816.0, 0.004979778110413031
817.0, 0.002213065127243983
818.0, 0.00858919056373576
819.0, 0.005270923940345462
820.0, 0.002424251969517744
821.0, 0.0024401173569683484
822.0, 0.005343008350361314
823.0, 0.0011922018601890148
824.0, 0.0022140397400229675
825.0, 0.004412106112255694
826.0, 0.005571037147017414
827.0, 0.003679594951457987
828.0, 0.009037169856340066
829.0, 0.00578866119766796
830.0, 0.0024803544289692557
831.0, 0.0037075001895913737
832.0, 0.004652263703631442
833.0, 0.002022379652657957
834.0, 0.0043551050961092
835.0, 0.007102937868880733
836.0, 0.0030831279456190433
837.0, 0.004527171816411393
838.0, 0.005341795323826278
839.0, 0.0038567865727141036
840.0, 0.0023345459317369592
841.0, 0.009097971858576782
842.0, 0.0041568106695982696
843.0, 0.00245461718047018
844.0, 0.004158355378244244
845.0, 0.007169856761377898
846.0, 0.0036615407116220773
847.0, 0.006561636859079194
848.0, 0.007370228996794306
849.0, 0.004679329230487878
850.0, 0.00017673665818290904
851.0, 0.006066894817103907
852.0, 0.0039754741684029215
853.0, 0.0025180214078368763
854.0, 0.005272998995956934
855.0, 0.006395727196574133
856.0, 0.0019733251281112228
857.0, 0.004098278225573412
858.0, 0.006956752557298738
859.0, 0.0034756108529108622
860.0, 0.004424134248658293
861.0, 0.0068295922090448385
862.0, 0.0049109239823861865
863.0, 0.0018322939457798737
864.0, 0.007699661174864725
865.0, 0.003075306527095501
866.0, 0.0020944538933107062
867.0, 0.003789528664380828
868.0, 0.005823871611767008
869.0, 0.0023052194642754044
870.0, 0.004665802043425418
871.0, 0.0034837273818669142
872.0, 0.0017955539410079695
873.0, 0.00442590571618698
874.0, 0.00951492880631476
875.0, 0.005000057685442224
876.0, 0.003930801680164113
877.0, 0.006078912249326857
878.0, 0.0023879906265902987
879.0, 0.0014719654056832131
880.0, 0.00615944057305627
881.0, 0.00657644355550689
882.0, 0.0009333792078411794
883.0, 0.005448772711106924
884.0, 0.005700692978365023
885.0, 0.004548328390806775
886.0, 0.005060520766770762
887.0, 0.008500230487468778
888.0, 0.0020207879444808525
889.0, 0.0052307333423864
890.0, 0.007216907617193306
891.0, 0.005233360425240922
892.0, 0.00017455148611918245
893.0, 0.006624797631264266
894.0, 0.0039160863927830344
895.0, 0.0018492180097800439
896.0, 0.004543605520287699
897.0, 0.009480708002117103
898.0, 0.0027250274349499125
899.0, 0.004332275168498869
900.0, 0.006825742962697379
901.0, 0.004290312903731995
902.0, 0.003912154760726846
903.0, 0.00555019992188627
904.0, 0.004212252828659814
905.0, 0.0026067036663925546
906.0, 0.004769011893876861
907.0, 0.005221397629928291
908.0, 0.0031319149455943107
909.0, 0.004923672838404226
910.0, 0.007831126676217817
911.0, 0.002793220336695399
912.0, 0.0050685321322316386
913.0, 0.006863276108415986
914.0, 0.005293081281915506
915.0, 0.0020931439408464875
916.0, 0.0068749476629626155
917.0, 0.005112539167994851
918.0, 0.0039054676989697464
919.0, 0.005350228730113567
920.0, 0.00833273254235105
921.0, 0.0012868640891965464
922.0, 0.007081553629845057
923.0, 0.008384826869587168
924.0, 0.006422576412890723
925.0, 0.006215666078480716
926.0, 0.009834309707998437
927.0, 0.00472443712316249
928.0, 0.003317135297452886
929.0, 0.006436378311893587
930.0, 0.009261767877608471
931.0, 0.001828345914540756
932.0, 0.006955502513817937
933.0, 0.008411530270201289
934.0, 0.004264269964272089
935.0, 0.006223050676967117
936.0, 0.00899219955636241
937.0, 0.004712203653472338
938.0, 0.004574329531078319
939.0, 0.010229470804044183
940.0, 0.004315859330254162
941.0, 0.005852165278480006
942.0, 0.00941902870511546
943.0, 0.008351409762737374
944.0, 0.002016980558328896
945.0, 0.011494751076543356
946.0, 0.005940127649369451
947.0, 0.00553177431139351
948.0, 0.009011302922617061
949.0, 0.010600110334030896
950.0, 0.002857642963274207
951.0, 0.00607590794399768
952.0, 0.008771662044339898
953.0, 0.007530285989126819
954.0, 0.002702789070094855
955.0, 0.009514588842309065
956.0, 0.0065543247825271865
957.0, 0.0042281721545736365
958.0, 0.005453063481953787
959.0, 0.008906680145136028
960.0, 0.0044789472222931375
961.0, 0.007103649880359808
962.0, 0.008416206429949688
963.0, 0.00636121059404774
964.0, 0.004470756051728348
965.0, 0.009375372467004619
966.0, 0.0060336778361678965
967.0, 0.005319129862554131
968.0, 0.008875631665504504
969.0, 0.004807614579219385
970.0, 0.0013154075183511992
971.0, 0.008194818979510283
972.0, 0.01046366084606543
973.0, 0.0032936412336658965
974.0, 0.0045833914874230525
975.0, 0.010569513101326908
976.0, 0.005900063083446972
977.0, 0.002932837433283798
978.0, 0.008443434473649414
979.0, 0.006686794312791555
980.0, 0.003589748719413411
981.0, 0.005254687400387824
982.0, 0.0056014430326045885
983.0, 0.0009822652779755067
984.0, 0.003642660843045609
985.0, 0.006396791576341837
986.0, 0.004664118388486936
987.0, 0.004137599767886472
988.0, 0.008693115939095442
989.0, 0.002593730751149524
990.0, 0.0021541208311333386
991.0, 0.007290560797533334
992.0, 0.009140782831719284
993.0, 0.001283322085549327
994.0, 0.008002930495852444
995.0, 0.004429412135538825
996.0, 0.0039030127520821036
997.0, 0.007405478328701786
998.0, 0.01103228685377064
999.0, 0.001949208397239068
1000.0, 0.004862987406829947
1001.0, 0.007557773496441685
1002.0, 0.006023072786467755
1003.0, 0.0009872958301092105
1004.0, 0.011618273494786002
1005.0, 0.004622744397727227
1006.0, 0.0032580125718664073
1007.0, 0.007289180796362497
1008.0, 0.00762052159612706
1009.0, 0.0018427468241119355
1010.0, 0.007786820965029563
1011.0, 0.008291899607199827
1012.0, 0.004716293777556676
1013.0, 0.005827629948735508
1014.0, 0.011483773383045556
1015.0, 0.005209634913068384
1016.0, 0.005937732193194959
1017.0, 0.010222688094154112
1018.0, 0.006278913701612763
1019.0, 0.0065651377777740496
1020.0, 0.008499033429248407
1021.0, 0.007774280374558896
1022.0, 0.005983747591682496
1023.0, 0.007075589119590092
1024.0, 0.010082622971110122
1025.0, 0.004671934258635715
1026.0, 0.007190518535291916
1027.0, 0.011458525063326931
1028.0, 0.004436720467594187
1029.0, 0.0086055024365547
1030.0, 0.011243591889069312
1031.0, 0.008324177003678199
1032.0, 0.005448376093102792
1033.0, 0.010204383241067998
1034.0, 0.010165514147928642
1035.0, 0.004928051486087104
1036.0, 0.0074094597855705
1037.0, 0.012279622587863468
1038.0, 0.010085601585375312
1039.0, 0.013369555883030172
1040.0, 0.017117624583759622
1041.0, 0.013312052729767002
1042.0, 0.009874651928429647
1043.0, 0.015418621803195632
1044.0, 0.009465063172035463
1045.0, 0.009001616573468483
1046.0, 0.012247437600678736
1047.0, 0.014330799445311657
1048.0, 0.011978881534501128
1049.0, 0.014458455609108392
1050.0, 0.01723768199051406
1051.0, 0.015387403089067376
1052.0, 0.016703180967337007
1053.0, 0.025514207239829015
1054.0, 0.022258101933044845
1055.0, 0.027177578777970727
1056.0, 0.040327739209479595
1057.0, 0.06765074822408344
1058.0, 0.15340932989076067
1059.0, 0.46236176674371554
1060.0, 0.8660777709741541
1061.0, 0.9402712847494277
1062.0, 0.7160472472154674
1063.0, 0.3488795356760581
1064.0, 0.1351513732715251
1065.0, 0.06745495965059099
1066.0, 0.03977571978176593
1067.0, 0.024549780457579093
1068.0, 0.013273627130290459
1069.0, 0.020172362045956453
1070.0, 0.014504136774923295
1071.0, 0.011251506249765716
1072.0, 0.014156628126846569
1073.0, 0.017470661964933215
1074.0, 0.006024384297866352
1075.0, 0.014624837163612632
1076.0, 0.01360422492521771
1077.0, 0.009288040673856243
1078.0, 0.008071625425537219
1079.0, 0.014914024149420176
1080.0, 0.009086636863410684
1081.0, 0.0067935913601713275
1082.0, 0.009478053840310672
1083.0, 0.01051034668867255
1084.0, 0.002656554865895445
1085.0, 0.010413243718421283
1086.0, 0.007595056942159209
1087.0, 0.005521101253283473
1088.0, 0.0076729137276415095
1089.0, 0.012507319467490337
1090.0, 0.006159686905112222
1091.0, 0.005228401116632187
1092.0, 0.00895055364830783
1093.0, 0.009111902135911579
1094.0, 0.0032751682319401643
1095.0, 0.009341907097498848
1096.0, 0.007031233000168562
1097.0, 0.005263149754023399
1098.0, 0.008643421380597326
1099.0, 0.013024236867024218
1100.0, 0.0006921386226444743
1101.0, 0.010194084450014814
1102.0, 0.014012767724718213
1103.0, 0.009585532300142245
1104.0, 0.005052417558386323
1105.0, 0.016336038273180527
1106.0, 0.0072429071690905435
1107.0, 0.006121945977550721
1108.0, 0.009641719151968849
1109.0, 0.010965382470301644
1110.0, 0.0044288583373796354
1111.0, 0.011189611171750274
1112.0, 0.011168003704345703
1113.0, 0.005434894364311829
1114.0, 0.004657131297362572
1115.0, 0.013879135458340314
1116.0, 0.004613732320285526
1117.0, 0.003055438526928496
1118.0, 0.008815158431554504
1119.0, 0.009562681981713075
1120.0, 0.003136165392839919
1121.0, 0.010935446088168502
1122.0, 0.008509754547425405
1123.0, 0.003481023345302877
1124.0, 0.005420637713733879
1125.0, 0.010979472723431893
1126.0, 0.004815699802673987
1127.0, 0.006284749435383625
1128.0, 0.008841599922697101
1129.0, 0.0064944182719073856
1130.0, 0.004900095118473108
1131.0, 0.011779680165695187
1132.0, 0.00639454746823292
1133.0, 0.00220699679068723
1134.0, 0.008262111038898352
1135.0, 0.01118534278853064
1136.0, 0.0026966072844217493
1137.0, 0.005538160667521481
1138.0, 0.00853821632369842
1139.0, 0.004825385337575693
1140.0, 0.005575533444254129
1141.0, 0.011314990012008305
1142.0, 0.006610061778381618
1143.0, 0.0019186413061261227
1144.0, 0.009034628314378425
1145.0, 0.007870803951011347
1146.0, 0.0033860549739991586
1147.0, 0.0118507025394296
1148.0, 0.008010600961349378
1149.0, 0.0030245154451358945
1150.0, 0.008080023805633411
1151.0, 0.011510944387107437
1152.0, 0.0038970823528290616
1153.0, 0.0015948879852670254
1154.0, 0.010668572963509121
1155.0, 0.0063086141878865515
1156.0, 0.005053564557669895
1157.0, 0.011053061410993405
1158.0, 0.008288607116657345
1159.0, 0.0047824441263465784
1160.0, 0.0106287293197899
1161.0, 0.009655183886669623
1162.0, 0.0049960758474381665
1163.0, 0.008556467693384168
1164.0, 0.01849534683278144
1165.0, 0.006044749953795549
1166.0, 0.006324282333044425
1167.0, 0.010977100101235631
1168.0, 0.00841168339296275
1169.0, 0.0009472302738298601
1170.0, 0.012045943494368237
1171.0, 0.006893589038750196
1172.0, 0.0031137647199489735
1173.0, 0.00802415896742028
1174.0, 0.015680311967571085
1175.0, 0.003289551193556439
1176.0, 0.006068321193513164
1177.0, 0.009832693332690596
1178.0, 0.008483115019308533
1179.0, 0.003959459498670157
1180.0, 0.015906422739340422
1181.0, 0.007329410094196025
1182.0, 0.0053030882256217
1183.0, 0.010941166746100748
1184.0, 0.015183731363191393
1185.0, 0.0020904937837221355
1186.0, 0.01007951198085533
1187.0, 0.012860004744431504
1188.0, 0.007779786466176139
1189.0, 0.005090809818122361
1190.0, 0.013202357793099893
1191.0, 0.004529295797146826
1192.0, 0.006565970530495334
1193.0, 0.011968842329898437
1194.0, 0.00993283499758776
1195.0, 0.0026982115232166677
1196.0, 0.01143374371447843
1197.0, 0.008770183226474874
1198.0, 0.004735888256020216
1199.0, 0.009849636775644259
1200.0, 0.014402388255114962
1201.0, 0.005060880508044057
1202.0, 0.006164986652461838
1203.0, 0.016226754546280486
1204.0, 0.010736456990526088
1205.0, 0.008347250618236064
1206.0, 0.016199922036396724
1207.0, 0.013128015998518346
1208.0, 0.004241365118284733
1209.0, 0.010546662466903075
1210.0, 0.010824709267693718
1211.0, 0.007127391971468313
1212.0, 0.010921259695074447
1213.0, 0.016683193720404874
1214.0, 0.008743684091127463
1215.0, 0.010761328250169344
1216.0, 0.014718086497441718
1217.0, 0.012897556053315211
1218.0, 0.005595594747504037
1219.0, 0.014634432792605487
1220.0, 0.011617851493556604
1221.0, 0.009362935431653965
1222.0, 0.011969364717847913
1223.0, 0.01634509575408553
1224.0, 0.008476051179927897
1225.0, 0.013067265045491019
1226.0, 0.012667695994837606
1227.0, 0.009658750343051331
1228.0, 0.010492444662701387
1229.0, 0.02105915768373658
1230.0, 0.011616412973689785
1231.0, 0.013439100208852268
1232.0, 0.015043176512017803
1233.0, 0.013569580383647646
1234.0, 0.011184780285570912
1235.0, 0.01521460239274788
1236.0, 0.01625014280660726
1237.0, 0.010627432478920184
1238.0, 0.012609577034105013
1239.0, 0.01800830688366773
1240.0, 0.011936638755534837
1241.0, 0.010248652650041526
1242.0, 0.018602845386848574
1243.0, 0.013222760006666705
1244.0, 0.008900508559039486
1245.0, 0.014540348166609804
1246.0, 0.016691287150792815
1247.0, 0.008238988901959437
1248.0, 0.014315989478878681
1249.0, 0.016996841164789694
1250.0, 0.012519033347301142
1251.0, 0.007556068558858094
1252.0, 0.0200829546612391
1253.0, 0.009046070197306518
1254.0, 0.00897897462506724
1255.0, 0.014066630649970905
1256.0, 0.015355990051688986
1257.0, 0.008165613337991243
1258.0, 0.01757650673183043
1259.0, 0.0137645764811015
1260.0, 0.00817855869065577
1261.0, 0.011755250479998383
1262.0, 0.02057194955969821
1263.0, 0.007775404898623617
1264.0, 0.010764317762452827
1265.0, 0.014585064192950536
1266.0, 0.011040718428943592
1267.0, 0.00865259341345051
1268.0, 0.015803840831500545
1269.0, 0.015663014097021612
1270.0, 0.008737209708200706
1271.0, 0.013995216784220202
1272.0, 0.014831500935889289
1273.0, 0.010109115851198405
1274.0, 0.01167457310265793
1275.0, 0.019172267649998465
1276.0, 0.005946900509603642
1277.0, 0.01089432603449712
1278.0, 0.015791271979452275
1279.0, 0.008794914526281304
1280.0, 0.0012882586470607423
1281.0, 0.018888923398552023
1282.0, 0.012360511221278618
1283.0, 0.008015356190891592
1284.0, 0.012110470138714493
1285.0, 0.017817491111215732
1286.0, 0.006331813977266882
1287.0, 0.007495455497038756
1288.0, 0.0154257093125485
1289.0, 0.01257624906222833
1290.0, 0.009513295888759894
1291.0, 0.019216778530637635
1292.0, 0.012749494546362351
1293.0, 0.006146118027104691
1294.0, 0.010750386849659777
1295.0, 0.008631916197669086
1296.0, 0.003327105153532698
1297.0, 0.010724037807367137
1298.0, 0.014561312695568908
1299.0, 0.005118987262851064
1300.0, 0.00649903773836388
1301.0, 0.009111062397461272
1302.0, 0.006852606181437585
1303.0, 0.003964483573859954
1304.0, 0.01422897974780833
1305.0, 0.006349241444347642
1306.0, 0.0017244380795636402
1307.0, 0.0052102652068440666
1308.0, 0.01049671333782972
1309.0, 0.00331120286388623
1310.0, 0.00565973600578171
1311.0, 0.0067473518546655314
1312.0, 0.004751958678788432
1313.0, 0.00774254865937285
1314.0, 0.01447098170627555
1315.0, 0.0023428052346449405
1316.0, 0.0014552850801207362
1317.0, 0.007884561475207712
1318.0, 0.007232915737294718
1319.0, 0.003867803495971829
1320.0, 0.006275431157869835
1321.0, 0.012975060364279707
1322.0, 0.0028375125247246044
1323.0, 0.008946261133871581
1324.0, 0.01218685554835218
1325.0, 0.00823275816888209
1326.0, 0.003782360306087948
1327.0, 0.01158015167968336
1328.0, 0.005702638529551735
1329.0, 0.003920678677742578
1330.0, 0.010309697359254128
1331.0, 0.013161954252936734
1332.0, 0.003487434144710501
1333.0, 0.01186200445366168
1334.0, 0.009542535396800386
1335.0, 0.004995121497376399
1336.0, 0.008016273455401813
1337.0, 0.012536734065687359
1338.0, 0.0074430686128763145
1339.0, 0.00460484162044472
1340.0, 0.013056981604954804
1341.0, 0.008171967332869314
1342.0, 0.006699132349035824
1343.0, 0.012285649835622433
1344.0, 0.015146623516853589
1345.0, 0.0024798328876466293
1346.0, 0.009771490185901625
1347.0, 0.013094569218127902
1348.0, 0.008481619920844008
1349.0, 0.005639680345762293
1350.0, 0.014209353188800839
1351.0, 0.0043399466447211635
1352.0, 0.0054150705649938825
1353.0, 0.013443160248312722
1354.0, 0.011154390993984393
1355.0, 0.004459421223048568
1356.0, 0.010950489629467637
1357.0, 0.015473568827773579
1358.0, 0.005077897258516443
1359.0, 0.010882209493194572
1360.0, 0.013941438978576068
1361.0, 0.008631919871128003
1362.0, 0.005206718821539488
1363.0, 0.02025069901869261
1364.0, 0.009230926180670975
1365.0, 0.009806142516673963
1366.0, 0.013593503308243302
1367.0, 0.011744023851444726
1368.0, 0.004709006302154335
1369.0, 0.016253680543909823
1370.0, 0.011257381898772399
1371.0, 0.0037414920021334817
1372.0, 0.007997295480031604
1373.0, 0.01315356288125841
1374.0, 0.0036151185097450227
1375.0, 0.000559999337506096
1376.0, 0.007357221259421393
1377.0, 0.003976417374806149
1378.0, 0.006709773016805508
1379.0, 0.014177988696864059
1380.0, 0.014825690825419426
1381.0, 0.0009105540139140826
1382.0, 0.016311314455557453
1383.0, 0.015331657573564037
1384.0, 0.01110895855825525
1385.0, 0.013515770670453828
1386.0, 0.020548235180309127
1387.0, 0.011764013672130416
1388.0, 0.008390085774474598
1389.0, 0.01910109482628186
1390.0, 0.014317455531200072
1391.0, 0.008590704929618005
1392.0, 0.01596756337162325
1393.0, 0.01919821699842898
1394.0, 0.006467308969916019
1395.0, 0.016677992212428126
1396.0, 0.019423884433168902
1397.0, 0.012079128012657448
1398.0, 0.008048151136599548
1399.0, 0.02356326593625077
1400.0, 0.009773592043002679
1401.0, 0.012194797954728331
1402.0, 0.019454439677463374
1403.0, 0.013971971647269966
1404.0, 0.00412532014472482
1405.0, 0.0164109079952969
1406.0, 0.019495646908755826
1407.0, 0.009025725462279068
1408.0, 0.012892506048789209
1409.0, 0.017079267934178757
1410.0, 0.014033912290492268
1411.0, 0.010090772283444231
1412.0, 0.026342940915167947
1413.0, 0.013450401883226378
1414.0, 0.011904992358574356
1415.0, 0.018442382327411303
1416.0, 0.01802236664477584
1417.0, 0.00801740313789805
1418.0, 0.024467030835589
1419.0, 0.025765782772944064
1420.0, 0.02302501562967202
1421.0, 0.04118419491869987
1422.0, 0.05496555926403742
1423.0, 0.04623936298931747
1424.0, 0.03837086898412014
1425.0, 0.044098527459539544
1426.0, 0.0255363476884248
1427.0, 0.017384833079469954
1428.0, 0.01918140675870076
1429.0, 0.01792033080262467
1430.0, 0.005246130830515172
1431.0, 0.020395028680156455
1432.0, 0.016382896570755055
1433.0, 0.00685221956131147
1434.0, 0.010216886558214918
1435.0, 0.01644866460453564
1436.0, 0.007561812798200298
1437.0, 0.0016150779905640777
1438.0, 0.016104293489846405
1439.0, 0.009045219117659426
1440.0, 0.005320854752507921
1441.0, 0.013209930284699864
1442.0, 0.0203749869368681
1443.0, 0.0007893858137698016
1444.0, 0.01149940102076134
1445.0, 0.016405612997838895
1446.0, 0.008474898267393994
1447.0, 0.008836024379882531
1448.0, 0.016993487454371826
1449.0, 0.010611125929288518
1450.0, 0.005712404238039296
1451.0, 0.018836199076854902
1452.0, 0.012079177678327257
1453.0, 0.00450895009835677
1454.0, 0.008618562696041044
1455.0, 0.01785773489464062
1456.0, 0.0022006689286780696
1457.0, 0.01520272785626145
1458.0, 0.01500837942419629
1459.0, 0.007891915179573692
1460.0, 0.0093203725556125
1461.0, 0.018026120792764073
1462.0, 0.011675962072794978
1463.0, 0.0022731064469571254
1464.0, 0.01835853057823327
1465.0, 0.013390453371367716
1466.0, 0.008780887254524325
1467.0, 0.014364591628552437
1468.0, 0.01944587740265458
1469.0, 0.0036415790896400825
1470.0, 0.015029409055971967
1471.0, 0.018302101594807565
1472.0, 0.009555815372201286
1473.0, 0.009702619926214451
1474.0, 0.021178338888396903
1475.0, 0.012336823539387516
1476.0, 0.005972643968194214
1477.0, 0.019920493034186273
1478.0, 0.012623075355249716
1479.0, 0.007530107901478704
1480.0, 0.013462231874854274
1481.0, 0.017644074232388493
1482.0, 0.004219731388230582
1483.0, 0.014406156117886223
1484.0, 0.017104504372461648
1485.0, 0.008766415091562695
1486.0, 0.00813282979541944
1487.0, 0.018177978837811602
1488.0, 0.013836424658661715
1489.0, 0.0051392189276532
1490.0, 0.019227399928922414
1491.0, 0.01629469673154615
1492.0, 0.006439375139981726
1493.0, 0.00923840951293137
1494.0, 0.02459879516682165
1495.0, 0.0053529225891518
1496.0, 0.0070074851879224015
1497.0, 0.01915639729609813
1498.0, 0.010855910181041742
1499.0, 0.005759039138257007
1500.0, 0.015609729556437614
1501.0, 0.019665290576017267
1502.0, 0.0012645350526152427
1503.0, 0.015288805114450594
1504.0, 0.015445573552960383
1505.0, 0.008951208541562169
1506.0, 0.011789694019485666
1507.0, 0.023137434285118157
1508.0, 0.013518585395099215
1509.0, 0.006544400035127403
1510.0, 0.023929648702746425
1511.0, 0.014006390725662657
1512.0, 0.007164120595327782
1513.0, 0.014388044402696195
1514.0, 0.01735718560906167
1515.0, 8.374535745562725e-05
1516.0, 0.012572181697929273
1517.0, 0.013453084639928265
1518.0, 0.00577239869728163
1519, 0.0
1520, 0.0
1521, 0.0
1522, 0.0
1523, 0.0
1524, 0.0
1525, 0.0
1526, 0.0
1527, 0.0
1528, 0.0
1529, 0.0
1530, 0.0
1531, 0.0
1532, 0.0
1533, 0.0
1534, 0.0
1535, 0.0
1536, 0.0
1537, 0.0
1538, 0.0
1539, 0.0
1540, 0.0
1541, 0.0
1542, 0.0
1543, 0.0
1544, 0.0
1545, 0.0
1546, 0.0
1547, 0.0
1548, 0.0
1549, 0.0
1550, 0.0
1551, 0.0
1552, 0.0
1553, 0.0
1554, 0.0
1555, 0.0
1556, 0.0
1557, 0.0
1558, 0.0
1559, 0.0
1560, 0.0
1561, 0.0
1562, 0.0
1563, 0.0
1564, 0.0
1565, 0.0
1566, 0.0
1567, 0.0
1568, 0.0
1569, 0.0
1570, 0.0
1571, 0.0
1572, 0.0
1573, 0.0
1574, 0.0
1575, 0.0
1576, 0.0
1577, 0.0
1578, 0.0
1579, 0.0
1580, 0.0
1581, 0.0
1582, 0.0
1583, 0.0
1584, 0.0
1585, 0.0
1586, 0.0
1587, 0.0
1588, 0.0
1589, 0.0
1590, 0.0
1591, 0.0
1592, 0.0
1593, 0.0
1594, 0.0
1595, 0.0
1596, 0.0
1597, 0.0
1598, 0.0
1599, 0.0
