30, 0.0
31, 0.0
32, 0.0
33, 0.0
34, 0.0
35, 0.0
36, 0.0
37, 0.0
38, 0.0
39, 0.0
40, 0.0
41, 0.0
42, 0.0
43, 0.0
44, 0.0
45, 0.0
46, 0.0
47, 0.0
48, 0.0
49, 0.0
50, 0.0
51, 0.0
52, 0.0
53, 0.0
54, 0.0
55, 0.0
56, 0.0
57, 0.0
58, 0.0
59, 0.0
60, 0.0
61, 0.0
62, 0.0
63, 0.0
64, 0.0
65, 0.0
66, 0.0
67, 0.0
68, 0.0
69, 0.0
70, 0.0
71, 0.0
72, 0.0
73, 0.0
74, 0.0
75, 0.0
76, 0.0
77, 0.0
78, 0.0
79, 0.0
80, 0.0
81, 0.0
82, 0.0
83, 0.0
84, 0.0
85, 0.0
86, 0.0
87, 0.0
88, 0.0
89, 0.0
90, 0.0
91, 0.0
92.0, 0.00349796161450643
93.0, 0.006718004156505251
94.0, 0.006431441842735629
95.0, 0.004248889805685701
96.0, 0.002162444920645147
97.0, 0.0006800705890156334
98.0, 0.001581933734675495
99.0, 0.0037662074075619813
100.0, 0.006262064071140053
101.0, 0.00854415240614146
102.0, 0.006895471645366763
103.0, 0.005906822648375499
104.0, 0.005622244863670039
105.0, 0.005794879789345373
106.0, 0.006041905615157517
107.0, 0.006817071810731749
108.0, 0.00835794742576231
109.0, 0.008045750735281385
110.0, 0.008967498031904636
111.0, 0.01048438829432385
112.0, 0.011360611593366191
113.0, 0.012577547918936678
114.0, 0.014151580002585536
115.0, 0.016048878180200968
116.0, 0.017161431778390582
117.0, 0.01979392909276564
118.0, 0.022427152323684123
119.0, 0.022965398058547998
120.0, 0.026818217223348435
121.0, 0.030786627590771384
122.0, 0.03459856409450158
123.0, 0.040034223613935216
124.0, 0.04626256309499767
125.0, 0.053808949495544586
126.0, 0.06343336152097015
127.0, 0.07762880022690435
128.0, 0.09461700621110357
129.0, 0.11641283054564341
130.0, 0.1526860120342325
131.0, 0.19480202061477667
132.0, 0.2526146969748053
133.0, 0.3327447904450887
134.0, 0.43038487356031063
135.0, 0.5269422327740522
136.0, 0.6154849633892975
137.0, 0.6786316075654247
138.0, 0.6297775988193731
139.0, 0.5465575681541618
140.0, 0.4477258682642683
141.0, 0.3420122564019255
142.0, 0.2649315808890713
143.0, 0.20855890688427167
144.0, 0.1693559421449711
145.0, 0.14506749378708622
146.0, 0.13065880838077565
147.0, 0.12392327530243424
148.0, 0.11707087682924235
149.0, 0.12184416824501829
150.0, 0.13152913330583751
151.0, 0.14301722641625744
152.0, 0.1686644880081419
153.0, 0.19224102560574852
154.0, 0.21032070836810543
155.0, 0.21385246319448042
156.0, 0.2070945272194959
157.0, 0.19227140042199117
158.0, 0.17112253472899067
159.0, 0.16669025207642363
160.0, 0.15685815066293604
161.0, 0.14191293356994772
162.0, 0.12087699447941909
163.0, 0.09933441277734234
164.0, 0.07802310186768861
165.0, 0.05835996466178443
166.0, 0.046819083423647996
167.0, 0.0358362985954637
168.0, 0.02745546678481558
169.0, 0.022989682176433303
170.0, 0.01831204877692676
171.0, 0.01587021649584097
172.0, 0.014724428639698323
173.0, 0.013342108951674
174.0, 0.012226748729373751
175.0, 0.013322077090802556
176.0, 0.016540798153301933
177.0, 0.017386113111536528
178.0, 0.02387660529663304
179.0, 0.03304062800250086
180.0, 0.04306307230310175
181.0, 0.04808388265324677
182.0, 0.04874145439867513
183.0, 0.04474200559574986
184.0, 0.03416103247438101
185.0, 0.02759958144493378
186.0, 0.021693780491708066
187.0, 0.01570260061632104
188.0, 0.013292440401965509
189.0, 0.011828397929164602
190.0, 0.010764274130724609
191.0, 0.009600141941154234
192.0, 0.008674921102640778
193.0, 0.009502036787776745
194.0, 0.011389749904286763
195.0, 0.011408283459925063
196.0, 0.011006836296175417
197.0, 0.01104170218976756
198.0, 0.011812003460489422
199.0, 0.011561550969048947
200.0, 0.01114168369747032
201.0, 0.010995017903645656
202.0, 0.011761642282242121
203.0, 0.009726358487384665
204.0, 0.00946702757317761
205.0, 0.01036019076243835
206.0, 0.007533264407369836
207.0, 0.007350738331716781
208.0, 0.0075720738278252315
209.0, 0.007284024061853717
210.0, 0.007124054193811734
211.0, 0.010135849790697083
212.0, 0.01301040249653333
213.0, 0.011151183865531723
214.0, 0.015250293433525226
215.0, 0.019137839094518126
216.0, 0.022569682713408288
217.0, 0.027680242684700443
218.0, 0.030928825676945285
219.0, 0.031737840649420465
220.0, 0.02988445157876291
221.0, 0.0320883488059249
222.0, 0.03109461413315405
223.0, 0.0299318913596161
224.0, 0.03247804585351414
225.0, 0.031598115269906794
226.0, 0.03127500252022581
227.0, 0.03130843663891707
228.0, 0.02938129422043287
229.0, 0.026340673569924623
230.0, 0.023963139737333525
231.0, 0.022678460560153983
232.0, 0.017731316004766268
233.0, 0.015097519593010419
234.0, 0.013388517444721922
235.0, 0.011311406891598475
236.0, 0.01072731604265958
237.0, 0.009750467386718904
238.0, 0.008312956489474133
239.0, 0.006534751360924317
240.0, 0.007263736971921179
241.0, 0.007037226451727066
242.0, 0.005201933601105354
243.0, 0.005250309567312615
244.0, 0.005123740314617858
245.0, 0.004551202928965093
246.0, 0.0032650154443249696
247.0, 0.004438215264244157
248.0, 0.004054341151490337
249.0, 0.0033928192024149494
250.0, 0.005228616720280763
251.0, 0.0035963314285951615
252.0, 0.002545931368296034
253.0, 0.002684368525632962
254.0, 0.0033209989902341585
255.0, 0.002343766000287432
256.0, 0.0015643089580006677
257.0, 0.0018161466944640822
258.0, 0.0006470717932659539
259.0, 0.0005052317381056068
260.0, 0.000837205288076236
261.0, 0.001034930442796824
262.0, 0.001703108788595455
263.0, 0.0017874952779105657
264.0, 0.0017414523094095883
265.0, 0.0032197339538062213
266.0, 0.0025435143536656725
267.0, 0.002695284819125175
268.0, 0.004076780400486353
269.0, 0.0026802655259236855
270.0, 0.0026040280757476885
271.0, 0.0029590464818052362
272.0, 0.003199842838949481
273.0, 0.002336243266836429
274.0, 0.0016141701739472978
275.0, 0.0009386389575758043
276.0, 0.00015600292753688966
277.0, 0.0005189950900051231
278.0, 0.0007806109389667329
279.0, 0.0009123560066724831
280.0, 0.0013621510888939601
281.0, 0.001292855244906512
282.0, 0.0014836035993827468
283.0, 0.001982643931767046
284.0, 0.0005323583002887897
285.0, 0.001664611972985877
286.0, 0.002466114784773124
287.0, 0.000803913226623065
288.0, 0.0020870920260997483
289.0, 0.0018873859653603256
290.0, 0.0009249344574349041
291.0, 0.00032533381955779177
292.0, 0.00037309909879452546
293.0, 0.0006144215129552293
294.0, 0.001123929629470432
295.0, 0.0023808957333358574
296.0, 0.0017965369568139072
297.0, 0.0012001982180234393
298.0, 0.0011994847207071392
299.0, 0.002321780403300891
300.0, 0.001461460112636592
301.0, 0.0005629640187779399
302.0, 0.0008030374972144289
303.0, 0.0006294292003764339
304.0, 0.0003850440975702278
305.0, 0.0007149702650429918
306.0, 0.0025362032504456407
307.0, 0.0014263172981988591
308.0, 0.0015366882318874544
309.0, 0.00211261931804947
310.0, 0.0004210179332634858
311.0, 0.001084872206958779
312.0, 0.0013792538733626888
313.0, 0.0009115257645162566
314.0, 0.000670009722109526
315.0, 0.001089999869368539
316.0, 0.0015518544482730483
317.0, 0.0018450204063297484
318.0, 0.002772093332608974
319.0, 0.002176536012569967
320.0, 0.0016011373596370392
321.0, 0.0023083473446091933
322.0, 0.0014983209910441114
323.0, 0.0007757784394541369
324.0, 0.0008104748475945749
325.0, 0.0027059528240149823
326.0, 0.0017679722242401042
327.0, 0.0007999267190882478
328.0, 0.0003734634684852228
329.0, 0.0013608158534365604
330.0, 0.000846125762295499
331.0, 0.0010078552256716866
332.0, 0.0018452513693014592
333.0, 0.0005435405236990181
334.0, 0.000759286263324167
335.0, 0.0009047327915231516
336.0, 0.0004761296913417018
337.0, 0.001846354181738538
338.0, 0.0017296594871798422
339.0, 0.001088652723600957
340.0, 0.0006000573624488871
341.0, 0.00168010580642846
342.0, 0.0011831798104367673
343.0, 0.0008844378596758427
344.0, 0.0031615223765239214
345.0, 0.0010754232719256134
346.0, 0.0012443760041508877
347.0, 0.002504118897797588
348.0, 0.0013637083570828125
349.0, 0.0011293399641053145
350.0, 0.0018297831651394544
351.0, 0.0027058688820698453
352.0, 0.0008762896688920113
353.0, 0.0017173416486943702
354.0, 0.0019053306779311095
355.0, 0.0009758869418105429
356.0, 0.0024941959111242124
357.0, 0.0032664726422007564
358.0, 0.0026153698961299482
359.0, 0.0004875635795205174
360.0, 0.0022820969371944305
361.0, 0.0025170784226096316
362.0, 0.0020778364523139753
363.0, 0.0015991575899577037
364.0, 0.0025106238145464386
365.0, 0.002564839285942909
366.0, 0.002560191535336399
367.0, 0.003472360577920882
368.0, 0.0026238255629107777
369.0, 0.0020756679892509336
370.0, 0.0020008640153787076
371.0, 0.002567420821758897
372.0, 0.0016619834735881467
373.0, 0.002261501089871749
374.0, 0.003661598477690558
375.0, 0.002899863106301671
376.0, 0.003639107812528089
377.0, 0.002999977487122977
378.0, 0.0012482980348761065
379.0, 0.0021479571621817674
380.0, 0.0025105022848034273
381.0, 0.002103240747577494
382.0, 0.0013555421132618688
383.0, 0.00391893780881207
384.0, 0.002492015065305506
385.0, 0.0013937240549639902
386.0, 0.0024014695792668023
387.0, 0.002234501603920129
388.0, 0.0023573163971144524
389.0, 0.003038044929620844
390.0, 0.004368700219092989
391.0, 0.0022320111499330194
392.0, 0.0026542264127358828
393.0, 0.0033304519856564617
394.0, 0.0021230259154746208
395.0, 0.0011485742541210975
396.0, 0.001566043777025518
397.0, 0.0020352687665257793
398.0, 0.0007852901315531443
399.0, 0.0026769165123864676
400.0, 0.0019697501434650937
401.0, 0.0006145797931898041
402.0, 0.0025236136220703614
403.0, 0.003789207753492514
404.0, 0.003600863675551357
405.0, 0.0029481809787226046
406.0, 0.004294518429192427
407.0, 0.002761863177518626
408.0, 0.0026987877319118937
409.0, 0.003740139855900796
410.0, 0.002752722934739398
411.0, 0.0025212614270683905
412.0, 0.003064307299644728
413.0, 0.003763395346021691
414.0, 0.0020800961892130172
415.0, 0.0032613659268441765
416.0, 0.003565471937989954
417.0, 0.0024913478244627794
418.0, 0.0030941684556026108
419.0, 0.0033942681409341014
420.0, 0.002950627491250132
421.0, 0.0021693606711861214
422.0, 0.005242559251644286
423.0, 0.003781634282064728
424.0, 0.002129953290145954
425.0, 0.002135451202573484
426.0, 0.0027052256911265964
427.0, 0.0027317312238906146
428.0, 0.0027161907907319086
429.0, 0.0028057497977995475
430.0, 0.0011729615829985812
431.0, 0.002862404648186608
432.0, 0.0038135247790063867
433.0, 0.0015620775177386894
434.0, 0.0013130548842754956
435.0, 0.0016964172593219844
436.0, 0.001654234916231384
437.0, 0.00045933243179930574
438.0, 0.0027309917375753327
439.0, 0.0018080814270338926
440.0, 0.0006304499605507172
441.0, 0.001817730976998132
442.0, 0.002919636574088999
443.0, 0.0021545275168441008
444.0, 0.00138851101546128
445.0, 0.0025476515758847637
446.0, 0.0016215145651413143
447.0, 0.0021176292504848666
448.0, 0.002424508765212909
449.0, 0.0006152181734707051
450.0, 0.0014160656463232928
451.0, 0.0021468823723241595
452.0, 0.002159286765604499
453.0, 0.000679434123844343
454.0, 0.0031188043010474775
455.0, 0.0027471943752355368
456.0, 0.0012410496215846387
457.0, 0.0012388277828566873
458.0, 0.0025464716823092124
459.0, 0.001800606304317646
460.0, 0.0012320133196351301
461.0, 0.004411115193621628
462.0, 0.002748122707564544
463.0, 0.001841063751741126
464.0, 0.0019198517202384064
465.0, 0.0028768530166156706
466.0, 0.0010639696079507337
467.0, 0.0014175300755046498
468.0, 0.0026181668428012163
469.0, 0.002013835501319713
470.0, 0.00310082792679739
471.0, 0.00253283905544117
472.0, 0.0011111846486663937
473.0, 0.0005341239418841561
474.0, 0.0020627036778422684
475.0, 0.0016825834598221516
476.0, 0.0009003040236204227
477.0, 0.002730597712973999
478.0, 0.002585612209688309
479.0, 0.0020325743065241196
480.0, 0.001617272895888772
481.0, 0.0020626667317311174
482.0, 0.0025595962443794654
483.0, 0.002833823816784717
484.0, 0.0023596610543075913
485.0, 0.00027932509023157544
486.0, 0.0011321668006864325
487.0, 0.0017418095142626494
488.0, 0.0016360315958108187
489.0, 0.00038422441856263145
490.0, 0.002581588390809017
491.0, 0.0023187234008303454
492.0, 0.0013604171839013356
493.0, 0.0028424524137153915
494.0, 0.0026425454121560047
495.0, 0.0014230208397172364
496.0, 0.0010263600049771177
497.0, 0.003999186232773051
498.0, 0.001961361866727034
499.0, 0.0014371809750347315
500.0, 0.0018158944316297749
501.0, 0.0019790309150751434
502.0, 0.0020054959936881456
503.0, 0.0028674798611200494
504.0, 0.002919963940380768
505.0, 0.00020316282877696828
506.0, 0.00205788779544281
507.0, 0.001445171729324353
508.0, 0.0001627509382377068
509.0, 0.0002008912703401161
510.0, 0.0022482714638103274
511.0, 0.0014943987000094834
512.0, 0.0007427190342991968
513.0, 0.002519675594416442
514.0, 0.0010443016952657721
515.0, 0.002193781303972478
516.0, 0.0031182162260285948
517.0, 0.001628399108099257
518.0, 0.0014798768768474458
519.0, 0.0023391640628817986
520.0, 0.0024535706311922924
521.0, 0.0008395325304547689
522.0, 0.0015500399539182725
523.0, 0.0025893555424219986
524.0, 0.0027146016572060757
525.0, 0.0015444948563509422
526.0, 0.0030853519541157184
527.0, 0.001645710054511853
528.0, 0.0008143372695399755
529.0, 0.0020459065726629627
530.0, 0.0027847353879303927
531.0, 0.002208038305973912
532.0, 0.0016324592396707548
533.0, 0.0015005952098675454
534.0, 0.001295066748508103
535.0, 0.0025177690967005143
536.0, 0.002450688039588867
537.0, 0.0009919492791627812
538.0, 0.0016042456442502614
539.0, 0.004224577415134197
540.0, 0.0037219446955397348
541.0, 0.0011150180545402954
542.0, 0.004182313668607043
543.0, 0.0023296355652072634
544.0, 0.0019056619249617724
545.0, 0.0031283125521838137
546.0, 0.0035003093115772706
547.0, 0.002545145637081969
548.0, 0.0036028106165079433
549.0, 0.004865699409851428
550.0, 0.0019187739010264667
551.0, 0.0016611455979106417
552.0, 0.0017290728268492734
553.0, 0.0018229396599857533
554.0, 0.0017875660080402581
555.0, 0.004272292370589385
556.0, 0.0032716709954788577
557.0, 0.0016630646878388418
558.0, 0.0029209847712898225
559.0, 0.002514721115262072
560.0, 0.0015187406088142893
561.0, 0.001667321828158134
562.0, 0.004128166994068589
563.0, 0.0022651528917099883
564.0, 0.0017392231669808619
565.0, 0.001579886039900447
566.0, 0.0011833062720042495
567.0, 0.0005918276539700097
568.0, 0.002411933940265361
569.0, 0.0029425207199012013
570.0, 0.00131928607361283
571.0, 0.0023564656931439904
572.0, 0.002397942298345154
573.0, 0.0021542581471802585
574.0, 0.002077808633625895
575.0, 0.0030581029390884793
576.0, 0.0012457429628344372
577.0, 0.0008662010061467088
578.0, 0.0017482601663477864
579.0, 0.0012120747122423459
580.0, 0.0017808766287487465
581.0, 0.0030710727890935876
582.0, 0.003489657924355773
583.0, 0.0003420898352245519
584.0, 0.00326562210449714
585.0, 0.0026926252707512952
586.0, 0.001035302137276953
587.0, 0.0017884919068516792
588.0, 0.0028696645153107265
589.0, 0.0015921020352502562
590.0, 0.001196339983474806
591.0, 0.0038930829402931497
592.0, 0.002108309012013308
593.0, 0.0008507470519244887
594.0, 0.0014813693879796074
595.0, 0.0038639821740632375
596.0, 0.0016678506148572177
597.0, 0.0030159152060650614
598.0, 0.002908048534775008
599.0, 0.0009173661949974959
600.0, 0.0023963117910998167
601.0, 0.0022915796990670366
602.0, 0.0013737863326832038
603.0, 0.0009010855650462861
604.0, 0.0035707006736104925
605.0, 0.0019199338662923638
606.0, 0.0022056599610535896
607.0, 0.003325601000680162
608.0, 0.0025606682233344207
609.0, 0.0023345824860713286
610.0, 0.0023692960488158406
611.0, 0.0020248520997737467
612.0, 0.0008135667705928817
613.0, 0.001960061797747331
614.0, 0.003015899934770933
615.0, 0.002811107224971946
616.0, 0.0011613351239150643
617.0, 0.002349645536431757
618.0, 0.0012962541739047224
619.0, 0.0015989889930028308
620.0, 0.0032166396443756885
621.0, 0.0006479741176370268
622.0, 0.0010128633229674663
623.0, 0.0016513535445092215
624.0, 0.0017058129433054712
625.0, 0.00046282575301234035
626.0, 0.0019231405745647682
627.0, 0.0021354617977297785
628.0, 0.001648669706861606
629.0, 0.0016775568317724569
630.0, 0.0034138252028655513
631.0, 0.002492131529615554
632.0, 0.0016665810468455247
633.0, 0.0028243127757623856
634.0, 0.0010215742932624442
635.0, 0.0009983645326896086
636.0, 0.0016985442586173005
637.0, 0.002200387554879094
638.0, 0.0003332128839747989
639.0, 0.0029166959705570882
640.0, 0.003001030266787947
641.0, 0.0006020082682361174
642.0, 0.00031408804222654986
643.0, 0.0036233354961215107
644.0, 0.0030160646831594133
645.0, 0.001506264911054936
646.0, 0.004589726695481721
647.0, 0.0024893530930978403
648.0, 0.0030655907329780285
649.0, 0.003924397702204462
650.0, 0.0030557787148566638
651.0, 0.0012510148125325703
652.0, 0.003494637191901895
653.0, 0.003960423350183052
654.0, 0.0013235297323848966
655.0, 0.0015195403034498848
656.0, 0.002451291913530652
657.0, 0.002607388220198368
658.0, 0.0022936685370356547
659.0, 0.002975724915856666
660.0, 0.0027820078574057935
661.0, 0.003146851697618166
662.0, 0.003420951798292102
663.0, 0.0027076230384296663
664.0, 0.0018148165337955888
665.0, 0.0027937547495706923
666.0, 0.003152652136030313
667.0, 0.0018156473058462542
668.0, 0.003055534647731882
669.0, 0.0037201779863618822
670.0, 0.0025739812014333504
671.0, 0.0008356040639575361
672.0, 0.003593434582194673
673.0, 0.003549661870732717
674.0, 0.003700949023406498
675.0, 0.0041402943410774155
676.0, 0.004369093894000436
677.0, 0.003265610718014909
678.0, 0.004320647632588192
679.0, 0.004577277579726133
680.0, 0.0020857457968828244
681.0, 0.002078705477290293
682.0, 0.004301613308941856
683.0, 0.004569754604422217
684.0, 0.0029648608355419383
685.0, 0.005995931467740045
686.0, 0.0075031995152995325
687.0, 0.012450979878688
688.0, 0.02348638601135346
689.0, 0.04346961472249956
690.0, 0.05617942030461106
691.0, 0.06452987268095917
692.0, 0.06358677153321361
693.0, 0.05086712061841838
694.0, 0.04440984612422834
695.0, 0.043059583001064626
696.0, 0.035676226196648966
697.0, 0.021939707728599756
698.0, 0.017660273424539897
699.0, 0.013735026324959664
700.0, 0.013112176603186906
701.0, 0.014275255247507952
702.0, 0.013892159179101592
703.0, 0.006988487455771835
704.0, 0.00491090765247463
705.0, 0.004460289113186716
706.0, 0.003084258849947164
707.0, 0.003534717634498475
708.0, 0.004041871406449475
709.0, 0.0032186983582833924
710.0, 0.0020222645441099756
711.0, 0.005020019265162686
712.0, 0.004126958879368979
713.0, 0.0034152999388354314
714.0, 0.0034332151982606916
715.0, 0.004158539381805669
716.0, 0.003387591792351328
717.0, 0.003689119638067413
718.0, 0.003448980510882482
719.0, 0.0021690650835658708
720.0, 0.003283834064770832
721.0, 0.0035286449442969467
722.0, 0.002166917902007536
723.0, 0.0010337296157774786
724.0, 0.004749530697351725
725.0, 0.003594368957107461
726.0, 0.003524846395472704
727.0, 0.004555969668330297
728.0, 0.005974195662747868
729.0, 0.0035697567064921316
730.0, 0.004097790360762085
731.0, 0.004386694564952188
732.0, 0.0034297820108868194
733.0, 0.002789595702363105
734.0, 0.005652426236000635
735.0, 0.003955479060647131
736.0, 0.0012217771972245232
737.0, 0.004428757228806532
738.0, 0.0029702912211633605
739.0, 0.001981157573597751
740.0, 0.003168825563094639
741.0, 0.006077405763013825
742.0, 0.001465402770703343
743.0, 0.003901694478469256
744.0, 0.003951794827540089
745.0, 0.0019467537665329316
746.0, 0.0035498179476898036
747.0, 0.005692758903822751
748.0, 0.003970826261297847
749.0, 0.002674865448000209
750.0, 0.004986458948242027
751.0, 0.003263094456561851
752.0, 0.0018373345677603402
753.0, 0.00237777415557007
754.0, 0.003595502851623668
755.0, 0.0003670623140371531
756.0, 0.0035232548445384175
757.0, 0.003371998845211156
758.0, 0.0019995166925209245
759.0, 0.0026977334382256926
760.0, 0.005359691781250843
761.0, 0.0028584382875873407
762.0, 0.0020922738718126294
763.0, 0.004376826259962041
764.0, 0.0037783164104789758
765.0, 0.00230909499719639
766.0, 0.0032591211318332364
767.0, 0.003927627701375082
768.0, 0.0007130363621812798
769.0, 0.0027537010189550466
770.0, 0.003942487729056406
771.0, 0.0032622436148787913
772.0, 0.0018174655303971655
773.0, 0.005887967890321094
774.0, 0.003910126545541523
775.0, 0.002875788180263249
776.0, 0.0031742041293194244
777.0, 0.0036960267175790698
778.0, 0.0008446253883799765
779.0, 0.0028888591400737357
780.0, 0.004104881982288238
781.0, 0.0024274333004852765
782.0, 0.0025076259509443114
783.0, 0.004289584238227468
784.0, 0.003022614064465971
785.0, 0.001894477634557694
786.0, 0.0062063793891995525
787.0, 0.0015955781635780576
788.0, 0.0016899218042833006
789.0, 0.0030298022416430327
790.0, 0.0032309481763347627
791.0, 0.0005479390929501514
792.0, 0.003342295237176712
793.0, 0.002842120823986683
794.0, 0.0009438660104064346
795.0, 0.002142804019648939
796.0, 0.004804944413828876
797.0, 0.002511865655716836
798.0, 0.0019680417658822337
799.0, 0.0046196478562807435
800.0, 0.0029641570039929486
801.0, 0.003061880598009777
802.0, 0.004621141888356234
803.0, 0.004852595780522868
804.0, 0.000942777172776129
805.0, 0.002868949746180606
806.0, 0.002244280693698397
807.0, 0.0010619042550047719
808.0, 0.0008313160030803191
809.0, 0.0034146090871512314
810.0, 0.0012697612697515192
811.0, 0.0015184579195315188
812.0, 0.0030382196734151067
813.0, 0.003686760083274866
814.0, 0.0018819846982267455
815.0, 0.0035282070745452747
816.0, 0.0037263051092873076
817.0, 0.0026883910351239272
818.0, 0.005240700225297343
819.0, 0.0032795202030740556
820.0, 0.001823777518227388
821.0, 0.001891827871293268
822.0, 0.0033637332001323107
823.0, 0.0014110104959554294
824.0, 0.0016659906742221083
825.0, 0.0024172771332158765
826.0, 0.0026117429604443306
827.0, 0.0012076680582363297
828.0, 0.005354331230718272
829.0, 0.004204422222650696
830.0, 0.002453442652683925
831.0, 0.0029293255211675657
832.0, 0.0041777405344614734
833.0, 0.0029919372715432268
834.0, 0.003010801659286852
835.0, 0.003511807530421182
836.0, 0.0028009612907555752
837.0, 0.0019970378559931914
838.0, 0.0036267666117531508
839.0, 0.0034024070692835018
840.0, 0.0017538235616544567
841.0, 0.005145506213373317
842.0, 0.002779330750509402
843.0, 0.0023827099557653768
844.0, 0.0034661489435496304
845.0, 0.004494764027972342
846.0, 0.0018471261879761996
847.0, 0.0022191387489684774
848.0, 0.0029879101448305784
849.0, 0.002958070369407547
850.0, 0.0013310676431577437
851.0, 0.0036516304280550917
852.0, 0.003230313202677464
853.0, 0.002212764296377811
854.0, 0.0020607414817249083
855.0, 0.003361731611229401
856.0, 0.0013736994121953375
857.0, 0.0023024098975246597
858.0, 0.003937233960899248
859.0, 0.0031906399875567333
860.0, 0.00244050820280312
861.0, 0.004389989107477292
862.0, 0.0036055037559464456
863.0, 0.001221635463441495
864.0, 0.0031152529594605646
865.0, 0.0025627778703903588
866.0, 0.002165864011783467
867.0, 0.0024905467732896547
868.0, 0.0031729915089188957
869.0, 0.0013944616330853169
870.0, 0.0035244897505411826
871.0, 0.0031642101368822796
872.0, 0.0016507613834104984
873.0, 0.0017066220710531214
874.0, 0.004623291842914412
875.0, 0.0034865031960723764
876.0, 0.0038035763226702355
877.0, 0.004848006622491853
878.0, 0.0015964365399861067
879.0, 0.0010496553209957044
880.0, 0.0030196212492035724
881.0, 0.003243628868495933
882.0, 0.0011518062732729934
883.0, 0.004481524188268112
884.0, 0.0034636467637505527
885.0, 0.0029001805701537385
886.0, 0.0033562411745013386
887.0, 0.004251634843596893
888.0, 0.0010914924486645427
889.0, 0.002937346135024162
890.0, 0.004806125348147777
891.0, 0.004440634400846168
892.0, 0.0006899565374699772
893.0, 0.004047896547459008
894.0, 0.00324769168584073
895.0, 0.0018307558049610575
896.0, 0.0022359260219767026
897.0, 0.006188490498898202
898.0, 0.002260981565096255
899.0, 0.002950953649049684
900.0, 0.004154364641382851
901.0, 0.002442683816112605
902.0, 0.0012393555684954952
903.0, 0.004761576192079732
904.0, 0.004332786346118221
905.0, 0.0026311449890153095
906.0, 0.0044946463477806425
907.0, 0.0038823255805604806
908.0, 0.003130548341212025
909.0, 0.0036905996025338225
910.0, 0.004732009973206404
911.0, 0.0038216217147040476
912.0, 0.0017351849940495066
913.0, 0.004511608700781928
914.0, 0.004787272336617912
915.0, 0.0015812352263289702
916.0, 0.00391907064924112
917.0, 0.00459872955096148
918.0, 0.0044713429820344925
919.0, 0.0043021742975776255
920.0, 0.004114029099401499
921.0, 0.0011030416684065097
922.0, 0.0034470153663421137
923.0, 0.004277840132104727
924.0, 0.0035588055765173768
925.0, 0.0029957839243609664
926.0, 0.006368291898022108
927.0, 0.003697265873694651
928.0, 0.0023883862848481825
929.0, 0.0037661975229723293
930.0, 0.006231859536633773
931.0, 0.0027869352039134264
932.0, 0.005794512876829036
933.0, 0.006127875106342019
934.0, 0.003226450463985134
935.0, 0.004827272162169386
936.0, 0.006284849070363739
937.0, 0.00294682285157372
938.0, 0.0022742748134030526
939.0, 0.005634076974851461
940.0, 0.00234736528307605
941.0, 0.0037307454695960553
942.0, 0.005678099224713306
943.0, 0.00520934274145714
944.0, 0.002197342129503105
945.0, 0.006174868092901102
946.0, 0.004493974787990799
947.0, 0.003553455890683279
948.0, 0.004435298620586926
949.0, 0.0061612912038648835
950.0, 0.0009487663913000503
951.0, 0.002557565243670976
952.0, 0.004972063598470971
953.0, 0.0052708974863333495
954.0, 0.002288458292459814
955.0, 0.006419115602426717
956.0, 0.004492052281039093
957.0, 0.003218908128049394
958.0, 0.004284812930370602
959.0, 0.006500586426721258
960.0, 0.0030328354644182983
961.0, 0.004803982656075337
962.0, 0.004505894051552098
963.0, 0.0019194151052440028
964.0, 0.0033757332794128797
965.0, 0.005279438268361526
966.0, 0.0032797566449918694
967.0, 0.002925479802825847
968.0, 0.005313102663778715
969.0, 0.005137126976015575
970.0, 0.00211890226069569
971.0, 0.004133938670256332
972.0, 0.005224488707069856
973.0, 0.0029800589007398983
974.0, 0.0033983819202128996
975.0, 0.00685923028477094
976.0, 0.0041427339544237145
977.0, 0.0020965452226222245
978.0, 0.004616806128335024
979.0, 0.003331037715669701
980.0, 0.0010313641116030691
981.0, 0.0028779687665242593
982.0, 0.0040148385109707845
983.0, 0.0011155390356884624
984.0, 0.0020418801814585876
985.0, 0.004410644199664566
986.0, 0.0031899281058612727
987.0, 0.0026802984571417223
988.0, 0.006180223199882633
989.0, 0.0025776354277228623
990.0, 0.0015479443641541286
991.0, 0.0035220241873841437
992.0, 0.004209906005991701
993.0, 0.0005674317366697068
994.0, 0.00574667458566371
995.0, 0.0041448272862087444
996.0, 0.0023664955961160473
997.0, 0.00307660029486922
998.0, 0.006454564672722046
999.0, 0.0018064815779733666
1000.0, 0.004006208780243901
1001.0, 0.005649946390341478
1002.0, 0.004301185659386452
1003.0, 0.0005221529234122105
1004.0, 0.00706156392170576
1005.0, 0.004608867368462793
1006.0, 0.004023890995555649
1007.0, 0.005368775759088796
1008.0, 0.004720330345396388
1009.0, 0.0017057513013492974
1010.0, 0.004313751135060938
1011.0, 0.005033909557181358
1012.0, 0.0036065169678986563
1013.0, 0.0030830113538283135
1014.0, 0.008236052976895284
1015.0, 0.0041814990872798856
1016.0, 0.004614655420116778
1017.0, 0.006916831783389356
1018.0, 0.0025997948310408697
1019.0, 0.0030191461593697694
1020.0, 0.004409632975549457
1021.0, 0.0041262555517075795
1022.0, 0.0037276056236585087
1023.0, 0.006177658097480764
1024.0, 0.007797335131854138
1025.0, 0.00526900064205679
1026.0, 0.0060643200322695896
1027.0, 0.00784424617142207
1028.0, 0.0050965145881534816
1029.0, 0.005663930582344721
1030.0, 0.007053636677318457
1031.0, 0.00461435113052556
1032.0, 0.0027206578800862977
1033.0, 0.007692434264773704
1034.0, 0.008570686697321266
1035.0, 0.004842871196072217
1036.0, 0.00585827027010315
1037.0, 0.00829981861316538
1038.0, 0.006183417703991169
1039.0, 0.010169885936961068
1040.0, 0.013169510695934862
1041.0, 0.010546589946834991
1042.0, 0.007743314876570728
1043.0, 0.010711883573617312
1044.0, 0.007236925918989863
1045.0, 0.007746490168041466
1046.0, 0.010108036027440908
1047.0, 0.011155866454939855
1048.0, 0.009225082015032329
1049.0, 0.011740288353096522
1050.0, 0.01255341720334864
1051.0, 0.012229795972992135
1052.0, 0.014176223644946438
1053.0, 0.019710327181128428
1054.0, 0.019836002025341956
1055.0, 0.025739018152019497
1056.0, 0.03915387469296364
1057.0, 0.0696751863073893
1058.0, 0.16491257123531217
1059.0, 0.49189102187449973
1060.0, 0.8741738664166194
1061.0, 0.9903562592272904
1062.0, 0.7929190861603311
1063.0, 0.39303824575023344
1064.0, 0.15886096176641318
1065.0, 0.0775384968344203
1066.0, 0.04306039673278574
1067.0, 0.025253876037381922
1068.0, 0.012832905021977897
1069.0, 0.01746160811807972
1070.0, 0.01227086899303345
1071.0, 0.009452702589945306
1072.0, 0.010186858071251265
1073.0, 0.011217134913924173
1074.0, 0.0050867927527109376
1075.0, 0.008063668894130845
1076.0, 0.00988805996265247
1077.0, 0.007569311301918382
1078.0, 0.004939330860394291
1079.0, 0.009803485428783523
1080.0, 0.006461337059240995
1081.0, 0.004808480264303646
1082.0, 0.006616029343891571
1083.0, 0.007848418437326555
1084.0, 0.0035544179146903302
1085.0, 0.007285710586491958
1086.0, 0.0075979329328013075
1087.0, 0.005265609227761068
1088.0, 0.004286852219440731
1089.0, 0.00731757434087835
1090.0, 0.005326542116096385
1091.0, 0.004409191670484789
1092.0, 0.005570640017931029
1093.0, 0.0051062082230926495
1094.0, 0.0022383854291058345
1095.0, 0.007031441465924326
1096.0, 0.005520277224459372
1097.0, 0.0033196705326840516
1098.0, 0.005260905624021862
1099.0, 0.00916865921423906
1100.0, 0.0015865881073621546
1101.0, 0.0061066462182393965
1102.0, 0.007889088723239845
1103.0, 0.0052761216341680305
1104.0, 0.002558434991354014
1105.0, 0.008489465433724199
1106.0, 0.006340593063581376
1107.0, 0.004559587822486598
1108.0, 0.006808660718750078
1109.0, 0.008262362629996606
1110.0, 0.0022262887794633527
1111.0, 0.006725148567464942
1112.0, 0.007386819782528126
1113.0, 0.004492034005210268
1114.0, 0.004029526824277572
1115.0, 0.009022936487838425
1116.0, 0.004000603608684646
1117.0, 0.0036224535835265408
1118.0, 0.006568975955362638
1119.0, 0.006569279891277672
1120.0, 0.0026094895148099204
1121.0, 0.005486606975703796
1122.0, 0.005842634412734845
1123.0, 0.003010456696374999
1124.0, 0.00377857785644921
1125.0, 0.007106471383917595
1126.0, 0.004222824091606073
1127.0, 0.0032835931180884067
1128.0, 0.004507806575771297
1129.0, 0.002879896534962796
1130.0, 0.0015924745320033103
1131.0, 0.0058907822407330895
1132.0, 0.005208310159097335
1133.0, 0.002432456670131408
1134.0, 0.005406190566756358
1135.0, 0.006962390729360635
1136.0, 0.002161944365296089
1137.0, 0.0033412151687049214
1138.0, 0.005371199006841465
1139.0, 0.0037281410080813454
1140.0, 0.00406737176700221
1141.0, 0.006840726189886853
1142.0, 0.004524560389209658
1143.0, 0.001581298326087583
1144.0, 0.005855695513746127
1145.0, 0.005004022030250859
1146.0, 0.0018482683452175745
1147.0, 0.0061799058005092685
1148.0, 0.0035672274970558948
1149.0, 0.001202482324302256
1150.0, 0.005142548342189931
1151.0, 0.0073078982507892845
1152.0, 0.0018948426211283075
1153.0, 0.0016966472902165569
1154.0, 0.00818965762132643
1155.0, 0.004669442593993201
1156.0, 0.002420784628455544
1157.0, 0.005916495856710782
1158.0, 0.007568548371582003
1159.0, 0.002507508219582741
1160.0, 0.006741717866758704
1161.0, 0.007081800347911407
1162.0, 0.003604328577389578
1163.0, 0.0033921715674120616
1164.0, 0.009776510198095997
1165.0, 0.0037695896407572145
1166.0, 0.003144540216009551
1167.0, 0.005956073175718576
1168.0, 0.006664116495677723
1169.0, 0.0013494972090708087
1170.0, 0.006956195508605813
1171.0, 0.00548803654468569
1172.0, 0.0032003803338671436
1173.0, 0.0043741495652562514
1174.0, 0.00910132396948569
1175.0, 0.0020608307695640054
1176.0, 0.003978881176149593
1177.0, 0.007746401194067591
1178.0, 0.007427394807286033
1179.0, 0.002451737015903707
1180.0, 0.009099681264443809
1181.0, 0.004525954005002827
1182.0, 0.0036027636948813744
1183.0, 0.006867586464588433
1184.0, 0.009519673771250077
1185.0, 0.003215527952817142
1186.0, 0.007272865485930514
1187.0, 0.009419565721328673
1188.0, 0.006404553023725258
1189.0, 0.0046205096179936485
1190.0, 0.010062201991802282
1191.0, 0.006198901472039265
1192.0, 0.004670956766703079
1193.0, 0.007236279058466636
1194.0, 0.006081767356417597
1195.0, 0.0016123001026999342
1196.0, 0.0077809615222005635
1197.0, 0.006359031353826074
1198.0, 0.002755734951388931
1199.0, 0.0056322595962497906
1200.0, 0.009320836121870587
1201.0, 0.004567055727631538
1202.0, 0.0038917800984486894
1203.0, 0.010881126146081496
1204.0, 0.007341066084375171
1205.0, 0.0048994029044177965
1206.0, 0.009010089167867887
1207.0, 0.008149326334494172
1208.0, 0.0038153603105132846
1209.0, 0.008734967179189371
1210.0, 0.008729019417340403
1211.0, 0.005286108272812226
1212.0, 0.006608812872209522
1213.0, 0.011282942400678047
1214.0, 0.006289904342113567
1215.0, 0.008409463456428136
1216.0, 0.011259860633396256
1217.0, 0.009575331017451309
1218.0, 0.004982825692246911
1219.0, 0.009348319348738664
1220.0, 0.009052730852047426
1221.0, 0.008409843373948686
1222.0, 0.010231636895703812
1223.0, 0.013633982425890917
1224.0, 0.006830505235658165
1225.0, 0.007250264225871134
1226.0, 0.007598590189758785
1227.0, 0.007009250630986534
1228.0, 0.007941458260500626
1229.0, 0.014243630538167837
1230.0, 0.008046185384286244
1231.0, 0.007948708099687904
1232.0, 0.008244670163745804
1233.0, 0.007773557709572756
1234.0, 0.0074504778796953275
1235.0, 0.009516425770317215
1236.0, 0.010845906538494618
1237.0, 0.0071960032281055296
1238.0, 0.008842519814838742
1239.0, 0.012921633578529755
1240.0, 0.008977740836796283
1241.0, 0.009205223640509986
1242.0, 0.012395885623723731
1243.0, 0.010008516798203318
1244.0, 0.008045291434353844
1245.0, 0.01042408782457502
1246.0, 0.012674345424605939
1247.0, 0.00614506542669882
1248.0, 0.008927791294631778
1249.0, 0.010574195977581127
1250.0, 0.0083702673663139
1251.0, 0.006146374935407244
1252.0, 0.016816504305768837
1253.0, 0.00746560157337416
1254.0, 0.007562582258518931
1255.0, 0.010303801655861113
1256.0, 0.010152242863256219
1257.0, 0.007162398470451688
1258.0, 0.011534043626109512
1259.0, 0.008181115047333182
1260.0, 0.005839287678545227
1261.0, 0.0093252708948461
1262.0, 0.015037833184886683
1263.0, 0.00796019066673219
1264.0, 0.008485555468442391
1265.0, 0.010239304424560032
1266.0, 0.007824486375882877
1267.0, 0.006820291079262682
1268.0, 0.012264820691035632
1269.0, 0.011247719975611038
1270.0, 0.007007341268749338
1271.0, 0.01019191521427568
1272.0, 0.009726017188508723
1273.0, 0.005677070136277897
1274.0, 0.006874749177627886
1275.0, 0.011395690098740556
1276.0, 0.004806416941894276
1277.0, 0.009276588672094362
1278.0, 0.012314437716984199
1279.0, 0.006836501496082172
1280.0, 0.0016996097233489844
1281.0, 0.012087878446349024
1282.0, 0.007788163132143796
1283.0, 0.004724814173375975
1284.0, 0.006838408155255873
1285.0, 0.010419149775268949
1286.0, 0.004905921492966186
1287.0, 0.003998820265423451
1288.0, 0.00893321440734392
1289.0, 0.0070522974935185116
1290.0, 0.003940513580513143
1291.0, 0.008477978892471667
1292.0, 0.007735834571758249
1293.0, 0.0040781203031806015
1294.0, 0.008022101165172135
1295.0, 0.006744582092369855
1296.0, 0.0029170140693290728
1297.0, 0.007893182315041433
1298.0, 0.007929933113770092
1299.0, 0.002920317777589984
1300.0, 0.0037697053114215625
1301.0, 0.005923299986031092
1302.0, 0.005218259575718458
1303.0, 0.0019660660662196554
1304.0, 0.009265070933558588
1305.0, 0.0034119996434821814
1306.0, 0.0016627975096845601
1307.0, 0.0051072422497932465
1308.0, 0.007700582966703125
1309.0, 0.0006051982822430908
1310.0, 0.004198198003585368
1311.0, 0.005588910075819326
1312.0, 0.004203819705093218
1313.0, 0.005645172230953346
1314.0, 0.009332913590321531
1315.0, 0.0007273069746868379
1316.0, 0.0019880860319401463
1317.0, 0.007536892619743186
1318.0, 0.00745575944219124
1319.0, 0.0045768259222566865
1320.0, 0.005146447286700795
1321.0, 0.009959339963022019
1322.0, 0.0034476084322025806
1323.0, 0.0056690134340394195
1324.0, 0.007365206637961321
1325.0, 0.004929919037935091
1326.0, 0.0014872572081971952
1327.0, 0.009098916019024865
1328.0, 0.005298362457399396
1329.0, 0.002544218551835165
1330.0, 0.005709914810240442
1331.0, 0.007499558596936894
1332.0, 0.0010554803910234657
1333.0, 0.0051012914713012905
1334.0, 0.006476421975131244
1335.0, 0.00563155722868563
1336.0, 0.008671915029613399
1337.0, 0.01086006698665931
1338.0, 0.0050444654423345316
1339.0, 0.004430220026280586
1340.0, 0.010205657942834893
1341.0, 0.006658270911150834
1342.0, 0.005179846613485269
1343.0, 0.008791383199475407
1344.0, 0.011193862995333677
1345.0, 0.0014018376341967172
1346.0, 0.007420473365326401
1347.0, 0.0095545038319834
1348.0, 0.006720224497153478
1349.0, 0.005494449201210454
1350.0, 0.011515811623936896
1351.0, 0.007013898331012361
1352.0, 0.004672123193052887
1353.0, 0.00862690362625383
1354.0, 0.00732141602591986
1355.0, 0.0035078117060316546
1356.0, 0.007825411985944651
1357.0, 0.01093653891136646
1358.0, 0.005036611552523848
1359.0, 0.007398310386081581
1360.0, 0.008910085074807726
1361.0, 0.00645737477282355
1362.0, 0.004958156062443342
1363.0, 0.014595410803729851
1364.0, 0.006392476096309618
1365.0, 0.0067298575644920925
1366.0, 0.009949037924118834
1367.0, 0.009619972112741352
1368.0, 0.00516614799487052
1369.0, 0.011071469153349047
1370.0, 0.007498837158418887
1371.0, 0.004953521690862169
1372.0, 0.00698306974467425
1373.0, 0.008403207738079
1374.0, 0.003466395082948214
1375.0, 0.0013250084368781887
1376.0, 0.003883277552868141
1377.0, 0.004594973988111262
1378.0, 0.005995549333186976
1379.0, 0.008573756079428077
1380.0, 0.009427692172136222
1381.0, 0.00088860675380478
1382.0, 0.011070030035561527
1383.0, 0.011700000479778512
1384.0, 0.007749339719649014
1385.0, 0.007698325136838287
1386.0, 0.01243924158020192
1387.0, 0.005180622177102189
1388.0, 0.004102227425560079
1389.0, 0.011426958627500653
1390.0, 0.009423403793865026
1391.0, 0.0058613216432110565
1392.0, 0.009585494014524857
1393.0, 0.013178149352173027
1394.0, 0.004444840521100181
1395.0, 0.011932226937575844
1396.0, 0.014090702584616874
1397.0, 0.008972718914012322
1398.0, 0.005739913725740211
1399.0, 0.0157792894479772
1400.0, 0.009669742165070697
1401.0, 0.010177585388339204
1402.0, 0.01458333957748823
1403.0, 0.012184778954962047
1404.0, 0.006361503256230793
1405.0, 0.012025477117641464
1406.0, 0.016566939111163224
1407.0, 0.0088790367009872
1408.0, 0.010981187147232296
1409.0, 0.012552521872949396
1410.0, 0.009707701961911121
1411.0, 0.008402084342326928
1412.0, 0.01917518335484585
1413.0, 0.01101836998648653
1414.0, 0.009190170938000444
1415.0, 0.015147307517145303
1416.0, 0.01688534480352031
1417.0, 0.010072346232853403
1418.0, 0.02257077605916686
1419.0, 0.023760417162012226
1420.0, 0.026764688451906556
1421.0, 0.04716766786187649
1422.0, 0.061847578580670685
1423.0, 0.05414315888795644
1424.0, 0.04153158000807907
1425.0, 0.04108740143216348
1426.0, 0.024882774399323668
1427.0, 0.015756693892624962
1428.0, 0.01591280844037025
1429.0, 0.01594560590333871
1430.0, 0.006321139944071116
1431.0, 0.013817590312630131
1432.0, 0.013616912724109026
1433.0, 0.007596192075855977
1434.0, 0.00937270945969631
1435.0, 0.012663992619968768
1436.0, 0.005829495685467372
1437.0, 0.004861489714382182
1438.0, 0.013492191098041024
1439.0, 0.007036526263980849
1440.0, 0.003401927395224767
1441.0, 0.00853903436220705
1442.0, 0.014031757645196954
1443.0, 0.0019096384322748856
1444.0, 0.008003094921366307
1445.0, 0.012191506820048544
1446.0, 0.006900124297171545
1447.0, 0.00626144953155415
1448.0, 0.011118549502780349
1449.0, 0.007554488377962774
1450.0, 0.004364304798095757
1451.0, 0.01104381043017361
1452.0, 0.006183299900018006
1453.0, 0.001279151932161293
1454.0, 0.004206103696144292
1455.0, 0.01103682577195082
1456.0, 0.002303426764497533
1457.0, 0.009625437985630599
1458.0, 0.009255217985526476
1459.0, 0.004283323892040342
1460.0, 0.005592535466401901
1461.0, 0.01239624024160945
1462.0, 0.008549959518755822
1463.0, 0.001664289222706819
1464.0, 0.010959093539942668
1465.0, 0.008112287131871425
1466.0, 0.005346731427767539
1467.0, 0.009182325462607265
1468.0, 0.013540770499946774
1469.0, 0.003042807662654072
1470.0, 0.009288601421514912
1471.0, 0.011599099211335652
1472.0, 0.007005867981075612
1473.0, 0.006519870244472119
1474.0, 0.012455817276255903
1475.0, 0.009263034257266083
1476.0, 0.003022743518249421
1477.0, 0.011973530870678376
1478.0, 0.008230891373763788
1479.0, 0.005165103381961326
1480.0, 0.008157979118304624
1481.0, 0.010340130106814806
1482.0, 0.003908355157643996
1483.0, 0.006071501776308048
1484.0, 0.011896272188641593
1485.0, 0.006841959586230535
1486.0, 0.0038330978197141908
1487.0, 0.009848679286674503
1488.0, 0.010378731283444973
1489.0, 0.002210000159202247
1490.0, 0.011087932351158567
1491.0, 0.009958757836563217
1492.0, 0.004127891562465687
1493.0, 0.005746375843679006
1494.0, 0.014672184073702457
1495.0, 0.00015884344823843257
1496.0, 0.004183643507693806
1497.0, 0.011653158000335381
1498.0, 0.00654117149242193
1499.0, 0.00285335804318255
1500.0, 0.0074695362785313565
1501.0, 0.00932404999002736
1502.0, 0.0025716280757810944
1503.0, 0.010366186387195653
1504.0, 0.010224562898029385
1505.0, 0.005732367881960466
1506.0, 0.00795321082534907
1507.0, 0.016653296121476972
1508.0, 0.010294394129433128
1509.0, 0.004579940558430834
1510.0, 0.016794334747522628
1511.0, 0.010583149590692939
1512.0, 0.005632690748469573
1513.0, 0.010049617372092062
1514.0, 0.01269859034846181
1515.0, 0.002307089392281177
1516.0, 0.010510199749533093
1517.0, 0.010601218104917305
1518.0, 0.004507080773819897
1519.0, 0.006214157922273155
1520.0, 0.011447198004698492
1521, 0.0
1522, 0.0
1523, 0.0
1524, 0.0
1525, 0.0
1526, 0.0
1527, 0.0
1528, 0.0
1529, 0.0
1530, 0.0
1531, 0.0
1532, 0.0
1533, 0.0
1534, 0.0
1535, 0.0
1536, 0.0
1537, 0.0
1538, 0.0
1539, 0.0
1540, 0.0
1541, 0.0
1542, 0.0
1543, 0.0
1544, 0.0
1545, 0.0
1546, 0.0
1547, 0.0
1548, 0.0
1549, 0.0
1550, 0.0
1551, 0.0
1552, 0.0
1553, 0.0
1554, 0.0
1555, 0.0
1556, 0.0
1557, 0.0
1558, 0.0
1559, 0.0
1560, 0.0
1561, 0.0
1562, 0.0
1563, 0.0
1564, 0.0
1565, 0.0
1566, 0.0
1567, 0.0
1568, 0.0
1569, 0.0
1570, 0.0
1571, 0.0
1572, 0.0
1573, 0.0
1574, 0.0
1575, 0.0
1576, 0.0
1577, 0.0
1578, 0.0
1579, 0.0
1580, 0.0
1581, 0.0
1582, 0.0
1583, 0.0
1584, 0.0
1585, 0.0
1586, 0.0
1587, 0.0
1588, 0.0
1589, 0.0
1590, 0.0
1591, 0.0
1592, 0.0
1593, 0.0
1594, 0.0
1595, 0.0
1596, 0.0
1597, 0.0
1598, 0.0
1599, 0.0
