30, 0.0
31, 0.0
32, 0.0
33, 0.0
34, 0.0
35, 0.0
36, 0.0
37, 0.0
38, 0.0
39, 0.0
40, 0.0
41, 0.0
42, 0.0
43, 0.0
44, 0.0
45, 0.0
46, 0.0
47, 0.0
48, 0.0
49, 0.0
50, 0.0
51, 0.0
52, 0.0
53, 0.0
54, 0.0
55, 0.0
56, 0.0
57, 0.0
58, 0.0
59, 0.0
60, 0.0
61, 0.0
62, 0.0
63, 0.0
64, 0.0
65, 0.0
66, 0.0
67, 0.0
68, 0.0
69, 0.0
70, 0.0
71, 0.0
72, 0.0
73, 0.0
74, 0.0
75, 0.0
76, 0.0
77, 0.0
78, 0.0
79, 0.0
80, 0.0
81, 0.0
82, 0.0
83, 0.0
84, 0.0
85, 0.0
86, 0.0
87, 0.0
88, 0.0
89, 0.0
90, 0.0
91, 0.0
92, 0.0
93, 0.0
94, 0.0
95, 0.0
96, 0.0
97, 0.0
98, 0.0
99, 0.0
100, 0.0
101, 0.0
102, 0.0
103, 0.0
104, 0.0
105, 0.0
106, 0.0
107, 0.0
108, 0.0
109, 0.0
110, 0.0
111, 0.0
112, 0.0
113, 0.0
114, 0.0
115, 0.0
116, 0.0
117, 0.0
118, 0.0
119, 0.0
120.0, 0.0013385249672171386
121.0, 0.0013889160517086936
122.0, 8.857830080620718e-05
123.0, 0.0002336721798118341
124.0, 0.00032712727793006983
125.0, 0.00035770812138018643
126.0, 0.0003006639685493774
127.0, 0.002337555313861906
128.0, 0.002958678645357323
129.0, 0.002671011340771028
130.0, 0.004352533266257163
131.0, 0.006512730289063748
132.0, 0.008277655489155744
133.0, 0.009185347063870173
134.0, 0.008701146980226483
135.0, 0.009622225061624384
136.0, 0.011796349444622264
137.0, 0.015196642694357514
138.0, 0.013139086657096722
139.0, 0.01229066388323869
140.0, 0.014197681426966691
141.0, 0.015643689533711005
142.0, 0.0197545306450118
143.0, 0.02334331932861826
144.0, 0.022562481944111458
145.0, 0.026322157645128807
146.0, 0.030072437054471504
147.0, 0.03251732931471121
148.0, 0.029439929336584184
149.0, 0.030997327745189103
150.0, 0.03366951609345978
151.0, 0.035593373719802146
152.0, 0.042772633926338885
153.0, 0.04923872984069766
154.0, 0.055791178085094095
155.0, 0.06470940418142379
156.0, 0.08171747005064352
157.0, 0.09991651692251395
158.0, 0.1177071138421378
159.0, 0.1383820168156103
160.0, 0.1328569873888724
161.0, 0.11483697769576981
162.0, 0.09669282939285866
163.0, 0.07312551319234993
164.0, 0.05154288414671114
165.0, 0.03392246187702681
166.0, 0.026388057957948647
167.0, 0.018786322309049256
168.0, 0.013844646988177575
169.0, 0.013215340840485094
170.0, 0.009483098578448326
171.0, 0.007870863401328585
172.0, 0.0072184626404581086
173.0, 0.005484980933835423
174.0, 0.00500423412217878
175.0, 0.004645604030447259
176.0, 0.004074313560454092
177.0, 0.0023802695135161055
178.0, 0.003408623424073214
179.0, 0.0046274652739921145
180.0, 0.004088790251282782
181.0, 0.004102355789964558
182.0, 0.0036643407680764482
183.0, 0.002747942660965531
184.0, 0.0013128149803252865
185.0, 0.0011459197564021556
186.0, 0.0014768643077010537
187.0, 0.002135121196185864
188.0, 0.0036241091068431527
189.0, 0.002118211862465729
190.0, 0.000421386458898737
191.0, 0.0015257188241829351
192.0, 0.002597479635629146
193.0, 0.0028249411747790637
194.0, 0.0024687165745030993
195.0, 0.002683485451554608
196.0, 0.0011714325895377498
197.0, 0.0010345549077792383
198.0, 0.0033711346769898388
199.0, 0.0026138518123075584
200.0, 0.002309787225303945
201.0, 0.002745474531285148
202.0, 0.004463846488009382
203.0, 0.002791920179250985
204.0, 0.003375463720578175
205.0, 0.005418539725269501
206.0, 0.0027983196580253756
207.0, 0.003838887647709574
208.0, 0.004818459195180393
209.0, 0.004286077961739337
210.0, 0.007812175653368614
211.0, 0.009650220445288247
212.0, 0.011003537795183335
213.0, 0.013427630520458991
214.0, 0.020292636222850567
215.0, 0.024427946263443003
216.0, 0.02645948384023159
217.0, 0.0326817774248668
218.0, 0.035236429053340484
219.0, 0.035280617931609394
220.0, 0.03325580961380493
221.0, 0.03388205375209937
222.0, 0.034253353358818274
223.0, 0.03537316591350547
224.0, 0.038690985451843206
225.0, 0.03754594414270659
226.0, 0.03577958556595438
227.0, 0.03345392734082588
228.0, 0.029185479884570095
229.0, 0.024472422699636873
230.0, 0.020340586060791505
231.0, 0.017215558949924454
232.0, 0.01515807874599867
233.0, 0.013643005935024648
234.0, 0.012494724265066454
235.0, 0.011597046807394233
236.0, 0.011532252979051553
237.0, 0.009881538313699353
238.0, 0.007406681409230377
239.0, 0.006727002821959741
240.0, 0.0049849864394749584
241.0, 0.004874733036976137
242.0, 0.006717777523826904
243.0, 0.005604002483469383
244.0, 0.005203002876414209
245.0, 0.0051940970682071656
246.0, 0.005387546981945379
247.0, 0.004058853681792709
248.0, 0.004762559568574411
249.0, 0.0065751821554076925
250.0, 0.007622056509909172
251.0, 0.0048551914334975165
252.0, 0.0026498516568620465
253.0, 0.0019405696000227533
254.0, 0.0035529616707436376
255.0, 0.0029610466520050708
256.0, 0.0023377495105940047
257.0, 0.0027210009894728052
258.0, 0.0033171544861286275
259.0, 0.003349777645570968
260.0, 0.0025515608612910177
261.0, 0.00044272833329702353
262.0, 0.0034449027499110795
263.0, 0.00421317690195463
264.0, 0.0029991505133826627
265.0, 0.0022710256322710323
266.0, 0.002570239639188076
267.0, 0.003034147392729939
268.0, 0.0035013500216580316
269.0, 0.00461252649960262
270.0, 0.0038498203010015304
271.0, 0.002867426746157079
272.0, 0.002741727270004675
273.0, 0.00372275409491465
274.0, 0.0029155975099393557
275.0, 0.00154463047609959
276.0, 0.001510573967782436
277.0, 0.0008198325946980056
278.0, 0.0018568386716953738
279.0, 0.0035463926823080657
280.0, 0.0009066456422551236
281.0, 0.001123882503963767
282.0, 0.0021337597539077516
283.0, 0.0031495923677830493
284.0, 0.002616827812139696
285.0, 0.0018301508803361002
286.0, 0.0010861439653153929
287.0, 0.0006028897805912101
288.0, 0.002383245672607323
289.0, 0.0017467640110717425
290.0, 0.000715340928271406
291.0, 0.0025781566799623935
292.0, 0.0014935173120732234
293.0, 0.0008435776846259825
294.0, 0.0011851605241926615
295.0, 0.003150789438113732
296.0, 0.0015027340872950476
297.0, 0.0007666898044139134
298.0, 0.0018601254342053893
299.0, 0.0008180568571357686
300.0, 0.00032122100431152245
301.0, 0.0007717325242368441
302.0, 0.002447487422912516
303.0, 0.0012357547277868563
304.0, 0.0006241565919675388
305.0, 0.0005441605997666743
306.0, 0.0009789447165586811
307.0, 0.002436455636208204
308.0, 0.002610249494970448
309.0, 0.0016892123447027321
310.0, 0.0004798440688716382
311.0, 0.0009868511302752164
312.0, 0.0010681807048561333
313.0, 0.0005066363331310738
314.0, 0.000579934151733394
315.0, 0.0005682894752779063
316.0, 0.0015395464138379768
317.0, 0.0036752209856940714
318.0, 0.0019186771027990962
319.0, 0.002728532396820904
320.0, 0.0037541374471747003
321.0, 0.0030962412395006598
322.0, 0.0014192491426850355
323.0, 0.000581148839457005
324.0, 0.0005085230684637033
325.0, 0.0011335810987449693
326.0, 0.0019263631193089511
327.0, 0.002122896239384612
328.0, 0.0016493450001926022
329.0, 0.00044252601100226523
330.0, 0.002021106187465626
331.0, 0.0023253740226474055
332.0, 0.00111552973617331
333.0, 0.0022928694014495363
334.0, 0.004402285838189411
335.0, 0.004164673336382205
336.0, 0.0008381117358874628
337.0, 0.0048324625491514206
338.0, 0.004613601045916902
339.0, 0.002868953563040618
340.0, 0.0014808094011381687
341.0, 0.0021100373466572332
342.0, 0.0029768833482109293
343.0, 0.0034379794316388144
344.0, 0.002599552013362503
345.0, 0.0029668483638209623
346.0, 0.0030922683580859004
347.0, 0.0028614441975812746
348.0, 0.0022072409442194406
349.0, 0.003164136198144296
350.0, 0.0028066462050356763
351.0, 0.0016154765453951312
352.0, 0.003166131714004644
353.0, 0.0030633844799069013
354.0, 0.003009104433517389
355.0, 0.0033517739635316123
356.0, 0.003065357292635307
357.0, 0.002639098348708161
358.0, 0.002251909358522647
359.0, 0.0020475332610257486
360.0, 0.0028646583078660776
361.0, 0.002902974919441689
362.0, 0.0027476630092335558
363.0, 0.0028320126188400418
364.0, 0.003466305296097864
365.0, 0.0031394262606661235
366.0, 0.0027464855376933836
367.0, 0.003381358547733762
368.0, 0.0013867965535417145
369.0, 0.0013659627308458498
370.0, 0.0022272501247777615
371.0, 0.0015734839480378035
372.0, 0.002248217967422163
373.0, 0.0025591028699287503
374.0, 0.0023783025952892408
375.0, 0.0018863844182003568
376.0, 0.0033647129047866355
377.0, 0.0031699489464944186
378.0, 0.0013901331217954906
379.0, 0.0016936652851450857
380.0, 0.0009247793480398358
381.0, 0.0004947934493379443
382.0, 0.0010076816958222037
383.0, 0.003489859780090191
384.0, 0.0020255655987829195
385.0, 0.0011067532515799251
386.0, 0.0025275805201765114
387.0, 0.002063630106332138
388.0, 0.003324847535389222
389.0, 0.003873224374878149
390.0, 0.0021409675149562076
391.0, 0.0014862927671654533
392.0, 0.0020884478454412225
393.0, 0.0029712611509750434
394.0, 0.0032397651564869904
395.0, 0.002778442695497193
396.0, 0.0018340283375378995
397.0, 0.0015764718162965632
398.0, 0.003581472628665809
399.0, 0.003056834858782249
400.0, 0.00177754527495482
401.0, 0.0011167362703475795
402.0, 0.003371490258683242
403.0, 0.0032999091996108788
404.0, 0.002651315399821198
405.0, 0.00208303448007421
406.0, 0.0027255878537199765
407.0, 0.0025506303307318407
408.0, 0.0019692979642787966
409.0, 0.0011918069764258548
410.0, 0.0006589754316314279
411.0, 0.0008217133498187007
412.0, 0.0011930787472212486
413.0, 0.00143558106028366
414.0, 0.0005955063282483612
415.0, 0.0008186603971106126
416.0, 0.0008312289398360573
417.0, 0.0004685973447153747
418.0, 0.0007974568517528457
419.0, 0.0004976134676132993
420.0, 0.0006222830823448746
421.0, 0.001603214085601711
422.0, 0.0037263427703081095
423.0, 0.0024394720615786487
424.0, 0.0011402113973217431
425.0, 0.0011789758686459942
426.0, 0.0007083336572474424
427.0, 0.0005131382666719682
428.0, 0.0009348474803414454
429.0, 0.0020420292978488076
430.0, 0.0017563684761283179
431.0, 0.001741448384324208
432.0, 0.00154678398438638
433.0, 0.0009508575161637255
434.0, 0.0017811439219372362
435.0, 0.00247923632074846
436.0, 0.002517897880901068
437.0, 0.0015462745701440089
438.0, 0.0031154982528332764
439.0, 0.0027862406666183783
440.0, 0.0021448832868051254
441.0, 0.0025983307599014975
442.0, 0.002312019986909078
443.0, 0.002396768944293245
444.0, 0.002863618481588711
445.0, 0.0037338843224040854
446.0, 0.0010650742361569584
447.0, 0.0023568356492453986
448.0, 0.00398455152785507
449.0, 0.0016430237929632298
450.0, 0.003122116361450823
451.0, 0.002913581810964367
452.0, 0.002425869718971906
453.0, 0.0036271733123400215
454.0, 0.004294340054071558
455.0, 0.0024871794877630643
456.0, 0.0005791036564522407
457.0, 0.00196739861336968
458.0, 0.0030003285785467114
459.0, 0.002257560707105798
460.0, 0.00186833735795896
461.0, 0.005117814660013915
462.0, 0.00325593034585431
463.0, 0.0035003840487174346
464.0, 0.003822894297858376
465.0, 0.0003714371248176112
466.0, 0.001125343300439987
467.0, 0.004289025537067631
468.0, 0.00687176300382495
469.0, 0.004165083176847941
470.0, 0.005472568476213458
471.0, 0.004128314373125908
472.0, 0.0018129621051399469
473.0, 0.0020858195055337542
474.0, 0.0033970693263856468
475.0, 0.0029900504069956305
476.0, 0.002495912904961071
477.0, 0.004996980421097511
478.0, 0.0021016693886471037
479.0, 0.0019747015943003313
480.0, 0.0036753531775020826
481.0, 0.004694907077090544
482.0, 0.0029178335640153543
483.0, 0.0012842753987924677
484.0, 0.0011377589955512992
485.0, 0.004389473203741036
486.0, 0.003260894529564744
487.0, 0.002194332468166063
488.0, 0.002122944433866308
489.0, 0.0040766042562622945
490.0, 0.004263589865079501
491.0, 0.0026267064173275878
492.0, 0.0015555124263311013
493.0, 0.004629882413859687
494.0, 0.002659801372123627
495.0, 0.001798412402712222
496.0, 0.00206415547008784
497.0, 0.0030710558362398153
498.0, 0.0015728928748371626
499.0, 0.00198467491770695
500.0, 0.002829850358239486
501.0, 0.0019811905434118588
502.0, 0.0024049307811887417
503.0, 0.002428639531833317
504.0, 0.002542558851234478
505.0, 0.0033759763815301167
506.0, 0.0034770886802522605
507.0, 0.004302935139139811
508.0, 0.004771905132377015
509.0, 0.0037337430313237755
510.0, 0.0026954687258859827
511.0, 0.002287040928785773
512.0, 0.0034125647844180534
513.0, 0.0067312606439840885
514.0, 0.0025161084448142527
515.0, 0.002689714440798538
516.0, 0.003883001206996607
517.0, 0.0033314389855795025
518.0, 0.000795140198125793
519.0, 0.002775233671974064
520.0, 0.004247306672530413
521.0, 0.0020920606936319875
522.0, 0.002926013950654917
523.0, 0.0026663204602230543
524.0, 0.0030623363168363667
525.0, 0.004859379580579616
526.0, 0.004755629893634822
527.0, 0.0032389845173931976
528.0, 0.003266363436406786
529.0, 0.005377556990768436
530.0, 0.0022714791093227365
531.0, 0.0022306512575124716
532.0, 0.0032348197928332694
533.0, 0.003926874829438472
534.0, 0.001122806187678379
535.0, 0.0021578110549020034
536.0, 0.002501244454046713
537.0, 0.0017486919485484153
538.0, 0.0046053279303718995
539.0, 0.003586803052132112
540.0, 0.002651406374897235
541.0, 0.002755291696281727
542.0, 0.0037767831444351606
543.0, 0.0030144077345593124
544.0, 0.003188896129172437
545.0, 0.003544928184940246
546.0, 0.000805915449922034
547.0, 0.0024462905037507306
548.0, 0.00330495747580828
549.0, 0.0028221556247348214
550.0, 0.0012171428278269316
551.0, 0.002774195033736464
552.0, 0.0025021696456022863
553.0, 0.0015435238259045225
554.0, 0.002217777052805312
555.0, 0.005224790250030265
556.0, 0.0037203958630275947
557.0, 0.0020492079311187515
558.0, 0.005338889427962049
559.0, 0.0013010776987717936
560.0, 0.0020180006800213897
561.0, 0.0036457602899252054
562.0, 0.002953994298385771
563.0, 0.0018636823038627698
564.0, 0.0012690858061722146
565.0, 0.0012114430694739001
566.0, 0.001588460725463234
567.0, 0.0011034662532950035
568.0, 0.0036399517969541986
569.0, 0.004468147472437998
570.0, 0.0025928670537755773
571.0, 0.004818012364702863
572.0, 0.003022058925795269
573.0, 0.0025785923655099125
574.0, 0.004190989378048618
575.0, 0.004077669609728324
576.0, 0.0018974641074309211
577.0, 0.0029836739648461254
578.0, 0.005313916147671073
579.0, 0.0008574150435826902
580.0, 0.002113342603619625
581.0, 0.0037116305132644536
582.0, 0.0045539299286907935
583.0, 0.003878742528255202
584.0, 0.0049965187972709855
585.0, 0.004529191454955512
586.0, 0.003810508814940145
587.0, 0.004639200346414156
588.0, 0.0054676842940927116
589.0, 0.003318077806361706
590.0, 0.00224616369837426
591.0, 0.00501451624722698
592.0, 0.002062161204394254
593.0, 0.002743711227980758
594.0, 0.004708210829371228
595.0, 0.006218558572914059
596.0, 0.004021778961989538
597.0, 0.003928033367482185
598.0, 0.0035616159658117363
599.0, 0.002879052378306049
600.0, 0.0050619335636823345
601.0, 0.004478392463709867
602.0, 0.002414335720673682
603.0, 0.0010457254547053263
604.0, 0.005061138710788353
605.0, 0.003915998957110605
606.0, 0.004430707261333847
607.0, 0.0055349779040428405
608.0, 0.004468729882383334
609.0, 0.0037752381249419697
610.0, 0.0057114715387988554
611.0, 0.006175322105936955
612.0, 0.0016167681126641564
613.0, 0.0052927047224858356
614.0, 0.006493522277708941
615.0, 0.005891696721020142
616.0, 0.0044122665872869515
617.0, 0.006088808533715319
618.0, 0.004555660253841391
619.0, 0.004997879892251449
620.0, 0.007879555800763638
621.0, 0.007378991933752201
622.0, 0.008174987844171127
623.0, 0.009291271234167831
624.0, 0.00951609399717358
625.0, 0.006547213887709392
626.0, 0.008493271693970914
627.0, 0.009212133041966542
628.0, 0.009422729075862266
629.0, 0.010817836484714337
630.0, 0.009570929021546251
631.0, 0.006746870251372827
632.0, 0.0050613831306043616
633.0, 0.006278807979974727
634.0, 0.00501635155530207
635.0, 0.0046167062331327535
636.0, 0.006286514317424928
637.0, 0.008951260920184383
638.0, 0.004265182367369715
639.0, 0.00654514492670835
640.0, 0.0072305809865698956
641.0, 0.005656982702732311
642.0, 0.005696944188694357
643.0, 0.009395428762951158
644.0, 0.00864562279036742
645.0, 0.0070161198773098605
646.0, 0.010884224340484451
647.0, 0.008615314394526334
648.0, 0.00934038542505294
649.0, 0.01014197924608466
650.0, 0.008712468682094097
651.0, 0.007633558004957214
652.0, 0.005894988080187357
653.0, 0.005931986620918846
654.0, 0.007884446756680565
655.0, 0.007375932461948437
656.0, 0.009610034196418335
657.0, 0.007508086155336477
658.0, 0.0044622385157440615
659.0, 0.011762853012733167
660.0, 0.0040049038705735835
661.0, 0.003997726282118574
662.0, 0.006102995404484601
663.0, 0.001495667445488463
664.0, 0.002699786547723419
665.0, 0.005532542067990451
666.0, 0.006534977859094315
667.0, 0.004226028632696016
668.0, 0.004476281497631234
669.0, 0.005034115536946363
670.0, 0.0038641348401091823
671.0, 0.0022881863557385057
672.0, 0.006544376402502385
673.0, 0.005699588947774056
674.0, 0.004008364066454502
675.0, 0.002919964822173664
676.0, 0.0037258644208295827
677.0, 0.001361466887128012
678.0, 0.003237363054491143
679.0, 0.00479514864990776
680.0, 0.0027945291995812613
681.0, 0.0034252178995778145
682.0, 0.005986717759408737
683.0, 0.007287862000191683
684.0, 0.007425733907765981
685.0, 0.011496279246215312
686.0, 0.016735698047416737
687.0, 0.03321266908370694
688.0, 0.0603327158570444
689.0, 0.09382910655131182
690.0, 0.09593790643733636
691.0, 0.08579775554992906
692.0, 0.06230489943390718
693.0, 0.027644526414781295
694.0, 0.018713795357387354
695.0, 0.01170084831537124
696.0, 0.007609468152654189
697.0, 0.006436565708554404
698.0, 0.006684375375497471
699.0, 0.00777020021248356
700.0, 0.005438773530608319
701.0, 0.002972276625103775
702.0, 0.00685545735945272
703.0, 0.0032287652358078604
704.0, 0.0031093222636163153
705.0, 0.003298653716426767
706.0, 0.0013453336049487764
707.0, 0.0004417182269858083
708.0, 0.0042257441395706615
709.0, 0.0042652309576406726
710.0, 0.0009379793134312074
711.0, 0.005016497495068656
712.0, 0.0016937313200158202
713.0, 0.0005954024310859981
714.0, 0.0024314950853152875
715.0, 0.006252911883230359
716.0, 0.002091393451036215
717.0, 0.0029530314181725028
718.0, 0.003235783652046747
719.0, 0.0005551132556585951
720.0, 0.0029714268208249775
721.0, 0.0031168634150214505
722.0, 0.002679915647051685
723.0, 0.002784502339941201
724.0, 0.004942607996007358
725.0, 0.0025925203537129097
726.0, 0.003206942472092645
727.0, 0.004986859086532082
728.0, 0.005375338651790521
729.0, 0.0017735453829208429
730.0, 0.004613314018230803
731.0, 0.00493290015826412
732.0, 0.001661812850305327
733.0, 0.005750747203533565
734.0, 0.005771359124204412
735.0, 0.00387529037930897
736.0, 0.0027849592460134844
737.0, 0.005895671385308712
738.0, 0.0020966775378674276
739.0, 0.0011627753956153176
740.0, 0.0026038598056742413
741.0, 0.005179442202283928
742.0, 0.003878170343178703
743.0, 0.0048179192870975935
744.0, 0.004443739843541394
745.0, 0.0032336349753523683
746.0, 0.00405156991144643
747.0, 0.004129641364949377
748.0, 0.0031470150666227928
749.0, 0.002298032444961527
750.0, 0.0026645658660705146
751.0, 0.004441812914161109
752.0, 0.00331759819075781
753.0, 0.0035634400555825544
754.0, 0.004569088631424765
755.0, 0.0005542907077637849
756.0, 0.0033121139560827488
757.0, 0.0048085838006455064
758.0, 0.004298744298765961
759.0, 0.0021904284798619565
760.0, 0.003774667913976462
761.0, 0.0022695741849756753
762.0, 0.003369961438701982
763.0, 0.006606878101625205
764.0, 0.0018274839585487698
765.0, 0.0022370741535348497
766.0, 0.004067254254403598
767.0, 0.004448443503976747
768.0, 0.0009285719677582832
769.0, 0.006760038351732748
770.0, 0.005705985246624637
771.0, 0.0030377198040061806
772.0, 0.002440563227537214
773.0, 0.007566125676657733
774.0, 0.003413935691329797
775.0, 0.0019538593989504305
776.0, 0.0032970666632562203
777.0, 0.0048308343797670026
778.0, 0.0039036182088677865
779.0, 0.0035425255501098877
780.0, 0.002609881897437093
781.0, 0.001026234747398602
782.0, 0.0010642971248557066
783.0, 0.004823287938975331
784.0, 0.0061534276507123255
785.0, 0.005301476105896417
786.0, 0.004199252784581731
787.0, 0.004043073658260101
788.0, 0.0031777695059524583
789.0, 0.0033541084111077153
790.0, 0.004406859222865581
791.0, 0.0017351766359529884
792.0, 0.006201032487490891
793.0, 0.005793362116259631
794.0, 0.002397020341487365
795.0, 0.001437904350669053
796.0, 0.006708490701191114
797.0, 0.0042161968657885565
798.0, 0.0022174651162973585
799.0, 0.00369188458648662
800.0, 0.0037274589537800037
801.0, 0.001968030499135452
802.0, 0.0043296557980051905
803.0, 0.006230868257371267
804.0, 0.0017130774677204604
805.0, 0.0036865516459674975
806.0, 0.0037418974385289958
807.0, 0.00243814477978878
808.0, 0.0018794845616795924
809.0, 0.007766919467576576
810.0, 0.0026206428573604433
811.0, 0.0033230220032749104
812.0, 0.00651289164086667
813.0, 0.0066497836524841755
814.0, 0.0030172601076308403
815.0, 0.0040406254740422975
816.0, 0.005666496510084083
817.0, 0.006403217134200917
818.0, 0.006236614319668781
819.0, 0.005705835140085608
820.0, 0.0037300738618408747
821.0, 0.0040547186721710945
822.0, 0.008046878025858867
823.0, 0.002834807232616227
824.0, 0.0014770812576963051
825.0, 0.003266849771283351
826.0, 0.004957100715899266
827.0, 0.001101129087129156
828.0, 0.007817511654501747
829.0, 0.005167361194942468
830.0, 0.001055312671967422
831.0, 0.0011749543426109975
832.0, 0.007165415578783403
833.0, 0.0026646892318378072
834.0, 0.003168227546151192
835.0, 0.005623415741797184
836.0, 0.0028918553692880602
837.0, 0.0005861773163903932
838.0, 0.0026082383490153753
839.0, 0.0048233456240083005
840.0, 0.006357224852169097
841.0, 0.009891176771561323
842.0, 0.008227564335616234
843.0, 0.006394351765746793
844.0, 0.007481911966187262
845.0, 0.011881307845372438
846.0, 0.004897191296639369
847.0, 0.007407407568461087
848.0, 0.008382479740404784
849.0, 0.0061436715049122265
850.0, 0.003053069193370466
851.0, 0.01125326928154541
852.0, 0.008614740149176207
853.0, 0.007060227395034717
854.0, 0.010680893778822571
855.0, 0.008171183227322725
856.0, 0.00408614085798284
857.0, 0.008216018700655593
858.0, 0.012982500124185373
859.0, 0.010057276962348224
860.0, 0.013981378944073567
861.0, 0.01273213225933754
862.0, 0.010107438836918262
863.0, 0.009426763281491436
864.0, 0.014693411066355709
865.0, 0.008128063814689675
866.0, 0.00612887572921517
867.0, 0.008422595722981882
868.0, 0.01214556473755353
869.0, 0.007682096090460121
870.0, 0.009914944858463708
871.0, 0.008345091718581867
872.0, 0.005072436113444701
873.0, 0.00437598996112807
874.0, 0.007531886765423161
875.0, 0.007716503210630704
876.0, 0.008085772061227113
877.0, 0.008634230597210281
878.0, 0.007293875074460273
879.0, 0.005950013218120639
880.0, 0.006843291864388564
881.0, 0.0068131146288959235
882.0, 0.005402601747371992
883.0, 0.008360736881168876
884.0, 0.010617295697811654
885.0, 0.007319575120288719
886.0, 0.005719663946515714
887.0, 0.01153025595948987
888.0, 0.004702708556708999
889.0, 0.006152057575235122
890.0, 0.008809734534204581
891.0, 0.008387508118639447
892.0, 0.001510605451141104
893.0, 0.005843590364265202
894.0, 0.005369565645269427
895.0, 0.00398917897846171
896.0, 0.004567655763687055
897.0, 0.009497312074851157
898.0, 0.0028346869366948683
899.0, 0.005923453465585581
900.0, 0.010087096449169853
901.0, 0.007915052122765078
902.0, 0.004216584562604353
903.0, 0.009357686165819503
904.0, 0.008924624302450036
905.0, 0.0060662504832534
906.0, 0.007573576408275086
907.0, 0.007798488519226445
908.0, 0.0053343575503266485
909.0, 0.00763554902448626
910.0, 0.010826347665454629
911.0, 0.0031967215866781883
912.0, 0.009492404109541856
913.0, 0.011054139648201209
914.0, 0.009507848197255211
915.0, 0.00733691821561769
916.0, 0.008937472464644167
917.0, 0.0031801058068799044
918.0, 0.00284412983639148
919.0, 0.0056653239501007775
920.0, 0.00784594688784199
921.0, 0.003933517106951929
922.0, 0.006227378660672744
923.0, 0.00843989355873717
924.0, 0.0070076570321901625
925.0, 0.0009866232553302368
926.0, 0.007504671363787243
927.0, 0.0043041800710978085
928.0, 0.005207525677204387
929.0, 0.009074555014091375
930.0, 0.007904759736102529
931.0, 0.006162219905625427
932.0, 0.0068246416064336865
933.0, 0.007635221951606959
934.0, 0.007430040841650585
935.0, 0.005876710290334318
936.0, 0.0072118552631970905
937.0, 0.004120013246256682
938.0, 0.003489032308557797
939.0, 0.007004405625667036
940.0, 0.00604652963819879
941.0, 0.008193646556696079
942.0, 0.007042471775390409
943.0, 0.004748827770164095
944.0, 0.004011739444938832
945.0, 0.006995561021188707
946.0, 0.009109557849142564
947.0, 0.00522780487359431
948.0, 0.005286386172179584
949.0, 0.01632238945938584
950.0, 0.005698324724069446
951.0, 0.006161818255508238
952.0, 0.00818176219321645
953.0, 0.008252813525468257
954.0, 0.005386434723356036
955.0, 0.007790637537172666
956.0, 0.007025434225853625
957.0, 0.004723497574109478
958.0, 0.004177454436990314
959.0, 0.009534817410342521
960.0, 0.005761065055464174
961.0, 0.008530163905473995
962.0, 0.00881444745183006
963.0, 0.005318871151062155
964.0, 0.0037646927679565135
965.0, 0.004037203146825238
966.0, 0.0027485134270177824
967.0, 0.004582935729082518
968.0, 0.008082594393064392
969.0, 0.0025751240572420364
970.0, 0.0034983581600816936
971.0, 0.005830413958572765
972.0, 0.004888653892955435
973.0, 0.0006801705543614077
974.0, 0.0028306002335043027
975.0, 0.003940282950391766
976.0, 0.002559116936320881
977.0, 0.0027374819709625464
978.0, 0.005780922351847789
979.0, 0.003819582664360187
980.0, 0.0021365437395791044
981.0, 0.005873594438018274
982.0, 0.007823717219764336
983.0, 0.003517737327606983
984.0, 0.005502015038829239
985.0, 0.0033518495201494652
986.0, 0.002720676400278803
987.0, 0.004518905306421033
988.0, 0.007200514037121252
989.0, 0.0013434222247197926
990.0, 0.0016955146957117024
991.0, 0.004774769012196285
992.0, 0.005836060021065539
993.0, 0.0017642786144529163
994.0, 0.002456734663324253
995.0, 0.001095282731584411
996.0, 0.002037471120744865
997.0, 0.004337320913018393
998.0, 0.005397162886699444
999.0, 0.002838129604913798
1000.0, 0.01039077922392174
1001.0, 0.014277468601306426
1002.0, 0.012142498214897409
1003.0, 0.006673093561568425
1004.0, 0.009075562871706452
1005.0, 0.004927163938664753
1006.0, 0.0026978491749625995
1007.0, 0.003876969778702178
1008.0, 0.00657708793556974
1009.0, 0.0026291084235244328
1010.0, 0.006976385682040168
1011.0, 0.007255941118898262
1012.0, 0.004765901949859122
1013.0, 0.0061228479478312335
1014.0, 0.00952324436680015
1015.0, 0.007258462995147444
1016.0, 0.0050513996555079
1017.0, 0.006387750128125872
1018.0, 0.012261556800913152
1019.0, 0.004924445231990782
1020.0, 0.008608378363704934
1021.0, 0.010898322285157
1022.0, 0.00941408332443356
1023.0, 0.006865265219727461
1024.0, 0.012985740447756734
1025.0, 0.008118454774742092
1026.0, 0.006887608616776981
1027.0, 0.010363445498394372
1028.0, 0.013122158835680475
1029.0, 0.004576948932163762
1030.0, 0.009966447731070664
1031.0, 0.009889991538621202
1032.0, 0.007068311573453609
1033.0, 0.011077136899572322
1034.0, 0.010500947902490627
1035.0, 0.005625417977423022
1036.0, 0.00708728929016286
1037.0, 0.011944671721781975
1038.0, 0.013126878112169846
1039.0, 0.011762741837405805
1040.0, 0.018119989509245843
1041.0, 0.014753830055170808
1042.0, 0.00877009375216716
1043.0, 0.011812253561828
1044.0, 0.01342905421849121
1045.0, 0.006496445596003583
1046.0, 0.010699128559056142
1047.0, 0.015829790192614702
1048.0, 0.009810496949491373
1049.0, 0.01183153864662899
1050.0, 0.01664039259557925
1051.0, 0.016951193101015248
1052.0, 0.017679920495062743
1053.0, 0.023384614140000752
1054.0, 0.02721648060443677
1055.0, 0.036042344776359835
1056.0, 0.07433445644528508
1057.0, 0.20408453059879533
1058.0, 0.4832559315120939
1059.0, 0.9612800466720867
1060.0, 0.9636552634001502
1061.0, 0.6299441644693511
1062.0, 0.2807066710418411
1063.0, 0.11864403240928079
1064.0, 0.048867272686243995
1065.0, 0.0333322311706108
1066.0, 0.02473852332859468
1067.0, 0.019142632918262185
1068.0, 0.016608780047096264
1069.0, 0.019230228943871084
1070.0, 0.017167763442615298
1071.0, 0.013237238986206512
1072.0, 0.012887263849335133
1073.0, 0.01451747560562864
1074.0, 0.009008566665781302
1075.0, 0.014041749863686922
1076.0, 0.015847374348371572
1077.0, 0.012146891463917378
1078.0, 0.0086800263837296
1079.0, 0.01570770407551947
1080.0, 0.01372241518275965
1081.0, 0.012384398198078295
1082.0, 0.01401736272292226
1083.0, 0.015074932227741573
1084.0, 0.010881838343194637
1085.0, 0.013505530638547767
1086.0, 0.014780786906185972
1087.0, 0.012186605908551659
1088.0, 0.010828756976338675
1089.0, 0.014528747379450467
1090.0, 0.008726407973890429
1091.0, 0.008777046010544024
1092.0, 0.013736694884620905
1093.0, 0.014702920329979444
1094.0, 0.008469407495002126
1095.0, 0.012099024817915943
1096.0, 0.009012645836792949
1097.0, 0.006938335671281186
1098.0, 0.007820504929690317
1099.0, 0.009808379901728413
1100.0, 0.0058060920142605985
1101.0, 0.010255007728528776
1102.0, 0.010878764783183684
1103.0, 0.007061753511584416
1104.0, 0.004187174034323808
1105.0, 0.012018136420553611
1106.0, 0.01162816919910695
1107.0, 0.005986622699708989
1108.0, 0.00744551063015398
1109.0, 0.009722623242808488
1110.0, 0.0005261958110315528
1111.0, 0.005818177113364758
1112.0, 0.010728974410931923
1113.0, 0.006895646590381766
1114.0, 0.003962744189781621
1115.0, 0.009634379447683226
1116.0, 0.0024001646792898915
1117.0, 0.005030963231103135
1118.0, 0.010832103584641326
1119.0, 0.009642474246970775
1120.0, 0.0021198466173420957
1121.0, 0.011211976768310941
1122.0, 0.01055163414206007
1123.0, 0.004393269064668806
1124.0, 0.005260492229714134
1125.0, 0.010061961070103776
1126.0, 0.0009856120901279913
1127.0, 0.005020051783741436
1128.0, 0.007775366865510024
1129.0, 0.0066520749176414064
1130.0, 0.004574493289224794
1131.0, 0.006081129581408629
1132.0, 0.006548962680073722
1133.0, 0.0025729418378924217
1134.0, 0.0057026941705433055
1135.0, 0.00732108869782392
1136.0, 0.0018148253076462673
1137.0, 0.00686076493999869
1138.0, 0.006440903980262307
1139.0, 0.003508226586489434
1140.0, 0.004518571122148533
1141.0, 0.008526114310380977
1142.0, 0.004666041437828988
1143.0, 0.005269917580265133
1144.0, 0.007085031416769249
1145.0, 0.007188565691598571
1146.0, 0.006141819674429991
1147.0, 0.0063259996325590335
1148.0, 0.0063382272383070495
1149.0, 0.0032341853090843906
1150.0, 0.009175718639915766
1151.0, 0.013762123440694534
1152.0, 0.0075940913373029086
1153.0, 0.002940850706246892
1154.0, 0.00927420597966774
1155.0, 0.007690375830099724
1156.0, 0.004832882054297706
1157.0, 0.006068381053891763
1158.0, 0.011541265489212124
1159.0, 0.00389554454834502
1160.0, 0.010998307686780956
1161.0, 0.011377161555806405
1162.0, 0.005429179113297397
1163.0, 0.00441283306548379
1164.0, 0.008799166100190842
1165.0, 0.005449168159782429
1166.0, 0.0053002052742522066
1167.0, 0.008035982109343266
1168.0, 0.009242288696958322
1169.0, 0.0009195865970712085
1170.0, 0.011363990587949898
1171.0, 0.006823419956992583
1172.0, 0.002060985924541193
1173.0, 0.0052206296315995965
1174.0, 0.014151928765217755
1175.0, 0.0029992429461997705
1176.0, 0.005631510587150726
1177.0, 0.007576952306758637
1178.0, 0.005278411462894478
1179.0, 0.0018184093165563632
1180.0, 0.009711714607964885
1181.0, 0.0077835543849896615
1182.0, 0.005253006999680647
1183.0, 0.0076334084144941495
1184.0, 0.011162385156486015
1185.0, 0.0024841671305842784
1186.0, 0.0034743030021622935
1187.0, 0.009058556164781047
1188.0, 0.006859159726025102
1189.0, 0.005760135112542199
1190.0, 0.017196039906730267
1191.0, 0.01816984307983058
1192.0, 0.01695271970670197
1193.0, 0.016606095553928685
1194.0, 0.010485109206220419
1195.0, 0.0008541262064402355
1196.0, 0.004313271967101738
1197.0, 0.010606366511388486
1198.0, 0.006181336995471714
1199.0, 0.006288638750646801
1200.0, 0.008040190256868078
1201.0, 0.0031514566131731203
1202.0, 0.007790575844010495
1203.0, 0.012980724685193326
1204.0, 0.007214563327263785
1205.0, 0.0062656696126932344
1206.0, 0.01444096804394958
1207.0, 0.011918420725823206
1208.0, 0.003175041886869638
1209.0, 0.009933139135327795
1210.0, 0.011332357907290121
1211.0, 0.007443335057632251
1212.0, 0.008658537466827172
1213.0, 0.018600088366551987
1214.0, 0.00664535572678994
1215.0, 0.006819994185468856
1216.0, 0.013421643800832382
1217.0, 0.015297142010297568
1218.0, 0.004010622232245843
1219.0, 0.015782132818975864
1220.0, 0.011525580994788072
1221.0, 0.006551736247864838
1222.0, 0.009212575663174502
1223.0, 0.018006202125360457
1224.0, 0.00799484678971271
1225.0, 0.007963334576702952
1226.0, 0.011612267848566775
1227.0, 0.011352313667349689
1228.0, 0.009429874873873081
1229.0, 0.01681285992835787
1230.0, 0.010650742007185026
1231.0, 0.010114645667139347
1232.0, 0.017212260162061666
1233.0, 0.01769400465057194
1234.0, 0.005723654359037036
1235.0, 0.010985811934893659
1236.0, 0.01643605862918552
1237.0, 0.013395378792640529
1238.0, 0.012173788451614367
1239.0, 0.014416161747297266
1240.0, 0.014798731960322893
1241.0, 0.01353791319532212
1242.0, 0.01710008640241576
1243.0, 0.012540073317197246
1244.0, 0.008945782509635408
1245.0, 0.012530063470179782
1246.0, 0.01717771185299126
1247.0, 0.007723666585517784
1248.0, 0.014090045134486813
1249.0, 0.018258077672512737
1250.0, 0.014012228223832988
1251.0, 0.006544048738055502
1252.0, 0.01936826134053371
1253.0, 0.011671451211649635
1254.0, 0.009718368550232894
1255.0, 0.013914701987099737
1256.0, 0.017141133466633283
1257.0, 0.01083960464177368
1258.0, 0.013227952865174988
1259.0, 0.015615733621920203
1260.0, 0.013428626947348183
1261.0, 0.014656024211200493
1262.0, 0.01758440459183111
1263.0, 0.0008047899806589371
1264.0, 0.009987510874102552
1265.0, 0.016359113358591793
1266.0, 0.010723348092233395
1267.0, 0.005610070508996664
1268.0, 0.013468892489727973
1269.0, 0.014417588176466278
1270.0, 0.006998072264926379
1271.0, 0.015578199467088376
1272.0, 0.018337624077492926
1273.0, 0.011989288071916408
1274.0, 0.01018128722658269
1275.0, 0.018508786010702386
1276.0, 0.01278449578435702
1277.0, 0.008661183513816464
1278.0, 0.010533308420268502
1279.0, 0.01431235659037244
1280.0, 0.009452617205954113
1281.0, 0.01350675877275285
1282.0, 0.011691205094168239
1283.0, 0.006672230749458626
1284.0, 0.008332495837631244
1285.0, 0.01619879949975429
1286.0, 0.004590041555977244
1287.0, 0.004652749413456173
1288.0, 0.009928997741437774
1289.0, 0.007534343036701568
1290.0, 0.004803233679500635
1291.0, 0.01169774407284217
1292.0, 0.01098625855399343
1293.0, 0.006179559852421541
1294.0, 0.008749288812869379
1295.0, 0.0077686308054588735
1296.0, 0.004398049374444121
1297.0, 0.008317750882943639
1298.0, 0.017888713698065533
1299.0, 0.007305509018702121
1300.0, 0.004268623742093544
1301.0, 0.008730431659416423
1302.0, 0.011340404952123687
1303.0, 0.002049824225492253
1304.0, 0.011415485702911475
1305.0, 0.006689917732202253
1306.0, 0.003209162768128533
1307.0, 0.008381731380871709
1308.0, 0.01502162843451394
1309.0, 0.002042240380379922
1310.0, 0.014450373371469996
1311.0, 0.014827378539802866
1312.0, 0.007784785747526552
1313.0, 0.007734266768695404
1314.0, 0.01594443423289158
1315.0, 0.005349972856916257
1316.0, 0.003579202274163795
1317.0, 0.015184060852657059
1318.0, 0.011677294900207308
1319.0, 0.0037707691294782703
1320.0, 0.00887780279209938
1321.0, 0.019459048915942412
1322.0, 0.003682823197646021
1323.0, 0.008571336565897678
1324.0, 0.01142067112983991
1325.0, 0.007248566078848451
1326.0, 0.004267132543641143
1327.0, 0.017843646247274476
1328.0, 0.0065452308657863644
1329.0, 0.004213216779808306
1330.0, 0.010227405085278914
1331.0, 0.0118261457275748
1332.0, 0.0009861536209220404
1333.0, 0.006220458463899198
1334.0, 0.012810797884394414
1335.0, 0.007072805262616338
1336.0, 0.006486837504540688
1337.0, 0.010753157715182338
1338.0, 0.008635562939810118
1339.0, 0.0008387605555438922
1340.0, 0.006025489093684152
1341.0, 0.004421356733320445
1342.0, 0.0032426212472508693
1343.0, 0.006419980647315304
1344.0, 0.010944970064363874
1345.0, 0.0028627575053652484
1346.0, 0.014402364203872229
1347.0, 0.012134748132146704
1348.0, 0.005453058143252125
1349.0, 0.006370170628993961
1350.0, 0.017175530723138623
1351.0, 0.005005617547515297
1352.0, 0.000935435983686629
1353.0, 0.011378211038693416
1354.0, 0.011877861134501991
1355.0, 0.0030648652463114655
1356.0, 0.0039001941274253004
1357.0, 0.01537092389899178
1358.0, 0.009353608294213049
1359.0, 0.009765803558258752
1360.0, 0.009729384182500071
1361.0, 0.005692750590540863
1362.0, 0.0017927758308371013
1363.0, 0.013430327097582486
1364.0, 0.0077519115335299435
1365.0, 0.0032526382453009262
1366.0, 0.010143933768207049
1367.0, 0.014776039574541698
1368.0, 0.0016153010518935272
1369.0, 0.008085538321352247
1370.0, 0.008463484444353022
1371.0, 0.004503844715062684
1372.0, 0.007447558007579597
1373.0, 0.010809894878030371
1374.0, 0.0038659007797066437
1375.0, 0.00037766794759573055
1376.0, 0.009924752009826922
1377.0, 0.004773759788700885
1378.0, 0.0027850963773025936
1379.0, 0.009689387562999068
1380.0, 0.016717261272568368
1381.0, 0.0008224203404395038
1382.0, 0.01404162316823452
1383.0, 0.01683341149013266
1384.0, 0.009179667963342407
1385.0, 0.009152889863952603
1386.0, 0.02196576412657203
1387.0, 0.009875365791769732
1388.0, 0.009547446176678484
1389.0, 0.01734233675480331
1390.0, 0.012667138770643054
1391.0, 0.006846795042401232
1392.0, 0.012560096980471634
1393.0, 0.021456967130481206
1394.0, 0.005717616777236045
1395.0, 0.00926236685455565
1396.0, 0.012325561424376515
1397.0, 0.008081160431164473
1398.0, 0.003348550950183256
1399.0, 0.013373109751403687
1400.0, 0.011991546415553214
1401.0, 0.009878509088126503
1402.0, 0.011655191533818427
1403.0, 0.009105778986868918
1404.0, 0.005965491024385905
1405.0, 0.015624077927874961
1406.0, 0.020264282380795584
1407.0, 0.00522729100524927
1408.0, 0.012115959686296036
1409.0, 0.015358788957899064
1410.0, 0.007476177494731961
1411.0, 0.003186918732961213
1412.0, 0.01931415555050036
1413.0, 0.0076885650252622745
1414.0, 0.007294111705872438
1415.0, 0.013913956378199867
1416.0, 0.015102769793890424
1417.0, 0.007417804108417542
1418.0, 0.014339798503115413
1419.0, 0.014776384406315894
1420.0, 0.006874469766117717
1421.0, 0.008593933023635024
1422.0, 0.012531491300612044
1423.0, 0.008733164026326444
1424.0, 0.0013527192066572161
1425.0, 0.021269366823723358
1426.0, 0.012124370299371478
1427.0, 0.007483778295375426
1428.0, 0.012075725190197768
1429.0, 0.014829188272332431
1430.0, 0.0039586065305163886
1431.0, 0.014173111898227557
1432.0, 0.01840745332386269
1433.0, 0.010292314274149627
1434.0, 0.013922149676078618
1435.0, 0.021147371315739804
1436.0, 0.012197303747124423
1437.0, 0.00657274778837549
1438.0, 0.0168288105534217
1439.0, 0.011876534209138267
1440.0, 0.011118083098432143
1441.0, 0.01982042391534266
1442.0, 0.026095448071918242
1443.0, 0.007300965874050952
1444.0, 0.016481892888137468
1445.0, 0.025298639944633734
1446.0, 0.015274539172582199
1447.0, 0.014273792765558891
1448.0, 0.026321418723560957
1449.0, 0.024430899428495516
1450.0, 0.009241347232371265
1451.0, 0.02744449846880618
1452.0, 0.020751201395827115
1453.0, 0.016352043120934957
1454.0, 0.023727156681433208
1455.0, 0.03127195314415717
1456.0, 0.019266207744724533
1457.0, 0.023035841341675994
1458.0, 0.029903068260552047
1459.0, 0.022179564851508442
1460.0, 0.019340688003722357
1461.0, 0.028349700372113852
1462.0, 0.025975302304112734
1463.0, 0.015442994387134569
1464.0, 0.027341617904961445
1465.0, 0.02213434393590647
1466.0, 0.015120345527989843
1467.0, 0.01965299149606107
1468.0, 0.03043149917914601
1469.0, 0.013126919393953614
1470.0, 0.017933186480041153
1471.0, 0.029217376467022264
1472.0, 0.022063986621991986
1473.0, 0.016332661196939442
1474.0, 0.024497379573012557
1475.0, 0.02356473757349726
1476.0, 0.006472028752680626
1477.0, 0.018452672072109225
1478.0, 0.021976909153581362
1479.0, 0.01679421723547733
1480.0, 0.017131991423515153
1481.0, 0.028277804286392334
1482.0, 0.012653389496000743
1483.0, 0.015016179111056434
1484.0, 0.02298730072565946
1485.0, 0.013713671621600481
1486.0, 0.011761064528583937
1487.0, 0.025446786903858275
1488.0, 0.021258780607649234
1489.0, 0.0071247410831385225
1490.0, 0.01816168328468129
1491.0, 0.018670661012553685
1492.0, 0.011521831033372879
1493.0, 0.011481763241084955
1494.0, 0.02144510698152341
1495.0, 0.007565122006648423
1496.0, 0.00946063772018662
1497.0, 0.020371124570583043
1498.0, 0.011116340185702478
1499.0, 0.010011109685116272
1500.0, 0.022967318474637736
1501.0, 0.01817914107100498
1502.0, 0.0032365134122788394
1503.0, 0.0150553768642855
1504.0, 0.019010300784788048
1505.0, 0.012487494923187651
1506.0, 0.013294995018365782
1507.0, 0.023306118405530932
1508.0, 0.006564001633069093
1509.0, 0.007308432784405529
1510.0, 0.02690583213462629
1511.0, 0.014229653117429263
1512.0, 0.008262084403597872
1513.0, 0.019404156360336145
1514.0, 0.02214235087803302
1515.0, 0.00016797313654837165
1516.0, 0.021743927193547015
1517.0, 0.01853071177292252
1518.0, 0.008740713156243808
1519.0, 0.013270686702629838
1520.0, 0.02343334425836532
1521.0, 0.008597749273341707
1522.0, 0.0004738568482144743
1523.0, 1.1451628599647797e-05
1524, 0.0
1525, 0.0
1526, 0.0
1527, 0.0
1528, 0.0
1529, 0.0
1530, 0.0
1531, 0.0
1532, 0.0
1533, 0.0
1534, 0.0
1535, 0.0
1536, 0.0
1537, 0.0
1538, 0.0
1539, 0.0
1540, 0.0
1541, 0.0
1542, 0.0
1543, 0.0
1544, 0.0
1545, 0.0
1546, 0.0
1547, 0.0
1548, 0.0
1549, 0.0
1550, 0.0
1551, 0.0
1552, 0.0
1553, 0.0
1554, 0.0
1555, 0.0
1556, 0.0
1557, 0.0
1558, 0.0
1559, 0.0
1560, 0.0
1561, 0.0
1562, 0.0
1563, 0.0
1564, 0.0
1565, 0.0
1566, 0.0
1567, 0.0
1568, 0.0
1569, 0.0
1570, 0.0
1571, 0.0
1572, 0.0
1573, 0.0
1574, 0.0
1575, 0.0
1576, 0.0
1577, 0.0
1578, 0.0
1579, 0.0
1580, 0.0
1581, 0.0
1582, 0.0
1583, 0.0
1584, 0.0
1585, 0.0
1586, 0.0
1587, 0.0
1588, 0.0
1589, 0.0
1590, 0.0
1591, 0.0
1592, 0.0
1593, 0.0
1594, 0.0
1595, 0.0
1596, 0.0
1597, 0.0
1598, 0.0
1599, 0.0
