30, 0.0
31, 0.0
32, 0.0
33, 0.0
34, 0.0
35, 0.0
36, 0.0
37, 0.0
38, 0.0
39, 0.0
40, 0.0
41, 0.0
42, 0.0
43, 0.0
44, 0.0
45, 0.0
46, 0.0
47, 0.0
48, 0.0
49, 0.0
50, 0.0
51, 0.0
52, 0.0
53, 0.0
54, 0.0
55, 0.0
56, 0.0
57, 0.0
58, 0.0
59, 0.0
60, 0.0
61, 0.0
62, 0.0
63, 0.0
64, 0.0
65, 0.0
66, 0.0
67, 0.0
68, 0.0
69, 0.0
70, 0.0
71, 0.0
72, 0.0
73, 0.0
74, 0.0
75, 0.0
76, 0.0
77, 0.0
78, 0.0
79, 0.0
80, 0.0
81, 0.0
82, 0.0
83, 0.0
84, 0.0
85, 0.0
86, 0.0
87, 0.0
88, 0.0
89, 0.0
90, 0.0
91, 0.0
92, 0.0
93, 0.0
94, 0.0
95, 0.0
96, 0.0
97, 0.0
98, 0.0
99, 0.0
100, 0.0
101, 0.0
102, 0.0
103, 0.0
104, 0.0
105, 0.0
106, 0.0
107, 0.0
108, 0.0
109, 0.0
110, 0.0
111, 0.0
112, 0.0
113, 0.0
114, 0.0
115, 0.0
116, 0.0
117, 0.0
118, 0.0
119, 0.0
120, 0.0
121, 0.0
122, 0.0
123, 0.0
124.0, 8.31110998175348e-05
125.0, 0.0010378597594146157
126.0, 0.002845685868647189
127.0, 0.004761529824432044
128.0, 0.006539172211863741
129.0, 0.007700082471091764
130.0, 0.005860924393362931
131.0, 0.002458848333661218
132.0, 0.0002672765010349955
133.0, 0.0003755199138622323
134.0, 0.00030136955412399366
135.0, 0.0001732326169537853
136.0, 0.0008945407262212573
137.0, 0.003099623180087619
138.0, 0.0038408848740246154
139.0, 0.0039657097160361
140.0, 0.0038219258495672016
141.0, 0.0034985128448889596
142.0, 0.0029782140814107114
143.0, 0.0026356312543618947
144.0, 0.00227600308157084
145.0, 0.002441980916426558
146.0, 0.003845027949346697
147.0, 0.0034926880374315187
148.0, 0.0027741754276939235
149.0, 0.002214225701757489
150.0, 0.0018144348334282023
151.0, 0.00198491876895788
152.0, 0.0023555945725393344
153.0, 0.0023761719185827115
154.0, 0.0021281329146442002
155.0, 0.0031677759657640285
156.0, 0.004446055493089664
157.0, 0.005236946537420196
158.0, 0.006151498497443446
159.0, 0.008658250677448978
160.0, 0.010629647796603013
161.0, 0.011757916511264763
162.0, 0.012881517379289366
163.0, 0.014869788216579086
164.0, 0.016168797231765075
165.0, 0.017826181861481088
166.0, 0.01971970942870275
167.0, 0.02140184008835818
168.0, 0.022790846441954813
169.0, 0.025210934662954407
170.0, 0.02759442222683047
171.0, 0.029719289985102735
172.0, 0.03278560994517536
173.0, 0.03537338067291466
174.0, 0.038484370135618465
175.0, 0.04232943997876096
176.0, 0.046358763755782774
177.0, 0.050995724604388004
178.0, 0.05443171494200611
179.0, 0.05775862984505669
180.0, 0.06214126013090791
181.0, 0.0657999270405553
182.0, 0.0683185584332383
183.0, 0.06952116267575255
184.0, 0.0697096832078307
185.0, 0.06958735843805758
186.0, 0.06984270854632961
187.0, 0.06921133707035716
188.0, 0.06631177260137894
189.0, 0.06099734917617175
190.0, 0.05834378360637516
191.0, 0.05607699977489669
192.0, 0.05211585952468347
193.0, 0.046689410452381216
194.0, 0.04464160655027519
195.0, 0.041332282801305575
196.0, 0.037696037328324064
197.0, 0.034952918936481274
198.0, 0.032598450453336945
199.0, 0.030481963037983305
200.0, 0.028671666896105525
201.0, 0.02715987153693585
202.0, 0.02589429306299284
203.0, 0.025132085890340477
204.0, 0.025379209218680143
205.0, 0.025564352470183523
206.0, 0.02527535028192366
207.0, 0.026405673572654158
208.0, 0.026251257710117704
209.0, 0.02681668447157656
210.0, 0.028484615895421183
211.0, 0.02930444114822455
212.0, 0.02977977758799066
213.0, 0.03120902839512926
214.0, 0.03259430679561319
215.0, 0.03257132229300929
216.0, 0.03162162259847421
217.0, 0.03127411883949179
218.0, 0.0313235016777567
219.0, 0.03084390367019311
220.0, 0.028456706208649242
221.0, 0.026077347918019668
222.0, 0.024119993174690896
223.0, 0.02191457283878062
224.0, 0.018633071778369963
225.0, 0.014808238178286803
226.0, 0.013261330973315678
227.0, 0.012882603633780269
228.0, 0.012035392895034488
229.0, 0.010234307572660353
230.0, 0.009111836406291481
231.0, 0.007870718973934205
232.0, 0.006432017038048291
233.0, 0.005272287116340119
234.0, 0.004835594379702707
235.0, 0.0039928983913235265
236.0, 0.003227283963327087
237.0, 0.003065014747904065
238.0, 0.003431625167861525
239.0, 0.00314013692405863
240.0, 0.003403939137989128
241.0, 0.004363337466347107
242.0, 0.004878168270928395
243.0, 0.0050139118630361645
244.0, 0.006288146963605588
245.0, 0.007367402370438393
246.0, 0.007367593309114147
247.0, 0.008560694306605967
248.0, 0.009357011018631303
249.0, 0.009229093253850124
250.0, 0.009383892178983303
251.0, 0.011228523434679923
252.0, 0.010388388108868492
253.0, 0.011045315895553576
254.0, 0.012469914849339809
255.0, 0.012779202642885625
256.0, 0.01213134829163926
257.0, 0.012456077889414836
258.0, 0.012002443828680964
259.0, 0.011632832308658586
260.0, 0.013478923295909905
261.0, 0.013148292591376292
262.0, 0.013869243868345673
263.0, 0.014325511556895149
264.0, 0.013741456349020601
265.0, 0.015088001893241216
266.0, 0.014030283015119624
267.0, 0.014342522721825731
268.0, 0.015568536183438841
269.0, 0.014555194188792272
270.0, 0.01366371274616333
271.0, 0.013776235054212977
272.0, 0.013094280893127433
273.0, 0.01117338860563657
274.0, 0.010813210557852162
275.0, 0.010959320210571121
276.0, 0.010077122328499883
277.0, 0.008230205016050474
278.0, 0.00665599359932952
279.0, 0.006178547115406033
280.0, 0.004168403689935856
281.0, 0.0032699438197805065
282.0, 0.0037157122383595117
283.0, 0.0023102714274914463
284.0, 0.00122717931876473
285.0, 0.0013651769684218142
286.0, 0.002100460010441528
287.0, 0.002143888855676011
288.0, 0.0003587856033825363
289.0, 0.0004556440185784535
290.0, 0.00025102934048639786
291.0, 0.0002338130707473027
292.0, 0.0005511632360700362
293.0, 0.001448051135590493
294.0, 0.0013318259859881488
295.0, 0.0010205335316228776
296.0, 0.001212200467770227
297.0, 0.001251273687108559
298.0, 0.002210252454078271
299.0, 0.0015846513473758645
300.0, 0.00011694442279508942
301.0, 0.0008222842362610691
302.0, 0.00045787623812052337
303.0, 0.001190931830262887
304.0, 0.0016483209981892155
305.0, 0.0014250122311888426
306.0, 0.0015421976713925693
307.0, 0.0011032960587530993
308.0, 0.0015213460682900457
309.0, 0.0020707423620891464
310.0, 0.0019750131511094087
311.0, 0.0015301022156292915
312.0, 0.0020425617498637323
313.0, 0.001953367476898666
314.0, 0.002119369974752286
315.0, 0.003151938781460638
316.0, 0.0013051250124918035
317.0, 0.0006551169439675656
318.0, 0.0012279469872069416
319.0, 0.0017092173796760968
320.0, 0.0012753767283956675
321.0, 0.000901709990787175
322.0, 0.002125123712050515
323.0, 0.0033591988009256555
324.0, 0.0034312514304298985
325.0, 0.0029099262299344232
326.0, 0.0022584735722989617
327.0, 0.002553313043719752
328.0, 0.0030603011306279543
329.0, 0.0026346953917422487
330.0, 0.0018212310327225727
331.0, 0.002440322406384382
332.0, 0.002830087175921138
333.0, 0.0022881836919106556
334.0, 0.0014859413909270984
335.0, 0.0009790260425279833
336.0, 0.0015691793570751387
337.0, 0.0022641913452661113
338.0, 0.0024219743178566953
339.0, 0.0022928202820777107
340.0, 0.001437229463833909
341.0, 0.0017090133143517908
342.0, 0.0022465981390657756
343.0, 0.001987129260121275
344.0, 0.0017592622113124993
345.0, 0.002316416977913764
346.0, 0.0011156683126215265
347.0, 0.0002367149758851263
348.0, 0.001648190799211772
349.0, 0.001382552452165145
350.0, 0.0013704423071024755
351.0, 0.0013590200152599095
352.0, 0.001236110532137458
353.0, 0.0012239823645539252
354.0, 0.0009289791615228575
355.0, 0.0017152700068835932
356.0, 0.0017843078704389147
357.0, 0.0010739231275889653
358.0, 0.001240955445211314
359.0, 0.0007022387550481009
360.0, 0.0003061665988298844
361.0, 0.00025880173101900804
362.0, 0.000934265616717868
363.0, 0.001622959994593341
364.0, 6.105929362370735e-05
365.0, 0.0004505014188762138
366.0, 0.00011366847148423337
367.0, 1.3383703924836022e-05
368.0, 5.2864259378826225e-05
369.0, 0.00026089661598784904
370.0, 0.000553926787853302
371.0, 0.0009073175007287621
372.0, 0.00039244012610002054
373.0, 0.00026763578110978065
374.0, 0.0007863551178390858
375.0, 0.0004817596879853002
376.0, 2.436593169247088e-05
377.0, 7.619751835659345e-05
378.0, 0.0004848221046475203
379.0, 0.0005891353154158665
380.0, 0.0009460462534584147
381.0, 0.0005367636987945833
382.0, 0.0008764699451671084
383.0, 0.0005683182692879414
384.0, 0.00043532847263911867
385.0, 0.0014078424844491308
386.0, 0.0016216328341038257
387.0, 0.0015583947422454227
388.0, 0.0018210796487129642
389.0, 0.0021396810707317504
390.0, 0.0022684586486199573
391.0, 0.002305996108619495
392.0, 0.002560734737615311
393.0, 0.003002791730774359
394.0, 0.002948884215445013
395.0, 0.0027359219202113694
396.0, 0.002726742869691256
397.0, 0.0029131611505677528
398.0, 0.003094998985785855
399.0, 0.003260626326215972
400.0, 0.004162053997449297
401.0, 0.005179894873729796
402.0, 0.004163920848329169
403.0, 0.004357505285802218
404.0, 0.005013381384184709
405.0, 0.0059201552259695546
406.0, 0.006803330330086605
407.0, 0.0060521184214068595
408.0, 0.005740353748912859
409.0, 0.005993086694803007
410.0, 0.0065042552445140605
411.0, 0.00663562525356912
412.0, 0.005850391076694248
413.0, 0.006238497255190255
414.0, 0.006521354153395615
415.0, 0.00592973679552683
416.0, 0.004921590714540719
417.0, 0.004697724925561323
418.0, 0.005463105104752861
419.0, 0.005704601561982917
420.0, 0.0052685770532364595
421.0, 0.004706654075060265
422.0, 0.004856151911755969
423.0, 0.004870488034728426
424.0, 0.004597638786846402
425.0, 0.004275064931140373
426.0, 0.004191155567607752
427.0, 0.0043476774170521995
428.0, 0.004675975833942809
429.0, 0.005166131447750775
430.0, 0.005459497825266928
431.0, 0.005755352866800432
432.0, 0.0066613399387385475
433.0, 0.00630564036397368
434.0, 0.007689566626473226
435.0, 0.009157964455118683
436.0, 0.009725488897221923
437.0, 0.01201398935945837
438.0, 0.01368903305198562
439.0, 0.01641496786059527
440.0, 0.018578483012029724
441.0, 0.020463310439027594
442.0, 0.02576560269774154
443.0, 0.031118337053180786
444.0, 0.036303811423321605
445.0, 0.043498701643041524
446.0, 0.05225226827431662
447.0, 0.05839004938977214
448.0, 0.06604831159104854
449.0, 0.07475873366603458
450.0, 0.08326271103232141
451.0, 0.09149670054926119
452.0, 0.09883161453992169
453.0, 0.1033901210183263
454.0, 0.10911790485358396
455.0, 0.11638696195927947
456.0, 0.12289173060303309
457.0, 0.12615483845456113
458.0, 0.1253407824727365
459.0, 0.11947452023785123
460.0, 0.11179717208713816
461.0, 0.10256122400298359
462.0, 0.09121817462286137
463.0, 0.08338840955221292
464.0, 0.07594936734966924
465.0, 0.06935079098931267
466.0, 0.06379884011184887
467.0, 0.057934889120875695
468.0, 0.048904523555457664
469.0, 0.04432168830916511
470.0, 0.03926434897330692
471.0, 0.03436829810695315
472.0, 0.032449910770171085
473.0, 0.032327132021719246
474.0, 0.02893783638304473
475.0, 0.027781135161267175
476.0, 0.026491026942896272
477.0, 0.023320874415180697
478.0, 0.022558675029560042
479.0, 0.019679361814496345
480.0, 0.01820484560275376
481.0, 0.01771621605262523
482.0, 0.01644831764670741
483.0, 0.014317622090308575
484.0, 0.013796581037423032
485.0, 0.011496122710365311
486.0, 0.008770884283373356
487.0, 0.007095276168254795
488.0, 0.006749742654515064
489.0, 0.005601525851679246
490.0, 0.004132370313392157
491.0, 0.0031412698508492894
492.0, 0.0026680244532620687
493.0, 0.0022698846258447586
494.0, 0.0019448866369119987
495.0, 0.0014343581596586203
496.0, 0.000932141733479577
497.0, 0.001582590984289994
498.0, 0.0002908282230045146
499.0, 0.00029829365395101615
500.0, 0.0002525555041333709
501.0, 0.0005621120819440986
502.0, 0.0002247940920253272
503.0, 0.0013702708905308297
504.0, 0.0012120908186645457
505.0, 0.00024750615116888675
506.0, 0.00047263472271049116
507.0, 0.00012810226320358268
508.0, 5.145026142942165e-05
509.0, 0.00032787276210067173
510.0, 0.000259815313248632
511.0, 0.0012653508055918581
512.0, 0.0017352111222648102
513.0, 0.0011982878743338266
514.0, 0.0006706368372095218
515.0, 0.001555495531640366
516.0, 0.0026223307047887677
517.0, 0.0031486436398090825
518.0, 0.004203131275227435
519.0, 0.004714141780417107
520.0, 0.0022479314058655143
521.0, 0.004745080642857503
522.0, 0.0056096676712725346
523.0, 0.004612022450052435
524.0, 0.004237820727813686
525.0, 0.005961176400074549
526.0, 0.007564422402235738
527.0, 0.007223333175111887
528.0, 0.006447526608198965
529.0, 0.006389750320346298
530.0, 0.006760953276923027
531.0, 0.0062859310280143025
532.0, 0.006427628341136666
533.0, 0.007011464860608645
534.0, 0.007088563317491716
535.0, 0.006399769576485885
536.0, 0.005619853540806354
537.0, 0.005362789513482112
538.0, 0.005257320948683708
539.0, 0.005198456537675519
540.0, 0.00531934765191281
541.0, 0.00583662881551852
542.0, 0.006706235543402974
543.0, 0.006228855200123141
544.0, 0.004872511622729826
545.0, 0.004234976195818424
546.0, 0.004347489093857189
547.0, 0.0035577177393550465
548.0, 0.0017201375987949998
549.0, 0.0031776165019384533
550.0, 0.0037711747168103697
551.0, 0.0021970829722887755
552.0, 0.0006224017462427981
553.0, 0.0012405872186698357
554.0, 0.0017707153265923451
555.0, 0.0017101409782868848
556.0, 0.0007719227829289636
557.0, 0.0004298776503993599
558.0, 0.00027140386377658756
559.0, 0.0015364248176158366
560.0, 0.0012749845962238887
561.0, 0.0002937889452855425
562.0, 0.000718581251119177
563.0, 0.001320762520038824
564.0, 0.0004360129661708618
565.0, 0.0004071882171497072
566.0, 0.000642047747635251
567.0, 0.00025964102577934265
568.0, 2.3858109605660883e-06
569.0, 6.767231313448222e-05
570.0, 0.00033104301942989264
571.0, 0.0016278985853797603
572.0, 0.0013587581529524322
573.0, 0.0005332511108243126
574.0, 0.001296229620364213
575.0, 0.0024135428346989383
576.0, 0.0022448374045115228
577.0, 0.0017944887292627879
578.0, 0.0022786859416022427
579.0, 0.0031387826400953974
580.0, 0.003081208748472332
581.0, 0.004030688298166582
582.0, 0.004362988193303873
583.0, 0.004571063702555134
584.0, 0.005250897421368513
585.0, 0.006386561934459242
586.0, 0.007370218220864168
587.0, 0.007519669835422363
588.0, 0.008152511330953422
589.0, 0.009022735727511048
590.0, 0.0101200499773539
591.0, 0.011525860071812099
592.0, 0.012268475512532458
593.0, 0.011792830491236486
594.0, 0.014044811648380031
595.0, 0.01612747032418864
596.0, 0.01662643627070239
597.0, 0.01791739935195331
598.0, 0.01875095297700668
599.0, 0.020614260072911762
600.0, 0.02276786550227876
601.0, 0.025398014154351257
602.0, 0.02856419700045489
603.0, 0.03132258216143904
604.0, 0.03490652886171527
605.0, 0.03912019284253987
606.0, 0.04371176349727615
607.0, 0.048688787586809626
608.0, 0.05338418209716617
609.0, 0.056060637354574054
610.0, 0.059425793142759836
611.0, 0.06234174916633042
612.0, 0.06170742631501313
613.0, 0.05860488359507595
614.0, 0.05691284962824067
615.0, 0.05536800307733918
616.0, 0.05510721758554207
617.0, 0.05804848375807938
618.0, 0.06220691886992874
619.0, 0.06573235666134875
620.0, 0.06919512482001168
621.0, 0.07334180952506944
622.0, 0.07766511480394238
623.0, 0.08240172676806656
624.0, 0.08743934324254275
625.0, 0.09353729596307665
626.0, 0.10290424617068934
627.0, 0.11277343830519186
628.0, 0.1258816285536024
629.0, 0.139226919662173
630.0, 0.15214520600153408
631.0, 0.16384349771293047
632.0, 0.1677485338229717
633.0, 0.15593243923521735
634.0, 0.13506038602289902
635.0, 0.10856736555333346
636.0, 0.08280504191405125
637.0, 0.06426978579570619
638.0, 0.05245069410042226
639.0, 0.0438396753490805
640.0, 0.03824875809968956
641.0, 0.034183618399219365
642.0, 0.030676092630829908
643.0, 0.028330706615166394
644.0, 0.02772761278320089
645.0, 0.024291328703429153
646.0, 0.02248745848699113
647.0, 0.02128529661444535
648.0, 0.01908261572471314
649.0, 0.017129087168529865
650.0, 0.016628854984852812
651.0, 0.01561103205548091
652.0, 0.013397411495069279
653.0, 0.010970708979373444
654.0, 0.00939486929257904
655.0, 0.008674257629041325
656.0, 0.0074637128881766025
657.0, 0.0057975688208093115
658.0, 0.004879932440967362
659.0, 0.004410956799777756
660.0, 0.004230424706183901
661.0, 0.004365911370080414
662.0, 0.0028421802052349273
663.0, 0.001547838243933139
664.0, 0.0011035612349466527
665.0, 0.0007395014225633943
666.0, 0.0005603498290344288
667.0, 0.0012383227142049157
668.0, 0.0008639964491367389
669.0, 0.000972894171008044
670.0, 0.0016117487260621003
671.0, 0.0022344223982891463
672.0, 0.0019386271763188968
673.0, 0.0006706166984447987
674.0, 0.00045204827201601624
675.0, 0.0007989422883984677
676.0, 9.674968977233222e-05
677.0, 0.0008520859484710003
678.0, 0.000977649746522207
679.0, 0.0007458475959734806
680.0, 0.0005535454520218839
681.0, 0.0005854595359006331
682.0, 0.00017545072812364694
683.0, 0.0008524389736435896
684.0, 0.0009971415398931807
685.0, 0.00021608898032257772
686.0, 3.9465668719075254e-05
687.0, 0.00024381008722001893
688.0, 0.0004113308964159618
689.0, 0.0003136189650123771
690.0, 0.00043380110958729534
691.0, 0.0010398782868753112
692.0, 0.0009851468365595477
693.0, 0.0005995166540252638
694.0, 0.0004636908110420741
695.0, 0.0008731706294085049
696.0, 0.0013692431680933151
697.0, 0.001484602352184146
698.0, 0.0014185961586150478
699.0, 0.0016709975891393773
700.0, 0.0020860595754376146
701.0, 0.002056176329500031
702.0, 0.0012484276991090895
703.0, 0.0007076466341402064
704.0, 0.002296167397939841
705.0, 0.004116131805164484
706.0, 0.005922156351268283
707.0, 0.006515920900775481
708.0, 0.007886849355684391
709.0, 0.010737063289085594
710.0, 0.012851920754004726
711.0, 0.015558163219080458
712.0, 0.018517251163752916
713.0, 0.02351370677509351
714.0, 0.028808315101899927
715.0, 0.034308897822866384
716.0, 0.04163552153810888
717.0, 0.04888181831972607
718.0, 0.05848934277703296
719.0, 0.06957676797750702
720.0, 0.08480285526572696
721.0, 0.09635126557404773
722.0, 0.09620837407712672
723.0, 0.09101301828894433
724.0, 0.08072375532862267
725.0, 0.0631071598770723
726.0, 0.041913621215001015
727.0, 0.02505943170637007
728.0, 0.015408502912872879
729.0, 0.008840925422884784
730.0, 0.005899762540997027
731.0, 0.0054468769411876025
732.0, 0.004737518527122192
733.0, 0.0035428697841644267
734.0, 0.0032412961928275142
735.0, 0.003674920774255861
736.0, 0.0013610722041670232
737.0, 0.000954585872162702
738.0, 0.0009836426830396037
739.0, 0.001156278136424378
740.0, 0.0015609679052086525
741.0, 0.001713669678768643
742.0, 0.0011387453136295516
743.0, 0.0011884348658563254
744.0, 0.0023815339105896045
745.0, 0.00141155922735737
746.0, 0.0005907147763050973
747.0, 0.0013661196286967575
748.0, 0.0013624482466567315
749.0, 0.001894777862368078
750.0, 0.0012924528949394443
751.0, 0.0008351659759944666
752.0, 0.0006893904669594655
753.0, 0.0008844250641814657
754.0, 0.001274100360914497
755.0, 0.0018071523266808443
756.0, 0.0030992549747867627
757.0, 0.0010368713939007252
758.0, 0.0009339592898817718
759.0, 0.0011696876396470623
760.0, 0.00020911529589963713
761.0, 0.0005142255630773799
762.0, 0.0007142556817401157
763.0, 0.000974709768934832
764.0, 0.00021775484842744813
765.0, 0.00010848301953929982
766.0, 0.00023028995351057348
767.0, 0.00048653360298558923
768.0, 0.0006456905077847975
769.0, 0.0004536315241139066
770.0, 0.0007252986615392612
771.0, 0.0007715765005474708
772.0, 0.0009649080778171963
773.0, 0.0012867615437637003
774.0, 0.0010306964737157346
775.0, 0.0006771559420910107
776.0, 0.00011875128726186711
777.0, 0.00014965846431059274
778.0, 7.441210792303838e-05
779.0, 0.0009551477455908956
780.0, 0.002334641915894634
781.0, 0.0011551395055232146
782.0, 0.00030288607957143433
783.0, 0.0009831848892873814
784.0, 0.001491243166711999
785.0, 0.0008620667817826448
786.0, 5.241735811380163e-05
787.0, 0.00016415899312721726
788.0, 0.0003092020594885008
789.0, 0.0019552147474342445
790.0, 0.002764017610050631
791.0, 0.0024539389301059993
792.0, 0.0012032571412441354
793.0, 0.0011440944544296465
794.0, 0.0034272910819199177
795.0, 0.0035127598053782934
796.0, 0.002079657751834721
797.0, 0.0012440080412322331
798.0, 0.0013654173564255215
799.0, 0.0010870447524050837
800.0, 0.00028882538544489756
801.0, 0.0007346874910866219
802.0, 0.002431028323311609
803.0, 0.0015043238349869575
804.0, 0.0011699031933213677
805.0, 0.0017090413175946332
806.0, 0.0017765031905731545
807.0, 0.0013275258143238156
808.0, 0.0015143698198608494
809.0, 0.002070524288291677
810.0, 0.0017778599987337432
811.0, 0.0012251185425162638
812.0, 0.0013331405117872352
813.0, 0.0020989488822816585
814.0, 0.00275228925996197
815.0, 0.00228276531999586
816.0, 0.002389369896943429
817.0, 0.001793245973631236
818.0, 0.002225762243678952
819.0, 0.0023123066972873395
820.0, 0.0011313972462684324
821.0, 0.0006354061245968552
822.0, 0.003041772170785352
823.0, 0.002576435839999142
824.0, 0.002669709951112599
825.0, 0.002879456537988698
826.0, 0.0036560150635329075
827.0, 0.0038835963559327776
828.0, 0.0029661193992990193
829.0, 0.003160272538987928
830.0, 0.0031008643589051014
831.0, 0.0009880662498594468
832.0, 0.0015755981655054259
833.0, 0.002645526870202481
834.0, 0.0021628065049481794
835.0, 0.001435545930872269
836.0, 0.0017178040783613132
837.0, 0.0017428268378001125
838.0, 0.0031832887036875386
839.0, 0.0024266886257586673
840.0, 0.002372107076934889
841.0, 0.0021794974414574395
842.0, 0.0006889017169823616
843.0, 0.0018985865959632762
844.0, 0.002514489771309558
845.0, 0.0031506806513285457
846.0, 0.0013853279879285317
847.0, 0.0012734829760853437
848.0, 0.002225432191854281
849.0, 0.002055032071462394
850.0, 0.001938560823579222
851.0, 0.0009746759432811178
852.0, 0.0012056671693875815
853.0, 0.001462874168100539
854.0, 0.000460835508917007
855.0, 0.0007162091323229903
856.0, 0.00044157334104661213
857.0, 0.0016576075004477557
858.0, 0.0006619385873633055
859.0, 0.0008486046315042428
860.0, 0.00014237107032248164
861.0, 0.0016199995557575893
862.0, 0.002452400055947402
863.0, 0.00100967606936769
864.0, 0.00037006287583806716
865.0, 0.0019299986172825207
866.0, 0.0006226094013743858
867.0, 0.001165585778493322
868.0, 0.0009158812411400575
869.0, 0.00014406226885762123
870.0, 0.0002443858139537661
871.0, 0.0004268199265029639
872.0, 0.0018274485398994053
873.0, 0.0011297152811979255
874.0, 0.0016533130925044574
875.0, 0.001083065095369593
876.0, 0.0002160513438819733
877.0, 0.0005502978084235667
878.0, 0.0013240231328080884
879.0, 0.0010260713678911478
880.0, 0.0017910844729447726
881.0, 0.0003458943410391809
882.0, 0.0003357363190756342
883.0, 0.0013701146410691435
884.0, 0.0012672813479187763
885.0, 0.0012270280491799052
886.0, 0.0025352320733770628
887.0, 0.00240177785976715
888.0, 0.0023289984477885416
889.0, 0.0026081323330177514
890.0, 0.002827187148435805
891.0, 0.002920514669157509
892.0, 0.0034193638585754186
893.0, 0.004374371645121411
894.0, 0.004476038826233744
895.0, 0.004604185815617696
896.0, 0.003978410210998318
897.0, 0.004832643549124331
898.0, 0.004218884656834014
899.0, 0.0037725211198511373
900.0, 0.004435772403587096
901.0, 0.004171757316363494
902.0, 0.002766537576444956
903.0, 0.004463355638878894
904.0, 0.001998401751401644
905.0, 0.0023942048243430583
906.0, 0.003150678310073832
907.0, 0.002468519036711342
908.0, 0.0025556345968266976
909.0, 0.003863763818038115
910.0, 0.001990420877214937
911.0, 0.00235809519908705
912.0, 0.0011364514698238134
913.0, 0.001153962764997223
914.0, 0.0011886936351420076
915.0, 0.0013182787351771333
916.0, 0.00259447791207672
917.0, 0.0026377155000274492
918.0, 0.0018167391268903378
919.0, 0.0017505791306317395
920.0, 0.002646731025316437
921.0, 0.0020448678165676283
922.0, 0.0013108351087197426
923.0, 0.0018268506929334345
924.0, 0.0027095478540757234
925.0, 0.0035143612523896375
926.0, 0.003613463091165468
927.0, 0.00191192119273827
928.0, 0.001238426598219203
929.0, 0.00180236759271302
930.0, 0.001972981407926978
931.0, 0.0019160054920834306
932.0, 0.0026885230298216854
933.0, 0.0023786203893475994
934.0, 0.002150199261401214
935.0, 0.0013962892207478228
936.0, 0.00021536256585753715
937.0, 0.0019824198942412934
938.0, 0.003014102212458347
939.0, 0.0009262856010597919
940.0, 0.0008777633208781322
941.0, 0.0007142806537535284
942.0, 0.0003229807681073483
943.0, 0.000178569783918043
944.0, 0.0004963811404502829
945.0, 0.00042439462894274064
946.0, 9.527781049048113e-05
947.0, 0.00032977796324008184
948.0, 0.00078842759487976
949.0, 0.0002772966886545919
950.0, 0.001451057247050568
951.0, 0.000299203967705567
952.0, 0.0009381155247410841
953.0, 0.000919926407888984
954.0, 0.0004802948984433457
955.0, 0.00021205128181301487
956.0, 0.0014575516978712045
957.0, 0.000342296353943255
958.0, 0.0012972703461181893
959.0, 0.0008219790413397817
960.0, 0.00014055254220016045
961.0, 0.0006276001531697448
962.0, 0.0004342270992748205
963.0, 0.00038804336407738805
964.0, 0.00015829347821647732
965.0, 0.0008308685409328222
966.0, 0.00032023206560441686
967.0, 0.001581822460059923
968.0, 0.0009602338425763221
969.0, 0.001288995576973143
970.0, 0.000881509745031253
971.0, 7.410177676718764e-05
972.0, 0.0006006611240170858
973.0, 0.0007629676206840709
974.0, 0.003163885994672341
975.0, 0.004890626397721174
976.0, 0.00521341783869248
977.0, 0.0073419883004575085
978.0, 0.009601989045644804
979.0, 0.011723817825118332
980.0, 0.014630423081488712
981.0, 0.016142975932830525
982.0, 0.01726176946559121
983.0, 0.02106186812690123
984.0, 0.02462441190141027
985.0, 0.02763796201489666
986.0, 0.0292266160602873
987.0, 0.030927234140165693
988.0, 0.03378281340444843
989.0, 0.037284067830505765
990.0, 0.04254740839381466
991.0, 0.047829264671130606
992.0, 0.05478805996101737
993.0, 0.06485726895816621
994.0, 0.07966597884069715
995.0, 0.09659296558723722
996.0, 0.1175729202593142
997.0, 0.14504066899923765
998.0, 0.17550714626449637
999.0, 0.21387726917654942
1000.0, 0.25945306653351086
1001.0, 0.3096793678851765
1002.0, 0.37160447730892876
1003.0, 0.4383806569611414
1004.0, 0.5046958855092236
1005.0, 0.5674492136216656
1006.0, 0.6169261666266743
1007.0, 0.6449014048369772
1008.0, 0.6541742953406356
1009.0, 0.6554950816151257
1010.0, 0.652419950760501
1011.0, 0.6465671949000517
1012.0, 0.6392403660149769
1013.0, 0.631355298273975
1014.0, 0.619320038947625
1015.0, 0.5949873792461048
1016.0, 0.5466192587319242
1017.0, 0.4650582552275797
1018.0, 0.3633475125255926
1019.0, 0.2641175396260658
1020.0, 0.1839167992260838
1021.0, 0.12831639129605626
1022.0, 0.09314236664749542
1023.0, 0.07000666366180346
1024.0, 0.05437552000193141
1025.0, 0.04512231314914692
1026.0, 0.03688261287546678
1027.0, 0.031635013533109824
1028.0, 0.02857030498305418
1029.0, 0.02562632699707438
1030.0, 0.022012181296888263
1031.0, 0.019012838988709996
1032.0, 0.01897195976302216
1033.0, 0.022893996479394538
1034.0, 0.03050132380996668
1035.0, 0.04350209457815566
1036.0, 0.06619972345266374
1037.0, 0.09547273032703155
1038.0, 0.12498729672321134
1039.0, 0.15513802128968332
1040.0, 0.1888986314411225
1041.0, 0.23064452855676212
1042.0, 0.2881177924760957
1043.0, 0.35782007322162357
1044.0, 0.4395308341219614
1045.0, 0.5406954402747883
1046.0, 0.6778591291052609
1047.0, 0.8578983562287076
1048.0, 0.9884516942499065
1049.0, 0.9173830941697999
1050.0, 0.6456986229697435
1051.0, 0.3533278617997663
1052.0, 0.1731911169975525
1053.0, 0.09087197307384581
1054.0, 0.05933389865487753
1055.0, 0.04927382610111487
1056.0, 0.0481196868711509
1057.0, 0.050187973582927356
1058.0, 0.05285078904477626
1059.0, 0.0558850246816483
1060.0, 0.05976259342692376
1061.0, 0.0639090527082755
1062.0, 0.07234106770155732
1063.0, 0.08280608249454668
1064.0, 0.09407072190403187
1065.0, 0.1054725671997469
1066.0, 0.13202698287783107
1067.0, 0.1585809703879119
1068.0, 0.14259083836068043
1069.0, 0.076876521576783
1070.0, 0.026431555537287633
1071.0, 0.00926173412682743
1072.0, 0.0027470064149720964
1073.0, 0.00027002267929676817
1074.0, 0.00017171324100169892
1075.0, 0.0009175712741867154
1076.0, 0.0010101445073669763
1077.0, 0.0009218144753192512
1078.0, 0.00205626634785201
1079.0, 0.003892410869597194
1080.0, 0.00439445005244722
1081.0, 0.005884346807211163
1082.0, 0.006644190017130536
1083.0, 0.006633504448152415
1084.0, 0.00582869444233705
1085.0, 0.004537057378462194
1086.0, 0.004103637379362799
1087.0, 0.003707985094474764
1088.0, 0.002954232790805524
1089.0, 0.0035810514993353257
1090.0, 0.0014293175595062153
1091.0, 0.002109670989591756
1092.0, 0.0012463966829008707
1093.0, 0.0005292601725229503
1094.0, 0.0006872579828132372
1095.0, 0.0005100230067297486
1096.0, 0.00017794964734365882
1097.0, 0.0003509032100300442
1098.0, 0.00023940263559149886
1099.0, 0.0003227328897329183
1100.0, 0.00045340063542404055
1101.0, 0.00021971745491279805
1102.0, 0.0015805392702116536
1103.0, 0.00151940005326365
1104.0, 0.0012452753609775587
1105.0, 0.0016921084205972058
1106.0, 0.0018199560451453145
1107.0, 0.0011493525795517466
1108.0, 0.0005110654043191235
1109.0, 0.0005305086258799411
1110.0, 0.000568703175813336
1111.0, 0.00013444719495049953
1112.0, 0.000160621012931235
1113.0, 0.0006920914446161548
1114.0, 0.0003515127103739152
1115.0, 0.0021739048855395635
1116.0, 0.005182168179311985
1117.0, 0.006605245387106632
1118.0, 0.0075024804350242716
1119.0, 0.008132326563378457
1120.0, 0.00911835571470046
1121.0, 0.011968036935568777
1122.0, 0.01206797319835188
1123.0, 0.013638041092710988
1124.0, 0.014564620353027665
1125.0, 0.014098251284297786
1126.0, 0.015407481914776944
1127.0, 0.01693960381864416
1128.0, 0.01608783536199185
1129.0, 0.015721520166924133
1130.0, 0.015074078313653747
1131.0, 0.016146437111717725
1132.0, 0.014214659805465154
1133.0, 0.012823119901811555
1134.0, 0.012104281345153416
1135.0, 0.011977526814547293
1136.0, 0.012613299304740989
1137.0, 0.013186823573515976
1138.0, 0.013484970105267237
1139.0, 0.014929953468134412
1140.0, 0.016888271661606797
1141.0, 0.016410647981828737
1142.0, 0.016336379037829512
1143.0, 0.016456844904792656
1144.0, 0.0184918672256358
1145.0, 0.020111239322614233
1146.0, 0.02187518180010834
1147.0, 0.022317762562851465
1148.0, 0.022486118044264876
1149.0, 0.02366070626105123
1150.0, 0.02351051825781703
1151.0, 0.0244919798246632
1152.0, 0.023800758200372467
1153.0, 0.024645997886301264
1154.0, 0.02396525938935844
1155.0, 0.025255142458093974
1156.0, 0.027726810473507134
1157.0, 0.027645151170147302
1158.0, 0.02751202712214714
1159.0, 0.02915178460466363
1160.0, 0.030257054688342118
1161.0, 0.030576811179378202
1162.0, 0.03264233334371233
1163.0, 0.03384998528387451
1164.0, 0.0346996588965212
1165.0, 0.03523847458811705
1166.0, 0.03666191087052501
1167.0, 0.03684567655022037
1168.0, 0.03595077040326335
1169.0, 0.03575360674436154
1170.0, 0.035975941323971444
1171.0, 0.03537522537882734
1172.0, 0.03512413845080606
1173.0, 0.03720330173676805
1174.0, 0.036854623267694425
1175.0, 0.03468092186987788
1176.0, 0.031293747118841954
1177.0, 0.0286412405068782
1178.0, 0.0261830779469104
1179.0, 0.02511294681469274
1180.0, 0.023822848805480638
1181.0, 0.022132633611022134
1182.0, 0.021423862141363468
1183.0, 0.020698165489816543
1184.0, 0.020566741831289637
1185.0, 0.022543966180666793
1186.0, 0.025274457880968104
1187.0, 0.023318848304828936
1188.0, 0.02702673048550226
1189.0, 0.02892439718350325
1190.0, 0.029630262646957145
1191.0, 0.032287071844634814
1192.0, 0.03369984507868816
1193.0, 0.03315840460552604
1194.0, 0.03442085650062102
1195.0, 0.034800150181247214
1196.0, 0.03231566949345816
1197.0, 0.03237323562337976
1198.0, 0.030133915494948635
1199.0, 0.026565808516848918
1200.0, 0.02286917803503105
1201.0, 0.01859630899801237
1202.0, 0.014693490506803228
1203.0, 0.012386953361660518
1204.0, 0.011059174717862797
1205.0, 0.008413918581073506
1206.0, 0.004952261432526554
1207.0, 0.004069819373287211
1208.0, 0.002922930443258317
1209.0, 0.0013626336422387934
1210.0, 0.0004918005422430775
1211.0, 0.0025010465470299593
1212.0, 0.0016637785107303943
1213.0, 0.0005464668188623225
1214.0, 0.0005909927409811875
1215.0, 0.0007992409035511815
1216.0, 0.0009588169148041582
1217.0, 0.0020875405393021374
1218.0, 0.000672279014653227
1219.0, 0.0004614874277828528
1220.0, 0.0007553718818725922
1221.0, 0.0005757281027446845
1222.0, 0.000300058091894717
1223.0, 0.001234784267059798
1224.0, 0.0002972281267931948
1225.0, 0.00022903877978961925
1226.0, 0.0006430519355637449
1227.0, 9.445971861393726e-05
1228.0, 0.0003919602154044
1229.0, 0.0012222399756523668
1230.0, 0.0011195314384219426
1231.0, 0.0014804285879495415
1232.0, 0.0022742591743139078
1233.0, 0.0029279938454640705
1234.0, 0.0013823961562674774
1235.0, 0.0007111935922413739
1236.0, 0.0023719188721211763
1237.0, 0.0011579482917593905
1238.0, 0.0010870800665018377
1239.0, 0.0014710726487929863
1240.0, 0.001950404160313661
1241.0, 0.0021155881981325033
1242.0, 0.0011000184334926087
1243.0, 0.0007130063657435806
1244.0, 0.0025395876122554393
1245.0, 0.0030885788354130454
1246.0, 0.001965955082546361
1247.0, 0.002278141655034888
1248.0, 0.0022739350289557015
1249.0, 0.003838485132465157
1250.0, 0.002733784055221727
1251.0, 0.002616333596904996
1252.0, 0.0037098854584506477
1253.0, 0.0027134946581583073
1254.0, 0.0009555579848327443
1255.0, 0.001274574462598674
1256.0, 0.002043347611163889
1257.0, 0.002616078502231364
1258.0, 0.003369411822025529
1259.0, 0.0026919847959068913
1260.0, 0.0019630436750798447
1261.0, 0.001803705344690843
1262.0, 0.0027479537467936933
1263.0, 0.0030101702913167883
1264.0, 0.0006476089132033088
1265.0, 0.0004345698030565176
1266.0, 0.0012765347923731091
1267.0, 0.002187847811821135
1268.0, 0.0013677642568505277
1269.0, 0.00039251371214037444
1270.0, 0.0014981416179257166
1271.0, 0.004338120601091015
1272.0, 0.003950637517016165
1273.0, 0.0039014741619607827
1274.0, 0.003114577440713101
1275.0, 0.003813795261835966
1276.0, 0.00231911910584813
1277.0, 0.0018718523489635055
1278.0, 0.002189792969689378
1279.0, 0.0015075002263076316
1280.0, 0.0010285655221766701
1281.0, 0.0004159894616797962
1282.0, 0.0005105478630069143
1283.0, 0.0009185579674540102
1284.0, 0.0006410893399041954
1285.0, 0.00014710860001799472
1286.0, 0.0005456300041304082
1287.0, 0.0017317698526074492
1288.0, 0.00021534668712123065
1289.0, 0.00026318212456492016
1290.0, 0.0002744216199127335
1291.0, 0.001477024147088771
1292.0, 0.00024346419112371406
1293, 0.0
1294, 0.0
1295, 0.0
1296, 0.0
1297, 0.0
1298, 0.0
1299, 0.0
1300, 0.0
1301, 0.0
1302, 0.0
1303, 0.0
1304, 0.0
1305, 0.0
1306, 0.0
1307, 0.0
1308, 0.0
1309, 0.0
1310, 0.0
1311, 0.0
1312, 0.0
1313, 0.0
1314, 0.0
1315, 0.0
1316, 0.0
1317, 0.0
1318, 0.0
1319, 0.0
1320, 0.0
1321, 0.0
1322, 0.0
1323, 0.0
1324, 0.0
1325, 0.0
1326, 0.0
1327, 0.0
1328, 0.0
1329, 0.0
1330, 0.0
1331, 0.0
1332, 0.0
1333, 0.0
1334, 0.0
1335, 0.0
1336, 0.0
1337, 0.0
1338, 0.0
1339, 0.0
1340, 0.0
1341, 0.0
1342, 0.0
1343, 0.0
1344, 0.0
1345, 0.0
1346, 0.0
1347, 0.0
1348, 0.0
1349, 0.0
1350, 0.0
1351, 0.0
1352, 0.0
1353, 0.0
1354, 0.0
1355, 0.0
1356, 0.0
1357, 0.0
1358, 0.0
1359, 0.0
1360, 0.0
1361, 0.0
1362, 0.0
1363, 0.0
1364, 0.0
1365, 0.0
1366, 0.0
1367, 0.0
1368, 0.0
1369, 0.0
1370, 0.0
1371, 0.0
1372, 0.0
1373, 0.0
1374, 0.0
1375, 0.0
1376, 0.0
1377, 0.0
1378, 0.0
1379, 0.0
1380, 0.0
1381, 0.0
1382, 0.0
1383, 0.0
1384, 0.0
1385, 0.0
1386, 0.0
1387, 0.0
1388, 0.0
1389, 0.0
1390, 0.0
1391, 0.0
1392, 0.0
1393, 0.0
1394, 0.0
1395, 0.0
1396, 0.0
1397, 0.0
1398, 0.0
1399, 0.0
1400, 0.0
1401, 0.0
1402, 0.0
1403, 0.0
1404, 0.0
1405, 0.0
1406, 0.0
1407, 0.0
1408, 0.0
1409, 0.0
1410, 0.0
1411, 0.0
1412, 0.0
1413, 0.0
1414, 0.0
1415, 0.0
1416, 0.0
1417, 0.0
1418, 0.0
1419, 0.0
1420, 0.0
1421, 0.0
1422, 0.0
1423, 0.0
1424, 0.0
1425, 0.0
1426, 0.0
1427, 0.0
1428, 0.0
1429, 0.0
1430, 0.0
1431, 0.0
1432, 0.0
1433, 0.0
1434, 0.0
1435, 0.0
1436, 0.0
1437, 0.0
1438, 0.0
1439, 0.0
1440, 0.0
1441, 0.0
1442, 0.0
1443, 0.0
1444, 0.0
1445, 0.0
1446, 0.0
1447, 0.0
1448, 0.0
1449, 0.0
1450, 0.0
1451, 0.0
1452, 0.0
1453, 0.0
1454, 0.0
1455, 0.0
1456, 0.0
1457, 0.0
1458, 0.0
1459, 0.0
1460, 0.0
1461, 0.0
1462, 0.0
1463, 0.0
1464, 0.0
1465, 0.0
1466, 0.0
1467, 0.0
1468, 0.0
1469, 0.0
1470, 0.0
1471, 0.0
1472, 0.0
1473, 0.0
1474, 0.0
1475, 0.0
1476, 0.0
1477, 0.0
1478, 0.0
1479, 0.0
1480, 0.0
1481, 0.0
1482, 0.0
1483, 0.0
1484, 0.0
1485, 0.0
1486, 0.0
1487, 0.0
1488, 0.0
1489, 0.0
1490, 0.0
1491, 0.0
1492, 0.0
1493, 0.0
1494, 0.0
1495, 0.0
1496, 0.0
1497, 0.0
1498, 0.0
1499, 0.0
1500, 0.0
1501, 0.0
1502, 0.0
1503, 0.0
1504, 0.0
1505, 0.0
1506, 0.0
1507, 0.0
1508, 0.0
1509, 0.0
1510, 0.0
1511, 0.0
1512, 0.0
1513, 0.0
1514, 0.0
1515, 0.0
1516, 0.0
1517, 0.0
1518, 0.0
1519, 0.0
1520, 0.0
1521, 0.0
1522, 0.0
1523, 0.0
1524, 0.0
1525, 0.0
1526, 0.0
1527, 0.0
1528, 0.0
1529, 0.0
1530, 0.0
1531, 0.0
1532, 0.0
1533, 0.0
1534, 0.0
1535, 0.0
1536, 0.0
1537, 0.0
1538, 0.0
1539, 0.0
1540, 0.0
1541, 0.0
1542, 0.0
1543, 0.0
1544, 0.0
1545, 0.0
1546, 0.0
1547, 0.0
1548, 0.0
1549, 0.0
1550, 0.0
1551, 0.0
1552, 0.0
1553, 0.0
1554, 0.0
1555, 0.0
1556, 0.0
1557, 0.0
1558, 0.0
1559, 0.0
1560, 0.0
1561, 0.0
1562, 0.0
1563, 0.0
1564, 0.0
1565, 0.0
1566, 0.0
1567, 0.0
1568, 0.0
1569, 0.0
1570, 0.0
1571, 0.0
1572, 0.0
1573, 0.0
1574, 0.0
1575, 0.0
1576, 0.0
1577, 0.0
1578, 0.0
1579, 0.0
1580, 0.0
1581, 0.0
1582, 0.0
1583, 0.0
1584, 0.0
1585, 0.0
1586, 0.0
1587, 0.0
1588, 0.0
1589, 0.0
1590, 0.0
1591, 0.0
1592, 0.0
1593, 0.0
1594, 0.0
1595, 0.0
1596, 0.0
1597, 0.0
1598, 0.0
1599, 0.0
