30.0, 0.0002929726543987098
31.0, 0.0004656782235265158
32.0, 0.0005737866540801808
33.0, 0.0005705339759073826
34.0, 0.000651812165100159
35.0, 0.0007074730984472377
36.0, 0.0006006566036756072
37.0, 0.0007503273518373136
38.0, 0.0008324401806766018
39.0, 0.0008024606871236569
40.0, 0.0007934244280545276
41.0, 0.000854908106401643
42.0, 0.0009046910316596765
43.0, 0.000824810015668194
44.0, 0.0009187948102401624
45.0, 0.0009690618594832378
46.0, 0.000938560878541003
47.0, 0.0009670745672019563
48.0, 0.000792097569891033
49.0, 0.0006014044983005141
50.0, 0.0006807712446585811
51.0, 0.00048111980653859477
52.0, 0.0002708839292372067
53.0, 0.00013097478778072486
54.0, 0.00045447005191009656
55.0, 0.00034530776273173204
56.0, 8.093512894832898e-05
57.0, 6.435716733580374e-05
58.0, 0.0001919641647596507
59.0, 0.00023823967365094526
60.0, 0.00015915706857912995
61.0, 0.0002724253788104425
62.0, 0.00033059789430973653
63.0, 0.0002962972068546326
64.0, 7.047563583256609e-05
65.0, 0.00022180831732117676
66.0, 0.00024250268404314647
67.0, 3.273943840743144e-05
68.0, 0.00014219103696213906
69.0, 0.00011889442377085782
70.0, 0.00016410244480838902
71.0, 0.0006302078307334756
72.0, 0.0013621584225084638
73.0, 0.0021071524079413623
74.0, 0.002808207964800691
75.0, 0.0034403633944615894
76.0, 0.0036314550071357542
77.0, 0.0034659888094901417
78.0, 0.0029400495250255145
79.0, 0.0027936226027054077
80.0, 0.0027639481392927336
81.0, 0.0028300933170286235
82.0, 0.003304741384572852
83.0, 0.003648261790929112
84.0, 0.004012632559811389
85.0, 0.004597722460836862
86.0, 0.00515066910977756
87.0, 0.0056521291999771135
88.0, 0.0061364685583453265
89.0, 0.006953870874540241
90.0, 0.007517444958744873
91.0, 0.007961832399918206
92.0, 0.00838917981341252
93.0, 0.009026895079918353
94.0, 0.009344129781709506
95.0, 0.009441652375691565
96.0, 0.010383114541871926
97.0, 0.010742977202772471
98.0, 0.011041716748439161
99.0, 0.011677849744985763
100.0, 0.011447322799213596
101.0, 0.011306194215114545
102.0, 0.011284083660442423
103.0, 0.01119954347704007
104.0, 0.011152050830186135
105.0, 0.010927278122750388
106.0, 0.01036573663350424
107.0, 0.010503373207814427
108.0, 0.010544613439608086
109.0, 0.010508737081223407
110.0, 0.010522937206082265
111.0, 0.010837359247456527
112.0, 0.011004339603932106
113.0, 0.010831220741585322
114.0, 0.010840658928021683
115.0, 0.010851663352781588
116.0, 0.010800753301976503
117.0, 0.010533219274549387
118.0, 0.010653989022394677
119.0, 0.01071047404916118
120.0, 0.01060330724029947
121.0, 0.010739738770849883
122.0, 0.010429077175840153
123.0, 0.010018315146838399
124.0, 0.0099461674714216
125.0, 0.01006920834787329
126.0, 0.010114931446906159
127.0, 0.010096452698681082
128.0, 0.010429404222369551
129.0, 0.010209044390707547
130.0, 0.009929703239397882
131.0, 0.009980664205845998
132.0, 0.009421413124981726
133.0, 0.008869147761818227
134.0, 0.008423232748296585
135.0, 0.008327179338876669
136.0, 0.008183681364389926
137.0, 0.007912505522840639
138.0, 0.007460271986239724
139.0, 0.007683169824780392
140.0, 0.00776393895555841
141.0, 0.007787365168750222
142.0, 0.007925123784504258
143.0, 0.007887933577642404
144.0, 0.008049826014795893
145.0, 0.008480852301693528
146.0, 0.008705054446218318
147.0, 0.009054534309254729
148.0, 0.009481283555428316
149.0, 0.009951572019585055
150.0, 0.010299484822566464
151.0, 0.010622062831435795
152.0, 0.0108941739943653
153.0, 0.010922139525459177
154.0, 0.010783650081554248
155.0, 0.01034195425251153
156.0, 0.009471971555996262
157.0, 0.008915824589166487
158.0, 0.008468567245655069
159.0, 0.008074854977810282
160.0, 0.007623155572581735
161.0, 0.006926267741518208
162.0, 0.006574620377998847
163.0, 0.006684703737957173
164.0, 0.0063561726062985255
165.0, 0.006002573356607052
166.0, 0.0059226383710649045
167.0, 0.0065183905942106666
168.0, 0.005920510656391045
169.0, 0.005812440888759047
170.0, 0.006138834243938266
171.0, 0.005909199113369785
172.0, 0.005830944740605879
173.0, 0.0057179520078438975
174.0, 0.005476010071545296
175.0, 0.0052343284674713645
176.0, 0.005171055111442233
177.0, 0.005252925677338366
178.0, 0.005450448283050688
179.0, 0.005337838187606612
180.0, 0.005186307070508635
181.0, 0.005064425991180507
182.0, 0.0050979012420434315
183.0, 0.005068919784885647
184.0, 0.005032063119717202
185.0, 0.0050275899259255505
186.0, 0.0052713093883518004
187.0, 0.005439619043579498
188.0, 0.0055205840231303295
189.0, 0.005502358471572352
190.0, 0.005483766469156729
191.0, 0.005524977120642466
192.0, 0.00562385363419181
193.0, 0.005456010011893448
194.0, 0.005008445017877991
195.0, 0.004632072823055376
196.0, 0.004710249765892268
197.0, 0.004639004033840473
198.0, 0.00456245499849723
199.0, 0.004540354748323828
200.0, 0.004753937816447652
201.0, 0.004661741578519522
202.0, 0.004427967478371876
203.0, 0.004129798070396968
204.0, 0.004368323043516344
205.0, 0.004465406532263765
206.0, 0.004387473208872101
207.0, 0.0040538032982351275
208.0, 0.0041849025737433765
209.0, 0.004232306627643898
210.0, 0.004106179170858727
211.0, 0.003655556371413275
212.0, 0.003680390624676865
213.0, 0.0036768172276580562
214.0, 0.003463161510624517
215.0, 0.0038428939325051894
216.0, 0.0038183226813549467
217.0, 0.003724397672916583
218.0, 0.0039830609509274185
219.0, 0.0035902768241319128
220.0, 0.0033468187838907354
221.0, 0.0033597286940862175
222.0, 0.003736881529966329
223.0, 0.0038115304751322266
224.0, 0.0037067821888022924
225.0, 0.0034679589444022553
226.0, 0.0033243649651303075
227.0, 0.0031563507012157977
228.0, 0.0030453331694308386
229.0, 0.003100462335889436
230.0, 0.003109942104282608
231.0, 0.0032110067609705684
232.0, 0.0032938112328438182
233.0, 0.0029269263742455684
234.0, 0.0031099940941274984
235.0, 0.00338328975512077
236.0, 0.0035457169122720027
237.0, 0.002868063338920018
238.0, 0.00273069652965212
239.0, 0.002812404116118591
240.0, 0.0028433624613218296
241.0, 0.002815468450380531
242.0, 0.002834840987809093
243.0, 0.002878262056362171
244.0, 0.002871694757741315
245.0, 0.0028759520090722852
246.0, 0.0029287366219851512
247.0, 0.0030203750153636535
248.0, 0.00297715273750859
249.0, 0.002997218179856739
250.0, 0.00300119859206535
251.0, 0.0029331873585558108
252.0, 0.0029636444916916497
253.0, 0.0028797643230324987
254.0, 0.002808839330194041
255.0, 0.002990115134642251
256.0, 0.0031383938794479335
257.0, 0.0030842969396061358
258.0, 0.002865750229372127
259.0, 0.0027856440864183415
260.0, 0.0026668081797716786
261.0, 0.0027616371186632116
262.0, 0.003152235714695828
263.0, 0.0029111306832224973
264.0, 0.0030312774514266168
265.0, 0.0030873409155592105
266.0, 0.0026086336193297645
267.0, 0.002634422170623688
268.0, 0.0026416754613403943
269.0, 0.00259884024508397
270.0, 0.002506771081478244
271.0, 0.0022254600712341118
272.0, 0.002259848004622859
273.0, 0.002643322056257812
274.0, 0.002738527344330554
275.0, 0.002406026524501233
276.0, 0.0021453719038260753
277.0, 0.0022389255097209253
278.0, 0.0022096014716607437
279.0, 0.002383319831479831
280.0, 0.002502035157314084
281.0, 0.0022104911862016164
282.0, 0.0022069607852329243
283.0, 0.002137335154070298
284.0, 0.0020103369866376827
285.0, 0.0019438878979653104
286.0, 0.0020745121397732747
287.0, 0.002204812872201294
288.0, 0.0022601654173057375
289.0, 0.002068860668436851
290.0, 0.0018313634864078718
291.0, 0.0017096620161522991
292.0, 0.0017969462343487975
293.0, 0.0012808159734480598
294.0, 0.0014333904297708787
295.0, 0.0017868853353377107
296.0, 0.0017584600633735483
297.0, 0.0018462736535182138
298.0, 0.00158132387748045
299.0, 0.001173493130751824
300.0, 0.0012829958129110348
301.0, 0.0013185918720866922
302.0, 0.0013828949370645253
303.0, 0.0014452036659760626
304.0, 0.0011667894030931018
305.0, 0.0013173500394895496
306.0, 0.0014770564130498637
307.0, 0.0014440442050154155
308.0, 0.0012909459765003723
309.0, 0.0015389313521626542
310.0, 0.0017897718504834078
311.0, 0.0016492376346617082
312.0, 0.0014245013458260263
313.0, 0.0013096005403977955
314.0, 0.0012664885977027962
315.0, 0.0012139512704104204
316.0, 0.0012723593031826197
317.0, 0.0012463998409339256
318.0, 0.0011815869896937197
319.0, 0.0013676358126235816
320.0, 0.0011781368612720081
321.0, 0.0010527983403442172
322.0, 0.0011415317799872435
323.0, 0.0015037197251345055
324.0, 0.0014778653170483883
325.0, 0.0012273507337213097
326.0, 0.0008470061008197993
327.0, 0.0009707449633334462
328.0, 0.00131153388674542
329.0, 0.001464261493912038
330.0, 0.0009476950653323639
331.0, 0.0009566460376149795
332.0, 0.0008207392187196948
333.0, 0.0007179855444307199
334.0, 0.001093434332402488
335.0, 0.0010694752659830048
336.0, 0.0010853806937641465
337.0, 0.0011802526019612425
338.0, 0.0012543615340290639
339.0, 0.0012167261686586383
340.0, 0.0011410932561354095
341.0, 0.0010639876727720212
342.0, 0.0011006227364034546
343.0, 0.0011751724365543555
344.0, 0.0012321614798215424
345.0, 0.0012299378031938714
346.0, 0.0009270157895873315
347.0, 0.0011367159395722296
348.0, 0.0013391355761693167
349.0, 0.0010741323007013935
350.0, 0.00111854158074434
351.0, 0.0008509798684824876
352.0, 0.0005854685912785142
353.0, 0.0008117386074330496
354.0, 0.0010033074356094295
355.0, 0.0008171964315986238
356.0, 0.0004476959950379299
357.0, 0.00042236876568878305
358.0, 0.0006048921720489662
359.0, 0.0006176754346468563
360.0, 0.0004992280928080389
361.0, 0.0006758810070285319
362.0, 0.0008015337731147626
363.0, 0.000831671806994774
364.0, 0.0007728473430568849
365.0, 0.0007860909828216229
366.0, 0.0007360830114307027
367.0, 0.0006639953578454444
368.0, 0.0005853644387257709
369.0, 0.00044730135809804546
370.0, 0.0003986669528654496
371.0, 0.00041856972164429275
372.0, 0.0004924886629858998
373.0, 0.0002255178945126931
374.0, 0.0002950371680694801
375.0, 0.0004481361593189893
376.0, 0.00039877151473922837
377.0, 0.0003615920805344418
378.0, 0.0005414322933374485
379.0, 0.0007190285243792768
380.0, 0.0005056792800209867
381.0, 0.0002922546995887592
382.0, 0.0003650595740501232
383.0, 0.0005884689333400818
384.0, 0.0005648048676999201
385.0, 0.0006952739771021332
386.0, 0.000491739144950887
387.0, 0.00012412788982814883
388.0, 0.0005181386594085271
389.0, 0.00044091953161659174
390.0, 0.0005458672866558129
391.0, 0.0008778227113035012
392.0, 0.0007281173415220079
393.0, 0.0006187868099028365
394.0, 0.0006489569648709414
395.0, 0.0008123259705544144
396.0, 0.0007007294469608054
397.0, 0.0007506029018328444
398.0, 0.000757132802268976
399.0, 0.0006315335319517586
400.0, 0.0006848204242845659
401.0, 0.0005934280068305793
402.0, 0.0003647488160258356
403.0, 1.9860845740251286e-05
404.0, 0.00046612273245703856
405.0, 0.0004392021405665874
406.0, 0.0003160288628857259
407.0, 0.00044584589719808866
408.0, 0.00026215166201142134
409.0, 0.00032930771660831797
410.0, 0.0004120790631500834
411.0, 0.00021236799961016998
412.0, 0.00023197242825859527
413.0, 0.00022169566089671647
414.0, 0.00024254458238539696
415.0, 0.00041105555029350305
416.0, 0.0002845354568559109
417.0, 0.0003522690254132194
418.0, 0.00047219420818344986
419.0, 0.00028556520504589833
420.0, 0.0005346982269193065
421.0, 0.0004958935012759891
422.0, 0.00027895053114549144
423.0, 0.0003608982763041256
424.0, 0.000664368319869386
425.0, 0.0008567849599370058
426.0, 0.0009161586998955182
427.0, 0.0009331734356324404
428.0, 0.0007113785938753715
429.0, 0.000827725684648327
430.0, 0.0012496728704519742
431.0, 0.001419578424099022
432.0, 0.0017379006689533028
433.0, 0.0019920077449973425
434.0, 0.0021125095806652843
435.0, 0.00202836430347926
436.0, 0.0023064111823962582
437.0, 0.002577314822650216
438.0, 0.00275472594375577
439.0, 0.0029762351655271933
440.0, 0.0038967593306099006
441.0, 0.004746395403410952
442.0, 0.005348598193997242
443.0, 0.0063219244204215045
444.0, 0.007484050922175496
445.0, 0.009048461612254968
446.0, 0.011168742952505056
447.0, 0.01428183059432045
448.0, 0.01753153316722898
449.0, 0.021958672194263732
450.0, 0.027871150002411138
451.0, 0.033459286796718314
452.0, 0.03741828756356075
453.0, 0.042884269671488895
454.0, 0.05050132577712235
455.0, 0.05018866388060403
456.0, 0.05189715125540335
457.0, 0.05514413170437519
458.0, 0.06035269624571452
459.0, 0.07507769428255136
460.0, 0.09359522520553297
461.0, 0.11265198525266777
462.0, 0.1292059924366076
463.0, 0.12747644913919162
464.0, 0.11134157992469343
465.0, 0.08875943963591122
466.0, 0.06484049359156097
467.0, 0.04683610631706735
468.0, 0.03378999750365622
469.0, 0.02439500049760163
470.0, 0.017930130785109372
471.0, 0.014079197434367745
472.0, 0.01126135352697633
473.0, 0.009273458413788098
474.0, 0.007938072982524308
475.0, 0.006155325604257388
476.0, 0.005324593858328937
477.0, 0.0047888319891924045
478.0, 0.004157768964376888
479.0, 0.0037554960579023054
480.0, 0.003279354361848814
481.0, 0.0028252183608592834
482.0, 0.0024548156517300887
483.0, 0.002180663691617183
484.0, 0.002316322013082326
485.0, 0.0021996136581183376
486.0, 0.0015035634619742502
487.0, 0.0013702613889748812
488.0, 0.0010210764270764828
489.0, 0.0009844178029564004
490.0, 0.0014778295264908608
491.0, 0.001293345259729503
492.0, 0.0012320396036041418
493.0, 0.0010354274080655065
494.0, 0.0006105285814887954
495.0, 0.0005157059131455699
496.0, 0.000458281889430621
497.0, 0.0005114000082169402
498.0, 0.0006698414814751837
499.0, 0.0005237885494054267
500.0, 0.0005923395796317265
501.0, 0.0007338760822612791
502.0, 0.0008147456881127655
503.0, 0.00029657372229174037
504.0, 0.0004932656406624217
505.0, 0.0006647281097610823
506.0, 0.0005789148957907995
507.0, 0.0007536245132416311
508.0, 0.0004127881857085413
509.0, 0.00021662892078080058
510.0, 0.0003241094624200439
511.0, 0.00024241169587514957
512.0, 0.00047079779244167284
513.0, 0.0005533398673058131
514.0, 0.00049154143328397
515.0, 0.0009748807246365643
516.0, 0.000929176962531408
517.0, 0.0008340208037853636
518.0, 0.0007747381038730303
519.0, 0.0005775757372569906
520.0, 0.0005538575063383725
521.0, 0.000755248920209727
522.0, 0.0009560824121961506
523.0, 0.000398605872680604
524.0, 0.0006548667211890374
525.0, 0.0006325830382817865
526.0, 0.00031806966199084835
527.0, 0.00018505360938843768
528.0, 0.0002583399372219669
529.0, 0.0002257992055885236
530.0, 0.0002421778888179547
531.0, 0.0007265682611731928
532.0, 0.00023731237509947654
533.0, 0.0004195453230566529
534.0, 0.0008635465044116397
535.0, 0.0006021269248347842
536.0, 0.00025114503112517826
537.0, 0.00010054495971798114
538.0, 8.351387728154519e-05
539.0, 8.670568782383842e-05
540.0, 0.00037187569050885477
541.0, 0.0004186599567757152
542.0, 0.000322540824608389
543.0, 0.0002038011200308959
544.0, 0.00027696291310098096
545.0, 0.00017736813541730607
546.0, 0.0001584255727320758
547.0, 0.0004020734461532029
548.0, 0.00021656524920734936
549.0, 0.00011514245951015673
550.0, 0.00012682599115860528
551.0, 0.00024169611785784348
552.0, 0.00013855225862566313
553.0, 0.00015904388370979386
554.0, 0.0004020460303714892
555.0, 0.0008167892971376564
556.0, 0.0007229522902294438
557.0, 0.0005510929812867255
558.0, 0.0003700419573412814
559.0, 0.00028427173154447767
560.0, 0.000654559351045808
561.0, 0.0007646476004843298
562.0, 0.0006381537403469798
563.0, 0.0004233633622764433
564.0, 0.0005653689171955246
565.0, 0.0003322033923854024
566.0, 0.00021672563008304352
567.0, 0.00023038781622439987
568.0, 0.0002226046825384832
569.0, 0.00014747200656297483
570.0, 0.000315240108535186
571.0, 0.0005210042359570604
572.0, 0.00040461923688625003
573.0, 0.0007265364433238163
574.0, 0.0005415904952683634
575.0, 0.00036018971869348625
576.0, 0.0007523145154521975
577.0, 0.00036894349078891184
578.0, 0.000463005014345121
579.0, 0.000771921206847654
580.0, 0.0010496884051409345
581.0, 0.0006995107364330839
582.0, 0.0006954922651116185
583.0, 0.000745444117702133
584.0, 0.0007354107842530798
585.0, 0.0009174011382572523
586.0, 0.0010577604121651115
587.0, 0.0012104203491437402
588.0, 0.00140275804051311
589.0, 0.0016705799543529844
590.0, 0.0018723357430128873
591.0, 0.0018403297025635535
592.0, 0.0017056500858659287
593.0, 0.00188280285266026
594.0, 0.001742383240610009
595.0, 0.0018463528199991967
596.0, 0.0021331115160229393
597.0, 0.0024010205383600647
598.0, 0.002150801435037184
599.0, 0.0022821418177646187
600.0, 0.0025096518177340826
601.0, 0.0025238398350614
602.0, 0.0032980051189126693
603.0, 0.0034018014344670373
604.0, 0.00349666479901084
605.0, 0.003996547606464517
606.0, 0.004564245454172994
607.0, 0.00499072858955152
608.0, 0.005586625759217129
609.0, 0.006519778340338697
610.0, 0.007970905551029535
611.0, 0.010315587164724043
612.0, 0.01387742385646973
613.0, 0.018800249288891763
614.0, 0.02525538558994815
615.0, 0.03446107300035238
616.0, 0.043374717094502815
617.0, 0.049858650091966855
618.0, 0.051161669146406887
619.0, 0.04670732176722287
620.0, 0.039553120924283425
621.0, 0.0320386262656298
622.0, 0.02632995528643731
623.0, 0.0219674946822043
624.0, 0.019741566277995132
625.0, 0.018595098585335805
626.0, 0.017936194337461173
627.0, 0.017983217346344935
628.0, 0.019021510800413623
629.0, 0.019849920274560815
630.0, 0.02001280098753286
631.0, 0.01930459986359416
632.0, 0.01733058149296079
633.0, 0.014281922802127471
634.0, 0.010915143117422659
635.0, 0.008591064700614567
636.0, 0.006799490067106672
637.0, 0.00534463715352982
638.0, 0.004503924523942416
639.0, 0.004525475313496803
640.0, 0.004128806179145699
641.0, 0.004286800127681592
642.0, 0.00441107499644239
643.0, 0.004263370933706065
644.0, 0.004779611797564198
645.0, 0.005222653031452618
646.0, 0.005596356825777993
647.0, 0.005799295694283022
648.0, 0.005493408042958904
649.0, 0.005590710012390097
650.0, 0.00537230265698509
651.0, 0.0048336889870510035
652.0, 0.004162338397935246
653.0, 0.004247245475938637
654.0, 0.0036941610979277745
655.0, 0.0031163034896222806
656.0, 0.003093262620968303
657.0, 0.002760947055305853
658.0, 0.002320840141713886
659.0, 0.0017689519101139796
660.0, 0.0011885416300566952
661.0, 0.0010177089009648064
662.0, 0.0008487759441608606
663.0, 0.000731745588693839
664.0, 0.0006634034253148534
665.0, 0.0006064372759194413
666.0, 0.000715511889633828
667.0, 0.0006927058657435576
668.0, 0.0005742888571646693
669.0, 0.00044337763667363363
670.0, 0.0004890708703714229
671.0, 0.00040392740713677037
672.0, 0.0003047031643552726
673.0, 0.00029294951815067366
674.0, 0.0005463399489270262
675.0, 0.00028251820538665863
676.0, 0.00029409205888804085
677.0, 0.0005382947050777016
678.0, 0.00018267817313965092
679.0, 0.0001198261371430015
680.0, 9.826928572371436e-05
681.0, 0.0001801299569135528
682.0, 0.00048407392861138734
683.0, 0.0006105511637773482
684.0, 0.0005969972188771444
685.0, 0.000502906675988587
686.0, 0.0003626916720291856
687.0, 9.264462063638577e-05
688.0, 0.0003754058783457213
689.0, 0.0004184976187958984
690.0, 0.0001883407882368746
691.0, 0.0003504124211525252
692.0, 0.00024274879291733535
693.0, 0.00019851799476690012
694.0, 0.0002297410500825161
695.0, 0.0002939309006543536
696.0, 0.00013271900549246678
697.0, 0.0001562487946496196
698.0, 0.00016943204910363556
699.0, 8.994305698382807e-05
700.0, 0.00024589062234441875
701.0, 0.0004184210628831738
702.0, 0.0005187023579162551
703.0, 0.00046940490227933857
704.0, 0.00014209476139232037
705.0, 9.977454422128318e-05
706.0, 0.00016846152458182471
707.0, 0.000281582997352479
708.0, 0.0003669796382600464
709.0, 0.0001044482558000196
710.0, 0.0003997178946395179
711.0, 0.00048736948015718384
712.0, 0.0001339595075087851
713.0, 0.0001960982020300495
714.0, 0.0005044295550393024
715.0, 0.0004619584619083755
716.0, 0.00023683216056453945
717.0, 0.00039153566755968736
718.0, 0.00040670225620603826
719.0, 0.00031389712636670187
720.0, 0.00018701468308440506
721.0, 9.154381663303391e-05
722.0, 3.837065411135851e-05
723.0, 0.00023015137464872025
724.0, 0.000288874266788601
725.0, 0.0001676028709782773
726.0, 0.00015199809698345803
727.0, 0.00018047573240906063
728.0, 0.0003156023532663883
729.0, 0.0003771436662184381
730.0, 0.0001464335647746721
731.0, 8.266489261438466e-05
732.0, 0.0001347948730201839
733.0, 0.00045547333962284967
734.0, 0.0008807897410813381
735.0, 0.0002501987671866873
736.0, 0.0003859521265410342
737.0, 0.00042723937441503245
738.0, 0.0003030115316882126
739.0, 0.0002020367738683242
740.0, 0.000512117852229472
741.0, 0.0004941552183206955
742.0, 0.00031786795807873294
743.0, 0.00015133010977817996
744.0, 0.00014985065490916405
745.0, 8.008693551296144e-05
746.0, 0.00019289073139845794
747.0, 0.0003511879111808738
748.0, 7.451664125642142e-05
749.0, 4.842711511226341e-05
750.0, 7.645347224009028e-05
751.0, 0.00012416404244726772
752.0, 0.00017347693468856913
753.0, 0.00026696641459718194
754.0, 0.00020643517551559784
755.0, 0.0002329486307377431
756.0, 0.0003573401910200557
757.0, 0.00035737985001888574
758.0, 0.00016243009242012827
759.0, 0.00011051129866026819
760.0, 0.00013706927180654415
761.0, 0.00013231562566085888
762.0, 0.00010547209770562065
763.0, 0.0001233099329352291
764.0, 0.00015251782795852405
765.0, 0.00017164175132339187
766.0, 0.00015859704035056543
767.0, 0.0002411426277314841
768.0, 0.00047257534910667356
769.0, 0.000581313007126594
770.0, 0.0002841536942764368
771.0, 0.00045639701282102613
772.0, 0.00048274717969162535
773.0, 0.000344498272927254
774.0, 0.00017664198573796267
775.0, 0.0004682075688710822
776.0, 0.000271664854511222
777.0, 0.0002304977075911602
778.0, 0.0003791917489743389
779.0, 0.0006174466730383943
780.0, 0.00023251167748704842
781.0, 0.000679626325639361
782.0, 0.0007332078103737489
783.0, 0.00021092727445443067
784.0, 0.00042276128660124427
785.0, 0.00014397526264608307
786.0, 9.010255262755244e-05
787.0, 0.00019565241248206298
788.0, 0.0002791531545378535
789.0, 0.0004509746653300347
790.0, 0.0005319940753792351
791.0, 0.0005459545667670552
792.0, 0.0005364682104325813
793.0, 0.000602025637996099
794.0, 0.00043639554102023275
795.0, 0.0002243180730230726
796.0, 0.0001695797460457219
797.0, 0.0004208786482212792
798.0, 0.0004863011267441774
799.0, 0.0004786640293274979
800.0, 0.0006582500354740269
801.0, 0.0009662162911912228
802.0, 0.001004948737842122
803.0, 0.0007064083104170615
804.0, 0.0007446834440772349
805.0, 0.0008444187718779778
806.0, 0.0007020022278344991
807.0, 0.00022881549108577114
808.0, 0.0002640025886969592
809.0, 0.00024142811514762976
810.0, 0.00016807068537442815
811.0, 0.0003929074748193352
812.0, 0.000339587754364708
813.0, 0.0005135173225051129
814.0, 0.00047802474055092924
815.0, 0.000151072439342734
816.0, 0.0008289213393292599
817.0, 0.00108200510335447
818.0, 0.0009417580939196697
819.0, 0.0006430162890348189
820.0, 0.0005377895401223069
821.0, 0.0006455062026560357
822.0, 0.0005644246162061053
823.0, 0.000685240105179188
824.0, 0.0010679000346476926
825.0, 0.0011992917137952045
826.0, 0.0011492790034853544
827.0, 0.0008558642987769437
828.0, 0.0006915999344332283
829.0, 0.0010122565833261398
830.0, 0.001188636145159556
831.0, 0.0008708179487996328
832.0, 0.0008244932273017828
833.0, 0.0010463659860154182
834.0, 0.0009169836111072136
835.0, 0.00096065377749484
836.0, 0.0008798143739644844
837.0, 0.0008103107256524993
838.0, 0.0008489690565392551
839.0, 0.0009136041076209554
840.0, 0.0008507341810251599
841.0, 0.0009793050955397263
842.0, 0.0011371899021422006
843.0, 0.0010275169483560276
844.0, 0.00146531258463937
845.0, 0.001984477512737421
846.0, 0.002026418991586056
847.0, 0.0017275118127247037
848.0, 0.002231726505007143
849.0, 0.0016545479898678404
850.0, 0.0016518286280605957
851.0, 0.0017829764693178334
852.0, 0.001625398098393792
853.0, 0.0018898949295560344
854.0, 0.0017040974017468325
855.0, 0.001958710595496311
856.0, 0.00258744607702314
857.0, 0.003104579874792029
858.0, 0.003169153074150202
859.0, 0.0031614770555488873
860.0, 0.0033176549594010492
861.0, 0.003619144117021547
862.0, 0.0036348992280589784
863.0, 0.0031098282952303287
864.0, 0.0030892907082323167
865.0, 0.0030250339107823184
866.0, 0.0024435753570889187
867.0, 0.0021730110268513548
868.0, 0.001880024244639448
869.0, 0.0017635438549384464
870.0, 0.0016496915753057943
871.0, 0.0012292253956716727
872.0, 0.001897668879460699
873.0, 0.001627931706178627
874.0, 0.0014617144912403442
875.0, 0.0016516006619897345
876.0, 0.0015070476364398898
877.0, 0.0011555065141534314
878.0, 0.0012494230356668065
879.0, 0.0014400210387618714
880.0, 0.0013665950671663894
881.0, 0.0008222905176119678
882.0, 0.0011342618214003257
883.0, 0.0010131817419904822
884.0, 0.0008163340856856792
885.0, 0.0012353226943803964
886.0, 0.000813602485096909
887.0, 0.0013648297255959444
888.0, 0.0018870989452240377
889.0, 0.0019361398415667294
890.0, 0.0013825903055466658
891.0, 0.001593828657308094
892.0, 0.001883765794262537
893.0, 0.0017998451304101146
894.0, 0.0014430475361631755
895.0, 0.002118157560668361
896.0, 0.002258764014040963
897.0, 0.0025830511648489572
898.0, 0.002625332220703638
899.0, 0.0020952058910136497
900.0, 0.0024389273663265286
901.0, 0.0023768112188256845
902.0, 0.002138623035385102
903.0, 0.0020114192052485
904.0, 0.0022681307314663304
905.0, 0.002037011922033692
906.0, 0.0017217053526819776
907.0, 0.0016879013997983983
908.0, 0.0019483058713010198
909.0, 0.0022289362597765192
910.0, 0.0014613617003702308
911.0, 0.001298417995385879
912.0, 0.001413746006735261
913.0, 0.0015038173481722867
914.0, 0.001299551077791522
915.0, 0.0013448681303463723
916.0, 0.0013597246604705384
917.0, 0.0014524564319665194
918.0, 0.001637013019560992
919.0, 0.0014057711761711312
920.0, 0.0013389241873344013
921.0, 0.0013702603617744764
922.0, 0.0013371117387138112
923.0, 0.0011240240309669542
924.0, 0.0012788964616128687
925.0, 0.0013868927042739732
926.0, 0.0014215861835234693
927.0, 0.0014737088515295658
928.0, 0.0016766661636995893
929.0, 0.0015398318702102144
930.0, 0.0019752294130945675
931.0, 0.002107101388113481
932.0, 0.0017478081681276774
933.0, 0.0012864133419444685
934.0, 0.0016510931655925381
935.0, 0.0013034257822859957
936.0, 0.00135714494988447
937.0, 0.001952001661894875
938.0, 0.0015991178611993407
939.0, 0.001602702853388507
940.0, 0.0015913704234590015
941.0, 0.0016427763630802001
942.0, 0.0017992840264588782
943.0, 0.0019331709179852535
944.0, 0.0021614504482491323
945.0, 0.001863701840882698
946.0, 0.001614232815707329
947.0, 0.0019209470128857447
948.0, 0.0022039840369191986
949.0, 0.0018899976208174667
950.0, 0.0019667691397619366
951.0, 0.0021843482665692346
952.0, 0.002082052901414972
953.0, 0.0020539325905656993
954.0, 0.0019583085388881357
955.0, 0.0021206409167053206
956.0, 0.002361708173722382
957.0, 0.0023746815254457885
958.0, 0.0030652617264576272
959.0, 0.0028559971096676646
960.0, 0.00300207038457584
961.0, 0.0033873267403286065
962.0, 0.0031789971622146465
963.0, 0.00419507540426335
964.0, 0.005263553855791628
965.0, 0.005921759195850626
966.0, 0.0061403818082829235
967.0, 0.006249243605928811
968.0, 0.00661517268334259
969.0, 0.006595930320839557
970.0, 0.007100466707888095
971.0, 0.008017987620179075
972.0, 0.008085645840582285
973.0, 0.009325502403715779
974.0, 0.010371236765310233
975.0, 0.011488641711958333
976.0, 0.012942706834983273
977.0, 0.014992955938110807
978.0, 0.01735822372691111
979.0, 0.02173460475071199
980.0, 0.028471917258687193
981.0, 0.03778748175537687
982.0, 0.05003101964959224
983.0, 0.07553640961341443
984.0, 0.11957896213437655
985.0, 0.21488089119744946
986.0, 0.3974332714970814
987.0, 0.7193062935855922
988.0, 0.9336976572762309
989.0, 0.894906998452633
990.0, 0.6696288059532802
991.0, 0.37529827871746807
992.0, 0.20228437028421797
993.0, 0.12206845638039394
994.0, 0.07682284815631037
995.0, 0.05214934866752177
996.0, 0.03846633391943245
997.0, 0.029498124840121962
998.0, 0.02442446872493632
999.0, 0.020843208404935042
1000.0, 0.01832351461715756
1001.0, 0.016810638151907142
1002.0, 0.016907317145986204
1003.0, 0.016146794190783784
1004.0, 0.014023610872501834
1005.0, 0.012084425763138888
1006.0, 0.011079706411850672
1007.0, 0.008668238936299453
1008.0, 0.007722221919664939
1009.0, 0.007856850768841534
1010.0, 0.007584691933687181
1011.0, 0.0064058608094881755
1012.0, 0.0070896224021314656
1013.0, 0.007163072937927295
1014.0, 0.007015209911030008
1015.0, 0.007045946779093252
1016.0, 0.007393213698395563
1017.0, 0.007490580131442209
1018.0, 0.008327676575460054
1019.0, 0.008809816645185143
1020.0, 0.00908493843243126
1021.0, 0.009453154497004524
1022.0, 0.010260731982487267
1023.0, 0.01142363436130555
1024.0, 0.012503058845251842
1025.0, 0.013973829637589572
1026.0, 0.015990163893132542
1027.0, 0.017850806139514622
1028.0, 0.02080217778624537
1029.0, 0.021961752560964033
1030.0, 0.021115128936226184
1031.0, 0.018661347360615362
1032.0, 0.015627763062517504
1033.0, 0.012307175432124258
1034.0, 0.009853907249149883
1035.0, 0.00805417767409871
1036.0, 0.006723137889139345
1037.0, 0.005864210400967249
1038.0, 0.004512924805486072
1039.0, 0.003594114150760607
1040.0, 0.0030085204617431418
1041.0, 0.0027496634524215397
1042.0, 0.0029714591375663785
1043.0, 0.002052056372324458
1044.0, 0.0016665194757518754
1045.0, 0.0016296518239935472
1046.0, 0.0016810843109558128
1047.0, 0.0015115736125078185
1048.0, 0.000843377833659073
1049.0, 0.0012380145510045098
1050.0, 0.0016985915818121076
1051.0, 0.0018170267647175348
1052.0, 0.0016092806744918793
1053.0, 0.0008858762767344142
1054.0, 0.0013145017714844946
1055.0, 0.0015118056572847466
1056.0, 0.0012538383030102774
1057.0, 0.0009304478973775424
1058.0, 0.000988634109480351
1059.0, 0.0007504217739607691
1060.0, 0.0007315538579667854
1061.0, 0.0008866423780980838
1062.0, 0.0009485153344005574
1063.0, 0.0005586103427885034
1064.0, 0.0009742951175637478
1065.0, 0.0010344528606363807
1066.0, 0.000970575613980571
1067.0, 0.0010754110566485071
1068.0, 0.0005842974480621925
1069.0, 0.0006475992779015095
1070.0, 0.0006918947532405736
1071.0, 0.0007939136080784227
1072.0, 0.0010387215293965815
1073.0, 0.001317511583647332
1074.0, 0.0016117792080522207
1075.0, 0.001971786042992466
1076.0, 0.0022901223240936134
1077.0, 0.002533014902801893
1078.0, 0.0027924817847265466
1079.0, 0.002976397882251454
1080.0, 0.0038494870785690982
1081.0, 0.004837520042034465
1082.0, 0.005738760903460225
1083.0, 0.006691592332566502
1084.0, 0.006709527159084522
1085.0, 0.005908854646750318
1086.0, 0.005093131250024979
1087.0, 0.00438411149975546
1088.0, 0.003543112743986895
1089.0, 0.0024866923314070277
1090.0, 0.0017343142842401443
1091.0, 0.0012973035935114855
1092.0, 0.0009717398907979569
1093.0, 0.0006967809147555068
1094.0, 0.0013930439164040744
1095.0, 0.0005694188166886125
1096.0, 0.0006579668385747345
1097.0, 0.0009782337662682336
1098.0, 0.0009248023360679755
1099.0, 0.0012188552128782758
1100.0, 0.0019330652552585494
1101.0, 0.0022935260446696414
1102.0, 0.0024121718734341677
1103.0, 0.0025117039424002716
1104.0, 0.0028502382815427533
1105.0, 0.00209541764131429
1106.0, 0.002165521694731947
1107.0, 0.0021451919880139743
1108.0, 0.0016259178239492052
1109.0, 0.0007378069205814786
1110.0, 0.0015020452124991555
1111.0, 0.0009233928528339793
1112.0, 0.0006787158236309784
1113.0, 0.0008420850426646273
1114.0, 0.0009361044176456184
1115.0, 0.00037430463600332596
1116.0, 0.00028347900663746846
1117.0, 0.0004337625834280518
1118.0, 0.0005185492555582836
1119.0, 0.0004047285101254215
1120.0, 0.00031283341639595346
1121.0, 0.00047665084700465485
1122.0, 0.00043242771641100673
1123.0, 0.0004113579515454698
1124.0, 0.0004740333997691908
1125.0, 0.0004985895419851268
1126.0, 0.00035154909324370984
1127.0, 0.0002831105724540512
1128.0, 0.0004351430937785428
1129.0, 0.0007556634672084753
1130.0, 0.0010958939369347602
1131.0, 0.0012670706167118232
1132.0, 0.0020658535947592526
1133.0, 0.0023965302187474932
1134.0, 0.0024194641546449055
1135.0, 0.0027396111386011465
1136.0, 0.004391979656174187
1137.0, 0.005550884087292928
1138.0, 0.00609926602962636
1139.0, 0.006922492403310755
1140.0, 0.007988915586906058
1141.0, 0.008511684215206584
1142.0, 0.009931091260455539
1143.0, 0.01036136544246856
1144.0, 0.010295916722678631
1145.0, 0.009912009212164726
1146.0, 0.009230534970677494
1147.0, 0.00805721874670098
1148.0, 0.006393272278868857
1149.0, 0.005532712477675969
1150.0, 0.004805889711428961
1151.0, 0.0038836499619471212
1152.0, 0.0034583961494257963
1153.0, 0.0022610737718534455
1154.0, 0.001664703329628367
1155.0, 0.0015078497781237262
1156.0, 0.0013260326293197018
1157.0, 0.0006841622102855003
1158.0, 0.0008497546614128252
1159.0, 0.001080449726095227
1160.0, 0.0009705892270517668
1161.0, 0.0011810115325874243
1162.0, 0.001921574498369336
1163.0, 0.0015793955027084653
1164.0, 0.001568720446495713
1165.0, 0.0019686497052449218
1166.0, 0.002215982334191509
1167.0, 0.001953741007882495
1168.0, 0.0012200825732970853
1169.0, 0.0019765539431659492
1170.0, 0.0018817411584756826
1171.0, 0.0019521830513265688
1172.0, 0.0018770791022321288
1173.0, 0.0013069731019530934
1174.0, 0.0014046059212032658
1175.0, 0.0007616419899068892
1176.0, 0.0008338337540863606
1177.0, 0.000941010157055281
1178.0, 0.0006944765869824239
1179.0, 0.0003321224602863567
1180.0, 0.00021213140522902347
1181.0, 0.00030667146503723995
1182.0, 0.00029799462910333057
1183.0, 0.00023203463257454368
1184.0, 0.0002670438093874251
1185.0, 0.00037641844239678387
1186.0, 0.00012087925311261307
1187.0, 8.881734330799451e-05
1188.0, 0.0003290952981208308
1189.0, 0.0005595170877808333
1190.0, 0.00024222744501295755
1191.0, 0.0003170395594493965
1192.0, 0.00040750446507085926
1193.0, 0.000295774860852869
1194.0, 0.00017436900621390912
1195.0, 0.0002542888440681983
1196.0, 0.00014663305717755535
1197.0, 3.6495252042997843e-05
1198.0, 0.0002416076790025772
1199.0, 0.0002576257373171777
1200.0, 0.00012885866056937725
1201.0, 0.0005486066879855894
1202.0, 0.0007281009219802245
1203.0, 0.00031548165521295946
1204.0, 0.00012918778687319451
1205.0, 0.0001527285144945469
1206.0, 0.00020943762989429152
1207.0, 0.0006242024253205298
1208.0, 0.00015401877115531044
1209.0, 0.00025112103752386204
1210.0, 0.000383687028876086
1211.0, 0.00030412050658310636
1212.0, 0.00017810677985040287
1213.0, 7.639751115689591e-05
1214.0, 5.093525842957739e-05
1215.0, 0.0004882956166738569
1216.0, 0.0007463816745089284
1217.0, 0.0004588928298297217
1218.0, 0.0004631178916103866
1219.0, 0.0008103621914496151
1220.0, 0.0006090727962441074
1221.0, 0.0002874178033946062
1222.0, 9.877252140403531e-05
1223.0, 9.412908757607234e-05
1224.0, 9.929573941461117e-05
1225.0, 0.00011742196286257307
1226.0, 9.294744509724174e-05
1227.0, 5.100129456260367e-05
1228.0, 0.0001375824359848647
1229.0, 0.0005805593060576697
1230.0, 0.00029037228081695856
1231.0, 0.0005735135208143593
1232.0, 0.0007243735182188403
1233.0, 0.000737975776577115
1234.0, 0.0008358754905255357
1235.0, 0.0010509740732023523
1236.0, 0.0015053547313942002
1237.0, 0.001412002328798373
1238.0, 0.0011727029709802416
1239.0, 0.000993202327301037
1240.0, 0.0008966852765324577
1241.0, 0.001307585891146848
1242.0, 0.0010627015049125869
1243.0, 0.0013864986365802572
1244.0, 0.0013529347408292782
1245.0, 0.0007407464250570943
1246.0, 0.0008834594358809754
1247.0, 0.0009715540604381727
1248.0, 0.0009447114695938779
1249.0, 0.0012189747180689934
1250.0, 0.0014983040307233301
1251.0, 0.0013612844828081
1252.0, 0.0008311995580686201
1253.0, 0.0009783487861875749
1254.0, 0.0006432855644001428
1255.0, 0.0007105037233864799
1256.0, 0.0008187680923334259
1257.0, 0.00023819223358455288
1258.0, 0.0012963264880424845
1259.0, 0.0008907849345251719
1260.0, 0.0006538355583268871
1261.0, 0.000783247827519511
1262.0, 0.0009459554988206792
1263.0, 0.0005919035488660545
1264.0, 0.0007924876412159022
1265.0, 0.001017169692992837
1266.0, 0.001137728302395933
1267.0, 0.0013736287567867468
1268.0, 0.0017049494592465478
1269.0, 0.0015548975613578237
1270.0, 0.0015301963854876394
1271.0, 0.001607062915297446
1272.0, 0.0014755254744470215
1273.0, 0.0014204813789416774
1274.0, 0.0016131753396631276
1275.0, 0.0011655366642117102
1276.0, 0.0014394233870830653
1277.0, 0.0014298508778232584
1278.0, 0.0012663210743590644
1279.0, 0.0010830245691098243
1280.0, 0.0009463235500389974
1281.0, 0.0007980262858259222
1282.0, 0.0013071175905745086
1283.0, 0.0010361092985371407
1284.0, 0.0006475157064562356
1285.0, 0.0006790844604656005
1286.0, 0.0011114385773629736
1287.0, 0.0006346249730716505
1288.0, 0.0003760069438009015
1289.0, 0.000280656114121239
1290.0, 0.00047924392213125413
1291.0, 0.0009568296199776772
1292.0, 0.0014411087000373135
1293.0, 0.0010484363916268156
1294.0, 0.0008005388351967869
1295.0, 0.0009710225105440297
1296.0, 0.0010741713509655473
1297.0, 0.0009630673886559684
1298.0, 0.0012878267312709426
1299.0, 0.001078409653393925
1300.0, 0.0006587294860185001
1301.0, 0.0006513340892744506
1302.0, 0.0005988590256476626
1303.0, 0.00022690483921185801
1304.0, 0.00035958054823150595
1305.0, 0.0008998976579357969
1306.0, 0.0009969641540798358
1307.0, 0.0011463457217813424
1308.0, 0.0015768445147123346
1309.0, 0.0020159653403986244
1310.0, 0.001367349869810628
1311.0, 0.0014731111792059032
1312.0, 0.001894632869801201
1313.0, 0.0019492766783531174
1314.0, 0.0016515840143172692
1315.0, 0.0012928846109685936
1316.0, 0.0008559598714211235
1317.0, 0.0016725937973650882
1318.0, 0.001912410515010563
1319.0, 0.0018737015322542155
1320.0, 0.0017468308687524348
1321.0, 0.0016092551635027291
1322.0, 0.0015546047661673908
1323.0, 0.0016828371389469
1324.0, 0.0018660729798632787
1325.0, 0.001967714990650264
1326.0, 0.001475872561065661
1327.0, 0.0004199845150212897
1328.0, 0.0013157061627793638
1329.0, 0.0007796509716847152
1330.0, 0.0007407772035058065
1331.0, 0.0008473154862756109
1332.0, 0.0006755671061264478
1333.0, 0.00018020774953069342
1334.0, 0.0003807845131620531
1335.0, 0.0006627279922347106
1336.0, 0.0005709514492618858
1337.0, 0.0006271831797504833
1338.0, 0.0005859534073838135
1339.0, 0.00010421063513562181
1340.0, 0.00031071053258272625
1341.0, 0.0004882511857055394
1342.0, 0.00023057667695590108
1343.0, 0.00012743301097712018
1344.0, 0.0002471509020967046
1345.0, 0.0003584204633057569
1346.0, 0.0004878715514598024
1347.0, 0.0007409708882305296
1348.0, 0.0006782645023416167
1349.0, 0.0005157223819893361
1350.0, 0.0003226594650500607
1351.0, 0.00011047507805193524
1352.0, 3.230677168602474e-05
1353.0, 2.1328587538004783e-05
1354.0, 0.0002487550397846484
1355.0, 0.000265664107159431
1356.0, 0.0002273030180948552
1357.0, 0.0004382991827064878
1358.0, 0.0007527440880258419
1359.0, 0.00023163078535485748
1360.0, 9.330767167315125e-05
1361.0, 0.0002406526459520097
1362.0, 0.000373228464064379
1363.0, 0.0003365652325557998
1364.0, 0.0004252405181678127
1365.0, 0.0006118408534678848
1366.0, 0.0005536812250275271
1367.0, 0.0006019590638177915
1368.0, 0.0006107832376747579
1369.0, 0.00048083920480738193
1370.0, 0.000463719229859092
1371.0, 0.00011371883019982705
1372.0, 0.00030735516623110103
1373.0, 0.00028903781863765367
1374.0, 0.0002101853244994341
1375.0, 0.00026531506144568
1376.0, 0.00032785890490835766
1377.0, 9.009601028666934e-05
1378.0, 0.0003224280160006157
1379.0, 0.0006931879673850189
1380.0, 0.0009559352510809171
1381.0, 0.0009954895272342782
1382.0, 0.0008149076430399712
1383.0, 0.00030287470831372474
1384.0, 0.0006789124487360016
1385.0, 0.0006327255228920708
1386.0, 0.0006796927217712823
1387.0, 0.0007403623168376603
1388.0, 0.0004739178737764648
1389.0, 0.0010620174743488303
1390.0, 0.000968096409507338
1391.0, 0.0007757574852617978
1392.0, 0.0010786130554142526
1393.0, 0.001194844575550733
1394.0, 0.000538797805551421
1395.0, 0.000554879357532636
1396.0, 0.0003420493475378943
1397.0, 0.00042263487523712216
1398.0, 0.00038352268087687953
1399.0, 0.00029496711284733416
1400.0, 0.00029988278080931576
1401.0, 0.0003204924708436912
1402.0, 0.0004366062588401172
1403.0, 0.0006879038464496938
1404.0, 0.00035745784414865483
1405.0, 0.0003610905919864144
1406.0, 0.0008126247243215318
1407.0, 0.000645338778792299
1408.0, 0.00012923291192889553
1409.0, 0.0006893254966567378
1410.0, 0.0005608919093713563
1411.0, 0.00043971171437797205
1412.0, 0.0006344879134707781
1413.0, 0.0008401791604565994
1414.0, 0.0006121452362080105
1415.0, 0.0008166144399736282
1416.0, 0.0005380064416941456
1417.0, 0.0008263133142682221
1418.0, 0.0012946257279175368
1419.0, 0.001090784048131093
1420.0, 8.863156152688395e-05
1421.0, 0.0009086116105375154
1422.0, 0.001106616601159883
1423.0, 0.0006281074227217059
1424.0, 0.0003526422800722448
1425.0, 0.0006420491100974363
1426.0, 0.0009062848802150714
1427.0, 0.0004624651261947706
1428.0, 0.0010444923631017949
1429.0, 0.0014566805731617046
1430.0, 0.0012550267906801334
1431.0, 0.0011223914434445347
1432.0, 0.0017946814645283266
1433.0, 0.0021076737862274807
1434.0, 0.0021260807142531373
1435.0, 0.0024202222094487844
1436.0, 0.002137188763721476
1437.0, 0.0023362663986744216
1438.0, 0.003391545189894745
1439.0, 0.0036229668602797715
1440.0, 0.0034657916269180246
1441.0, 0.004242412142749069
1442.0, 0.0053392978465159205
1443.0, 0.005849528788736728
1444.0, 0.005811839883546073
1445.0, 0.005899235772744507
1446.0, 0.005827603765045673
1447.0, 0.006299688800525872
1448.0, 0.006427866289501088
1449.0, 0.0062918513975133514
1450.0, 0.00672521828801722
1451.0, 0.007714122941024447
1452.0, 0.0074901605900424065
1453.0, 0.0073750026231667164
1454.0, 0.00787553914814215
1455.0, 0.00784754422909502
1456.0, 0.007334611848320379
1457.0, 0.006982978891418567
1458.0, 0.007410614682423608
1459.0, 0.008059453376524962
1460.0, 0.007229222417333739
1461.0, 0.0072216494342346475
1462.0, 0.007145775423238552
1463.0, 0.006643892837794404
1464.0, 0.00608257338332581
1465.0, 0.006205854535108865
1466.0, 0.005166708652344291
1467.0, 0.004255691815108038
1468.0, 0.004246236005820503
1469.0, 0.0038808364329100484
1470.0, 0.003489780410132031
1471.0, 0.004127685168617539
1472.0, 0.003897737090750408
1473.0, 0.0030411203759937704
1474.0, 0.003133967946582347
1475.0, 0.003154490111558926
1476.0, 0.002620609010979873
1477.0, 0.002188032569866525
1478.0, 0.003158221369608857
1479.0, 0.0031326611448629156
1480.0, 0.0031341844011768065
1481.0, 0.0029465356964145243
1482.0, 0.0029910254318588473
1483.0, 0.0030000906162765658
1484.0, 0.002584073615991874
1485.0, 0.0022265411012009437
1486.0, 0.002291907521324392
1487.0, 0.0022840904792686923
1488.0, 0.002664546233311926
1489.0, 0.0021289942929731166
1490.0, 0.0011721971232213602
1491.0, 0.0015317224773130776
1492.0, 0.0009510677798956852
1493.0, 0.0012848721580320456
1494.0, 0.0016152067066793068
1495.0, 0.0013754061263240498
1496.0, 0.0011719919062478936
1497.0, 0.001403711897894149
1498.0, 0.0013745490084154923
1499.0, 0.00019677735888786547
1500.0, 0.0014042792696233224
1501.0, 0.0008758755061300481
1502.0, 0.0001812807195528328
1503, 0.0
1504, 0.0
1505, 0.0
1506, 0.0
1507, 0.0
1508, 0.0
1509, 0.0
1510, 0.0
1511, 0.0
1512, 0.0
1513, 0.0
1514, 0.0
1515, 0.0
1516, 0.0
1517, 0.0
1518, 0.0
1519, 0.0
1520, 0.0
1521, 0.0
1522, 0.0
1523, 0.0
1524, 0.0
1525, 0.0
1526, 0.0
1527, 0.0
1528, 0.0
1529, 0.0
1530, 0.0
1531, 0.0
1532, 0.0
1533, 0.0
1534, 0.0
1535, 0.0
1536, 0.0
1537, 0.0
1538, 0.0
1539, 0.0
1540, 0.0
1541, 0.0
1542, 0.0
1543, 0.0
1544, 0.0
1545, 0.0
1546, 0.0
1547, 0.0
1548, 0.0
1549, 0.0
1550, 0.0
1551, 0.0
1552, 0.0
1553, 0.0
1554, 0.0
1555, 0.0
1556, 0.0
1557, 0.0
1558, 0.0
1559, 0.0
1560, 0.0
1561, 0.0
1562, 0.0
1563, 0.0
1564, 0.0
1565, 0.0
1566, 0.0
1567, 0.0
1568, 0.0
1569, 0.0
1570, 0.0
1571, 0.0
1572, 0.0
1573, 0.0
1574, 0.0
1575, 0.0
1576, 0.0
1577, 0.0
1578, 0.0
1579, 0.0
1580, 0.0
1581, 0.0
1582, 0.0
1583, 0.0
1584, 0.0
1585, 0.0
1586, 0.0
1587, 0.0
1588, 0.0
1589, 0.0
1590, 0.0
1591, 0.0
1592, 0.0
1593, 0.0
1594, 0.0
1595, 0.0
1596, 0.0
1597, 0.0
1598, 0.0
1599, 0.0
