30, 0.0
31, 0.0
32, 0.0
33, 0.0
34, 0.0
35, 0.0
36, 0.0
37, 0.0
38, 0.0
39, 0.0
40, 0.0
41, 0.0
42, 0.0
43, 0.0
44, 0.0
45, 0.0
46, 0.0
47, 0.0
48, 0.0
49, 0.0
50, 0.0
51, 0.0
52, 0.0
53, 0.0
54, 0.0
55, 0.0
56, 0.0
57, 0.0
58, 0.0
59, 0.0
60, 0.0
61, 0.0
62, 0.0
63, 0.0
64, 0.0
65, 0.0
66, 0.0
67, 0.0
68, 0.0
69, 0.0
70, 0.0
71, 0.0
72, 0.0
73, 0.0
74, 0.0
75, 0.0
76, 0.0
77, 0.0
78, 0.0
79, 0.0
80, 0.0
81, 0.0
82, 0.0
83, 0.0
84, 0.0
85, 0.0
86, 0.0
87, 0.0
88, 0.0
89, 0.0
90, 0.0
91, 0.0
92, 0.0
93, 0.0
94.0, 0.000907192507360962
95.0, 0.0016761973734083523
96.0, 0.0002314062523986627
97.0, 0.0028298918628313586
98.0, 0.002515147225857643
99.0, 0.002104350115046676
100.0, 0.0023006432160832453
101.0, 0.0029476405481015477
102.0, 0.004012691936449788
103.0, 0.003521749352251607
104.0, 0.004778593279991426
105.0, 0.00799360129123777
106.0, 0.01323797754070722
107.0, 0.021830209304089892
108.0, 0.02851766061389654
109.0, 0.02992601107821909
110.0, 0.0259982461338157
111.0, 0.022312848551146486
112.0, 0.029354331597150517
113.0, 0.032339175861827885
114.0, 0.031247555001069946
115.0, 0.022070631757596618
116.0, 0.01121885789284455
117.0, 0.008331547961865391
118.0, 0.006742306147172614
119.0, 0.005649222961053669
120.0, 0.004682108642939067
121.0, 0.0042576059833743145
122.0, 0.0045645051411226665
123.0, 0.0047405778242911685
124.0, 0.00638220588083939
125.0, 0.007110652815065659
126.0, 0.008193443062601747
127.0, 0.01012863345230287
128.0, 0.012069097600822557
129.0, 0.009786885395888118
130.0, 0.012014026461724312
131.0, 0.012892871824961166
132.0, 0.012789986672442511
133.0, 0.014586444762711643
134.0, 0.015289379526230669
135.0, 0.017617562516360433
136.0, 0.019647589884882594
137.0, 0.023000021743738993
138.0, 0.028389859902927337
139.0, 0.032715021131154785
140.0, 0.042693033681286484
141.0, 0.05139683511707595
142.0, 0.058154265810414454
143.0, 0.06264694297736076
144.0, 0.06436235034960618
145.0, 0.057286269649718065
146.0, 0.049548386655620766
147.0, 0.04119960610772487
148.0, 0.034354084718353294
149.0, 0.030607630389714827
150.0, 0.025984948514398375
151.0, 0.023934297845971512
152.0, 0.021466524630451397
153.0, 0.018577932026364243
154.0, 0.015918728039164973
155.0, 0.014458306357379734
156.0, 0.01142337650485722
157.0, 0.009748698445187411
158.0, 0.008549893545974479
159.0, 0.007750120582618851
160.0, 0.0075909560117026365
161.0, 0.006594372317823691
162.0, 0.006121581042806543
163.0, 0.006357015388789108
164.0, 0.0071132808928546865
165.0, 0.007715921522136995
166.0, 0.006633649814458224
167.0, 0.00556834645009661
168.0, 0.005828994033288806
169.0, 0.005982096381705152
170.0, 0.0056627039198670565
171.0, 0.005571027916822956
172.0, 0.006227411850472811
173.0, 0.0034680614425221666
174.0, 0.0022510284226055525
175.0, 0.0029720764232484026
176.0, 0.004135497279861232
177.0, 0.003103286318093772
178.0, 0.004315536348377686
179.0, 0.004402029011001314
180.0, 0.004422874269140189
181.0, 0.00405688609824118
182.0, 0.0016602535401585663
183.0, 0.0030750724384877937
184.0, 0.004383151028488637
185.0, 0.004960149976105096
186.0, 0.005847291283055521
187.0, 0.007806298266772907
188.0, 0.008608322707778976
189.0, 0.007650171073762371
190.0, 0.008626223510905844
191.0, 0.009018784343609133
192.0, 0.008399378573655459
193.0, 0.009098213539167526
194.0, 0.009464777671395365
195.0, 0.008770453711804595
196.0, 0.007622501222843035
197.0, 0.007132323014298305
198.0, 0.00794795201966356
199.0, 0.008644491654762994
200.0, 0.00906765480621724
201.0, 0.0073247704695504475
202.0, 0.007358965445923974
203.0, 0.009168256677303973
204.0, 0.008312935314624783
205.0, 0.0043706345166621835
206.0, 0.002207860528481308
207.0, 0.002216422687391978
208.0, 0.0028281448389962786
209.0, 0.002614599824105409
210.0, 0.002544413377357655
211.0, 0.0023087598957476016
212.0, 0.0021918400947317602
213.0, 0.0024316432703385942
214.0, 0.002915168531972068
215.0, 0.0031152792918731223
216.0, 0.0013134611664081
217.0, 0.0014684415800182234
218.0, 0.0011515132672496712
219.0, 0.000562662724388586
220.0, 0.00042677605503713503
221.0, 0.0010157648571958587
222.0, 0.0002581990593731825
223.0, 0.0009081294985173872
224.0, 0.001348210693508665
225.0, 0.0016521549063971198
226.0, 0.0026621081119581795
227.0, 0.0020590799931855122
228.0, 0.002850007526298031
229.0, 0.0024281814069294313
230.0, 0.002242390154035612
231.0, 0.0025670613146571344
232.0, 0.0009467433777880987
233.0, 0.0006410949444953333
234.0, 0.0022424392026954513
235.0, 0.0018634894716577912
236.0, 0.0007959022329836069
237.0, 0.0013385266349627569
238.0, 0.0006602327041616252
239.0, 0.002438771228655613
240.0, 0.003025957217004415
241.0, 0.0024285843761936115
242.0, 0.0012126042354637205
243.0, 0.00016797336947912926
244.0, 0.0005810800162398936
245.0, 0.0010579562378585817
246.0, 0.000643496680256848
247.0, 0.0008563399358018503
248.0, 0.0018902874957687178
249.0, 0.00014514055709842683
250.0, 0.0004825276573313824
251.0, 0.0010725701914984576
252.0, 0.0014287506564564588
253.0, 0.0011384775648508622
254.0, 0.00037476082839261104
255.0, 0.0015206781165388239
256.0, 0.0008368020021349957
257.0, 0.0002830550056729598
258.0, 0.00134449865485756
259.0, 0.0034699991531231913
260.0, 0.00412804602053801
261.0, 0.0015295750115740532
262.0, 0.0003979874032925876
263.0, 0.0007118736169988872
264.0, 0.0016729226464195694
265.0, 0.0020590252307384938
266.0, 0.00044859075952618263
267.0, 0.00030934885636948426
268.0, 0.00018945761480673693
269.0, 0.00037391388078042903
270.0, 0.0009261530950113487
271.0, 0.0016776651145540514
272.0, 0.002099228097416553
273.0, 0.0017974408787595176
274.0, 0.0009171232322009356
275.0, 0.0002853268293958372
276.0, 0.0003884705167132579
277.0, 0.0011025144600240858
278.0, 0.0007521181402762588
279.0, 0.0016965163014934625
280.0, 0.0014924787122350376
281.0, 0.0008586533282752152
282.0, 0.0007371170320981933
283.0, 0.0012827141923185677
284.0, 0.0006641767791113766
285.0, 0.0007846043430612989
286.0, 0.0012302672716316952
287.0, 0.0012170728793854102
288.0, 0.000502794881065853
289.0, 0.00037010634458903193
290.0, 0.0022313414148714948
291.0, 0.0010931428910114643
292.0, 0.00035129701136573776
293.0, 0.0009716949713629809
294.0, 0.0019853649397704926
295.0, 0.0014935686999738049
296.0, 0.00044726371431197756
297.0, 7.801671123334604e-05
298.0, 0.0008170669980947447
299.0, 0.0014988707652652325
300.0, 0.0005025704267755188
301.0, 0.0015883967028562846
302.0, 0.0007898319631082619
303.0, 0.001388213629808646
304.0, 0.0013545192430326333
305.0, 0.0004608366377570159
306.0, 0.001393723931499694
307.0, 0.0006030577988653427
308.0, 0.0001826984239457463
309.0, 0.0006518344966207421
310.0, 0.0009593044430719714
311.0, 0.0005437368065867459
312.0, 0.00045328881100514893
313.0, 0.0018146275908910675
314.0, 0.0008182258257066026
315.0, 0.0009643280408313013
316.0, 0.0016129396177782195
317.0, 0.0014457928283592594
318.0, 0.001601874597076997
319.0, 0.001846869414343232
320.0, 0.0019243313480447383
321.0, 0.0018733920423722984
322.0, 0.0014558571098015035
323.0, 0.0008213865201675762
324.0, 0.001765330762262876
325.0, 0.0006765705514982737
326.0, 0.0009898905194796238
327.0, 0.001027913650620614
328.0, 0.00084497960976725
329.0, 0.0012774162284239297
330.0, 0.0004937697351819548
331.0, 0.0011583413945648927
332.0, 0.0010610322444257181
333.0, 0.0005508133341953549
334.0, 0.00034385868210011234
335.0, 0.001015380519255516
336.0, 0.0021295991427225545
337.0, 0.0014016205523528496
338.0, 0.0006763530171626441
339.0, 0.0014173872584671164
340.0, 0.00242003948368004
341.0, 0.001005762299081297
342.0, 0.0015057906771356194
343.0, 0.0010855687719902403
344.0, 0.0005938631271360608
345.0, 0.00038912712460442136
346.0, 0.0003919403350367837
347.0, 0.0002671674389545624
348.0, 0.0009153812678806968
349.0, 0.0021642100907281474
350.0, 0.0012369262553322876
351.0, 0.00133575268515675
352.0, 0.002775256791268808
353.0, 0.0015898980182785809
354.0, 0.001618078431818945
355.0, 0.0008133486531249725
356.0, 0.0010398948273632133
357.0, 0.0016279675605660484
358.0, 0.0016615322955379121
359.0, 0.0010263691142301063
360.0, 0.0030915625038079454
361.0, 0.003932942784757729
362.0, 0.0027217774956850038
363.0, 0.0021812804365832347
364.0, 0.0027517815533378122
365.0, 0.0012244246471706708
366.0, 0.0026553285175410315
367.0, 0.0036965731368075612
368.0, 0.002254854294282157
369.0, 0.0006662301804496629
370.0, 0.0006314824787618105
371.0, 0.0012816601491048686
372.0, 0.0013808301710336777
373.0, 0.0027913157913531015
374.0, 0.0025676628174581386
375.0, 0.002066997675259944
376.0, 0.0019080301431296355
377.0, 0.0005822948075516315
378.0, 0.00019085844663355652
379.0, 0.001502123820743817
380.0, 0.002517373843948978
381.0, 0.0024602018001179675
382.0, 0.002060405952668114
383.0, 0.003227885364410406
384.0, 0.005288875325846813
385.0, 0.003458399276431395
386.0, 0.0027532471954176546
387.0, 0.0036365669192235574
388.0, 0.004306625480973239
389.0, 0.0024901946022070584
390.0, 0.00315374017641732
391.0, 0.002398233182814216
392.0, 0.0013861467578795371
393.0, 0.002774447910618667
394.0, 0.005414405241994248
395.0, 0.005191137243731743
396.0, 0.005655541321165615
397.0, 0.004392815564039024
398.0, 0.002714828501673559
399.0, 0.0033449055315601327
400.0, 0.005127013590809903
401.0, 0.0044459532835494885
402.0, 0.003781191546386714
403.0, 0.002343424682300769
404.0, 0.0017792087853826096
405.0, 0.002174049431614223
406.0, 0.0024829391894302137
407.0, 0.0016104590486348451
408.0, 0.0008919959255989911
409.0, 0.002525389866156041
410.0, 0.0026953542936125775
411.0, 0.0015485070096101284
412.0, 0.0007463225978837184
413.0, 0.001565630202406368
414.0, 0.0020690361289560115
415.0, 0.000842503200637716
416.0, 0.0016350005384186724
417.0, 0.0012193089654563922
418.0, 0.0006015239538986748
419.0, 0.0013822347520260538
420.0, 0.0014982062478055046
421.0, 0.0011987989327461208
422.0, 0.0006907544173674556
423.0, 0.0012628717807583215
424.0, 0.0015702047125259687
425.0, 0.0008431170358810338
426.0, 0.0008817066279950491
427.0, 0.002827685677343329
428.0, 0.00399407810142277
429.0, 0.0034438789669289024
430.0, 0.002351297345437619
431.0, 0.002533187551987766
432.0, 0.004856439589191211
433.0, 0.0030398674260574115
434.0, 0.005881651419419495
435.0, 0.006291744234677199
436.0, 0.007221061118351462
437.0, 0.009780055329924814
438.0, 0.012490156061412115
439.0, 0.017123799228098664
440.0, 0.017024013408784643
441.0, 0.020460519617469062
442.0, 0.025259030436230328
443.0, 0.03007453381688167
444.0, 0.035702277630980314
445.0, 0.045410410766879405
446.0, 0.0500003838096595
447.0, 0.05897150792683712
448.0, 0.06910170736338037
449.0, 0.07903092418201557
450.0, 0.08960748159015307
451.0, 0.10315630943974288
452.0, 0.11117971215170024
453.0, 0.11816807621789803
454.0, 0.1177462544294358
455.0, 0.11099794119149993
456.0, 0.10295448914084711
457.0, 0.09927965974050425
458.0, 0.0977884028121122
459.0, 0.09840487435673806
460.0, 0.09787877301081357
461.0, 0.09431741106553898
462.0, 0.08714216651044891
463.0, 0.0767540015846321
464.0, 0.0635459211627637
465.0, 0.05063296780073495
466.0, 0.037207106207428994
467.0, 0.02618638869799833
468.0, 0.019819178919126032
469.0, 0.017230368906820382
470.0, 0.01308753743849151
471.0, 0.010278592515311257
472.0, 0.010763395957344246
473.0, 0.008670182348742596
474.0, 0.006151880303076905
475.0, 0.0056388052230533356
476.0, 0.006467594669294098
477.0, 0.004261625953625629
478.0, 0.002473670205126118
479.0, 0.004054240842670779
480.0, 0.0054218029096816086
481.0, 0.005337896996172373
482.0, 0.0047133796591501955
483.0, 0.003714470527109546
484.0, 0.00204221991439192
485.0, 0.002659020418072735
486.0, 0.0032450744399889035
487.0, 0.002655027001552917
488.0, 0.001510068176095538
489.0, 0.0018348129457714964
490.0, 0.0019196618727625506
491.0, 0.0031909685394961836
492.0, 0.0026614790509504873
493.0, 0.003375539376964729
494.0, 0.0042342357511023585
495.0, 0.0019859427527569875
496.0, 0.002567499258833495
497.0, 0.0024565081569915197
498.0, 0.0032430256717192055
499.0, 0.003070398002423128
500.0, 0.0030418707865976034
501.0, 0.003503245466722104
502.0, 0.0013555053130374411
503.0, 0.001385999770719975
504.0, 0.001640765017321986
505.0, 0.0021697330285966486
506.0, 0.0015128883114483753
507.0, 0.0007550510777590994
508.0, 0.0020598606955789666
509.0, 0.0011628597118349617
510.0, 0.0016705235631432154
511.0, 0.0044318774887858155
512.0, 0.00432574698175387
513.0, 0.0033544168553986667
514.0, 0.003958407125800321
515.0, 0.0032018810714273364
516.0, 0.006644859748137317
517.0, 0.004554814961230475
518.0, 0.003899765858948009
519.0, 0.003078916256147131
520.0, 0.0013218785466239885
521.0, 0.0003833934157819271
522.0, 0.0023163906678297574
523.0, 0.003133462837791788
524.0, 0.001825479912421464
525.0, 0.0037178616166040077
526.0, 0.004069329432547588
527.0, 0.0009534383901479961
528.0, 0.002292269774867332
529.0, 0.0020466842295752624
530.0, 0.0038233477718494038
531.0, 0.002961834162981818
532.0, 0.0015196445472815592
533.0, 0.0012577200009832859
534.0, 0.0020642953726297112
535.0, 0.001968158798813874
536.0, 0.0021658369626550585
537.0, 0.001782255942654239
538.0, 0.0026958552067596923
539.0, 0.002458585339219833
540.0, 0.0006550780362157571
541.0, 0.0004083219399215748
542.0, 0.0016749746204968692
543.0, 0.0018715346155464168
544.0, 0.0028438350299362265
545.0, 0.003598950065732336
546.0, 0.002857364407209978
547.0, 0.0010337673264913397
548.0, 0.0012817762993368859
549.0, 0.0039426198085875785
550.0, 0.0016775894362126295
551.0, 0.0020480467547240567
552.0, 0.0030360492108637473
553.0, 0.0027935987909059466
554.0, 0.001743959481834115
555.0, 0.0016257673697479247
556.0, 0.00118215733035777
557.0, 0.002058730183285795
558.0, 0.0025885453638586167
559.0, 0.001698456752266285
560.0, 0.0006345781291940242
561.0, 0.0017741832549426934
562.0, 0.0018790525233596022
563.0, 0.0028840345730923016
564.0, 0.002850414446834509
565.0, 0.001680822521517464
566.0, 0.0008848017421532098
567.0, 0.001512685986752326
568.0, 0.0025106551410981875
569.0, 0.0008539460013783168
570.0, 0.001978939927990353
571.0, 0.0011985884431082027
572.0, 0.0011773259629159953
573.0, 0.001499322550863332
574.0, 0.0007688953825602825
575.0, 0.0012010730245798388
576.0, 0.0035527527923303022
577.0, 0.0021543028214735084
578.0, 0.0016898590936111654
579.0, 0.0019577401984086844
580.0, 0.001523567742491724
581.0, 0.00022080895680681923
582.0, 0.0014100058519863133
583.0, 0.0014100602587017559
584.0, 0.0017478601411832924
585.0, 0.0024237127435847512
586.0, 0.0028395317869333524
587.0, 0.003027376466230093
588.0, 0.0033634575173542196
589.0, 0.0025031883826671987
590.0, 0.002665135458947719
591.0, 0.0035247643295715095
592.0, 0.002967380350523126
593.0, 0.003166566546261138
594.0, 0.004140415328812562
595.0, 0.0029405185404907715
596.0, 0.0038282594309433236
597.0, 0.002250521849248247
598.0, 0.004058173833815829
599.0, 0.0035762859073231257
600.0, 0.0033923444666090325
601.0, 0.005374009580733869
602.0, 0.006084437968732128
603.0, 0.0084626955898777
604.0, 0.010192981453694147
605.0, 0.012979452893512352
606.0, 0.014798124776707007
607.0, 0.01756010445871731
608.0, 0.022754555462695166
609.0, 0.028482023975009298
610.0, 0.035352995897438476
611.0, 0.03914966572081755
612.0, 0.046606457713255126
613.0, 0.05489546576162554
614.0, 0.0652702377630545
615.0, 0.07630688213528622
616.0, 0.08039966206058004
617.0, 0.083045628001972
618.0, 0.07530702103471823
619.0, 0.06741200096116017
620.0, 0.05950924740266326
621.0, 0.05021455827639878
622.0, 0.04098298075332344
623.0, 0.03651260006541417
624.0, 0.03073486818695433
625.0, 0.029264147590897325
626.0, 0.02769533926464234
627.0, 0.027651788042099244
628.0, 0.028214243946540485
629.0, 0.027751681477989447
630.0, 0.02647018963639533
631.0, 0.02644859507397414
632.0, 0.023475161970263038
633.0, 0.02121708461315479
634.0, 0.01990081564240757
635.0, 0.018642477521749568
636.0, 0.016681642551124427
637.0, 0.01440561667940012
638.0, 0.014271729418246731
639.0, 0.01640415295403366
640.0, 0.014037340258770412
641.0, 0.014531625135822172
642.0, 0.01700819119420186
643.0, 0.017591839745328453
644.0, 0.015541146144419891
645.0, 0.015575648329091658
646.0, 0.015971266456354084
647.0, 0.01538899153995746
648.0, 0.014061356345404029
649.0, 0.012583903815844759
650.0, 0.011197335553802586
651.0, 0.009823179742922418
652.0, 0.009204769530961176
653.0, 0.006586076129776979
654.0, 0.00497952363278658
655.0, 0.0034544925288232534
656.0, 0.0023490994801418385
657.0, 0.002321198539936115
658.0, 0.0036276873869809513
659.0, 0.005669293639577638
660.0, 0.0013654450253636355
661.0, 0.0032319479767970332
662.0, 0.002839067864966927
663.0, 0.0021602394590985743
664.0, 0.0025787362297822795
665.0, 0.002771123358487355
666.0, 0.0016897337507196515
667.0, 0.0021368819079128068
668.0, 0.002182395939521015
669.0, 0.0026186828653494004
670.0, 0.002260836411021148
671.0, 0.002208638573705374
672.0, 0.002964528254789285
673.0, 0.0019384780878154125
674.0, 0.002291601122208669
675.0, 0.0020493097041277214
676.0, 0.00172427926813327
677.0, 0.002663586723942698
678.0, 0.0030252817660466665
679.0, 0.001845065454058192
680.0, 0.0012830273015739268
681.0, 0.003082055245527514
682.0, 0.0006536560123722797
683.0, 0.0007591442917658645
684.0, 0.0022056511442330056
685.0, 0.0027888459673715868
686.0, 0.0026243220453721506
687.0, 0.003008908278948604
688.0, 0.001923478572730123
689.0, 0.0006028952635288852
690.0, 0.0004192061879193495
691.0, 0.0016947330095698546
692.0, 0.001743984821425875
693.0, 0.0008077337656094755
694.0, 0.0007017058532459398
695.0, 0.0013913460135196241
696.0, 0.0011642716630833872
697.0, 0.0011096835702869546
698.0, 0.0003843031209937997
699.0, 0.00102567161336341
700.0, 0.00283610883318122
701.0, 0.003933360519321073
702.0, 0.002865623362172445
703.0, 0.001654682698759158
704.0, 0.0011405934562830065
705.0, 0.0011196828468912786
706.0, 0.0011438600493995452
707.0, 0.0008397812234196847
708.0, 0.0009385035666654173
709.0, 0.0017415908989561841
710.0, 0.0012829720665886509
711.0, 0.0015588695578147408
712.0, 0.001802173121853987
713.0, 0.0021131645301616067
714.0, 0.0021706642769949796
715.0, 0.0026149787329680036
716.0, 0.0034741867161312695
717.0, 0.003616905708222393
718.0, 0.0030977004880824817
719.0, 0.0007818980485977739
720.0, 0.001980167162771139
721.0, 0.0011623893866435934
722.0, 0.0008863684549763303
723.0, 0.0014675508572878462
724.0, 0.0010409651884162568
725.0, 0.000990439179304029
726.0, 0.0033260883027430702
727.0, 0.0028102477735623384
728.0, 0.00197876133550317
729.0, 0.0024141490688296637
730.0, 0.0019857387222936853
731.0, 0.0009120299155505904
732.0, 0.0024476799068849898
733.0, 0.004009574345358744
734.0, 0.002092258814923135
735.0, 0.004181880059592919
736.0, 0.002509291966375198
737.0, 0.0018149509779205092
738.0, 0.0025350559489802395
739.0, 0.002089542410285477
740.0, 0.0014017322585043528
741.0, 0.0022255998678398867
742.0, 0.0007768468840701125
743.0, 0.0017077729713676844
744.0, 0.0017486071467355771
745.0, 0.0024259962167177706
746.0, 0.003752255818196329
747.0, 0.0036260863155193855
748.0, 0.0024624519517841966
749.0, 0.000674845968655521
750.0, 0.0013191761716623497
751.0, 0.00096595300289889
752.0, 0.0011332799842819184
753.0, 0.0014381117150272858
754.0, 0.0011814476577820471
755.0, 0.0008994007653460638
756.0, 0.0013629847028782196
757.0, 0.0002352997260683915
758.0, 0.0010738965401913836
759.0, 0.0005612646421935452
760.0, 0.0012157220643504573
761.0, 0.0015281921884378327
762.0, 0.00045909893826895956
763.0, 0.001303827439269305
764.0, 0.0025078902682110346
765.0, 0.0014481360868056183
766.0, 0.0013079898806742372
767.0, 0.0017073772961083366
768.0, 0.0026320084153510716
769.0, 0.003262063944831361
770.0, 0.0027570452709520647
771.0, 0.001891222394370246
772.0, 0.0041584294156972205
773.0, 0.00126284061543968
774.0, 0.002392283409067795
775.0, 0.0027623591352047977
776.0, 0.0031903700258117027
777.0, 0.003928554167557301
778.0, 0.003918118723852164
779.0, 0.00351603047950298
780.0, 0.0005131739862925179
781.0, 0.000740356781601658
782.0, 0.0011747020900943319
783.0, 0.0026640470401345035
784.0, 0.002893529814985794
785.0, 0.001610657048474503
786.0, 0.0010666314352873855
787.0, 0.002137110569799903
788.0, 0.003398799637649154
789.0, 0.0007745533629779182
790.0, 0.0026156570190605795
791.0, 0.0030891282627098595
792.0, 0.0023455594301190976
793.0, 0.0031148185742938313
794.0, 0.0048851690750030055
795.0, 0.0022734122679440886
796.0, 0.003097951514469
797.0, 0.005267986946737755
798.0, 0.0032347059162156347
799.0, 0.0026091851059311826
800.0, 0.003016710547947238
801.0, 0.0031390708488825926
802.0, 0.0032035946568963196
803.0, 0.003218868972610566
804.0, 0.0026697251285189723
805.0, 0.0028564537772568506
806.0, 0.0018576717041497127
807.0, 0.0012134838696393853
808.0, 0.001074348551045628
809.0, 0.0016260206565232276
810.0, 0.0023538484542294106
811.0, 0.0012204363042885463
812.0, 0.0019694793273895665
813.0, 0.0034354169906490777
814.0, 0.0019908244727606748
815.0, 0.0030565949867544873
816.0, 0.003558788280452015
817.0, 0.0024753184561548893
818.0, 0.0014871918424630873
819.0, 0.0005164471155904735
820.0, 0.0011486520026238998
821.0, 0.001199284194718912
822.0, 0.0009586849360472279
823.0, 0.0017756678830388158
824.0, 0.0017830204693297376
825.0, 0.0012182023748591325
826.0, 0.0014503699292569376
827.0, 0.0022860478490658045
828.0, 0.0026279691880248405
829.0, 0.0014269899967284767
830.0, 0.0018383117383394668
831.0, 0.0018780315877465093
832.0, 0.0028936440535553562
833.0, 0.003616255232241435
834.0, 0.003372683269249209
835.0, 0.0034019257045333332
836.0, 0.002444433231461189
837.0, 0.003576971459102421
838.0, 0.0027941747920120223
839.0, 0.002931808690319357
840.0, 0.003585512560348121
841.0, 0.0038964782210485108
842.0, 0.0032007834143264057
843.0, 0.0023280006201660142
844.0, 0.0035524082556339237
845.0, 0.001324362835828869
846.0, 0.0029037447616867516
847.0, 0.0017187178305927298
848.0, 0.0031716333908467093
849.0, 0.002780658013453938
850.0, 0.0012904309261231827
851.0, 0.0020232268030063185
852.0, 0.003399723184575768
853.0, 0.005379149071424568
854.0, 0.004074399270784705
855.0, 0.0067313345922735005
856.0, 0.0047004037792370825
857.0, 0.004206770763398101
858.0, 0.003546451021798267
859.0, 0.002025796129226915
860.0, 0.003233009257650544
861.0, 0.0041567520768090345
862.0, 0.0012944949708527595
863.0, 0.005658223662829473
864.0, 0.00291668237480909
865.0, 0.0022040047090669417
866.0, 0.0016123012723480675
867.0, 0.00048652602773472243
868.0, 0.0010330966184189288
869.0, 0.002812537133304227
870.0, 0.002862673217649429
871.0, 0.0026119428494050983
872.0, 0.0038337111602155297
873.0, 0.00290182077383175
874.0, 0.0018912348738190305
875.0, 0.0016176072696958974
876.0, 0.0017775206145356345
877.0, 0.0022277241809029644
878.0, 0.003014382849037848
879.0, 0.0026055483722880663
880.0, 0.000798114578127628
881.0, 0.0014415230009914236
882.0, 0.0011211004740215062
883.0, 0.0006625906856669906
884.0, 0.0004250747990745864
885.0, 0.0004071451420736217
886.0, 0.0010615310620177706
887.0, 0.001368908196812648
888.0, 0.0004508852303090475
889.0, 0.0006594703634709413
890.0, 0.0014256847249804585
891.0, 0.0014790730299826238
892.0, 0.0012428506631970147
893.0, 0.0011072595774074406
894.0, 0.0009288175755532307
895.0, 0.0009707958883745277
896.0, 0.0028353462580201893
897.0, 0.004854740412559834
898.0, 0.0034793324885922304
899.0, 0.00398810372240084
900.0, 0.002262135721002504
901.0, 0.0021891417543758313
902.0, 0.003491335565076671
903.0, 0.0026236154993856966
904.0, 0.0027910940044545453
905.0, 0.0014861242985065076
906.0, 0.004763969111354764
907.0, 0.0021082195082385976
908.0, 0.0034506586732542316
909.0, 0.002602719093696332
910.0, 0.0009812263066702636
911.0, 0.0016832475607567359
912.0, 0.002799884635188769
913.0, 0.0011600779658166222
914.0, 0.0020826796013425006
915.0, 0.0029674886343283137
916.0, 0.004690623129922566
917.0, 0.002190324004080824
918.0, 0.001007271246179049
919.0, 0.003650249850871215
920.0, 0.005228678113404325
921.0, 0.002287246284861617
922.0, 0.0025668796059800814
923.0, 0.004950085424390471
924.0, 0.0032973860184752467
925.0, 0.0008845545436543356
926.0, 0.0025326741630348876
927.0, 0.0024527899624660443
928.0, 0.002037534056832276
929.0, 0.0029833653974215626
930.0, 0.0030832147645783346
931.0, 0.0021726895743974677
932.0, 0.0043690340259255524
933.0, 0.0012627630792808888
934.0, 0.0015580168500332115
935.0, 0.0027644486800389246
936.0, 0.0029198585113039983
937.0, 0.0028094319360966002
938.0, 0.0034437351765193966
939.0, 0.003828468393263928
940.0, 0.002377367243026133
941.0, 0.002776419698230278
942.0, 0.003062005493653798
943.0, 0.0037333541428617683
944.0, 0.002549800975948339
945.0, 0.002694502777562393
946.0, 0.0024040852634158727
947.0, 0.002075667310629486
948.0, 0.0033285956657945932
949.0, 0.004226248190862399
950.0, 0.0037097098646867994
951.0, 0.0030825675419733386
952.0, 0.004125909289752598
953.0, 0.002850419166435095
954.0, 0.003024524437118181
955.0, 0.0028359946831581924
956.0, 0.002843311178667902
957.0, 0.004179023591124936
958.0, 0.004847770102571012
959.0, 0.0033326982557533172
960.0, 0.0028021613075586297
961.0, 0.007192908238225326
962.0, 0.005158284290337199
963.0, 0.006352889246763693
964.0, 0.006477863854556399
965.0, 0.007802402960981421
966.0, 0.009250205232739415
967.0, 0.007949320276153509
968.0, 0.010357194366940521
969.0, 0.009814545446672792
970.0, 0.01276866074335725
971.0, 0.009392028751783375
972.0, 0.011728637910955958
973.0, 0.014466924770189397
974.0, 0.01843527564482021
975.0, 0.022021438008330802
976.0, 0.023898020409505807
977.0, 0.028656138520609366
978.0, 0.03994441411357825
979.0, 0.05388286859276938
980.0, 0.07699780540626534
981.0, 0.12087118216049227
982.0, 0.1929888272108599
983.0, 0.27347513422753733
984.0, 0.3739893768325686
985.0, 0.4914306285642553
986.0, 0.6183313529951896
987.0, 0.7810277879024938
988.0, 0.94794742517184
989.0, 0.9967772327029455
990.0, 0.8272675986335731
991.0, 0.5769466207923933
992.0, 0.35833020971285884
993.0, 0.20761861147375366
994.0, 0.12234028049641274
995.0, 0.07989504807451085
996.0, 0.054272437400769286
997.0, 0.03804357742072883
998.0, 0.029234318680704252
999.0, 0.023545642377895654
1000.0, 0.019942815040095763
1001.0, 0.016694824051276095
1002.0, 0.01458644398645053
1003.0, 0.01335316027648025
1004.0, 0.01249813324791131
1005.0, 0.010757760634554508
1006.0, 0.007455194703793946
1007.0, 0.005835309746644919
1008.0, 0.006805689197975948
1009.0, 0.006567648075457779
1010.0, 0.008040439506434221
1011.0, 0.008896080651224866
1012.0, 0.007989707929392327
1013.0, 0.006246092812582098
1014.0, 0.005521520346521691
1015.0, 0.00572617891958245
1016.0, 0.005450266250314721
1017.0, 0.006266059366091579
1018.0, 0.005962320718641142
1019.0, 0.005539887587451772
1020.0, 0.0057358875386409915
1021.0, 0.004479776987729447
1022.0, 0.0038191107993465847
1023.0, 0.0029327080841052935
1024.0, 0.003101417258666029
1025.0, 0.0036127917485276675
1026.0, 0.0018933968267348766
1027.0, 0.003215334456745031
1028.0, 0.002023732281687596
1029.0, 0.0004910522298778772
1030.0, 0.0023747398329982154
1031.0, 0.004225066416220196
1032.0, 0.02986214114031856
1033.0, 0.043483003252137796
1034.0, 0.04564631355150514
1035.0, 0.045900778506831
1036.0, 0.028566218563032517
1037.0, 0.005951459466505278
1038.0, 0.0012961828566728118
1039.0, 0.002238996484543083
1040.0, 0.0008684801825488184
1041.0, 0.0028571761846366873
1042.0, 0.0016011590231556653
1043.0, 0.0005422915816841961
1044.0, 0.0008078063279037374
1045.0, 0.0018586234277791027
1046.0, 0.002581206489653238
1047.0, 0.0007779184517460302
1048.0, 0.0030107750242079354
1049.0, 0.003835441250307816
1050.0, 0.0010925148361300018
1051.0, 0.0018335988549612
1052.0, 0.004001742792147232
1053.0, 0.002978878912443021
1054.0, 0.0016095422011084732
1055.0, 0.0010580374068093609
1056.0, 0.0010543401610122378
1057.0, 0.0023781463847905287
1058.0, 0.0005548220730486693
1059.0, 0.002840107614401729
1060.0, 0.005166018354668589
1061.0, 0.0016283521593089564
1062.0, 0.0029599659373274823
1063.0, 0.0032162013798054208
1064.0, 0.0021260651202683082
1065.0, 0.0021810138787777787
1066.0, 0.0027236320002745765
1067.0, 0.002801994255642845
1068.0, 0.004460383126470952
1069.0, 0.0027154642076564644
1070.0, 0.004056440285160416
1071.0, 0.004587874190395807
1072.0, 0.00430709006397093
1073.0, 0.004953236729619034
1074.0, 0.0038491151371610275
1075.0, 0.004619378186332525
1076.0, 0.006868483171276799
1077.0, 0.008011805754458015
1078.0, 0.009458474117094821
1079.0, 0.012110579535273471
1080.0, 0.010535612882560143
1081.0, 0.014133231986262849
1082.0, 0.015504679557932286
1083.0, 0.018100260608641366
1084.0, 0.018137280627846357
1085.0, 0.0174027895740448
1086.0, 0.017630459985433666
1087.0, 0.018340683797210763
1088.0, 0.014969890013956173
1089.0, 0.007536674014731944
1090.0, 0.008552701405202975
1091.0, 0.005372673967995108
1092.0, 0.004681498968715835
1093.0, 0.007084024635670325
1094.0, 0.006587669503380025
1095.0, 0.005113080433239276
1096.0, 0.005496237144509156
1097.0, 0.0047341493732191925
1098.0, 0.005652863645466964
1099.0, 0.009194676542639954
1100.0, 0.009032924807161538
1101.0, 0.008198477990640739
1102.0, 0.013242611380047113
1103.0, 0.009301141159668097
1104.0, 0.012245116867366805
1105.0, 0.012014866682365248
1106.0, 0.010739463273704857
1107.0, 0.007736239850942201
1108.0, 0.0060301828185075936
1109.0, 0.005962094681255499
1110.0, 0.004887916344619925
1111.0, 0.0030056194130287546
1112.0, 0.003921397611799561
1113.0, 0.00586421414543356
1114.0, 0.004777405039348664
1115.0, 0.003748808353936605
1116.0, 0.0009800322142788248
1117.0, 0.0018619497600065027
1118.0, 0.001328893783742448
1119.0, 0.00216179329725362
1120.0, 0.0032081080864260173
1121.0, 0.003685184692141663
1122.0, 0.004731828354546022
1123.0, 0.004219137961338331
1124.0, 0.003457606372290961
1125.0, 0.0030611349956923455
1126.0, 0.0035128746993101268
1127.0, 0.003928024222295039
1128.0, 0.00495158761175644
1129.0, 0.005444247113818323
1130.0, 0.006430230894775876
1131.0, 0.00740062393907731
1132.0, 0.007349733435162991
1133.0, 0.007623380514639346
1134.0, 0.009727635699645236
1135.0, 0.011175395940753861
1136.0, 0.011775582497992673
1137.0, 0.01580488908851769
1138.0, 0.01659828247610365
1139.0, 0.019454341354072053
1140.0, 0.020655494060918846
1141.0, 0.020818138316941917
1142.0, 0.021980712022737776
1143.0, 0.01875461228545744
1144.0, 0.0163460261458203
1145.0, 0.018235900099315267
1146.0, 0.016886982842417027
1147.0, 0.01950853394625029
1148.0, 0.011643986029589458
1149.0, 0.015897216062419256
1150.0, 0.01115996561520317
1151.0, 0.008232117793111554
1152.0, 0.008816064405707088
1153.0, 0.008895792367565863
1154.0, 0.006953880504083487
1155.0, 0.005306877207092021
1156.0, 0.005156488771794628
1157.0, 0.005621715927001144
1158.0, 0.005782094179361749
1159.0, 0.0046579843844500955
1160.0, 0.0052198753166192045
1161.0, 0.007386999612977565
1162.0, 0.0074780858248436055
1163.0, 0.007172748455299034
1164.0, 0.007625451864283583
1165.0, 0.01038480820667276
1166.0, 0.012546527359551833
1167.0, 0.012232080866634224
1168.0, 0.011399181805613995
1169.0, 0.011285110381688489
1170.0, 0.010078860833824286
1171.0, 0.00805401152186374
1172.0, 0.0073422542213752405
1173.0, 0.003540486007604174
1174.0, 0.0042578405509622755
1175.0, 0.0030595644992700783
1176.0, 0.0036482058199746
1177.0, 0.0023812150305379844
1178.0, 0.0021573354363025755
1179.0, 0.003220165610049601
1180.0, 0.003616545081725665
1181.0, 0.00339184046749635
1182.0, 0.003475758949390117
1183.0, 0.0030258991079151584
1184.0, 0.002439087416695767
1185.0, 0.0005732042911369558
1186.0, 0.0007215420465659574
1187.0, 0.0005613406308934629
1188.0, 0.0010619189877146703
1189.0, 0.003357868148202501
1190.0, 0.0029750870712147333
1191.0, 0.0010959692608655753
1192.0, 0.0003746430707305909
1193.0, 0.0016082420836817065
1194.0, 0.002779840401826611
1195.0, 0.0022079832164493994
1196.0, 0.001644386198875734
1197.0, 0.00011330283574203354
1198.0, 0.0009511057548973006
1199.0, 0.0026133391228126816
1200.0, 0.00176449615856966
1201.0, 0.0025230130390267026
1202.0, 0.002199294806896069
1203.0, 0.0009513845686498422
1204.0, 0.0011025226696341056
1205.0, 0.0010840559951279384
1206.0, 0.0006165129737038827
1207.0, 0.0013901227641615423
1208.0, 0.0023781708632390976
1209.0, 0.0016292132545855445
1210.0, 0.0008612416310559406
1211.0, 0.005802100186186067
1212.0, 0.002757514469387521
1213.0, 0.0006320669099412218
1214.0, 0.00010140556758485621
1215.0, 0.0017059717132178209
1216.0, 0.001865506176653869
1217.0, 0.0033799724638945566
1218.0, 0.0034399319837066064
1219.0, 0.0024235963419876627
1220.0, 0.002961762414205886
1221.0, 0.0025878463748126575
1222.0, 0.0009844362112446895
1223.0, 0.0034906178146107674
1224.0, 0.001506455617738069
1225.0, 0.0005501860590779456
1226.0, 0.0019503161229659388
1227.0, 0.0016326559062869092
1228.0, 0.0018338836282431013
1229.0, 0.0024768153989033616
1230.0, 0.0016952646317248466
1231.0, 0.0028851628054218977
1232.0, 0.0032352880644949205
1233.0, 0.001565698682400224
1234.0, 0.0009362903830464516
1235.0, 0.000813702070979931
1236.0, 0.002030133188620658
1237.0, 0.003786447118734397
1238.0, 0.0037690168572751684
1239.0, 0.0017429210700817621
1240.0, 0.00128036789949381
1241.0, 0.005945797567477179
1242.0, 0.003374375110862491
1243.0, 0.004028007704177505
1244.0, 0.005827826589202822
1245.0, 0.0038015929670785326
1246.0, 0.0019321962489034787
1247.0, 0.0022592933706443307
1248.0, 0.0017595652453997535
1249.0, 0.0020334693261477806
1250.0, 0.004457204267813995
1251.0, 0.006311852542439777
1252.0, 0.0022131681497287265
1253.0, 0.0008106534338023841
1254.0, 0.0005046245577550024
1255.0, 0.002280224233560283
1256.0, 0.000821205437151091
1257.0, 9.795846712810147e-05
1258.0, 0.0016389882347427264
1259.0, 0.0020344262450746942
1260.0, 0.002237251087438006
1261.0, 0.002107404557702738
1262.0, 0.0010500142074069594
1263.0, 0.0021443249214080475
1264.0, 0.00294835342294509
1265.0, 0.0015060906153827255
1266.0, 0.0017179206802429012
1267.0, 0.0015099697967523226
1268.0, 0.0021230999215008373
1269.0, 0.0004702224212422355
1270.0, 0.0024547726298407083
1271.0, 0.002200348081773113
1272.0, 0.0034324625943391134
1273.0, 0.004611634402652502
1274.0, 0.00508633139048523
1275.0, 0.0045891627922886495
1276.0, 0.003329235109597399
1277.0, 0.0022462499680096283
1278.0, 0.0012232342691906543
1279.0, 0.0020888055350580526
1280.0, 0.004556437681351203
1281.0, 0.0006298041028231268
1282.0, 0.002955916123222683
1283.0, 0.006254873204168169
1284.0, 0.0044904391074887025
1285.0, 0.004886803926830053
1286.0, 0.004297406876077727
1287.0, 0.001530212442499988
1288.0, 0.00012824875900265128
1289.0, 0.0019019709761141379
1290.0, 0.00418080710387449
1291.0, 0.00423106709404217
1292.0, 0.003633101456115395
1293.0, 0.004647797011964406
1294.0, 0.005164751261130896
1295.0, 0.0057200424874650786
1296.0, 0.0032139922535657397
1297.0, 0.005362217746660597
1298.0, 0.0026133099087462417
1299.0, 0.0040922024754318125
1300.0, 0.002652190006216649
1301.0, 0.00403805446290235
1302.0, 0.0032349724635630673
1303.0, 0.0043501899870686065
1304.0, 0.004823194879914424
1305.0, 0.0023689591627812324
1306.0, 0.002481747148092351
1307.0, 0.004854431416478826
1308.0, 0.0038457145279493987
1309.0, 0.004118542624733856
1310.0, 0.00440508868287768
1311.0, 0.0029666093757802024
1312.0, 0.005037679196229022
1313.0, 0.0028018857529260475
1314.0, 0.0015066339005569134
1315.0, 0.0019327703162552747
1316.0, 0.0041081081434651105
1317.0, 0.004388814465515266
1318.0, 0.0038624970600111977
1319.0, 0.00450392992579346
1320.0, 0.0034723439449249557
1321.0, 0.0032978442879252876
1322.0, 0.004468436549917305
1323.0, 0.004040379315528101
1324.0, 0.0029898097166048067
1325.0, 0.002907584735763643
1326.0, 0.005157061186598358
1327.0, 0.004115570479863934
1328.0, 0.004090921210627691
1329.0, 0.0017485382547762023
1330.0, 0.0012878518462038902
1331.0, 0.00421572580113713
1332.0, 0.005795652179023239
1333.0, 0.004522047344157793
1334.0, 0.003192494126597529
1335.0, 0.0014729862662139523
1336.0, 0.0017465259572505506
1337.0, 0.0016156356025592352
1338.0, 0.0023532877021771896
1339.0, 0.004454464172373602
1340.0, 0.004877730751481859
1341.0, 0.004093301187362191
1342.0, 0.0031490450542935072
1343.0, 0.004809395886147647
1344.0, 0.0018299811501025392
1345.0, 0.0034242976135352757
1346.0, 0.0031655040283549577
1347.0, 0.0009526584819620379
1348.0, 0.004685169494305127
1349.0, 0.004940501594402776
1350.0, 0.0046422343768686624
1351.0, 0.001462711138655903
1352.0, 0.0033267048649990045
1353.0, 0.003818390112845476
1354.0, 0.0031937469773877267
1355.0, 0.003101756705380285
1356.0, 0.001902903283495429
1357.0, 0.0007708178811247033
1358.0, 0.0012064254055976062
1359.0, 0.0022218771182816784
1360.0, 0.004070003982072177
1361.0, 0.004581900485730392
1362.0, 0.003289898171320654
1363.0, 0.00155485133966888
1364.0, 0.004088895844071686
1365.0, 0.006989352558933639
1366.0, 0.0035231555797534757
1367.0, 0.002342037211610559
1368.0, 0.005512871931768174
1369.0, 0.002724799869875635
1370.0, 0.000757729540773403
1371.0, 0.0013361418195828856
1372.0, 0.0030264602788237535
1373.0, 0.002992020335156088
1374.0, 0.0026052468287661784
1375.0, 0.002565363463561997
1376.0, 0.000990418543393341
1377.0, 0.0013078858573513834
1378.0, 0.002163647104676073
1379.0, 0.00203476294702264
1380.0, 0.0020529229037618067
1381.0, 0.002553754147283883
1382.0, 0.0014339789420490404
1383.0, 0.002443599002281127
1384.0, 0.0031660088144616523
1385.0, 0.0019090123354423075
1386.0, 0.0025167758263581206
1387.0, 0.0028638745743330843
1388.0, 0.004877830661116643
1389.0, 0.005730121881738285
1390.0, 0.004502048192318882
1391.0, 0.0018972699732314512
1392.0, 0.000569546984625015
1393.0, 0.0009437206198651979
1394.0, 0.0012407572105394469
1395.0, 0.000944860684710498
1396.0, 0.0014920140751252945
1397.0, 0.004504319325164874
1398.0, 0.0021787916637844695
1399.0, 0.0007244597306874871
1400.0, 0.002983740611681461
1401.0, 0.006699579378165987
1402.0, 0.0003248839185138958
1403.0, 0.006086297944789867
1404.0, 0.0014134321852265286
1405.0, 0.0009442907282111921
1406.0, 0.0005155525801752417
1407.0, 0.002361994494928992
1408.0, 0.0058012826055069645
1409.0, 0.005754859039138558
1410.0, 0.0050018937088164035
1411.0, 0.0028164786834445074
1412.0, 0.0030387941964747337
1413.0, 0.0044453225576730785
1414.0, 0.0023845030087174587
1415.0, 0.0017124117122221106
1416.0, 0.0038752144155703256
1417.0, 0.004619088232365085
1418.0, 0.0022586068910757364
1419.0, 0.0037063141563340317
1420.0, 0.005768714005877218
1421.0, 0.005165447484715851
1422.0, 0.004657050642527229
1423.0, 0.0035700262514156015
1424.0, 0.0032484044705819674
1425.0, 0.003390973680356907
1426.0, 0.0028754969488901955
1427.0, 0.002793137679176305
1428.0, 0.003372356405626119
1429.0, 0.003195763237846197
1430.0, 0.0037879689474078736
1431.0, 0.004093355325950871
1432.0, 0.0041830295230225086
1433.0, 0.005936459556188306
1434.0, 0.005028732956010315
1435.0, 0.0026306629342790887
1436.0, 0.0030257106401250177
1437.0, 0.0028602389805215916
1438.0, 0.005150894231674596
1439.0, 0.005153477888449085
1440.0, 0.003511236169552266
1441.0, 0.002722147668053826
1442.0, 0.0014847023018979518
1443.0, 0.0014947118817649919
1444.0, 0.003156580867170787
1445.0, 0.007626133111757532
1446.0, 0.003679885778170972
1447.0, 0.003926581124933442
1448.0, 0.003971301351413754
1449.0, 0.0038113201598532166
1450.0, 0.004740992732669584
1451.0, 0.0049934765036175445
1452.0, 0.0036052647578167733
1453.0, 0.00221637185268504
1454.0, 0.005060279740754349
1455.0, 0.007181214746798707
1456.0, 0.006222208415006833
1457.0, 0.004300537710699186
1458.0, 0.0029580483716990734
1459.0, 0.0030861898195136362
1460.0, 0.003480009171951814
1461.0, 0.004685170127518682
1462.0, 0.0032094520780270763
1463.0, 0.0018307179290059736
1464.0, 0.0009495498168546686
1465.0, 0.0011864805894398426
1466.0, 0.004927515187030567
1467.0, 0.0049165165334065465
1468.0, 0.006588091332560447
1469.0, 0.004838507516469126
1470.0, 0.00604015672741392
1471.0, 0.005342225577208707
1472.0, 0.005691447081083071
1473.0, 0.004847565412718889
1474.0, 0.0021950260872317154
1475.0, 0.0010867217557585923
1476.0, 0.0004334144101893456
1477.0, 0.0013744707618981186
1478.0, 0.0010695291643325294
1479.0, 0.0003845981369508745
1480.0, 0.0022596922935296257
1481.0, 0.0045566785724742345
1482.0, 0.004671939843649817
1483.0, 0.0037226886114674253
1484.0, 0.0024472320533295263
1485.0, 0.0011335651947792437
1486.0, 0.0015258161496975848
1487.0, 0.0022501319887541877
1488.0, 0.00248712946518253
1489.0, 0.0032325381203261046
1490.0, 0.0006823285872012252
1491.0, 0.003815137721884727
1492.0, 0.0008577051366555253
1493.0, 4.3993414835040705e-05
1494.0, 0.0009669879532910161
1495.0, 0.0017367390771072196
1496.0, 0.0008661841158750886
1497.0, 0.003500085587319124
1498.0, 0.006128973394490327
1499.0, 0.0032395251697368284
1500.0, 0.003459877938314691
1501.0, 0.004630123548362322
1502.0, 0.003608931346134702
1503.0, 0.002555774343397077
1504.0, 0.0022407671948838446
1505.0, 0.0016396712742387774
1506.0, 0.001607399828469393
1507.0, 0.0030479185068722947
1508.0, 0.0024501556842492374
1509.0, 0.0025974095357384716
1510.0, 0.006275960637969116
1511.0, 0.007325375984808782
1512.0, 0.005079932938587502
1513.0, 0.004356301688094806
1514.0, 0.004925784568623407
1515.0, 0.0016563312951250232
1516.0, 0.005567530026806075
1517.0, 0.005991062834268532
1518.0, 0.004203980374506944
1519.0, 0.0008177305943509073
1520.0, 0.0035357753979858206
1521.0, 0.002083839357705712
1522.0, 0.007093504413255056
1523.0, 0.0026741517284616803
1524.0, 0.007886954441832652
1525.0, 0.0032550338457773345
1526.0, 0.004685080988224046
1527.0, 0.0011929351419813113
1528.0, 0.0027198399368210746
1529.0, 0.0051014052627865675
1530.0, 0.005499639086706543
1531.0, 0.006039998675917727
1532.0, 0.0059548266499221654
1533.0, 0.005054724471748742
1534.0, 0.004296375301281234
1535.0, 0.0039505677689971735
1536.0, 0.0033138999504485037
1537.0, 0.0031744238352874737
1538.0, 0.004354319050593438
1539.0, 0.004568319113218829
1540.0, 0.005057709879192062
1541.0, 0.0038826209962067016
1542.0, 0.0017977239063633127
1543.0, 0.003678319649241554
1544.0, 0.0035266077605406406
1545.0, 0.004475714901229903
1546.0, 0.0038023188164965326
1547.0, 0.005459574550091909
1548.0, 0.005513246676469966
1549.0, 0.005652720397151356
1550.0, 0.00568514761146454
1551.0, 0.0050232538157331955
1552.0, 0.0012476884248445363
1553.0, 0.0053266067349064215
1554.0, 0.005559576959360533
1555.0, 0.004588274317264653
1556.0, 0.009570764122357207
1557.0, 0.007661178363913247
1558.0, 0.006320497066492671
1559.0, 0.008462455766177662
1560.0, 0.0028110558003594994
1561.0, 0.006813143141478638
1562.0, 0.004928238384894356
1563.0, 0.00377814112262294
1564.0, 0.005694951192023502
1565.0, 0.006108337240403653
1566.0, 0.004546621134275932
1567.0, 0.005159518563701263
1568.0, 0.0018555717574109097
1569.0, 0.004703627276331507
1570.0, 0.002695884388801839
1571, 0.0
1572, 0.0
1573, 0.0
1574, 0.0
1575, 0.0
1576, 0.0
1577, 0.0
1578, 0.0
1579, 0.0
1580, 0.0
1581, 0.0
1582, 0.0
1583, 0.0
1584, 0.0
1585, 0.0
1586, 0.0
1587, 0.0
1588, 0.0
1589, 0.0
1590, 0.0
1591, 0.0
1592, 0.0
1593, 0.0
1594, 0.0
1595, 0.0
1596, 0.0
1597, 0.0
1598, 0.0
1599, 0.0
