30, 0.0
31, 0.0
32, 0.0
33, 0.0
34, 0.0
35, 0.0
36, 0.0
37, 0.0
38, 0.0
39, 0.0
40, 0.0
41, 0.0
42, 0.0
43, 0.0
44, 0.0
45, 0.0
46, 0.0
47, 0.0
48, 0.0
49, 0.0
50, 0.0
51, 0.0
52, 0.0
53.0, 8.912290635740547e-07
54.0, 7.54219222457444e-06
55.0, 7.586541251553335e-05
56.0, 0.00010633605353017155
57.0, 1.6762246732526445e-05
58.0, 5.08458457530484e-05
59.0, 0.00019683320823425
60.0, 0.00042783891866271257
61.0, 0.0006310534033597292
62.0, 0.0008166185961797163
63.0, 0.0010726958596345428
64.0, 0.0014784785253117274
65.0, 0.0018686045360170732
66.0, 0.0022619077937699648
67.0, 0.002694331654671926
68.0, 0.0033384148872298534
69.0, 0.004090155591950694
70.0, 0.005101270884814463
71.0, 0.006528191041651763
72.0, 0.0071626948713920885
73.0, 0.007287965505749212
74.0, 0.006949354797943204
75.0, 0.006143848434897652
76.0, 0.004915369274424797
77.0, 0.003675279088715293
78.0, 0.0026460924107239146
79.0, 0.002196546188153786
80.0, 0.0019846429635814733
81.0, 0.001922846708672009
82.0, 0.001799832396781591
83.0, 0.0017376737047172966
84.0, 0.0017371442070002307
85.0, 0.0018076610763188877
86.0, 0.0018619680880973641
87.0, 0.0019456757948764561
88.0, 0.0020768021274705723
89.0, 0.0023161305700384813
90.0, 0.002543904635118648
91.0, 0.0028607906567682606
92.0, 0.0033038783243397097
93.0, 0.0035207491182486805
94.0, 0.0038414141405303218
95.0, 0.004239270875811468
96.0, 0.004686501986736982
97.0, 0.004729420326564154
98.0, 0.004598769699344641
99.0, 0.004338817267401954
100.0, 0.0038988296916461483
101.0, 0.003458927265771558
102.0, 0.0030192936447994553
103.0, 0.0025802744116725186
104.0, 0.0023198766176379493
105.0, 0.002054190906757165
106.0, 0.0017770039144221446
107.0, 0.0017079882902352526
108.0, 0.0014878877881346823
109.0, 0.0012228756047222497
110.0, 0.0010022282615361575
111.0, 0.0009688308719794689
112.0, 0.0009860485805193294
113.0, 0.0010320143892342283
114.0, 0.0010673805497196857
115.0, 0.0011125323243188685
116.0, 0.001202042255347694
117.0, 0.001365768347966001
118.0, 0.0014312968383397668
119.0, 0.001302591148736803
120.0, 0.0011145166244503912
121.0, 0.0012788794862528083
122.0, 0.0012405236873146742
123.0, 0.0011921326217571488
124.0, 0.001198282763496809
125.0, 0.0009040923725730937
126.0, 0.0008431918996721636
127.0, 0.0008785844319266335
128.0, 0.0007882752387879138
129.0, 0.0006761499922621373
130.0, 0.0006969598780365576
131.0, 0.0008554664196251145
132.0, 0.0007904392934488393
133.0, 0.0008047319111832864
134.0, 0.0008350832808465416
135.0, 0.0008209930065975509
136.0, 0.0007248604513529669
137.0, 0.0008112653569353267
138.0, 0.0010555906043330972
139.0, 0.0012367633823774007
140.0, 0.001349317654256301
141.0, 0.001411307203654539
142.0, 0.0014247051764545728
143.0, 0.001640839042847116
144.0, 0.0019186015447367408
145.0, 0.0023094424545208186
146.0, 0.002973804755386829
147.0, 0.0035008954054139745
148.0, 0.003737857061376567
149.0, 0.003682490204629943
150.0, 0.004221684649008124
151.0, 0.004455305156681987
152.0, 0.004580120706355412
153.0, 0.004802529148175559
154.0, 0.00455551014324764
155.0, 0.0042678537565765335
156.0, 0.003949479581038613
157.0, 0.003384032962445207
158.0, 0.0029218129014507124
159.0, 0.002518350191994368
160.0, 0.0021572794116439947
161.0, 0.0019251834749903513
162.0, 0.0017061819444559847
163.0, 0.0014890921617141215
164.0, 0.0012524055167396945
165.0, 0.0011662201570025225
166.0, 0.001060591677692739
167.0, 0.000905397481942563
168.0, 0.0008513558673118069
169.0, 0.0008425435418853691
170.0, 0.0008466665098458318
171.0, 0.0008348479631264773
172.0, 0.0009154542946695241
173.0, 0.0008989845243125313
174.0, 0.0008262697895455644
175.0, 0.00090101661722343
176.0, 0.0010115637446588119
177.0, 0.0010718910593846282
178.0, 0.0010486794178556369
179.0, 0.0011794831593746312
180.0, 0.0014261180331406915
181.0, 0.0016655542755773833
182.0, 0.0017099764935709387
183.0, 0.0016900074285553755
184.0, 0.001858604639936781
185.0, 0.0022055529528709756
186.0, 0.00246349905265122
187.0, 0.002761106579650213
188.0, 0.0029139521567427846
189.0, 0.0027976804142075913
190.0, 0.0026931823779961523
191.0, 0.0026134911365704966
192.0, 0.002470514725567059
193.0, 0.0020707382779153937
194.0, 0.0018676686324467008
195.0, 0.0016048705875358771
196.0, 0.0012758474913871158
197.0, 0.0012464981199161143
198.0, 0.0010121203128893325
199.0, 0.0007894526608227773
200.0, 0.000734430624074689
201.0, 0.0007418541187600558
202.0, 0.0006976102627513504
203.0, 0.0006368532581889977
204.0, 0.0006475697688751199
205.0, 0.000592133452070192
206.0, 0.0005002629409892061
207.0, 0.0003960948554836593
208.0, 0.0004440425569568605
209.0, 0.0004183925189015503
210.0, 0.00036914491616702204
211.0, 0.0003310369433510032
212.0, 0.0001112942702376063
213.0, 0.00010767810374147648
214.0, 0.00021153404840272842
215.0, 0.00014372503055746805
216.0, 7.58745080659135e-05
217.0, 6.819498142706655e-05
218.0, 0.00011899550635433552
219.0, 7.028229301640911e-05
220.0, 5.9856961038334786e-05
221.0, 5.596402787656264e-05
222.0, 3.6134488223633515e-05
223.0, 7.945625627050825e-05
224.0, 7.075085628763598e-05
225.0, 4.302401551843204e-05
226.0, 7.261360817348558e-05
227.0, 0.00016448832612415035
228.0, 0.00017873001006778416
229.0, 0.00011434656931355235
230.0, 0.00018279415131306086
231.0, 0.00014638307247919082
232.0, 9.242993741156023e-05
233.0, 7.290850639077675e-05
234.0, 0.00012101024002953325
235.0, 0.00012137622718209075
236.0, 8.94068329981913e-05
237.0, 4.7933884188399245e-05
238.0, 4.686622690596337e-05
239.0, 7.718901362255939e-05
240.0, 0.00011762260251788097
241.0, 6.711133983297754e-05
242.0, 0.0001306623993323564
243.0, 0.0001473586634668122
244.0, 4.5058000343729624e-05
245.0, 4.584619974695106e-05
246.0, 4.731752222600144e-05
247.0, 6.512830938700762e-05
248.0, 0.0001218915877206431
249.0, 9.113652924804436e-05
250.0, 9.512407960141496e-05
251.0, 0.00010999366041846544
252.0, 2.105602940098044e-05
253.0, 7.169785389859056e-05
254.0, 9.343317170932482e-05
255.0, 4.450780498926238e-05
256.0, 4.5685362505315696e-05
257.0, 3.780965079487122e-05
258.0, 3.680471681914435e-05
259.0, 5.600906053601874e-05
260.0, 9.311003964481482e-05
261.0, 8.349077423701448e-05
262.0, 5.981978247415278e-05
263.0, 8.69752165768403e-05
264.0, 9.824465698116258e-05
265.0, 8.888735364911415e-05
266.0, 7.831821715013844e-05
267.0, 0.00016785290569025854
268.0, 9.600422746342415e-05
269.0, 5.848609573099365e-05
270.0, 0.00013437866121252445
271.0, 0.00014446825727230462
272.0, 0.00010724804263583955
273.0, 6.261852312443009e-05
274.0, 5.081706757892886e-05
275.0, 3.901971312575036e-05
276.0, 5.2773658127945436e-05
277.0, 7.409491989713135e-05
278.0, 5.7495070338624144e-05
279.0, 2.940249589063969e-05
280.0, 5.163119496969783e-05
281.0, 0.00013156006785183035
282.0, 0.0002342405236948971
283.0, 0.00013856956328347453
284.0, 7.045089720933624e-05
285.0, 0.00013289744637188432
286.0, 9.523322654581634e-05
287.0, 0.00011003066730511003
288.0, 0.00011900280397415954
289.0, 5.827249642012713e-05
290.0, 5.3750062631977253e-05
291.0, 6.151916815101498e-05
292.0, 8.160269803870119e-05
293.0, 0.00012201098580408054
294.0, 7.6966597605794e-05
295.0, 6.607765894517442e-05
296.0, 9.668940326747865e-05
297.0, 8.351024476181991e-05
298.0, 6.828737527429896e-05
299.0, 6.143146665138615e-05
300.0, 6.772104848233685e-05
301.0, 8.227559891078951e-05
302.0, 0.00010587186429342992
303.0, 0.00012054829154173929
304.0, 0.00010918039424552156
305.0, 0.00014135781716893275
306.0, 0.00010422138300891825
307.0, 5.6265523455436085e-05
308.0, 0.00011017967853582306
309.0, 0.00014795463991296918
310.0, 0.0001290789931680426
311.0, 8.23659012938953e-05
312.0, 0.00013259372975245345
313.0, 0.00014040926322629444
314.0, 9.429843555591844e-05
315.0, 7.727387282145548e-06
316.0, 3.775206171082204e-05
317.0, 3.450721268606554e-05
318.0, 4.421864609703554e-05
319.0, 9.22692282858246e-05
320.0, 4.82614441308773e-05
321.0, 6.084655240255879e-05
322.0, 8.53117879289507e-05
323.0, 7.195041981318621e-05
324.0, 6.290025352413265e-05
325.0, 6.860043482313282e-05
326.0, 7.667661540178426e-05
327.0, 5.991437102078454e-05
328.0, 5.583361238695724e-05
329.0, 5.346357009442223e-05
330.0, 6.48853164186883e-05
331.0, 0.00014575922914477336
332.0, 0.00013395986235246565
333.0, 0.00016192510837950217
334.0, 0.00025233448527234195
335.0, 0.00023669646797939197
336.0, 0.00018222151965762332
337.0, 0.00017004126787257398
338.0, 0.00024403770057706168
339.0, 0.0002675012586874529
340.0, 0.0002578550189209603
341.0, 0.0002570257263261639
342.0, 0.0003076351440698523
343.0, 0.00022604670940936395
344.0, 0.000255570068208992
345.0, 0.00031974971297504053
346.0, 0.0002776122411620979
347.0, 0.00023545838885642364
348.0, 0.00021503339255517386
349.0, 0.00022787032191893945
350.0, 0.000303385691820136
351.0, 0.00017935257700832065
352.0, 0.0001229222339196667
353.0, 0.00018896368415035334
354.0, 0.0003560869592052143
355.0, 0.00027503624473591956
356.0, 0.00020806698480358056
357.0, 0.00025090836336668515
358.0, 0.0003656321283330509
359.0, 0.00047082322701356305
360.0, 0.0005074773861365662
361.0, 0.00044090100001574516
362.0, 0.0004378109739335651
363.0, 0.00041694328426222977
364.0, 0.0004048679197191217
365.0, 0.00042802499804507263
366.0, 0.00042556143038839276
367.0, 0.0004389552570294764
368.0, 0.0005020835636952858
369.0, 0.0006695068797008021
370.0, 0.0007153873590868593
371.0, 0.0007214323268718327
372.0, 0.0007242121321003891
373.0, 0.0007914253144251387
374.0, 0.0008094992567155236
375.0, 0.0008032188527696362
376.0, 0.0008011698250310914
377.0, 0.0008901009714934105
378.0, 0.0008590359363541574
379.0, 0.0008541788816557651
380.0, 0.000872058969398954
381.0, 0.00068536589151254
382.0, 0.0008697105251612806
383.0, 0.0009432950465638183
384.0, 0.0007573975260297113
385.0, 0.0007144290217141904
386.0, 0.0008067850870179302
387.0, 0.000900383574297444
388.0, 0.0009167940633365687
389.0, 0.0007939432766557804
390.0, 0.0007368144279337778
391.0, 0.0007533177788846333
392.0, 0.0008519564460277399
393.0, 0.0008169857631696335
394.0, 0.0007320637563819769
395.0, 0.0007673331866136913
396.0, 0.0011196802841465941
397.0, 0.0009749086961576272
398.0, 0.0010194743662241817
399.0, 0.001096273390902409
400.0, 0.0009355981091557805
401.0, 0.0009333672260519678
402.0, 0.0010671037595535475
403.0, 0.0011885838982043137
404.0, 0.0009999318359518406
405.0, 0.0009311355532596816
406.0, 0.0010290164309448519
407.0, 0.0012444131466892974
408.0, 0.0014378858927918303
409.0, 0.0014829624478940552
410.0, 0.0014004741601454144
411.0, 0.0012932694998967177
412.0, 0.0015120310793110391
413.0, 0.0013771344575413437
414.0, 0.0014142535765473516
415.0, 0.0016914111268805008
416.0, 0.0019130049998785023
417.0, 0.0018685268994117316
418.0, 0.0018880474408610266
419.0, 0.002040578949776681
420.0, 0.002089292931143523
421.0, 0.00216995394513218
422.0, 0.0021960776981325043
423.0, 0.002187318402838044
424.0, 0.0026178999207162983
425.0, 0.0028779537061453787
426.0, 0.0030186743148728707
427.0, 0.0030900120411302967
428.0, 0.0034305777588242554
429.0, 0.0037808064132735806
430.0, 0.004149474785111675
431.0, 0.004539118770714075
432.0, 0.0048871780422707865
433.0, 0.005408551887084458
434.0, 0.0060333721522925965
435.0, 0.006716204017873059
436.0, 0.0074635532079328545
437.0, 0.008120300172382603
438.0, 0.009108214734864799
439.0, 0.010776420989697959
440.0, 0.012145279662554664
441.0, 0.01429106103763909
442.0, 0.016981983286431825
443.0, 0.020009096324846976
444.0, 0.02498471222361211
445.0, 0.030628104436601855
446.0, 0.03726209368732221
447.0, 0.045270029561180175
448.0, 0.05446898354562895
449.0, 0.06411904219730885
450.0, 0.07470080349776752
451.0, 0.08685239242929989
452.0, 0.09906809371696561
453.0, 0.11280828187556843
454.0, 0.1281085053254131
455.0, 0.14501965128962707
456.0, 0.17155559058407743
457.0, 0.199238143512403
458.0, 0.2276567618489411
459.0, 0.2567988486352422
460.0, 0.2720469273730573
461.0, 0.27290255776619676
462.0, 0.25878694146287745
463.0, 0.22810771850604283
464.0, 0.18455901708152186
465.0, 0.14378422675251112
466.0, 0.10859964984064335
467.0, 0.08220948689097873
468.0, 0.06373390785550037
469.0, 0.04866681002398597
470.0, 0.036964927819929286
471.0, 0.029252442184233594
472.0, 0.023439656345754182
473.0, 0.01928159381335695
474.0, 0.016335741583284165
475.0, 0.013944526945053999
476.0, 0.011834128760509557
477.0, 0.010191985791391684
478.0, 0.009032087904702574
479.0, 0.008376482963925798
480.0, 0.007610586276459159
481.0, 0.006906454313112772
482.0, 0.006297836331516799
483.0, 0.005823409850613169
484.0, 0.005411639731620187
485.0, 0.005052449938802232
486.0, 0.004684370501763428
487.0, 0.004209827063516561
488.0, 0.00410362343932529
489.0, 0.003751398330322713
490.0, 0.0034108072592865467
491.0, 0.00353935091200699
492.0, 0.003190002287595162
493.0, 0.002970794193538154
494.0, 0.0028595708732928886
495.0, 0.002777191216288192
496.0, 0.002439987824672566
497.0, 0.002274781386950332
498.0, 0.002197367300040365
499.0, 0.0020694427187096724
500.0, 0.0018877690279643488
501.0, 0.0018197198035093459
502.0, 0.0017883380549030218
503.0, 0.001692527818177525
504.0, 0.0015445165201518798
505.0, 0.0014821439494841645
506.0, 0.0014834179206062797
507.0, 0.0015208335962578748
508.0, 0.0014259107729754927
509.0, 0.00137626527978856
510.0, 0.001295057900131641
511.0, 0.0011089523675347985
512.0, 0.0012524360281053312
513.0, 0.0012509858680557217
514.0, 0.0012053177301752898
515.0, 0.001198167849015046
516.0, 0.0010222932560475747
517.0, 0.0009771693635891665
518.0, 0.0010030189000746314
519.0, 0.0010515703517896852
520.0, 0.0010501952953177547
521.0, 0.0010199201363027433
522.0, 0.0010065153849310368
523.0, 0.0010324350926264247
524.0, 0.0010013828464738956
525.0, 0.0010125955473215336
526.0, 0.0009885791216110436
527.0, 0.0009014411334413249
528.0, 0.0008858231317062034
529.0, 0.000798722912123676
530.0, 0.000801343102457553
531.0, 0.0009046166644140396
532.0, 0.0006886473538855399
533.0, 0.0005996636776887502
534.0, 0.0006393717890428536
535.0, 0.0007724029212062279
536.0, 0.0008105749252648433
537.0, 0.0006298896760514797
538.0, 0.0004533034610619518
539.0, 0.0003925701201084159
540.0, 0.0006313288193758881
541.0, 0.0007112145758338583
542.0, 0.0006644783185634378
543.0, 0.0005555410041912554
544.0, 0.0005537466830379681
545.0, 0.00048140918941763845
546.0, 0.0004290770618411789
547.0, 0.00040413168608353613
548.0, 0.000391156333863123
549.0, 0.000379109100954476
550.0, 0.0003495335999748812
551.0, 0.00034777192084149266
552.0, 0.0004554188841991877
553.0, 0.0003720037766538479
554.0, 0.0004029791611513942
555.0, 0.00042334934892834407
556.0, 0.0002476139726713028
557.0, 0.00040100039737056385
558.0, 0.0005157357706099626
559.0, 0.0005436946394491477
560.0, 0.00044845000007405044
561.0, 0.000370426286024364
562.0, 0.00041181409790839475
563.0, 0.0003874947580013203
564.0, 0.00019803794842760674
565.0, 0.000359129158714934
566.0, 0.0002903518684106696
567.0, 0.00022144053003440379
568.0, 0.00027304957459518885
569.0, 0.00043281211456521124
570.0, 0.0003004984538918995
571.0, 0.00022508597397277944
572.0, 0.00031718831121658043
573.0, 0.00047674953750217856
574.0, 0.0004923481115493354
575.0, 0.0003952041055754573
576.0, 0.0002581809309653876
577.0, 0.0002841163755689855
578.0, 0.00021504590788943575
579.0, 0.00020860693362146547
580.0, 0.0003201508806940543
581.0, 0.0006143135852650049
582.0, 0.0005249643532869749
583.0, 0.0006162095737785587
584.0, 0.0007687574498922195
585.0, 0.0007404016729660232
586.0, 0.0007528267179095403
587.0, 0.0007473975462200811
588.0, 0.0007922280985369078
589.0, 0.0009474958029902986
590.0, 0.0009457471070698026
591.0, 0.0009739977515175418
592.0, 0.001024382163376988
593.0, 0.0010811244860123202
594.0, 0.0010390161746666967
595.0, 0.0011332411675687838
596.0, 0.0011763758555417168
597.0, 0.0011553393799847956
598.0, 0.0014365535158943857
599.0, 0.0016353325313813727
600.0, 0.0016493607302861724
601.0, 0.0016304572504028843
602.0, 0.002140722010952406
603.0, 0.0023906696241084917
604.0, 0.002819398850096871
605.0, 0.0034213055673629807
606.0, 0.00405393279344245
607.0, 0.004952399004933099
608.0, 0.0064524314339510615
609.0, 0.008558413339829759
610.0, 0.011233964988337923
611.0, 0.015671357248505616
612.0, 0.020399068674729577
613.0, 0.02570079777602748
614.0, 0.031681530777667694
615.0, 0.03698247116034663
616.0, 0.03919748842053449
617.0, 0.03867065038377038
618.0, 0.03556684213601052
619.0, 0.029907544597989007
620.0, 0.02505753311625913
621.0, 0.02103129237066828
622.0, 0.01793313733932713
623.0, 0.016067259651998116
624.0, 0.015768402717798263
625.0, 0.016021426253512976
626.0, 0.016678848248446593
627.0, 0.0177313443950944
628.0, 0.01904517333366232
629.0, 0.020106126275906872
630.0, 0.020238386878669714
631.0, 0.01882315987726803
632.0, 0.016698424558668164
633.0, 0.01359864919633568
634.0, 0.010666914496366881
635.0, 0.008503813228992173
636.0, 0.006257366947929348
637.0, 0.005053212671295676
638.0, 0.0040914551222832754
639.0, 0.0032230490625675488
640.0, 0.0029102157541566953
641.0, 0.002514878781304167
642.0, 0.0022977883070579067
643.0, 0.002159198117021334
644.0, 0.001819091364684211
645.0, 0.001877452347933623
646.0, 0.0019919999391379765
647.0, 0.0020170430431589647
648.0, 0.001818327146083154
649.0, 0.0013559694315587482
650.0, 0.0012654833254135008
651.0, 0.001143474564618196
652.0, 0.0008089782563150016
653.0, 0.0007396740730789989
654.0, 0.0006049611628613488
655.0, 0.0005353023848670912
656.0, 0.0004845048943866843
657.0, 0.00017116540604976394
658.0, 7.417796744190142e-05
659.0, 7.582925708606216e-05
660.0, 0.00012096770014413201
661.0, 0.0001464696960355589
662.0, 0.00013235122882243033
663.0, 9.952672075482472e-05
664.0, 8.73264450430361e-05
665.0, 0.00012171212162110493
666.0, 8.292750678962727e-05
667.0, 0.00015123454784431747
668.0, 0.00013791602689605298
669.0, 2.5522934545408606e-05
670.0, 0.0001485823178890207
671.0, 0.00010857174261883474
672.0, 0.00016031052380158011
673.0, 0.00026744368822645214
674.0, 0.00022635613216826747
675.0, 0.000123454442275855
676.0, 5.5049928814033e-05
677.0, 2.2935299487718472e-05
678.0, 2.0508822335303236e-05
679.0, 6.250732023859372e-05
680.0, 3.5719794779226876e-05
681.0, 9.751210971262258e-06
682.0, 1.782434335040513e-05
683.0, 1.7388932231124503e-05
684.0, 8.347549584956083e-05
685.0, 0.00011103304657355844
686.0, 0.00010776826394814636
687.0, 0.00016372078029791549
688.0, 0.00012016719628001045
689.0, 0.00010821434535070396
690.0, 9.805653298728043e-05
691.0, 4.3113122789041635e-05
692.0, 9.901117088244199e-05
693.0, 0.00023100628333091934
694.0, 0.0003173634489085321
695.0, 0.00029478828552013795
696.0, 0.00022436112355807514
697.0, 0.00024375552113015526
698.0, 0.0002357309401856208
699.0, 0.00017943844032832935
700.0, 0.00010224710166784713
701.0, 9.754927799877641e-05
702.0, 0.00011049464161453164
703.0, 9.282638975397867e-05
704.0, 2.761840634653026e-06
705.0, 2.422812456603095e-05
706.0, 2.1199149315850982e-05
707.0, 1.4885926881257317e-05
708.0, 1.9032645022078233e-05
709.0, 4.3709242893627125e-05
710.0, 7.986856602054572e-05
711.0, 0.00011069195701744198
712.0, 0.00014210386681450633
713.0, 0.00019403573485153673
714.0, 0.00015484087464770488
715.0, 0.00015694406057205235
716.0, 0.00013227956484563778
717.0, 3.2562182759291713e-05
718.0, 0.00015549401135826977
719.0, 8.189739457320235e-05
720.0, 2.1173764498794462e-05
721.0, 4.1749293905513035e-05
722.0, 6.609492208296861e-05
723.0, 0.0001036787213832015
724.0, 0.00011813489840575134
725.0, 9.649323324744e-05
726.0, 2.9802241225431147e-05
727.0, 5.0296017368681655e-05
728.0, 0.00010226043767404509
729.0, 0.00011870119678873613
730.0, 8.941605357508592e-05
731.0, 0.00025029524663740883
732.0, 0.00016395993563609104
733.0, 0.00023449611642688956
734.0, 0.0003679896188870226
735.0, 9.079232140469804e-05
736.0, 0.0001356320612761102
737.0, 9.418600655792316e-05
738.0, 5.808557674200084e-05
739.0, 0.00013246814854565097
740.0, 0.00014262671004769498
741.0, 8.945929873129549e-05
742.0, 0.00010904632612876774
743.0, 0.00020835138192179875
744.0, 0.00021842189642560283
745.0, 0.0003020137409862673
746.0, 0.0002042388304232918
747.0, 0.00012197280112442762
748.0, 0.00034775420815360083
749.0, 0.00039883138310363306
750.0, 0.00018998144938668296
751.0, 0.00010670420866065717
752.0, 0.0002823260700661786
753.0, 0.00030588781328899785
754.0, 0.00016044246230106384
755.0, 5.47143610466019e-05
756.0, 5.2659165008603154e-05
757.0, 0.00018582349595457735
758.0, 0.000115783764736591
759.0, 0.00011001374081469139
760.0, 0.00011652023391305244
761.0, 0.00011495137276650048
762.0, 0.00023434841060116613
763.0, 0.0001371490042518456
764.0, 9.214283055753502e-05
765.0, 0.00016715979292388741
766.0, 0.0003552729785426249
767.0, 0.00011956189199180862
768.0, 0.00013690114036515302
769.0, 0.00023581931896367645
770.0, 0.00024255395412027303
771.0, 0.0001005651130990531
772.0, 9.255317166897552e-05
773.0, 0.00015159254368627299
774.0, 0.00021401493982396426
775.0, 0.00018195294346433114
776.0, 0.00018907851927476037
777.0, 0.0001435234016166146
778.0, 8.890909182816802e-05
779.0, 7.253801358524787e-05
780.0, 0.00012794336961632167
781.0, 0.00015710814335762415
782.0, 0.00010855741408695915
783.0, 4.153832457464078e-05
784.0, 0.00013306384314622894
785.0, 0.00013244150882695912
786.0, 0.00026436451579721603
787.0, 0.0003529766448795011
788.0, 0.00026648956311414615
789.0, 0.00033042406333204664
790.0, 0.00042766034642653786
791.0, 0.00038936036242206366
792.0, 0.00026454727308874125
793.0, 0.0002870748179034016
794.0, 0.00021770122985990812
795.0, 0.00018972328758083663
796.0, 0.00021637626831347883
797.0, 0.00029673086793197763
798.0, 0.0004019505483567538
799.0, 0.00032686039219068867
800.0, 0.0002775064900132536
801.0, 0.0002791828853937428
802.0, 0.0002601423452696684
803.0, 0.00017436424289595784
804.0, 0.0002279154721399418
805.0, 0.0002303070067280695
806.0, 0.00010895995997477429
807.0, 0.00035194760644221895
808.0, 0.0003061445961220231
809.0, 0.00023472029632434828
810.0, 0.0001954117228486517
811.0, 0.0001761492066794156
812.0, 0.0003213598530695692
813.0, 0.0002811959068992355
814.0, 0.00020672706412296874
815.0, 0.0002141437676290367
816.0, 0.0003744169308804765
817.0, 0.00015082859933251898
818.0, 0.0001284990146610724
819.0, 0.00023679757006378092
820.0, 0.0002314580245519425
821.0, 0.00036462546452962737
822.0, 0.0002286733881369977
823.0, 0.00014988098401728234
824.0, 0.00021198675938090348
825.0, 0.00015075575156233673
826.0, 0.00010779760448389733
827.0, 5.00019413212123e-05
828.0, 1.4528371466108924e-05
829.0, 4.0382970748487244e-05
830.0, 8.70674620170283e-05
831.0, 0.00013498762490354272
832.0, 0.00013429890193096737
833.0, 0.00011859681600115119
834.0, 0.00020407425986416458
835.0, 0.00012856356075354125
836.0, 0.0002108274627309228
837.0, 0.0002551609754147052
838.0, 0.00013190935078237354
839.0, 3.8241650953536905e-05
840.0, 0.00013540864407868752
841.0, 0.0001401594415348714
842.0, 0.00012319356923395133
843.0, 0.0002766354592640495
844.0, 8.94029623493819e-05
845.0, 7.786832793829464e-05
846.0, 0.0001399293219732138
847.0, 0.00020993618518681863
848.0, 0.00025347023789267805
849.0, 0.00025043828549318835
850.0, 0.0002379326875392739
851.0, 0.00019551399205092236
852.0, 0.00010875246769346527
853.0, 6.006105051926079e-05
854.0, 5.968619463894095e-05
855.0, 0.00011336943313197282
856.0, 0.00014609139463799597
857.0, 1.4561671489979558e-05
858.0, 0.00017319728688965764
859.0, 0.00011604692674710617
860.0, 9.999024056957339e-05
861.0, 0.00021399446875340261
862.0, 0.00014119875572018287
863.0, 5.086453297751196e-05
864.0, 4.468527509388924e-05
865.0, 5.8733259786772865e-05
866.0, 1.5030057519299447e-05
867.0, 4.918289509166863e-05
868.0, 4.7497671620973086e-05
869.0, 0.00010559170182328673
870.0, 0.0001751006452873038
871.0, 9.343679960215613e-05
872.0, 6.698149897270498e-05
873.0, 0.00012300011375055654
874.0, 0.00012684989328432862
875.0, 3.832561655471744e-05
876.0, 4.415676027354444e-05
877.0, 0.00018579395444084774
878.0, 0.00020597215927096828
879.0, 0.00013191803393506962
880.0, 4.758249304856933e-05
881.0, 6.27757055028173e-05
882.0, 0.00010122051317559399
883.0, 0.00013359965986573452
884.0, 0.00017766808125960207
885.0, 0.0002812627622361171
886.0, 0.00012618785328147138
887.0, 0.00021508782762137707
888.0, 0.00032863839680796026
889.0, 0.0003354190180924534
890.0, 0.00022976346726383
891.0, 0.00021151526973796318
892.0, 0.00022959844756432338
893.0, 0.00032132881796805176
894.0, 0.000508270569670094
895.0, 0.0006938714751463282
896.0, 0.0005523514675414532
897.0, 0.0005809709279534444
898.0, 0.0007228521951417832
899.0, 0.0007270259884238302
900.0, 0.0006812208910522303
901.0, 0.000853202175064458
902.0, 0.0008419793877788992
903.0, 0.000666689107418474
904.0, 0.0007676907516234067
905.0, 0.0007769688752722231
906.0, 0.0006853562343742153
907.0, 0.0007716086485747636
908.0, 0.0010971207126956924
909.0, 0.0011701369794843185
910.0, 0.0009820921013432762
911.0, 0.0010025191344779417
912.0, 0.001125925640737134
913.0, 0.0011735243786784135
914.0, 0.001095039106193941
915.0, 0.0012619961155558787
916.0, 0.0012547173894988319
917.0, 0.0010949507630042318
918.0, 0.0009890878724541875
919.0, 0.0012470639589933006
920.0, 0.0013737405869052176
921.0, 0.0014273106122050312
922.0, 0.001522290347341867
923.0, 0.0018505089931065422
924.0, 0.0016567853180219335
925.0, 0.0017224824703571755
926.0, 0.0016945621436788736
927.0, 0.0014911354150196994
928.0, 0.0015953178056086828
929.0, 0.0016995001961976665
930.0, 0.0017295214188399678
931.0, 0.0016410211543938593
932.0, 0.0014665713937851565
933.0, 0.0015287182511352175
934.0, 0.001542187047715983
935.0, 0.0017257834811187434
936.0, 0.0018701983710493184
937.0, 0.0017497549726135481
938.0, 0.0019382229084804609
939.0, 0.00200027004290699
940.0, 0.0019875971841979956
941.0, 0.00205854645798879
942.0, 0.0023948674693313756
943.0, 0.0021624929725296057
944.0, 0.002353704344574941
945.0, 0.0023309179600816223
946.0, 0.0020743744497783846
947.0, 0.002080710707458172
948.0, 0.0021844389630055424
949.0, 0.00220707435718172
950.0, 0.0021862029062573165
951.0, 0.0021974396629237144
952.0, 0.002386473691929335
953.0, 0.0024555255397054197
954.0, 0.002401930782741858
955.0, 0.0024529943522805294
956.0, 0.0026663631850477065
957.0, 0.002655367865464805
958.0, 0.0027954177537631774
959.0, 0.0030155695857008043
960.0, 0.003255823195880787
961.0, 0.0035449330182132353
962.0, 0.00429727580923892
963.0, 0.004913620360687954
964.0, 0.0055717998552564955
965.0, 0.0061921271225874415
966.0, 0.00670707432009311
967.0, 0.007488251813063259
968.0, 0.0072950555893336435
969.0, 0.007251211945509505
970.0, 0.007616461924805043
971.0, 0.008363708007986439
972.0, 0.009398940701482663
973.0, 0.010674846125154111
974.0, 0.012107555728298356
975.0, 0.013647023187734456
976.0, 0.015315595540663801
977.0, 0.01845130617233423
978.0, 0.022768834291776882
979.0, 0.029622702046709592
980.0, 0.03992639745516226
981.0, 0.054376437317709594
982.0, 0.08001273919920215
983.0, 0.12811087042346844
984.0, 0.20639736689369254
985.0, 0.33216034329278976
986.0, 0.5311512489235524
987.0, 0.7833727332535515
988.0, 0.9381238470511123
989.0, 0.9218122014486568
990.0, 0.7348545186037995
991.0, 0.458668555382694
992.0, 0.28693745793384395
993.0, 0.1794318803292898
994.0, 0.11359861601026339
995.0, 0.07295586550309655
996.0, 0.04915483500475268
997.0, 0.0361195045242168
998.0, 0.027672584155741514
999.0, 0.021833087184919445
1000.0, 0.017673588612801442
1001.0, 0.015816187381329744
1002.0, 0.013200442767167602
1003.0, 0.011744298381582644
1004.0, 0.010547547424993333
1005.0, 0.009191438586348345
1006.0, 0.00837556871093857
1007.0, 0.007393477200534711
1008.0, 0.006840830575320741
1009.0, 0.00644396669991937
1010.0, 0.005963569646204024
1011.0, 0.005320446920679445
1012.0, 0.005200181739919263
1013.0, 0.004806568727921267
1014.0, 0.004413848889066232
1015.0, 0.004125467056617409
1016.0, 0.003538731730970612
1017.0, 0.003604326392360366
1018.0, 0.0033891254815192813
1019.0, 0.0030595459492651373
1020.0, 0.002817508103661222
1021.0, 0.00278327916199705
1022.0, 0.0026159440091069147
1023.0, 0.0024289382153983297
1024.0, 0.002306803440162194
1025.0, 0.0022510035079761487
1026.0, 0.0021037593266364243
1027.0, 0.0020067547635928325
1028.0, 0.001749032251028184
1029.0, 0.001608796632798532
1030.0, 0.001643251918436771
1031.0, 0.0014380881527996023
1032.0, 0.0011938051152286142
1033.0, 0.00118397447439032
1034.0, 0.0011145886533926155
1035.0, 0.0009217596697231599
1036.0, 0.0009877276295306276
1037.0, 0.0009182334288761192
1038.0, 0.0007592879807378222
1039.0, 0.0007268890672200139
1040.0, 0.0008128846557759971
1041.0, 0.0006660957648898292
1042.0, 0.0007404218824153413
1043.0, 0.0007797141739679336
1044.0, 0.000776224883259295
1045.0, 0.0006833973901370828
1046.0, 0.0003947353029297942
1047.0, 0.0007239981830641008
1048.0, 0.0005331475803400668
1049.0, 0.00046330849471103294
1050.0, 0.0006039201359976625
1051.0, 0.0004579238317925178
1052.0, 0.00038259357699726483
1053.0, 0.000502318433514622
1054.0, 0.0005623579079861594
1055.0, 0.0005015240134917705
1056.0, 0.00042736602435751165
1057.0, 0.0006379580220496023
1058.0, 0.0005464360646414627
1059.0, 0.0004795638289632329
1060.0, 0.0004704392641859281
1061.0, 0.00037983378213285126
1062.0, 0.00026222748298393314
1063.0, 0.0002254166259013194
1064.0, 0.00020759816074332918
1065.0, 0.0002082813539357228
1066.0, 0.0002475070565631204
1067.0, 0.0002867851109410297
1068.0, 0.00033809337206480575
1069.0, 0.00033325779691986424
1070.0, 0.00030280003603059603
1071.0, 0.00028944432308856114
1072.0, 0.00020895782614962913
1073.0, 0.00025055011781641005
1074.0, 0.00027084652868395836
1075.0, 0.00024016064656448056
1076.0, 0.0001947735997314014
1077.0, 0.00032012959247983006
1078.0, 0.0003423637629587664
1079.0, 0.0005522887198765153
1080.0, 0.0007307743652150242
1081.0, 0.0007798409004240833
1082.0, 0.0010623340820797367
1083.0, 0.0010092401159818023
1084.0, 0.0008951153393091918
1085.0, 0.000810028424698404
1086.0, 0.0007567429622971011
1087.0, 0.0006255839285105405
1088.0, 0.0007188746149655889
1089.0, 0.0006043540386701597
1090.0, 0.0005239656810264865
1091.0, 0.0005501268505002443
1092.0, 0.0005749021396288146
1093.0, 0.0005439876643993646
1094.0, 0.0006255689980976506
1095.0, 0.0008020339635214137
1096.0, 0.001047503333263403
1097.0, 0.0013356967079587293
1098.0, 0.0017196825163823188
1099.0, 0.0022945101867294544
1100.0, 0.002847710278953068
1101.0, 0.0033760298470662136
1102.0, 0.003940860923254481
1103.0, 0.004568637299814728
1104.0, 0.004981404932651077
1105.0, 0.0049493340860504295
1106.0, 0.004337938167948775
1107.0, 0.003331330539821453
1108.0, 0.0028570094175449003
1109.0, 0.0021009249349364175
1110.0, 0.0017777922903816131
1111.0, 0.0016805915613335653
1112.0, 0.0015955086816338388
1113.0, 0.0014221676422319087
1114.0, 0.0012320874268775003
1115.0, 0.000937204914033011
1116.0, 0.0007794999612948929
1117.0, 0.0007781935975010126
1118.0, 0.0007828837157189771
1119.0, 0.0008963353602242205
1120.0, 0.0009044377713658733
1121.0, 0.0010392761893482007
1122.0, 0.0012383243586220464
1123.0, 0.0013808011413634833
1124.0, 0.001720829383820981
1125.0, 0.0017734487651002663
1126.0, 0.0019537302961072636
1127.0, 0.0021723364189859978
1128.0, 0.0023587880254175896
1129.0, 0.002745410021049802
1130.0, 0.0031730982699742843
1131.0, 0.003725883731102279
1132.0, 0.004342323569555989
1133.0, 0.005172490000242754
1134.0, 0.006605534904322472
1135.0, 0.007883928534199282
1136.0, 0.009870275753362676
1137.0, 0.01215677998590337
1138.0, 0.01472845708081248
1139.0, 0.017794372610597714
1140.0, 0.021530108036960593
1141.0, 0.025845718667006624
1142.0, 0.029712234116646634
1143.0, 0.033203169971750546
1144.0, 0.0361426786281385
1145.0, 0.0365455578871508
1146.0, 0.034863032589741945
1147.0, 0.03183608547387725
1148.0, 0.027650917678786614
1149.0, 0.022849113756188665
1150.0, 0.018442796009362043
1151.0, 0.01547848625661653
1152.0, 0.012424634168849114
1153.0, 0.010031408996814402
1154.0, 0.008313634461487309
1155.0, 0.00687296546213558
1156.0, 0.005865381385925948
1157.0, 0.0051799018586413705
1158.0, 0.004456034044945956
1159.0, 0.003858564530162414
1160.0, 0.0035505443508468577
1161.0, 0.0033496793489278757
1162.0, 0.002793109107132128
1163.0, 0.002714780251581224
1164.0, 0.002635828975276492
1165.0, 0.0024273094831981086
1166.0, 0.0024435155406151757
1167.0, 0.002479294709178618
1168.0, 0.0024657498824777473
1169.0, 0.00231635349244899
1170.0, 0.0020501636885335746
1171.0, 0.0017207717588078853
1172.0, 0.0012894073814565569
1173.0, 0.0010304246142256257
1174.0, 0.0009640101197424175
1175.0, 0.0008918958740027466
1176.0, 0.0007460000814160085
1177.0, 0.0007458123747413452
1178.0, 0.0004970053726031744
1179.0, 0.00037368533611873523
1180.0, 0.000351352226413333
1181.0, 0.0003002301264396399
1182.0, 0.00011533127054992625
1183.0, 0.0003915431333622471
1184.0, 0.00041837225893337775
1185.0, 0.0002029380752234034
1186.0, 3.947932535347319e-05
1187.0, 8.49320409009711e-05
1188.0, 8.487510489916068e-06
1189.0, 0.00020758656174046578
1190.0, 0.00011355470441397693
1191.0, 3.651995128718783e-05
1192.0, 0.00010685234541821649
1193.0, 0.00023887347881239616
1194.0, 0.00017197283179934346
1195.0, 8.300770873831139e-05
1196.0, 9.040774024397314e-05
1197.0, 9.279322382220586e-05
1198.0, 2.3627141739087968e-05
1199.0, 8.80329576416653e-05
1200.0, 6.543059865477674e-05
1201.0, 7.163129086153292e-05
1202.0, 8.224102906047457e-05
1203.0, 8.623709866788382e-05
1204.0, 0.00010621337514806145
1205.0, 0.0003276355290101198
1206.0, 0.00021891660892029653
1207.0, 0.00019510103534122389
1208.0, 0.00020137600695590917
1209.0, 0.00013712298223841676
1210.0, 0.00016833739721318854
1211.0, 0.00020310001983462312
1212.0, 0.0002992665870321694
1213.0, 0.00043988409044318715
1214.0, 0.0005480610320217282
1215.0, 0.0005349891884800574
1216.0, 0.0006243852142372279
1217.0, 0.000637749216353582
1218.0, 0.0006448806424732444
1219.0, 0.0006256546349009761
1220.0, 0.0005954037220680851
1221.0, 0.0006993677740969969
1222.0, 0.0006480011560617219
1223.0, 0.0006908916729180954
1224.0, 0.0007581793562499573
1225.0, 0.0007177741155650942
1226.0, 0.0004701364739617315
1227.0, 0.00032744350530936105
1228.0, 0.0001975160530663952
1229.0, 0.0003474439784936624
1230.0, 0.00037726567530464814
1231.0, 0.00017878065700553585
1232.0, 0.0003393992518056645
1233.0, 0.00019994732328463237
1234.0, 0.00013803759634171354
1235.0, 0.0003224124684653825
1236.0, 0.00042322406038138103
1237.0, 0.00018706999680592642
1238.0, 0.0007424269064944486
1239.0, 0.0006694254586509681
1240.0, 0.0006127152273428686
1241.0, 0.0006717487100766154
1242.0, 0.0007541274532918257
1243.0, 0.0006595487176304064
1244.0, 0.0006418610920287008
1245.0, 0.0005193466541908694
1246.0, 0.0003674451799462465
1247.0, 0.0004643044520134745
1248.0, 0.0007671510680381138
1249.0, 0.00036256511860232796
1250.0, 0.0004832401009494113
1251.0, 0.0004069082864811062
1252.0, 0.00030382104247284633
1253.0, 0.00038293931172270673
1254.0, 0.0006842285079504687
1255.0, 0.0003663912017000929
1256.0, 0.00048247943686847256
1257.0, 0.0003054668484835338
1258.0, 0.000187018915195156
1259.0, 0.0002729649254079195
1260.0, 0.00025750334297000436
1261.0, 0.00014476684986736605
1262.0, 0.0002995933836284499
1263.0, 0.00035428485678853705
1264.0, 0.00032548239756300496
1265.0, 0.00038132684628773247
1266.0, 0.0007204557300054165
1267.0, 0.0006734841651578642
1268.0, 0.0005847077412113452
1269.0, 0.0006313592347322606
1270.0, 0.0006553761023245482
1271.0, 0.00044068980692249065
1272.0, 0.0004293411299932173
1273.0, 0.0003163591358287572
1274.0, 0.0004168958894939384
1275.0, 0.0005377779014174653
1276.0, 0.0006553404350542402
1277.0, 0.0008906553432678486
1278.0, 0.0003530264413173084
1279.0, 0.0005075747315440662
1280.0, 0.0006309915616105991
1281.0, 0.0006262742785906851
1282.0, 0.0006097699035864821
1283.0, 0.0007664596238763525
1284.0, 0.0005647132536625614
1285.0, 0.0004929926970197216
1286.0, 0.00041718362055012063
1287.0, 0.00034651555688563774
1288.0, 0.0003413360025252914
1289.0, 0.0004319260837411883
1290.0, 0.0002525221717113974
1291.0, 0.0002674749970152815
1292.0, 0.0002541521216281795
1293.0, 0.00022764470385710885
1294.0, 0.00029637588803490725
1295.0, 0.0002256111171376947
1296.0, 0.00016841945061011105
1297.0, 0.00011226328999053138
1298.0, 0.0001083943078384737
1299.0, 0.00015033579183025295
1300.0, 0.00018339910705455323
1301.0, 0.00022977384081785703
1302.0, 0.00030215352186366805
1303.0, 0.00020840182532266992
1304.0, 0.00013175847974024852
1305.0, 0.00017899463664954225
1306.0, 0.00026239787805630094
1307.0, 0.0002330703803200901
1308.0, 0.00010183649541029722
1309.0, 9.270448455584854e-05
1310.0, 0.0001832655370874582
1311.0, 0.00024006454817736435
1312.0, 9.244397182820505e-05
1313.0, 3.158721226148478e-05
1314.0, 0.00023612724907208564
1315.0, 0.00030679877020957185
1316.0, 0.00019079229547804303
1317.0, 2.9023280448093042e-05
1318.0, 6.455986256166488e-05
1319.0, 3.338639119126412e-05
1320.0, 0.00019130815619772818
1321.0, 0.00024736942752065174
1322.0, 0.00018287154536860176
1323.0, 9.538036350982231e-05
1324.0, 1.822001628873422e-05
1325.0, 0.00017595035119621406
1326.0, 0.00024016200710711674
1327.0, 0.0002858031917462979
1328.0, 0.00032119982350697397
1329.0, 0.000310341831712783
1330.0, 0.00022339070849785946
1331.0, 0.00013634080327411176
1332.0, 0.00018084576964984416
1333.0, 0.00017295378905180536
1334.0, 0.00011323256050433696
1335.0, 0.00010261970384622456
1336.0, 0.0001090796028293607
1337.0, 0.0001331916838320194
1338.0, 6.442376782286574e-05
1339.0, 3.418768762431073e-05
1340.0, 9.416058092587829e-05
1341.0, 0.00017601336836980193
1342.0, 2.9653719603755187e-05
1343.0, 2.8260909237287834e-05
1344.0, 0.00018877519853365533
1345.0, 0.00019509400834559625
1346.0, 5.794788336901415e-05
1347.0, 2.6444937615478808e-05
1348.0, 0.00017703151037606977
1349.0, 0.00011920333346476447
1350.0, 7.574693433146847e-05
1351.0, 6.148114309441266e-05
1352.0, 0.00012107502692161975
1353.0, 0.0002665229361495005
1354.0, 0.00020800246846324814
1355.0, 5.173426902658333e-05
1356.0, 0.0001821331615938181
1357.0, 0.00023089586653630238
1358.0, 0.00012169189490863447
1359.0, 6.224300258066786e-05
1360.0, 0.00021418059101112688
1361.0, 0.00027959676500896244
1362.0, 0.00037160504424350665
1363.0, 0.0003480682781318757
1364.0, 0.00023038363148005013
1365.0, 0.00015453403157802753
1366.0, 0.00015474090183383347
1367.0, 0.00030837244714447147
1368.0, 0.0002975121654187552
1369.0, 0.0002903836450867914
1370.0, 0.0002622216428985173
1371.0, 0.0001270498119335729
1372.0, 0.00014200128004949138
1373.0, 0.0002701757352034514
1374.0, 0.00032478006279192253
1375.0, 0.00042961575104101014
1376.0, 0.0003751287724381898
1377.0, 4.444600838596796e-05
1378.0, 0.00019225035839938212
1379.0, 8.022225408256279e-05
1380.0, 0.00026124522472971776
1381.0, 0.0003633349740243751
1382.0, 0.0003825697793089066
1383.0, 0.00042005432284104486
1384.0, 0.00030489384324598366
1385.0, 0.00013077283670398065
1386.0, 0.00013431496010445445
1387.0, 0.00011249069407981187
1388.0, 0.0001644172564911506
1389.0, 0.00032242596575612534
1390.0, 0.0002518685916254869
1391.0, 0.00019576719993682053
1392.0, 0.00016424723198488867
1393.0, 0.00017543682060782342
1394.0, 0.0002997838058237559
1395.0, 0.00045955645425116795
1396.0, 0.0003776623819178643
1397.0, 0.0003659350561182537
1398.0, 0.0004562873076274203
1399.0, 0.00032570463727552414
1400.0, 0.0002101159981232948
1401.0, 0.00023443262742879845
1402.0, 0.00023343940365986912
1403.0, 0.00019187711072238007
1404.0, 0.0001768829482677615
1405.0, 0.000154507150940293
1406.0, 0.0001961561112505518
1407.0, 0.0003030131429290892
1408.0, 0.0003794214331356477
1409.0, 0.00024853526495720714
1410.0, 0.0004516895035814899
1411.0, 0.00043383497199711547
1412.0, 0.00045615963979226803
1413.0, 0.0004915883376412614
1414.0, 0.00038829471344468177
1415.0, 0.00034649375955872735
1416.0, 8.579094862733068e-05
1417.0, 0.0002630587134593346
1418.0, 0.0003551190963152958
1419.0, 0.00039410827408002983
1420.0, 0.0004589124118956978
1421.0, 0.00022000481688902608
1422.0, 0.0004376375412134078
1423.0, 0.0003575607879579777
1424.0, 0.0004183029491293853
1425.0, 0.0005418059605671813
1426.0, 0.0005022686031072045
1427.0, 0.00020798402376342285
1428.0, 0.0004177154421016894
1429.0, 0.0002086669796533686
1430.0, 0.0001549596676766255
1431.0, 0.00040344250296426616
1432.0, 0.0006090745362819724
1433.0, 0.00039117170114760894
1434.0, 0.0005975779665721923
1435.0, 0.0005721301094984172
1436.0, 0.0005147553610442136
1437.0, 0.000640932997651036
1438.0, 0.0006387281800961004
1439.0, 0.00033654639290254455
1440.0, 0.00046880105985851097
1441.0, 0.0005068301815615757
1442.0, 0.0005047111129282888
1443.0, 0.0003371503102685683
1444.0, 0.0004178759482959985
1445.0, 0.0006877996753862179
1446.0, 0.0004484393499072201
1447.0, 0.0006864784895020775
1448.0, 0.0006152548146639192
1449.0, 0.000563071494765626
1450.0, 0.0006742336325366098
1451.0, 0.0006947992224339632
1452.0, 0.0003935454983669225
1453.0, 0.0005973969697263127
1454.0, 0.0004999044582915746
1455.0, 0.0006274567409787523
1456.0, 0.0005553136631944481
1457.0, 0.0004433618323927164
1458.0, 0.00048397900762382713
1459.0, 0.00044051297101669446
1460.0, 0.000781339804566426
1461.0, 0.0006561267001218108
1462.0, 0.0006313919875419684
1463.0, 0.0005080907867130951
1464.0, 0.00031693559551746505
1465.0, 0.0003927352371645361
1466.0, 0.0006237614487034149
1467.0, 0.0003889920558839633
1468.0, 0.0004504665760349756
1469.0, 0.0004964479897222157
1470.0, 0.0004663542249103018
1471.0, 0.0004541336962860809
1472.0, 0.0004732896168427109
1473.0, 0.0003621342830118613
1474.0, 0.0003030367720741291
1475.0, 0.00025318379063019204
1476.0, 0.0001958387148970298
1477.0, 0.00016666923364063292
1478.0, 0.0002057144664362499
1479.0, 0.00015593269202857757
1480.0, 3.525903186136449e-05
1481.0, 0.00016285060535854804
1482.0, 0.0004036603530401653
1483.0, 0.0005911030013752981
1484.0, 0.0005273049857404689
1485.0, 3.522701476257428e-05
1486.0, 0.000564177253422178
1487.0, 0.0004006923098267848
1488.0, 0.0002388155045729558
1489.0, 0.00037037426051680493
1490.0, 0.0006251414180260755
1491.0, 0.0006295276834893229
1492.0, 0.0005955034870776337
1493.0, 0.000286657535375095
1494.0, 0.0004262910361069498
1495.0, 0.0003201031606825702
1496.0, 0.00025245895105454697
1497.0, 0.00044516244938408363
1498.0, 0.00030268580059210576
1499.0, 0.0005104385037965689
1500.0, 0.0003301011177987381
1501.0, 0.00024182160691283856
1502.0, 0.00020039834767492554
1503.0, 0.00018946828790587214
1504.0, 0.0002385933928831483
1505.0, 0.0002450250336011129
1506.0, 0.00040890183006304026
1507.0, 0.0002752454579817136
1508.0, 0.00017618915376261334
1509.0, 0.00011552671938816406
1510.0, 0.00013234594803309497
1511.0, 0.0003711400650276364
1512.0, 0.0005823329776486336
1513.0, 0.0002700662999955817
1514.0, 0.00042082289500159807
1515.0, 0.0004590391842149766
1516.0, 0.0004000512641669795
1517.0, 0.00039232779889491706
1518.0, 0.00016730435900757493
1519.0, 0.00020329628747336692
1520.0, 0.0004199595613659406
1521.0, 0.00034749058928300173
1522.0, 0.00023595607747683335
1523.0, 0.0001472135711307047
1524, 0.0
1525, 0.0
1526, 0.0
1527, 0.0
1528, 0.0
1529, 0.0
1530, 0.0
1531, 0.0
1532, 0.0
1533, 0.0
1534, 0.0
1535, 0.0
1536, 0.0
1537, 0.0
1538, 0.0
1539, 0.0
1540, 0.0
1541, 0.0
1542, 0.0
1543, 0.0
1544, 0.0
1545, 0.0
1546, 0.0
1547, 0.0
1548, 0.0
1549, 0.0
1550, 0.0
1551, 0.0
1552, 0.0
1553, 0.0
1554, 0.0
1555, 0.0
1556, 0.0
1557, 0.0
1558, 0.0
1559, 0.0
1560, 0.0
1561, 0.0
1562, 0.0
1563, 0.0
1564, 0.0
1565, 0.0
1566, 0.0
1567, 0.0
1568, 0.0
1569, 0.0
1570, 0.0
1571, 0.0
1572, 0.0
1573, 0.0
1574, 0.0
1575, 0.0
1576, 0.0
1577, 0.0
1578, 0.0
1579, 0.0
1580, 0.0
1581, 0.0
1582, 0.0
1583, 0.0
1584, 0.0
1585, 0.0
1586, 0.0
1587, 0.0
1588, 0.0
1589, 0.0
1590, 0.0
1591, 0.0
1592, 0.0
1593, 0.0
1594, 0.0
1595, 0.0
1596, 0.0
1597, 0.0
1598, 0.0
1599, 0.0
