30, 0.0
31, 0.0
32, 0.0
33, 0.0
34, 0.0
35, 0.0
36, 0.0
37, 0.0
38, 0.0
39, 0.0
40, 0.0
41, 0.0
42, 0.0
43, 0.0
44, 0.0
45, 0.0
46, 0.0
47, 0.0
48, 0.0
49, 0.0
50, 0.0
51, 0.0
52, 0.0
53, 0.0
54, 0.0
55, 0.0
56, 0.0
57, 0.0
58, 0.0
59, 0.0
60, 0.0
61, 0.0
62, 0.0
63, 0.0
64, 0.0
65, 0.0
66, 0.0
67, 0.0
68, 0.0
69, 0.0
70, 0.0
71, 0.0
72, 0.0
73, 0.0
74, 0.0
75, 0.0
76, 0.0
77, 0.0
78, 0.0
79, 0.0
80, 0.0
81, 0.0
82, 0.0
83, 0.0
84, 0.0
85, 0.0
86, 0.0
87, 0.0
88, 0.0
89, 0.0
90, 0.0
91, 0.0
92, 0.0
93, 0.0
94, 0.0
95, 0.0
96, 0.0
97, 0.0
98, 0.0
99, 0.0
100, 0.0
101, 0.0
102, 0.0
103, 0.0
104, 0.0
105, 0.0
106, 0.0
107, 0.0
108, 0.0
109, 0.0
110, 0.0
111, 0.0
112, 0.0
113, 0.0
114, 0.0
115, 0.0
116, 0.0
117, 0.0
118, 0.0
119, 0.0
120, 0.0
121, 0.0
122, 0.0
123, 0.0
124, 0.0
125, 0.0
126, 0.0
127, 0.0
128, 0.0
129, 0.0
130, 0.0
131, 0.0
132, 0.0
133, 0.0
134, 0.0
135, 0.0
136, 0.0
137, 0.0
138, 0.0
139, 0.0
140, 0.0
141, 0.0
142, 0.0
143, 0.0
144, 0.0
145, 0.0
146, 0.0
147, 0.0
148, 0.0
149, 0.0
150, 0.0
151, 0.0
152, 0.0
153, 0.0
154, 0.0
155, 0.0
156, 0.0
157, 0.0
158, 0.0
159, 0.0
160, 0.0
161, 0.0
162, 0.0
163, 0.0
164, 0.0
165, 0.0
166, 0.0
167, 0.0
168, 0.0
169, 0.0
170, 0.0
171, 0.0
172, 0.0
173, 0.0
174, 0.0
175, 0.0
176, 0.0
177, 0.0
178, 0.0
179, 0.0
180.0, 0.025153390465850987
181.0, 0.011525050048417496
182.0, 0.012303772111888222
183.0, 0.013279576045025998
184.0, 0.0121111132482939
185.0, 0.009689226023039656
186.0, 0.013420184424563351
187.0, 0.02555930574957717
188.0, 0.023604293055093636
189.0, 0.034548966512884485
190.0, 0.051997289547049096
191.0, 0.08492787033763993
192.0, 0.1324255234568539
193.0, 0.18077384472230915
194.0, 0.20482862549059105
195.0, 0.23193757543306334
196.0, 0.21607764417601932
197.0, 0.1728352582992832
198.0, 0.13538872592718604
199.0, 0.1140037484180446
200.0, 0.12640389629123835
201.0, 0.11550317098157946
202.0, 0.11323388606361917
203.0, 0.12240180592520651
204.0, 0.11059053149414504
205.0, 0.1041868950662193
206.0, 0.09073917353470218
207.0, 0.04661035143276685
208.0, 0.015846720627002257
209.0, 0.028298423970730922
210.0, 0.008728236260510483
211.0, 0.0028410673212457905
212.0, 0.017435280835419124
213.0, 0.019912442322389107
214.0, 0.006995988264077416
215.0, 0.003675753627206872
216.0, 0.02510107820942041
217.0, 0.02283280865662041
218.0, 0.014951114567626095
219.0, 0.013871411428935589
220.0, 0.023979023395583436
221.0, 0.035528410901293286
222.0, 0.00929997569231474
223.0, 0.0062591878610336795
224.0, 0.008981507956364272
225.0, 0.012179714907859934
226.0, 0.018771299480407296
227.0, 0.018081978061464075
228.0, 0.028393779176413086
229.0, 0.03375910966284964
230.0, 0.024545714345403855
231.0, 0.007869198928059566
232.0, 0.01190462791293562
233.0, 0.004014394019978754
234.0, 0.00820129736678059
235.0, 0.010946829699585705
236.0, 0.022792295004817678
237.0, 0.044603911634959255
238.0, 0.0035182636046392247
239.0, 0.03995270228824155
240.0, 0.03028836481671695
241.0, 0.03714982248411323
242.0, 0.05704642420021155
243.0, 0.0200353763949361
244.0, 0.004906477583171591
245.0, 0.01979300875443238
246.0, 0.015702769725920843
247.0, 0.006420761364170346
248.0, 0.009670947584268858
249.0, 0.01686504709620814
250.0, 0.02157716047356994
251.0, 0.02269324064803038
252.0, 0.020028325922099296
253.0, 0.018245499024498322
254.0, 0.021347137709924045
255.0, 0.019557537556800498
256.0, 0.0168781223692813
257.0, 0.040000766239853304
258.0, 0.03966437636467846
259.0, 0.03264746517149768
260.0, 0.09561937765017105
261.0, 0.09325072818760398
262.0, 0.06171146888596468
263.0, 0.026612504679679266
264.0, 0.01222356881101009
265.0, 0.02138040098563701
266.0, 0.017859221610258963
267.0, 0.01788584824945648
268.0, 0.028359333190479695
269.0, 0.032205628546187005
270.0, 0.0332431704928769
271.0, 0.04312030384238263
272.0, 0.06028103176601719
273.0, 0.04489289913732672
274.0, 0.03618109252868881
275.0, 0.04323632967072245
276.0, 0.05871239970738873
277.0, 0.06492578838917368
278.0, 0.056701285636878554
279.0, 0.0958280948754704
280.0, 0.09342550619053412
281.0, 0.09958797967974349
282.0, 0.1267373588711468
283.0, 0.0979660624861851
284.0, 0.0837076395557949
285.0, 0.089674944904256
286.0, 0.07320898657640376
287.0, 0.0565977194295242
288.0, 0.061073836844546946
289.0, 0.04867655639487185
290.0, 0.030956319319683036
291.0, 0.039197489157761695
292.0, 0.029132323408356087
293.0, 0.017248246933448314
294.0, 0.032295070258113366
295.0, 0.004837109061657668
296.0, 0.03206332574034086
297.0, 0.03135171738012993
298.0, 0.022830313384234142
299.0, 0.020738968191418773
300.0, 0.022330622676667366
301.0, 0.009095867588852745
302.0, 0.024027555199537927
303.0, 0.022339294954755055
304.0, 0.011992232228567906
305.0, 0.006188803001020213
306.0, 0.010073332331771233
307.0, 0.005308451090345228
308.0, 0.005515433911819811
309.0, 0.005630451921991849
310.0, 0.008223666882559339
311.0, 0.012963375272547529
312.0, 0.011683810627535656
313.0, 0.015038270165181668
314.0, 0.019365935557729128
315.0, 0.016799922367031223
316.0, 0.015647789908644964
317.0, 0.02061131526957425
318.0, 0.013096160187974833
319.0, 0.018186280087299597
320.0, 0.018860804240862238
321.0, 0.010274398744166623
322.0, 0.0040037640939803495
323.0, 0.011380538649129638
324.0, 0.016570931169605497
325.0, 0.030441970987781085
326.0, 0.021514598403693075
327.0, 0.011548160411204688
328.0, 0.007009962477738182
329.0, 0.0065848184715214236
330.0, 0.03310588975202367
331.0, 0.039167162961041155
332.0, 0.022660774595720364
333.0, 0.00851615478891613
334.0, 0.00963161170185057
335.0, 0.021364063852808132
336.0, 0.01809420481723886
337.0, 0.00648715277611828
338.0, 0.007142992321715149
339.0, 0.015918607341286476
340.0, 0.02676207876329306
341.0, 0.034271330838336556
342.0, 0.022985746113520958
343.0, 0.015073536723985672
344.0, 0.00918752021103378
345.0, 0.0068203809468122
346.0, 0.012250206067523608
347.0, 0.029577416849567693
348.0, 0.042483366695340176
349.0, 0.017752773966571926
350.0, 0.01431866451780874
351.0, 0.02826297129140051
352.0, 0.03364694539162895
353.0, 0.006477843374379389
354.0, 0.03942295197326298
355.0, 0.03441341869389537
356.0, 0.045080933684239065
357.0, 0.06698987848566322
358.0, 0.07980575995485804
359.0, 0.0667159047853397
360.0, 0.07085008988997198
361.0, 0.0728212644294647
362.0, 0.07032640178764811
363.0, 0.0771314180995231
364.0, 0.09028337647037428
365.0, 0.08399307413411648
366.0, 0.08976429946842097
367.0, 0.12348836393778663
368.0, 0.11399651832371308
369.0, 0.09578930668807993
370.0, 0.10644086632088263
371.0, 0.1443810732855961
372.0, 0.16270937221111248
373.0, 0.14971998724606786
374.0, 0.17128801214750689
375.0, 0.19928190425133394
376.0, 0.21594968319975358
377.0, 0.2447620494573756
378.0, 0.25142300239911497
379.0, 0.2725448791074704
380.0, 0.2869255746119858
381.0, 0.2759729581981005
382.0, 0.25728806282238853
383.0, 0.27841423761806855
384.0, 0.2598420977489113
385.0, 0.27903736342962265
386.0, 0.3143595947941106
387.0, 0.32731575581939715
388.0, 0.32588943435764967
389.0, 0.3612849543735008
390.0, 0.36819203172874465
391.0, 0.39885194327544493
392.0, 0.40735878586076213
393.0, 0.41319907668825234
394.0, 0.4293345129960109
395.0, 0.44661981580787236
396.0, 0.4435916436392047
397.0, 0.44208666127843527
398.0, 0.42609669817292317
399.0, 0.41303331498309265
400.0, 0.40264603900297274
401.0, 0.3792946305187103
402.0, 0.35406374259786105
403.0, 0.3277594341411134
404.0, 0.28673974546339276
405.0, 0.2713498493562416
406.0, 0.29137673229273986
407.0, 0.3287545352040462
408.0, 0.37300998580198585
409.0, 0.41491161791970255
410.0, 0.5062921016017183
411.0, 0.5438513311430734
412.0, 0.5672284666747817
413.0, 0.6632500676072945
414.0, 0.7691362413428553
415.0, 0.9273103359370922
416.0, 0.9868587108782735
417.0, 0.9789045007290992
418.0, 0.9085476828286618
419.0, 0.7741422128591323
420.0, 0.5952472533925908
421.0, 0.4787997363475147
422.0, 0.37406795979812374
423.0, 0.3038411932704534
424.0, 0.2441169019451981
425.0, 0.19068129803891465
426.0, 0.1921251322580552
427.0, 0.157310701735223
428.0, 0.14829136151703343
429.0, 0.12713456222801928
430.0, 0.12818261607014694
431.0, 0.15661289088712052
432.0, 0.16523589344231135
433.0, 0.16165588574306303
434.0, 0.1078447620829317
435.0, 0.08520207800106266
436.0, 0.06536964788896614
437.0, 0.04841790372087735
438.0, 0.06026674553306674
439.0, 0.05073758682054362
440.0, 0.05537494774635605
441.0, 0.04761435856599591
442.0, 0.05980556945707445
443.0, 0.07005182897947157
444.0, 0.054012846818070295
445.0, 0.08539288603400835
446.0, 0.12348455620270672
447.0, 0.12026164082501588
448.0, 0.10904569622354243
449.0, 0.08761844735465056
450.0, 0.057321264429936174
451.0, 0.05258283622279788
452.0, 0.058457410237733445
453.0, 0.05471757756396085
454.0, 0.04235968526176794
455.0, 0.042449123182520296
456.0, 0.044555201212432984
457.0, 0.01299023009874368
458.0, 0.03482522321161158
459.0, 0.04844695788271954
460.0, 0.046327689936231625
461.0, 0.04084899582493738
462.0, 0.04561119718655985
463.0, 0.05780524757911921
464.0, 0.027321402208857537
465.0, 0.0053609913499560805
466.0, 0.022620936964557282
467.0, 0.023457555242821487
468.0, 0.01783566403459802
469.0, 0.033393354103373525
470.0, 0.059573559282013966
471.0, 0.02832170563732995
472.0, 0.01939944787467382
473.0, 0.014939961512673551
474.0, 0.00838272760330912
475.0, 0.008699389306245586
476.0, 0.03219810700079823
477.0, 0.0550667508919729
478.0, 0.03866397635733353
479.0, 0.01838508552126053
480.0, 0.014828485509527188
481.0, 0.01796244664962134
482.0, 0.016920812390841988
483.0, 0.05704311385108017
484.0, 0.06531295536204687
485.0, 0.06360974491605224
486.0, 0.08580454937182977
487.0, 0.08634895469682463
488.0, 0.05055072744906657
489.0, 0.049968461579932455
490.0, 0.042968063509419195
491.0, 0.043359743563474884
492.0, 0.045027677654356925
493.0, 0.049164220525660815
494.0, 0.05220490536926938
495.0, 0.049703541222212176
496.0, 0.05302072442925024
497.0, 0.04118939994907713
498.0, 0.05036417487825311
499.0, 0.050691573023023156
500.0, 0.044710324890073795
501.0, 0.04455001813228242
502.0, 0.04926008435879285
503.0, 0.09223285006672866
504.0, 0.10308747131982111
505.0, 0.1395077500440656
506.0, 0.16583128760314278
507.0, 0.17431885724540144
508.0, 0.19754894156386427
509.0, 0.2409628246485073
510.0, 0.2658661022346188
511.0, 0.2973566412345778
512.0, 0.3076627362391383
513.0, 0.31667690611253924
514.0, 0.33551030774107315
515.0, 0.32292994743682646
516.0, 0.34025451881803603
517.0, 0.35999332895362945
518.0, 0.3382182064154473
519.0, 0.31898749619603045
520.0, 0.3102813752730519
521.0, 0.28384025815453273
522.0, 0.26219882365512015
523.0, 0.22361076597551496
524.0, 0.21350216600065047
525.0, 0.19616320547617308
526.0, 0.17256740496558998
527.0, 0.16022583110700828
528.0, 0.16823196159030993
529.0, 0.16240037748491112
530.0, 0.14370640063399712
531.0, 0.13399430088818043
532.0, 0.13728287357241506
533.0, 0.14767521575383552
534.0, 0.1488509619786384
535.0, 0.11283390179793273
536.0, 0.0861849285856666
537.0, 0.07337213327750378
538.0, 0.07778391333848314
539.0, 0.07319148046531469
540.0, 0.061781892071634176
541.0, 0.07483563520743669
542.0, 0.05952484618787397
543.0, 0.08574104738953613
544.0, 0.08346507801336835
545.0, 0.04657757825615914
546.0, 0.030120614535914095
547.0, 0.057480687781394105
548.0, 0.04860483067303423
549.0, 0.03058964207825917
550.0, 0.03633647871814351
551.0, 0.031142437566513408
552.0, 0.024524704244962
553.0, 0.02836246561115078
554.0, 0.03821475402959484
555.0, 0.021284073315426175
556.0, 0.027004988587707595
557.0, 0.03159394494374732
558.0, 0.021872417277678045
559.0, 0.022890875780929618
560.0, 0.039149094570882066
561.0, 0.03919625527494179
562.0, 0.0036252548229059045
563.0, 0.04285850223369591
564.0, 0.025208057403526232
565.0, 0.025092776908426727
566.0, 0.029512362723389925
567.0, 0.02071376552196625
568.0, 0.043823312922982104
569.0, 0.06524486245746494
570.0, 0.07843480913832394
571.0, 0.09195205248745421
572.0, 0.11222699972173444
573.0, 0.12095511274978213
574.0, 0.12085389041124978
575.0, 0.1788051978559498
576.0, 0.14951904680983458
577.0, 0.12043185116610462
578.0, 0.12751977506162668
579.0, 0.11298383179630885
580.0, 0.06473020140025651
581.0, 0.031086159920650093
582.0, 0.06349289696724206
583.0, 0.021723459636481347
584.0, 0.04167112193269211
585.0, 0.04621845675610002
586.0, 0.04492660041330256
587.0, 0.04505768486662901
588.0, 0.03260462811129156
589.0, 0.025666722744166714
590.0, 0.024144396068716868
591.0, 0.017423783930060634
592.0, 0.015468901857693593
593.0, 0.016798499983366175
594.0, 0.016470072585080882
595.0, 0.014217746033717435
596.0, 0.023725800738856537
597.0, 0.04865422801360129
598.0, 0.042989395382199785
599.0, 0.045360776140903225
600.0, 0.0448454386700978
601.0, 0.03643654437565449
602.0, 0.04409997734613667
603.0, 0.02359017448413968
604.0, 0.029948991015605133
605.0, 0.03263527311356003
606.0, 0.039545231749009674
607.0, 0.04495856079886789
608.0, 0.04695054158620866
609.0, 0.05773646026252791
610.0, 0.06742838893218749
611.0, 0.0703773787544949
612.0, 0.06348162754766128
613.0, 0.06507473367055969
614.0, 0.07392383890690822
615.0, 0.09606739223570042
616.0, 0.14858386363622839
617.0, 0.12196866933331182
618.0, 0.15284937382430255
619.0, 0.18417788023027304
620.0, 0.1942764713450938
621.0, 0.20834092339336202
622.0, 0.24086069018832107
623.0, 0.25529178365365557
624.0, 0.23459844905768895
625.0, 0.31265326181913367
626.0, 0.33829559132507836
627.0, 0.39752799742518186
628.0, 0.4439465389969626
629.0, 0.4458658045687248
630.0, 0.4958762766327739
631.0, 0.5080948109378395
632.0, 0.5660902847735805
633.0, 0.6114225941615706
634.0, 0.6484150599592368
635.0, 0.6875971114861889
636.0, 0.7300425581112049
637.0, 0.7598341639254804
638.0, 0.7412326511469626
639.0, 0.7078784337102646
640.0, 0.6934562917682391
641.0, 0.6714299247908556
642.0, 0.6389725477360302
643.0, 0.609151415473432
644.0, 0.5938125910252636
645.0, 0.5864954307856026
646.0, 0.5391668560537981
647.0, 0.48481309446438076
648.0, 0.4178458561645273
649.0, 0.36891070015267596
650.0, 0.3491205337904148
651.0, 0.3339011603933473
652.0, 0.31592483533955085
653.0, 0.2897223464730252
654.0, 0.2554245927980701
655.0, 0.2344126122319778
656.0, 0.20199418421688195
657.0, 0.16166952202233645
658.0, 0.15161321851665438
659.0, 0.18166388531094263
660.0, 0.12731160340858844
661.0, 0.11988655820881575
662.0, 0.1501006761324936
663.0, 0.14448483949322943
664.0, 0.1173792700291175
665.0, 0.11668983569103529
666.0, 0.0840131105836735
667.0, 0.08573617958040576
668.0, 0.08337832560215866
669.0, 0.07223893642986784
670.0, 0.07337357929012583
671.0, 0.09878183063077227
672.0, 0.13541325713676375
673.0, 0.14866278166353614
674.0, 0.13860481060564592
675.0, 0.10847513702742623
676.0, 0.1056777486256038
677.0, 0.13056760668249848
678.0, 0.16256212616611757
679.0, 0.15690978479695364
680.0, 0.0854804506431293
681.0, 0.07167834226010221
682.0, 0.031581462750254086
683.0, 0.047208371553242104
684.0, 0.058657254999822536
685.0, 0.04687094410558534
686.0, 0.030234376864869506
687.0, 0.032583587319105184
688.0, 0.03689988854655113
689.0, 0.009959192816837596
690.0, 0.022098310001701076
691.0, 0.02273700122555538
692.0, 0.016650869987789415
693.0, 0.015279883707738025
694.0, 0.016688553531237105
695.0, 0.007310992516219078
696.0, 0.017940506873830024
697.0, 0.04501198126298019
698.0, 0.029880953154189017
699.0, 0.024879271221040684
700.0, 0.02744046027227909
701.0, 0.019284832841155862
702.0, 0.005850012337545108
703.0, 0.009903808400542747
704.0, 0.0184326036720315
705.0, 0.014021478584608123
706.0, 0.012312018844994763
707.0, 0.02500022751580951
708.0, 0.0421566197692198
709.0, 0.04372979526292761
710.0, 0.02907436633292274
711.0, 0.058912147848989786
712.0, 0.06022589050103296
713.0, 0.0469253506014298
714.0, 0.054421506114047315
715.0, 0.06796136363857597
716.0, 0.06952186332743084
717.0, 0.07369370631865106
718.0, 0.09756778914487405
719.0, 0.06305389206475111
720.0, 0.058967533524750364
721.0, 0.047028907985043195
722.0, 0.054496995921698294
723.0, 0.0678676315980265
724.0, 0.06099564008790212
725.0, 0.06789267890430269
726.0, 0.004693043269792509
727.0, 0.05972807929353914
728.0, 0.049424073248867606
729.0, 0.04332902542297407
730.0, 0.06121759587563051
731.0, 0.07610877834298138
732.0, 0.07096125228822911
733.0, 0.09512634155865769
734.0, 0.08400276902712323
735.0, 0.1023855006910818
736.0, 0.08455925235292973
737.0, 0.09101211266707036
738.0, 0.10846767861450331
739.0, 0.11969834645226252
740.0, 0.18833137886238527
741.0, 0.19666548290661168
742.0, 0.2518646413397949
743.0, 0.2952068177767951
744.0, 0.3348993340506742
745.0, 0.3709194954474756
746.0, 0.39946267866642643
747.0, 0.42451667103257124
748.0, 0.46211850628254036
749.0, 0.47250395835867237
750.0, 0.44431196422178193
751.0, 0.44263770657858986
752.0, 0.4274173641382359
753.0, 0.39446610960930323
754.0, 0.35537393429001274
755.0, 0.3109690064095611
756.0, 0.26354067991567154
757.0, 0.28084967178645415
758.0, 0.23784996199595074
759.0, 0.21985872127941353
760.0, 0.19952770325830219
761.0, 0.17344162100951743
762.0, 0.14749693450386114
763.0, 0.11468284280109427
764.0, 0.1377928731107505
765.0, 0.10512317760070139
766.0, 0.13800498512689532
767.0, 0.1235752898314076
768.0, 0.0957602705202454
769.0, 0.10453543593899713
770.0, 0.13164635918102505
771.0, 0.09884915444361068
772.0, 0.06128144681445891
773.0, 0.11158930074377212
774.0, 0.10946417001824253
775.0, 0.10249901149405986
776.0, 0.12129802477809602
777.0, 0.12011556846848338
778.0, 0.08361494658505109
779.0, 0.1294779388096353
780.0, 0.12530928965062627
781.0, 0.07318839707008946
782.0, 0.10225836425937652
783.0, 0.14738476074516998
784.0, 0.1510359599702617
785.0, 0.1234330354696516
786.0, 0.11162194658943052
787.0, 0.12381315687346457
788.0, 0.1508143244923824
789.0, 0.11515798144274361
790.0, 0.12068112421333557
791.0, 0.11625793964315863
792.0, 0.10242466403410033
793.0, 0.11181853836973762
794.0, 0.14308191750395968
795.0, 0.12751913550490196
796.0, 0.1554251981741907
797.0, 0.16907867207363186
798.0, 0.1128242369266932
799.0, 0.1275445249514464
800.0, 0.14660465151693847
801.0, 0.14148292598863488
802.0, 0.1440775117803884
803.0, 0.09752875704421651
804.0, 0.15225989522959457
805.0, 0.1298253229368573
806.0, 0.1527729812046851
807.0, 0.1571363794809981
808.0, 0.1501282842227155
809.0, 0.16424830503428195
810.0, 0.17783640744754595
811.0, 0.10750039105378535
812.0, 0.08246832087909048
813.0, 0.1377034017321375
814.0, 0.15150126453419144
815.0, 0.13441580588111407
816.0, 0.1380227343009812
817.0, 0.153777987792408
818.0, 0.14357714823236684
819.0, 0.12262112945836033
820.0, 0.14165654862645463
821.0, 0.13399678740627466
822.0, 0.11442419442551657
823.0, 0.11708576501959443
824.0, 0.10371234354671043
825.0, 0.09333085543884279
826.0, 0.10150290501521127
827.0, 0.0830927138545466
828.0, 0.07136774968538644
829.0, 0.10861986121777999
830.0, 0.09918086824312775
831.0, 0.07596272033172616
832.0, 0.07775957966321927
833.0, 0.08259504605027715
834.0, 0.07401547822734053
835.0, 0.07482329709388366
836.0, 0.08139972690976778
837.0, 0.08318498184526721
838.0, 0.09658201950436938
839.0, 0.10560211765721542
840.0, 0.09702101856523226
841.0, 0.09209588105643661
842.0, 0.08415878342060058
843.0, 0.06252801213245392
844.0, 0.07636556000269301
845.0, 0.07203413355147976
846.0, 0.0935547041933665
847.0, 0.08203038264696962
848.0, 0.08705579679813757
849.0, 0.0623619172181931
850.0, 0.039187847375739326
851.0, 0.05389272726091536
852.0, 0.05941120933965597
853.0, 0.10884511132469424
854.0, 0.09042964308324695
855.0, 0.13061052991303132
856.0, 0.09288628100716413
857.0, 0.06328631323130719
858.0, 0.0703145835218983
859.0, 0.08456865136526616
860.0, 0.0841325904907076
861.0, 0.08392456295948325
862.0, 0.08691324034296198
863.0, 0.10557283169075204
864.0, 0.08335102110916712
865.0, 0.06729501262542952
866.0, 0.05551578542816611
867.0, 0.05447974532720654
868.0, 0.0568621404076179
869.0, 0.03124479450758031
870.0, 0.051622002858358274
871.0, 0.019032699683996693
872.0, 0.031214561340987258
873.0, 0.014583734131382212
874.0, 0.02366277095670595
875.0, 0.04897912562408832
876.0, 0.051729793649660794
877.0, 0.03668463452110952
878.0, 0.05555731698781151
879.0, 0.03258069781155264
880.0, 0.025590339648737966
881.0, 0.01794356062416925
882.0, 0.04545153305473332
883.0, 0.058312540717251636
884.0, 0.040582441545658994
885.0, 0.03551249817939421
886.0, 0.07332540427822269
887.0, 0.07285408281735542
888.0, 0.057295216416408064
889.0, 0.016281748117059573
890.0, 0.006448988260306577
891.0, 0.05140957950634443
892.0, 0.06251508816563299
893.0, 0.042505214084691795
894.0, 0.033788591553327134
895.0, 0.0009625467743967261
896.0, 0.0008094706469793352
897.0, 0.008014643879603291
898.0, 0.01916449541593594
899.0, 0.015011683938150843
900.0, 0.027562813736912814
901.0, 0.04096521538059982
902.0, 0.03437760507993434
903.0, 0.019052035541876015
904.0, 0.019539601389257012
905.0, 0.0024334688898004163
906.0, 0.006635449588773389
907.0, 0.024267689250892028
908.0, 0.014290267538985709
909.0, 0.015323454952267277
910.0, 0.034473364149198056
911.0, 0.05141454441294065
912.0, 0.049640821948365846
913.0, 0.03416834525970003
914.0, 0.03407376036605708
915.0, 0.033570977240572335
916.0, 0.017754432740657036
917.0, 0.02679751930950226
918.0, 0.030179938357464187
919.0, 0.017209207841862112
920.0, 0.014040824764406155
921.0, 0.03227219482734719
922.0, 0.025846242416575523
923.0, 0.014536621090370004
924.0, 0.01268644200905776
925.0, 0.04380610460149171
926.0, 0.01913923942534916
927.0, 0.0032395089784462163
928.0, 0.03379967250133991
929.0, 0.05903729583686107
930.0, 0.036427674193818364
931.0, 0.03736617142305106
932.0, 0.015330904061317176
933.0, 0.053664532774301874
934.0, 0.025243874854224652
935.0, 0.029625967271667396
936.0, 0.018047397858343417
937.0, 0.013770074668286256
938.0, 0.01821701872333429
939.0, 0.006770642450546918
940.0, 0.011170327263565207
941.0, 0.015172585149939835
942.0, 0.0414345724189544
943.0, 0.010385230373851343
944.0, 0.008758049388004927
945.0, 0.03455482081710991
946.0, 0.03804770783176239
947.0, 0.036644849354420236
948.0, 0.045040728364591526
949.0, 0.019621988895001954
950.0, 0.06180818360324665
951.0, 0.04720367828367078
952.0, 0.03328084223124641
953.0, 0.0798500706837758
954.0, 0.04805564874387261
955.0, 0.03706227962369763
956.0, 0.04245330458777851
957.0, 0.031088553612657593
958.0, 0.045405226702041314
959.0, 0.023972522712469017
960.0, 0.0374387676841377
961.0, 0.02162472489361495
962.0, 0.018100630745398433
963.0, 0.0354594415252204
964.0, 0.0280345603338443
965.0, 0.037742835649586325
966.0, 0.04442954103851577
967.0, 0.007135711513160866
968.0, 0.01820460992641451
969.0, 0.001716278181546068
970.0, 0.043811952833305357
971.0, 0.06285997425136745
972.0, 0.07801966264339487
973.0, 0.08991567362405208
974.0, 0.08942046864688731
975.0, 0.08336173603240041
976.0, 0.07745431019029508
977.0, 0.05953885326222777
978.0, 0.030818937725845125
979.0, 0.049755839490623184
980.0, 0.030392115680291112
981.0, 0.016666169082979302
982.0, 0.01880455604574552
983.0, 0.03320933193423419
984.0, 0.04909031603704292
985.0, 0.05914776173062735
986.0, 0.06211792318688666
987.0, 0.06136386132360397
988.0, 0.07065742040780014
989.0, 0.07205781552819096
990.0, 0.07177274805920078
991.0, 0.07610260772064661
992.0, 0.0740505220901897
993.0, 0.06950998885094714
994.0, 0.0689099967131523
995.0, 0.07013565519318898
996.0, 0.05929383116612605
997.0, 0.02955863110209899
998.0, 0.044885923575085654
999.0, 0.0841417706895773
1000.0, 0.06181005552014717
1001.0, 0.100058364794896
1002.0, 0.12767333886956164
1003.0, 0.10326153067113442
1004.0, 0.0540889681776573
1005.0, 0.03656033611822054
1006.0, 0.050714798831854827
1007.0, 0.014790931625732768
1008.0, 0.06547767347278938
1009.0, 0.034469021566816124
1010.0, 0.036799781940658687
1011.0, 0.040428829177019496
1012.0, 0.0321833061509801
1013.0, 0.030945985309556674
1014.0, 0.03607053835802427
1015.0, 0.03556127422801651
1016.0, 0.0396832803955215
1017.0, 0.0625050694060896
1018.0, 0.04546788200806964
1019.0, 0.048305408396277776
1020.0, 0.05861792095629246
1021.0, 0.05004850915216612
1022.0, 0.05978156083566835
1023.0, 0.07738881860641353
1024.0, 0.0809388391098728
1025.0, 0.08441979315240852
1026.0, 0.08498249919528832
1027.0, 0.005146142837568059
1028.0, 0.04629549151790037
1029.0, 0.023049334424747266
1030.0, 0.037142456320737975
1031.0, 0.03818202605931718
1032.0, 0.04674101185213417
1033.0, 0.04902344398995028
1034.0, 0.05983261140743257
1035.0, 0.07743320338743256
1036.0, 0.07036992131577904
1037.0, 0.061005669064394044
1038.0, 0.0636771107348086
1039.0, 0.021094105428351665
1040.0, 0.014400947446674077
1041.0, 0.04485333566115851
1042.0, 0.04487622553645638
1043.0, 0.056667674521032496
1044.0, 0.04620245449282925
1045.0, 0.013096960599387884
1046.0, 0.014488845622472678
1047.0, 0.030650438897130365
1048.0, 0.04002646791405918
1049.0, 0.05973596653818315
1050.0, 0.01077738810654474
1051.0, 0.04598489961678927
1052.0, 0.04598085485270795
1053.0, 0.05815463505966258
1054.0, 0.0570977544028143
1055.0, 0.057210343410692116
1056.0, 0.07926954795744938
1057.0, 0.06925262878521823
1058.0, 0.03549312373009918
1059.0, 0.0642477532104348
1060.0, 0.03337883199656773
1061.0, 0.061703058201401574
1062.0, 0.043985885085800785
1063.0, 0.06470859193625225
1064.0, 0.06526231153787498
1065.0, 0.05209045851177696
1066.0, 0.056687350645221526
1067.0, 0.07462660831309971
1068.0, 0.09887147230259759
1069.0, 0.060115485297975196
1070.0, 0.06485857446982508
1071.0, 0.06189711574923019
1072.0, 0.047230499828456604
1073.0, 0.04286141097108001
1074.0, 0.023305710469312933
1075.0, 0.007987606829668426
1076.0, 0.026103472100105187
1077.0, 0.06366049988486508
1078.0, 0.08350511131699571
1079.0, 0.07728515949340867
1080.0, 0.011896072525518858
1081.0, 0.04012554953911382
1082.0, 0.030427427445687126
1083.0, 0.017572272212859924
1084.0, 0.045865021048871135
1085.0, 0.027904115579421143
1086.0, 0.02266059705706951
1087.0, 0.040441110266759436
1088.0, 0.047578168687857234
1089.0, 0.05690746949416421
1090.0, 0.037958283177052396
1091.0, 0.031747107948312626
1092.0, 0.06312047295145064
1093.0, 0.07363155073703097
1094.0, 0.053686282551745304
1095.0, 0.06246766459854754
1096.0, 0.029742760156372346
1097.0, 0.007627416834696384
1098.0, 0.016444817663995918
1099.0, 0.022886313720774137
1100.0, 0.03447595436039926
1101.0, 0.05940370055383824
1102.0, 0.05129755371385758
1103.0, 0.06074386493584357
1104.0, 0.021854321206413587
1105.0, 0.03256498252119557
1106.0, 0.019047746882977147
1107.0, 0.009723620957077793
1108.0, 0.024534982159704528
1109.0, 0.027106049850512896
1110.0, 0.008726470532334928
1111.0, 0.010575387492214528
1112.0, 0.031377449606943005
1113.0, 0.048586764419288546
1114.0, 0.05391536520887479
1115.0, 0.04566108320123105
1116.0, 0.04488599565579412
1117.0, 0.07527258722020139
1118.0, 0.04030188955141262
1119.0, 0.06822794426365436
1120.0, 0.10667786484931914
1121.0, 0.08345034407086531
1122.0, 0.060442153792095464
1123.0, 0.06512166957962376
1124.0, 0.07177998477672878
1125.0, 0.10506639828079554
1126.0, 0.059590708277581485
1127.0, 0.07228587964768048
1128.0, 0.08569751403955299
1129.0, 0.0812762486381853
1130.0, 0.08804806334337391
1131.0, 0.07358991767258014
1132.0, 0.06125380962162308
1133.0, 0.06468447276065993
1134.0, 0.0469742113737738
1135.0, 0.04769027670055938
1136.0, 0.05270895805886693
1137.0, 0.057864903736879955
1138.0, 0.05903690659141737
1139.0, 0.028961616596892177
1140.0, 0.05157911783850169
1141.0, 0.03730571634703408
1142.0, 0.031077985721075847
1143.0, 0.06513286066528631
1144.0, 0.06985496908959077
1145.0, 0.028442245534889277
1146.0, 0.022320312456901543
1147.0, 0.015666841788810094
1148.0, 0.011670754579590416
1149.0, 0.019625287775920017
1150.0, 0.01804310295771426
1151.0, 0.008343510828943523
1152.0, 0.03368384941392107
1153.0, 0.028939635910259807
1154.0, 0.02607768740468775
1155.0, 0.03254725992083238
1156.0, 0.036701484247829326
1157.0, 0.03981853549628947
1158.0, 0.04239463056638996
1159.0, 0.05100448486858557
1160.0, 0.0680904950636422
1161.0, 0.03965982856693746
1162.0, 0.061991174950686324
1163.0, 0.01976270428718054
1164.0, 0.010517910412610519
1165.0, 0.053199510263575375
1166.0, 0.05375263359376743
1167.0, 0.04368253026829348
1168.0, 0.048068316420960475
1169.0, 0.0500420291858788
1170.0, 0.05175396778129992
1171.0, 0.03237041445489816
1172.0, 0.058616227049034866
1173.0, 0.04575978237791897
1174.0, 0.028652071571381575
1175.0, 0.037594351759197744
1176.0, 0.0348042627469617
1177.0, 0.03551411121391482
1178.0, 0.04915120295298821
1179.0, 0.061408750071151416
1180.0, 0.05936267809490717
1181.0, 0.06735582505836947
1182.0, 0.0813482884784043
1183.0, 0.055810581628889966
1184.0, 0.07439051772983839
1185.0, 0.049347718245868
1186.0, 0.03328446770042058
1187.0, 0.09153873770782314
1188.0, 0.03944055012019164
1189.0, 0.03167600594334461
1190.0, 0.02994062354271555
1191.0, 0.05272133139732549
1192.0, 0.05403520494216505
1193.0, 0.04077993969463792
1194.0, 0.03879743894682288
1195.0, 0.029183894137454917
1196.0, 0.051072796685270885
1197.0, 0.06648832826720373
1198.0, 0.022633314197160102
1199.0, 0.034659992439822145
1200.0, 0.0049843233714722615
1201.0, 0.056807044064472095
1202.0, 0.02847371905189094
1203.0, 0.0308863978109417
1204.0, 0.02744612452807626
1205.0, 0.015553345747767828
1206.0, 0.039752720809554894
1207.0, 0.07808671693884668
1208.0, 0.07691567073365378
1209.0, 0.06242208465943789
1210.0, 0.06536782082775948
1211.0, 0.03239008927918183
1212.0, 0.022542085603145245
1213.0, 0.0450504071621897
1214.0, 0.04840662852724903
1215.0, 0.05783009466747501
1216.0, 0.0555667325430861
1217.0, 0.06514014316485754
1218.0, 0.06686968979457529
1219.0, 0.07475990774134972
1220.0, 0.06165642832249079
1221.0, 0.030727158013717882
1222.0, 0.10084180130583832
1223.0, 0.06483280386923974
1224.0, 0.005544360254354275
1225.0, 0.06425061533427458
1226.0, 0.08313197910876534
1227.0, 0.08438882874201356
1228.0, 0.043509019132210974
1229.0, 0.07440670914804318
1230.0, 0.06438159140971414
1231.0, 0.03661027342611779
1232.0, 0.027186057139846564
1233.0, 0.04868239599020179
1234.0, 0.08435619064052018
1235.0, 0.08960021106877991
1236.0, 0.10408977030650052
1237.0, 0.09244094601306614
1238.0, 0.14479633440841722
1239.0, 0.10769771116206883
1240.0, 0.02518209973980956
1241.0, 0.048387473879232756
1242.0, 0.03471335281899824
1243.0, 0.061343859163859184
1244.0, 0.09168313469258284
1245.0, 0.07747540758897244
1246.0, 0.06600010915625751
1247.0, 0.08099734594532705
1248.0, 0.07370300871637096
1249.0, 0.04257194823999176
1250.0, 0.034018041207206015
1251.0, 0.027821181287536387
1252.0, 0.08597258044802278
1253.0, 0.026446003136724378
1254.0, 0.02880804607440962
1255.0, 0.012262865736827187
1256.0, 0.01928361467009769
1257.0, 0.03567853933326762
1258.0, 0.03977679743000328
1259.0, 0.02733494523303282
1260.0, 0.029187498272614694
1261.0, 0.025068398406678988
1262.0, 0.00013837940367637146
1263.0, 0.00991422429488121
1264.0, 0.040435641753142716
1265.0, 0.058698742103688986
1266.0, 0.08736532608216109
1267.0, 0.08982912601480499
1268.0, 0.06325624141606724
1269.0, 0.08827335808166009
1270.0, 0.06523991953041032
1271.0, 0.06099970217819014
1272.0, 0.024637659429983163
1273.0, 0.0034991774567482933
1274.0, 0.025543300891261743
1275.0, 0.05347817842091226
1276.0, 0.06872898718321017
1277.0, 0.0787032982978807
1278.0, 0.05768754155627477
1279.0, 0.009872827029430193
1280.0, 0.034976735544572674
1281.0, 0.04179517774542371
1282.0, 0.0035966613374776926
1283.0, 0.07058149213753244
1284.0, 0.038416640358793885
1285.0, 0.008152224544069707
1286.0, 0.003914833798200974
1287.0, 0.006235539626495328
1288.0, 0.0036919790465125206
1289.0, 0.04476657323677876
1290.0, 0.08461193755520224
1291.0, 0.12036798866951855
1292.0, 0.149134790743449
1293.0, 0.08014389087554714
1294.0, 0.07150340990278352
1295.0, 0.07782341972357565
1296.0, 0.08638719931542346
1297.0, 0.12562639268574657
1298.0, 0.1708593590231945
1299.0, 0.21490198697110202
1300.0, 0.0728436778997418
1301.0, 0.06063636419211809
1302.0, 0.07350074553883731
1303.0, 0.11251449091579128
1304.0, 0.11929119750489175
1305.0, 0.1093801949798026
1306.0, 0.10174775053054184
1307.0, 0.0996278148289254
1308.0, 0.11055739649840435
1309.0, 0.09446059678883699
1310.0, 0.14891957718053234
1311.0, 0.08494611044257755
1312.0, 0.11268596467178557
1313.0, 0.09599018974632961
1314.0, 0.08359553648220171
1315.0, 0.06861760252899526
1316.0, 0.06713990959597312
1317.0, 0.060979638259257035
1318.0, 0.061962828794524166
1319.0, 0.0980389457398023
1320.0, 0.1094350323855808
1321.0, 0.1130640505338298
1322.0, 0.15438175255075198
1323.0, 0.15514220107638854
1324.0, 0.08100543511915251
1325.0, 0.058445446914289025
1326.0, 0.05967491738404086
1327.0, 0.09795048047400974
1328.0, 0.1242621121621254
1329.0, 0.08048455523114773
1330.0, 0.10364253446749211
1331.0, 0.08398660168120715
1332.0, 0.09580411703449593
1333.0, 0.0784863003271676
1334.0, 0.05157876875693702
1335.0, 0.05637843221384461
1336.0, 0.03335348801528732
1337.0, 0.049400198862942696
1338.0, 0.11241929472618167
1339.0, 0.11975547295740531
1340.0, 0.08381738292308812
1341.0, 0.095584584302319
1342.0, 0.11079798425694307
1343.0, 0.08781587817667039
1344.0, 0.09972743055194626
1345.0, 0.10014232741270787
1346.0, 0.1119474009814209
1347.0, 0.10137050696034731
1348.0, 0.1080590879165488
1349.0, 0.11090963572491021
1350.0, 0.10603342145465286
1351.0, 0.1132036196291757
1352.0, 0.10230289114330852
1353.0, 0.09273514828578265
1354.0, 0.08836137253989784
1355.0, 0.08049282609388769
1356.0, 0.07868408673951842
1357.0, 0.07321735072164337
1358.0, 0.07246142600936362
1359.0, 0.11049877623971867
1360.0, 0.11819304673035709
1361.0, 0.1416115704222998
1362.0, 0.11586038465791572
1363.0, 0.11319652988494609
1364.0, 0.10609826915943615
1365.0, 0.09473196091411387
1366.0, 0.036411132900853696
1367.0, 0.04545457701659257
1368.0, 0.0524384647673835
1369.0, 0.06358101274838227
1370.0, 0.08011989975448072
1371.0, 0.11843883679992413
1372.0, 0.09437790478903464
1373.0, 0.09273868427564978
1374.0, 0.12438779081729599
1375.0, 0.10461756762010196
1376.0, 0.0623896012356042
1377.0, 0.03512135063638619
1378.0, 0.10280825386545091
1379.0, 0.07910750699143522
1380.0, 0.04934262297007276
1381.0, 0.08217040538935735
1382.0, 0.04253141435137075
1383.0, 0.06092976416285954
1384.0, 0.06600041418183958
1385.0, 0.042746859447790865
1386.0, 0.07546666052430889
1387.0, 0.06143470198752777
1388.0, 0.03736335167302481
1389.0, 0.07485557017738319
1390.0, 0.10581780833721406
1391.0, 0.0613859852617345
1392.0, 0.02469567916363561
1393.0, 0.04347095771386937
1394.0, 0.05382530039377133
1395.0, 0.03672103406527001
1396.0, 0.03280942073055006
1397.0, 0.05313026213957173
1398.0, 0.0420435966651915
1399.0, 0.020475693180063828
1400.0, 0.07849374303350734
1401.0, 0.05056256330075175
1402.0, 0.01441235403324704
1403.0, 0.0209341993225435
1404.0, 0.010458697503795947
1405.0, 0.008707409450059895
1406.0, 0.02479048912366391
1407.0, 0.008390279358970403
1408.0, 0.012744286069713659
1409.0, 0.03951582116188951
1410.0, 0.05554416122684754
1411.0, 0.07698333296499128
1412.0, 0.08270133452550227
1413.0, 0.06185211334587426
1414.0, 0.05182308463245659
1415.0, 0.06282791334262888
1416.0, 0.07226711942077763
1417.0, 0.06391733533858703
1418.0, 0.08034664544187897
1419.0, 0.08454233661578982
1420.0, 0.08296987736172427
1421.0, 0.06792298335730185
1422.0, 0.03710606445488859
1423.0, 0.06728153084078177
1424.0, 0.08688250874068311
1425.0, 0.0905247462939305
1426.0, 0.05763749186552803
1427.0, 0.05041038873485024
1428.0, 0.12230454183519587
1429.0, 0.12994498403051735
1430.0, 0.07351061543157868
1431.0, 0.09854596998028675
1432.0, 0.11686759493823463
1433.0, 0.11920903149399592
1434.0, 0.12911861963224686
1435.0, 0.14287873278855343
1436.0, 0.17420482961148379
1437.0, 0.17894929415095615
1438.0, 0.19999475384763873
1439.0, 0.18765613173580928
1440.0, 0.20080705791066447
1441.0, 0.17421358645236565
1442.0, 0.17862086382968542
1443.0, 0.21024442715077535
1444.0, 0.19140878514917134
1445.0, 0.1936062300258922
1446.0, 0.20227095456516075
1447.0, 0.16284197976520878
1448.0, 0.1739875455541196
1449.0, 0.161332575222853
1450.0, 0.17137615085371302
1451.0, 0.12055411994301729
1452.0, 0.11448887270648829
1453.0, 0.1270064379963177
1454.0, 0.12135588309932806
1455.0, 0.1398471408085908
1456.0, 0.12736163789154648
1457.0, 0.12069511198917356
1458.0, 0.12169039834289895
1459.0, 0.09445527606057154
1460.0, 0.14523799284394498
1461.0, 0.15398073738314716
1462.0, 0.16001056364916083
1463.0, 0.13936951975478643
1464.0, 0.1354157405802765
1465.0, 0.12018423908958925
1466.0, 0.1250507653487817
1467.0, 0.08264040143144553
1468.0, 0.0236556149338904
1469.0, 0.02752253122893447
1470.0, 0.14304661801949037
1471.0, 0.07001751362027175
1472.0, 0.06256625847677487
1473.0, 0.09335314461699001
1474.0, 0.05333956203809581
1475.0, 0.06169767407743328
1476.0, 0.08408586621698572
1477.0, 0.07323852474251612
1478.0, 0.12685502494934506
1479.0, 0.11915171398675271
1480.0, 0.07327377732902096
1481.0, 0.07205908108228386
1482.0, 0.11331276096261048
1483.0, 0.17320214872039133
1484.0, 0.17210359004625014
1485.0, 0.13449783620321185
1486.0, 0.10420815206675728
1487.0, 0.0978529194078206
1488.0, 0.11518552417097194
1489.0, 0.013651343840902313
1490.0, 0.07243830922501279
1491.0, 0.15329852512185496
1492.0, 0.08357763294367315
1493.0, 0.07245423640515876
1494.0, 0.04161798450500099
1495.0, 0.05340066964624478
1496.0, 0.07949946606071256
1497.0, 0.023841025240419027
1498.0, 0.08156775025706887
1499.0, 0.04913799737031972
1500.0, 0.015083066780826056
1501.0, 0.04518018731016652
1502.0, 0.04789125906866884
1503.0, 0.027674087719353133
1504.0, 0.013496923858459126
1505.0, 0.011875864973349805
1506.0, 0.05678392496765298
1507.0, 0.05275735575384392
1508.0, 0.05438344013517119
1509.0, 0.08314369856985454
1510.0, 0.08287724179136347
1511.0, 0.07582605313258872
1512.0, 0.056934932761549956
1513.0, 0.1111145103092414
1514.0, 0.11421239547162254
1515.0, 0.08321182599392316
1516.0, 0.09008040403924229
1517.0, 0.0866708374337809
1518.0, 0.06161819950352012
1519.0, 0.07447171031632946
1520.0, 0.07208646958027697
1521.0, 0.08756069449624357
1522.0, 0.07060978257722272
1523.0, 0.0967966674523025
1524.0, 0.08013652362635383
1525.0, 0.08859109922180947
1526.0, 0.08502657012516301
1527.0, 0.08244665675159814
1528.0, 0.10976877586354303
1529.0, 0.0921531686754867
1530.0, 0.0986457885617997
1531.0, 0.16313095770824299
1532.0, 0.14508577942573675
1533.0, 0.08880085326920362
1534.0, 0.08757042011898437
1535.0, 0.13690270553634135
1536.0, 0.12762719990834925
1537.0, 0.09228228621998914
1538.0, 0.07083352668571774
1539.0, 0.03680627836418835
1540.0, 0.048678610191787826
1541.0, 0.07005361418786182
1542.0, 0.044341192133072554
1543.0, 0.06737805330639658
1544.0, 0.0956233729880607
1545.0, 0.07679150962821871
1546.0, 0.0643243567092579
1547.0, 0.08345063265245009
1548.0, 0.08837818830555964
1549.0, 0.026556723507925793
1550.0, 0.07584567866323776
1551.0, 0.04357739100521736
1552.0, 0.06522260202662739
1553.0, 0.0559571291340136
1554.0, 0.08590446317206382
1555.0, 0.027568786086587128
1556.0, 0.05419475869780665
1557.0, 0.12791515773598383
1558.0, 0.06121205858420837
1559.0, 0.08649897983242631
1560.0, 0.08012780382532497
1561.0, 0.05251663744827949
1562.0, 0.02836055640041434
1563.0, 0.057921322728497315
1564.0, 0.09314982787667948
1565.0, 0.09592719432390785
1566.0, 0.03396458409096362
1567.0, 0.003493451486010225
1568.0, 0.016964639558468
1569.0, 0.03460748335382156
1570.0, 0.021469198662712078
1571.0, 0.004268218700325913
1572.0, 4.598813169332278e-05
1573, 0.0
1574, 0.0
1575, 0.0
1576, 0.0
1577, 0.0
1578, 0.0
1579, 0.0
1580, 0.0
1581, 0.0
1582, 0.0
1583, 0.0
1584, 0.0
1585, 0.0
1586, 0.0
1587, 0.0
1588, 0.0
1589, 0.0
1590, 0.0
1591, 0.0
1592, 0.0
1593, 0.0
1594, 0.0
1595, 0.0
1596, 0.0
1597, 0.0
1598, 0.0
1599, 0.0
