30, 0.0
31, 0.0
32, 0.0
33, 0.0
34, 0.0
35, 0.0
36, 0.0
37, 0.0
38, 0.0
39, 0.0
40, 0.0
41, 0.0
42, 0.0
43, 0.0
44, 0.0
45, 0.0
46, 0.0
47, 0.0
48, 0.0
49, 0.0
50, 0.0
51, 0.0
52, 0.0
53, 0.0
54, 0.0
55, 0.0
56, 0.0
57, 0.0
58, 0.0
59, 0.0
60, 0.0
61, 0.0
62, 0.0
63, 0.0
64, 0.0
65, 0.0
66, 0.0
67, 0.0
68, 0.0
69, 0.0
70, 0.0
71, 0.0
72, 0.0
73, 0.0
74, 0.0
75, 0.0
76, 0.0
77, 0.0
78, 0.0
79, 0.0
80, 0.0
81, 0.0
82, 0.0
83, 0.0
84, 0.0
85, 0.0
86, 0.0
87, 0.0
88, 0.0
89, 0.0
90, 0.0
91, 0.0
92, 0.0
93, 0.0
94, 0.0
95, 0.0
96, 0.0
97, 0.0
98, 0.0
99, 0.0
100, 0.0
101, 0.0
102, 0.0
103, 0.0
104, 0.0
105, 0.0
106, 0.0
107, 0.0
108, 0.0
109, 0.0
110, 0.0
111, 0.0
112, 0.0
113, 0.0
114.0, 0.007089866210287909
115.0, 0.010970046185016827
116.0, 0.009605743468984605
117.0, 0.006117724184746384
118.0, 0.006774670205381151
119.0, 0.004842204107014341
120.0, 0.003115967679808904
121.0, 0.0024235111613614413
122.0, 0.0024863955971358787
123.0, 0.0013298020950374824
124.0, 0.004064155991936377
125.0, 0.004230750736628359
126.0, 0.0032918450341656454
127.0, 0.00400214702069967
128.0, 0.009394298028992781
129.0, 0.00813197184122436
130.0, 0.006524191975624554
131.0, 0.0044638729221353575
132.0, 0.003844150209660409
133.0, 0.006117761945696508
134.0, 0.003337753104571307
135.0, 0.0024553940895274337
136.0, 0.00433031393148447
137.0, 0.0044778978430883515
138.0, 0.0016653823545379847
139.0, 0.0050160146033757
140.0, 0.0071136069398020805
141.0, 0.007487133669818698
142.0, 0.00586684833864912
143.0, 0.004374691252886887
144.0, 0.00671508825106347
145.0, 0.004983715355670049
146.0, 0.010388733342632963
147.0, 0.010564780259094285
148.0, 0.007208150757723862
149.0, 0.00652540849023656
150.0, 0.008749458826938724
151.0, 0.0058579484050599925
152.0, 0.0079210726825969
153.0, 0.011959181369173528
154.0, 0.011919054386463223
155.0, 0.00042395589499627344
156.0, 0.007419841143347536
157.0, 0.008984151435124543
158.0, 0.006141627584808865
159.0, 0.0021505840793180947
160.0, 0.0012605089071229354
161.0, 0.0062287907826020575
162.0, 0.010517728774811587
163.0, 0.010740274412123087
164.0, 0.007791680097834215
165.0, 0.0045317368827276815
166.0, 0.005697722126918499
167.0, 0.0068626855267419
168.0, 0.011146355914483996
169.0, 0.009939055849490407
170.0, 0.005638667125563272
171.0, 0.00893346633506048
172.0, 0.01032042732197537
173.0, 0.00767412453129868
174.0, 0.005508509739071269
175.0, 0.006697494940496923
176.0, 0.011651797963403541
177.0, 0.015334381892250759
178.0, 0.00449850014635675
179.0, 0.001078472983603561
180.0, 0.0025634927348028845
181.0, 0.004951350541618277
182.0, 0.005212744885469994
183.0, 0.004468119782475986
184.0, 0.006913902956717592
185.0, 0.008395706563331566
186.0, 0.008951005979633825
187.0, 0.00990400329400467
188.0, 0.011537014308849894
189.0, 0.008295558631200815
190.0, 0.007042529366933925
191.0, 0.007785672714955716
192.0, 0.009649361564509844
193.0, 0.01150123053894784
194.0, 0.011398135909529915
195.0, 0.013570636925097756
196.0, 0.01097160852133751
197.0, 0.00926122274371787
198.0, 0.013566461774499912
199.0, 0.011312497627764442
200.0, 0.018349601624081165
201.0, 0.018605007251458295
202.0, 0.016798389462526583
203.0, 0.016422361133897036
204.0, 0.016876646036550896
205.0, 0.008395237857240744
206.0, 0.012455958643514526
207.0, 0.011464276709179409
208.0, 0.008766847269460344
209.0, 0.011489207760716167
210.0, 0.01681555012159934
211.0, 0.013201559123677977
212.0, 0.011349025444305515
213.0, 0.009104850176821198
214.0, 0.009388622308087785
215.0, 0.017401222879949326
216.0, 0.009862083162593878
217.0, 0.01453400165071575
218.0, 0.012679594880794145
219.0, 0.009648720246829643
220.0, 0.011595946362492638
221.0, 0.011966234966419723
222.0, 0.010128153535812721
223.0, 0.012009599120264985
224.0, 0.013080019134096349
225.0, 0.011730575995877107
226.0, 0.00944505240205682
227.0, 0.012077838540512113
228.0, 0.009914110023963132
229.0, 0.006681766471174237
230.0, 0.010765937776591029
231.0, 0.018963903292607484
232.0, 0.01108330604213905
233.0, 0.019962616866166676
234.0, 0.013731501985771976
235.0, 0.011711294558221804
236.0, 0.012555599818706003
237.0, 0.008365147698081032
238.0, 0.0031088483461690014
239.0, 0.014077787463299794
240.0, 0.01058111389480055
241.0, 0.012100985356262717
242.0, 0.020241579172525018
243.0, 0.01753264950917559
244.0, 0.017904852556262323
245.0, 0.014650555065157573
246.0, 0.011709622845788019
247.0, 0.010641771613302023
248.0, 0.011575113704772067
249.0, 0.0131384364644896
250.0, 0.00653234061160571
251.0, 0.008541205264298204
252.0, 0.011565952230451763
253.0, 0.010220365723456493
254.0, 0.0047984115670210575
255.0, 0.012066526812421834
256.0, 0.010415627435556027
257.0, 0.019519105503327534
258.0, 0.02267620380852056
259.0, 0.015531924475276489
260.0, 0.010706031815479421
261.0, 0.009554214095327935
262.0, 0.004961191566488383
263.0, 0.005648844379644692
264.0, 0.009380295475057684
265.0, 0.011809371890112831
266.0, 0.01093703138796682
267.0, 0.009005194074694084
268.0, 0.008646593996557306
269.0, 0.0055456541132790915
270.0, 0.00376955861864223
271.0, 0.008120267306151152
272.0, 0.009977497502381269
273.0, 0.015071959996410969
274.0, 0.010276814777508357
275.0, 0.007075296906125851
276.0, 0.009465539565562552
277.0, 0.01162744720988947
278.0, 0.0017730073031607101
279.0, 0.0013746687435281383
280.0, 0.002346754803092795
281.0, 0.004279637861649299
282.0, 0.006688432972043744
283.0, 0.006913729722810872
284.0, 0.0020234609698855112
285.0, 0.007060746967464312
286.0, 0.00955925269320613
287.0, 0.009761290098853579
288.0, 0.009181007886670629
289.0, 0.0010278024439424214
290.0, 0.004653914245396162
291.0, 0.004192442875425077
292.0, 0.004892051967107231
293.0, 0.005715540949946317
294.0, 0.004500061785445341
295.0, 0.010703419234744651
296.0, 0.004324338748709679
297.0, 0.005536227556418859
298.0, 0.009266270692471755
299.0, 0.009902035384193658
300.0, 0.005121002873905477
301.0, 0.0006824564846595643
302.0, 0.004993976664478942
303.0, 0.003247112113523038
304.0, 0.003270150064276203
305.0, 0.006129714627755453
306.0, 0.001690005705799844
307.0, 0.008071845199761049
308.0, 0.005386117673164161
309.0, 0.004901791670870069
310.0, 0.0037694419637411738
311.0, 0.0004069033374270223
312.0, 0.0017838674305204942
313.0, 0.0036802261641313005
314.0, 0.002008883295397588
315.0, 0.0037622496383989796
316.0, 0.004651603124483212
317.0, 0.001249428369193732
318.0, 0.0027287300377042984
319.0, 0.002748476383713413
320.0, 0.006056665959971602
321.0, 0.005081218228982897
322.0, 0.003539894046749687
323.0, 0.006978429937587862
324.0, 0.006961656473136176
325.0, 0.006824343348772539
326.0, 0.005720930555850799
327.0, 0.004671870536858538
328.0, 0.0034589920799458895
329.0, 0.00167811126286302
330.0, 0.0020891985113331824
331.0, 0.00893185589858303
332.0, 0.004485753785379882
333.0, 0.0013876018504738136
334.0, 0.004821734885527277
335.0, 0.009736631774221032
336.0, 0.005244673694042042
337.0, 0.01426087973343326
338.0, 0.011214111745535037
339.0, 0.005774505554842817
340.0, 0.004077742715367694
341.0, 0.004564555796979656
342.0, 0.012868908812426595
343.0, 0.017549308855020408
344.0, 0.01449312473152655
345.0, 0.009584964628698046
346.0, 0.00548410703405419
347.0, 0.0005815726611073922
348.0, 0.00737599885033262
349.0, 0.007228463869950236
350.0, 0.01038938311806211
351.0, 0.010669267250337181
352.0, 0.008033264830992268
353.0, 0.011643921348709556
354.0, 0.0060440661238729265
355.0, 0.004959915599814832
356.0, 0.011201752547433564
357.0, 0.01515605763183902
358.0, 0.013579559227347321
359.0, 0.014527928612065984
360.0, 0.014165559839817276
361.0, 0.01405362739177777
362.0, 0.014333270194743593
363.0, 0.013746310056019277
364.0, 0.012539989557951966
365.0, 0.01321383870938281
366.0, 0.016026065080840195
367.0, 0.013730057676430079
368.0, 0.015184558604835979
369.0, 0.018867974105655338
370.0, 0.02180439532958239
371.0, 0.023139340688038686
372.0, 0.025171127072188392
373.0, 0.031051046110860896
374.0, 0.03653360586625552
375.0, 0.04345059472151663
376.0, 0.05242417073130528
377.0, 0.060198001597855266
378.0, 0.05965698366832183
379.0, 0.05453220854118982
380.0, 0.04870405375972226
381.0, 0.03992142693197592
382.0, 0.030457593916093356
383.0, 0.02762196251818175
384.0, 0.01715138066696916
385.0, 0.019002482056646182
386.0, 0.020044931327199502
387.0, 0.017988740131974323
388.0, 0.016372796570250564
389.0, 0.020708485680811253
390.0, 0.021390993870483623
391.0, 0.015106503380529936
392.0, 0.020402272902428232
393.0, 0.022750471777043816
394.0, 0.017841876540056076
395.0, 0.016944816780012164
396.0, 0.020198460227310294
397.0, 0.025849952793514475
398.0, 0.025286437416049915
399.0, 0.021673268362668707
400.0, 0.02428518094238867
401.0, 0.0384278097247725
402.0, 0.03254565165386805
403.0, 0.04711531210687166
404.0, 0.05780752400849503
405.0, 0.07692302443627311
406.0, 0.1089391866719234
407.0, 0.14852800016139403
408.0, 0.18961791761952282
409.0, 0.22172427123631225
410.0, 0.2603625805996305
411.0, 0.3464430600380989
412.0, 0.48903626127448574
413.0, 0.666715767873083
414.0, 0.8379710749219965
415.0, 0.9713698135697207
416.0, 0.9789909336535965
417.0, 0.9019541954409203
418.0, 0.76432356484369
419.0, 0.5912574435041299
420.0, 0.43233739489599626
421.0, 0.28539229560427226
422.0, 0.19472842148318886
423.0, 0.13411819837627717
424.0, 0.09731561394568136
425.0, 0.0826566745638673
426.0, 0.08267923891137285
427.0, 0.08392641313941622
428.0, 0.08099698499214213
429.0, 0.07651528920650413
430.0, 0.0713505558564382
431.0, 0.06486376932793435
432.0, 0.05601938737955869
433.0, 0.05067118100781862
434.0, 0.037774700199033756
435.0, 0.036347481587832624
436.0, 0.031454832657808476
437.0, 0.02248278170661056
438.0, 0.023495951249691546
439.0, 0.03189904480656449
440.0, 0.03055706660925239
441.0, 0.03782113820794883
442.0, 0.04077804410529763
443.0, 0.03949043871665638
444.0, 0.04323196467407077
445.0, 0.057351746952886834
446.0, 0.06004762860025174
447.0, 0.05688370144895962
448.0, 0.05978901065180394
449.0, 0.062325612878815655
450.0, 0.055529523416039075
451.0, 0.04164002230042807
452.0, 0.02856076564815669
453.0, 0.01796090556494512
454.0, 0.011282601153455845
455.0, 0.011729650935585428
456.0, 0.014020505950484268
457.0, 0.0069731632382439256
458.0, 0.008658076821651631
459.0, 0.015175483431510319
460.0, 0.011072598978200133
461.0, 0.008111373410361203
462.0, 0.014685625491700641
463.0, 0.02650783632176135
464.0, 0.018069594507769956
465.0, 0.017891709592155403
466.0, 0.01473556755647261
467.0, 0.009275048193596345
468.0, 0.007896074150412557
469.0, 0.01181731243983043
470.0, 0.008745640818746573
471.0, 0.007979929040083914
472.0, 0.008625522358787312
473.0, 0.004536827202268418
474.0, 0.008174449577422457
475.0, 0.018121157141185677
476.0, 0.015237814866901027
477.0, 0.008710124721620078
478.0, 0.006550795193442052
479.0, 0.0037699997040000384
480.0, 0.0021836260601939364
481.0, 0.001669347372362868
482.0, 0.0016053466070680054
483.0, 0.005547656212735655
484.0, 0.007929602021229295
485.0, 0.012413079633221382
486.0, 0.014960061289698675
487.0, 0.013400996250972855
488.0, 0.008824334111745642
489.0, 0.005585184590187375
490.0, 0.0062114343503133955
491.0, 0.008288811909247986
492.0, 0.005133853945385045
493.0, 0.006229838692131345
494.0, 0.012292255418174915
495.0, 0.01406841125742701
496.0, 0.0049054860514292226
497.0, 0.011955212201391799
498.0, 0.00640860496792729
499.0, 0.002750267437513633
500.0, 0.00370986440118182
501.0, 0.004746178766893059
502.0, 0.002505049058479857
503.0, 0.012507637788393243
504.0, 0.005944580026820555
505.0, 0.004237892886966559
506.0, 0.007441149752041634
507.0, 0.008062118274495805
508.0, 0.0014952596375596115
509.0, 0.003560801626890897
510.0, 0.008332660286468188
511.0, 0.005430123926916053
512.0, 0.006664502739632861
513.0, 0.012343730729482744
514.0, 0.01570760535220157
515.0, 0.011054467341203552
516.0, 0.011383065790333095
517.0, 0.009769702692903576
518.0, 0.006023955515477817
519.0, 0.0048530822194358305
520.0, 0.004977429134970637
521.0, 0.0035438160765094125
522.0, 0.014503777927231317
523.0, 0.0026409518800202345
524.0, 0.00648391640462204
525.0, 0.012772290188838176
526.0, 0.012228049331926909
527.0, 0.009183241340876128
528.0, 0.019333938160756018
529.0, 0.01623928244486871
530.0, 0.014392790802119207
531.0, 0.017146592333541114
532.0, 0.015890210768466986
533.0, 0.010656673025999779
534.0, 0.0072222287098000154
535.0, 0.004717443463156167
536.0, 0.004428114861311927
537.0, 0.01161677672115359
538.0, 0.010665125473311166
539.0, 0.011483031100424049
540.0, 0.01795173717290629
541.0, 0.018388761122659955
542.0, 0.011903509508205394
543.0, 0.021620472494618174
544.0, 0.02270911434324461
545.0, 0.019670957974469674
546.0, 0.017303420194102886
547.0, 0.015890722968951825
548.0, 0.011050454332187057
549.0, 0.012987366966127772
550.0, 0.009616738335408642
551.0, 0.006523494636885327
552.0, 0.011614875496156491
553.0, 0.0194217798088758
554.0, 0.018686545354050142
555.0, 0.014062389579138659
556.0, 0.008562105489783523
557.0, 0.013996216246371687
558.0, 0.01666088195995125
559.0, 0.013998118004703753
560.0, 0.011828299820347438
561.0, 0.016620577107288856
562.0, 0.015652619891006036
563.0, 0.01645117274256834
564.0, 0.01912766000682737
565.0, 0.02446976083489881
566.0, 0.03379698588808457
567.0, 0.04214350848500373
568.0, 0.03882896397837676
569.0, 0.0476627596139336
570.0, 0.05348651089158603
571.0, 0.07068409574698903
572.0, 0.08810057039182789
573.0, 0.10840822251383941
574.0, 0.13295945269589007
575.0, 0.13813588545610975
576.0, 0.12862204483030987
577.0, 0.11580666832850678
578.0, 0.09025846496266825
579.0, 0.06820484866901465
580.0, 0.05690862691954555
581.0, 0.04988933906017155
582.0, 0.038876874938614636
583.0, 0.031057391448554583
584.0, 0.025114108382729112
585.0, 0.02056509370737136
586.0, 0.014826178096142234
587.0, 0.012847610430468708
588.0, 0.020879384719432154
589.0, 0.02088483622620856
590.0, 0.015111609096500942
591.0, 0.014879089148646541
592.0, 0.016128903517476652
593.0, 0.016534447778439314
594.0, 0.015566946818066245
595.0, 0.013815695142887108
596.0, 0.011734098852738338
597.0, 0.009745745437163356
598.0, 0.00925851072883089
599.0, 0.009982106502999874
600.0, 0.010406987382557185
601.0, 0.010804919413703547
602.0, 0.013212372741884358
603.0, 0.012560582265184717
604.0, 0.018061069036786507
605.0, 0.02252930405158895
606.0, 0.025295765105057388
607.0, 0.024066997365105824
608.0, 0.020926952723391196
609.0, 0.022638329312172557
610.0, 0.016182086469297946
611.0, 0.012028559967249396
612.0, 0.017173280585373638
613.0, 0.016784298547364067
614.0, 0.013815943564672313
615.0, 0.017934570634200734
616.0, 0.028662110743782193
617.0, 0.020260351192604397
618.0, 0.02484250663277553
619.0, 0.02753276985531509
620.0, 0.030471259286068256
621.0, 0.02413281197621058
622.0, 0.012772280011363352
623.0, 0.02441541838361252
624.0, 0.027693560321883883
625.0, 0.016220026271395238
626.0, 0.030004282554983486
627.0, 0.03246469027308683
628.0, 0.02689283391973812
629.0, 0.0264522777314341
630.0, 0.02214576721517702
631.0, 0.024271907767157225
632.0, 0.017323822379711848
633.0, 0.009619791377253792
634.0, 0.01219207386522476
635.0, 0.0190390873351338
636.0, 0.022476854799219338
637.0, 0.024408186528772136
638.0, 0.020148873052897774
639.0, 0.019338197609781557
640.0, 0.03080479758525717
641.0, 0.03254538669536026
642.0, 0.030122404211884907
643.0, 0.03033144842968911
644.0, 0.02537858138322186
645.0, 0.018634955848300144
646.0, 0.028344965707990704
647.0, 0.024403901546655737
648.0, 0.02021036535913957
649.0, 0.021687039232869302
650.0, 0.023290269790803366
651.0, 0.01824716386730167
652.0, 0.026245124390938096
653.0, 0.020832165285608193
654.0, 0.009975493658718422
655.0, 0.013905585853762118
656.0, 0.01551717335397663
657.0, 0.01016345668986448
658.0, 0.012014060551674453
659.0, 0.01744238479068182
660.0, 0.026224581133253412
661.0, 0.013821626539393422
662.0, 0.005702813085454012
663.0, 0.005615535280934895
664.0, 0.0057165462418506474
665.0, 0.0012064017889628971
666.0, 0.003771646655069222
667.0, 0.013963870863972386
668.0, 0.013124833302310675
669.0, 0.007379785273948214
670.0, 0.002276504111989762
671.0, 0.007191125358413502
672.0, 0.016755189100338817
673.0, 0.006185594854316595
674.0, 0.018302220047314646
675.0, 0.012628862595953898
676.0, 0.0057056825460292445
677.0, 0.003243856878850974
678.0, 0.003972819200487889
679.0, 0.004197082862677248
680.0, 0.00355935657940738
681.0, 0.012030516036605137
682.0, 0.004670018484258878
683.0, 0.007212306586630867
684.0, 0.004611550827665332
685.0, 0.0032195087236376904
686.0, 0.006105920204409681
687.0, 0.006799992163325264
688.0, 0.002649287614429145
689.0, 0.0039192458229061035
690.0, 0.01068243149161098
691.0, 0.009068960418216506
692.0, 0.004187713622325362
693.0, 0.0013371120470171553
694.0, 0.0036301473184460454
695.0, 0.012309709681946548
696.0, 0.008750125533795606
697.0, 0.002270648576899739
698.0, 0.004014912304194417
699.0, 0.004340216719306969
700.0, 0.004219087893058692
701.0, 0.0053144159557407
702.0, 0.005697927831262162
703.0, 0.013013548935213455
704.0, 0.004857049044331806
705.0, 0.007921018868626709
706.0, 0.0062903132105675465
707.0, 0.004545016459237808
708.0, 0.0066777440888592466
709.0, 0.009405172748036397
710.0, 0.0068986698665776105
711.0, 0.006866474983039573
712.0, 0.007990913247313717
713.0, 0.012684633930798843
714.0, 0.017308482354130045
715.0, 0.01362734595184135
716.0, 0.009139435984726638
717.0, 0.021392265289571066
718.0, 0.020120291439378723
719.0, 0.012228698712980438
720.0, 0.01813272431003803
721.0, 0.021466882645267332
722.0, 0.01592815513386889
723.0, 0.012111368550474668
724.0, 0.01827808510822178
725.0, 0.018787742855196694
726.0, 0.028138089418886233
727.0, 0.023117438272289008
728.0, 0.02902460362231436
729.0, 0.03763630159206413
730.0, 0.04906357992167972
731.0, 0.05814690416493491
732.0, 0.05571761400343842
733.0, 0.060586519933242294
734.0, 0.06296782177657424
735.0, 0.07182774247382902
736.0, 0.08343487670762437
737.0, 0.08673456819623046
738.0, 0.0983346564167913
739.0, 0.12972652799563186
740.0, 0.15327262777526393
741.0, 0.15989540447007652
742.0, 0.17266371881293932
743.0, 0.1926961003696796
744.0, 0.21928249348670786
745.0, 0.24574111760069794
746.0, 0.26971680175915136
747.0, 0.2911403391420053
748.0, 0.3023021210905019
749.0, 0.3044159537938969
750.0, 0.2871774337891824
751.0, 0.273919597976449
752.0, 0.250548264709325
753.0, 0.22405872268919078
754.0, 0.20046164845461567
755.0, 0.17564698712980134
756.0, 0.16436849061980785
757.0, 0.1408902873673836
758.0, 0.12382053704438489
759.0, 0.10760525068396869
760.0, 0.09509475870347762
761.0, 0.08756719499730103
762.0, 0.07606397339974619
763.0, 0.051877965938005484
764.0, 0.05712328137549853
765.0, 0.053712412488335186
766.0, 0.05990107467449994
767.0, 0.044078410625256886
768.0, 0.03981749748998717
769.0, 0.04316170240436758
770.0, 0.035988137863300025
771.0, 0.04089457743833115
772.0, 0.04259289085840587
773.0, 0.04638531840291001
774.0, 0.035019029543318626
775.0, 0.03634686338696581
776.0, 0.03413182668784153
777.0, 0.027174349794162594
778.0, 0.028790744865694867
779.0, 0.030424413219319275
780.0, 0.021209799774596624
781.0, 0.03311331084323088
782.0, 0.03917839151499438
783.0, 0.039555213924523845
784.0, 0.03193189252067295
785.0, 0.026021933261043403
786.0, 0.028778541026347887
787.0, 0.019927496612146246
788.0, 0.010950052949894498
789.0, 0.027780113126370333
790.0, 0.019005874614111216
791.0, 0.018948322896714845
792.0, 0.029606728492952296
793.0, 0.03328730690593196
794.0, 0.02464540941012466
795.0, 0.028113206135339682
796.0, 0.02551325865217579
797.0, 0.025271136805605318
798.0, 0.027537220805641586
799.0, 0.028549312857930748
800.0, 0.030135308837488804
801.0, 0.03162784562114957
802.0, 0.030489277077125142
803.0, 0.02898903680556103
804.0, 0.025123535042087478
805.0, 0.025721316544223907
806.0, 0.02519483134645182
807.0, 0.022670364236355284
808.0, 0.02291960472298935
809.0, 0.022086309278492068
810.0, 0.015818645131830657
811.0, 0.014690689542548312
812.0, 0.016664876988139028
813.0, 0.02341132915442112
814.0, 0.032571198354454114
815.0, 0.031406189517667694
816.0, 0.03496317967691995
817.0, 0.03767889166929649
818.0, 0.02872819035827019
819.0, 0.02446237707850512
820.0, 0.02052297631962929
821.0, 0.02231469209880236
822.0, 0.017919492212912412
823.0, 0.017388928159331154
824.0, 0.02394301970649422
825.0, 0.024390993164085616
826.0, 0.015429168461560325
827.0, 0.017289301630624535
828.0, 0.029615603492402817
829.0, 0.025504665803430762
830.0, 0.01799958784852674
831.0, 0.012958249402958002
832.0, 0.022850060380489645
833.0, 0.028938810805089435
834.0, 0.023297873463586836
835.0, 0.0253062990374091
836.0, 0.03174790701884306
837.0, 0.021446225633696178
838.0, 0.012242465804084512
839.0, 0.010502770910896396
840.0, 0.014067310004716154
841.0, 0.02080462853098519
842.0, 0.021882433433696037
843.0, 0.016762538750623234
844.0, 0.02743280381928942
845.0, 0.0190372208883144
846.0, 0.010844639765773345
847.0, 0.015240217907261119
848.0, 0.018096379252858456
849.0, 0.01783317859733261
850.0, 0.015079763855391202
851.0, 0.013089772006865934
852.0, 0.01804606834380144
853.0, 0.024132751182883966
854.0, 0.027495351978403998
855.0, 0.03282445135433488
856.0, 0.03265989315477876
857.0, 0.02219867231721366
858.0, 0.01844670147524228
859.0, 0.02406656833399551
860.0, 0.022465050054074894
861.0, 0.018104495997753923
862.0, 0.02553147511247953
863.0, 0.015058411130074573
864.0, 0.012207606674782797
865.0, 0.005666089975563526
866.0, 0.005216002578641154
867.0, 0.011426848803360158
868.0, 0.015688286384771124
869.0, 0.016164262716484842
870.0, 0.015118307343546307
871.0, 0.012835200083817458
872.0, 0.01406208374662493
873.0, 0.01814983751299819
874.0, 0.014971498729823658
875.0, 0.013695006198360955
876.0, 0.016829605826479088
877.0, 0.015002952925457648
878.0, 0.01140964267351718
879.0, 0.014172197390121452
880.0, 0.012557445159248719
881.0, 0.006630319423602142
882.0, 0.012355743400330257
883.0, 0.014651614255680992
884.0, 0.008431824813687889
885.0, 0.0026961338019584565
886.0, 0.0034700585382818287
887.0, 0.0023410549861710922
888.0, 0.013297336697914823
889.0, 0.014976024193461742
890.0, 0.015598014304762584
891.0, 0.010639177875006093
892.0, 0.010658752177630761
893.0, 0.012095688263420099
894.0, 0.007335853188583901
895.0, 0.004628366973911088
896.0, 0.0008620464052492512
897.0, 0.005312661239312284
898.0, 0.0013311027561424737
899.0, 0.009275135035836903
900.0, 0.01151958426635463
901.0, 0.010709186073722808
902.0, 0.008537741894645652
903.0, 0.005889380293283538
904.0, 0.013825287395902447
905.0, 0.0014428062726947214
906.0, 0.01300116398884929
907.0, 0.010394383130735898
908.0, 0.006165100762055265
909.0, 0.002068635254587435
910.0, 0.005553545287028471
911.0, 0.00935129098525467
912.0, 0.0036221499345937447
913.0, 0.005950485427998706
914.0, 0.00936801233963736
915.0, 0.008173860247702114
916.0, 0.004966109921124115
917.0, 0.0014658739673146137
918.0, 0.004932590376801288
919.0, 0.007805874758293379
920.0, 0.007078408255554211
921.0, 0.006542647879488194
922.0, 0.0007268781444082664
923.0, 0.004203710433047179
924.0, 0.001988452847160862
925.0, 0.005323985988774699
926.0, 0.002231614197370253
927.0, 0.002993288772978572
928.0, 0.0054654290950429405
929.0, 0.007003786322214219
930.0, 0.009341417218394567
931.0, 0.007735468863629973
932.0, 0.0029897715757360344
933.0, 0.0017781609271739292
934.0, 0.01241507212407798
935.0, 0.010099767332293227
936.0, 0.010784932072755146
937.0, 0.010384155628466158
938.0, 0.006467557658416646
939.0, 0.005691945231588733
940.0, 0.0067728426032026695
941.0, 0.009039848807782807
942.0, 0.005278025912890377
943.0, 0.011388914608614036
944.0, 0.013629479453957927
945.0, 0.01029551534044953
946.0, 0.005258085303982545
947.0, 0.005583639767245892
948.0, 0.011542259280788038
949.0, 0.013065624914712515
950.0, 0.008865318508084936
951.0, 0.018222083282140672
952.0, 0.01785414688381814
953.0, 0.008058678787299677
954.0, 0.01859999844408388
955.0, 0.018247097707102703
956.0, 0.00979653721812272
957.0, 0.007178884226188502
958.0, 0.0057325933950178425
959.0, 0.02533883709513668
960.0, 0.0020797864296852285
961.0, 0.013152426578720754
962.0, 0.009443868663196167
963.0, 0.008037917163903325
964.0, 0.008287171979620703
965.0, 0.008863454031222422
966.0, 0.010994422853712757
967.0, 0.011372556582537684
968.0, 0.0029229519251069156
969.0, 0.0022444583811552345
970.0, 0.0021530719232879
971.0, 0.0007767167530225921
972.0, 0.003090246037074517
973.0, 0.013907183157220936
974.0, 0.016398279183335345
975.0, 0.008255472895689212
976.0, 0.0029830164436030248
977.0, 0.00770580484282897
978.0, 0.014633513059762977
979.0, 0.01251686081299104
980.0, 0.014555326872812635
981.0, 0.018312600658494264
982.0, 0.01336611823745173
983.0, 0.01968851161751153
984.0, 0.024673349248649314
985.0, 0.020359448563689823
986.0, 0.019434174694981585
987.0, 0.025222596796328562
988.0, 0.024668112462661013
989.0, 0.018306381172385748
990.0, 0.01063265821861643
991.0, 0.002846283028568763
992.0, 0.007639350067923826
993.0, 0.007740631426521729
994.0, 0.005544660330790799
995.0, 0.014765184876294976
996.0, 0.027370377762509807
997.0, 0.01812923742354508
998.0, 0.021811244537083434
999.0, 0.030686913382079177
1000.0, 0.02945983780304979
1001.0, 0.028145270407154633
1002.0, 0.03123478959164718
1003.0, 0.029282691530709365
1004.0, 0.022915727473355102
1005.0, 0.02389875019129583
1006.0, 0.03394065730072712
1007.0, 0.03339766856993036
1008.0, 0.029287169400260066
1009.0, 0.018656053511401066
1010.0, 0.027695494513544427
1011.0, 0.024228275534888214
1012.0, 0.016599904281395194
1013.0, 0.014785972822519493
1014.0, 0.02197811994196254
1015.0, 0.025549635573267275
1016.0, 0.013007216205755425
1017.0, 0.009919291656164553
1018.0, 0.0266926729822657
1019.0, 0.013031833732106864
1020.0, 0.028379926018128537
1021.0, 0.028486715772637537
1022.0, 0.020901318174727568
1023.0, 0.011023915170287942
1024.0, 0.007875762272484103
1025.0, 0.014204301318685079
1026.0, 0.019075300534422607
1027.0, 0.01819374645118898
1028.0, 0.01760504559826618
1029.0, 0.012840931746267572
1030.0, 0.013202356163405432
1031.0, 0.018322076214464283
1032.0, 0.017278037397348463
1033.0, 0.018336212599002703
1034.0, 0.026036280830823703
1035.0, 0.029787969917150502
1036.0, 0.019774961903045795
1037.0, 0.009304056082269335
1038.0, 0.019594605959639758
1039.0, 0.005954656606205712
1040.0, 0.013859236549142593
1041.0, 0.01934657057622051
1042.0, 0.023218015944149205
1043.0, 0.02001314778945222
1044.0, 0.02395686418294025
1045.0, 0.024475406508240097
1046.0, 0.011155285919301695
1047.0, 0.019929268321333054
1048.0, 0.015258392416626482
1049.0, 0.0062513673272685385
1050.0, 0.015108692251680099
1051.0, 0.0073866637023236315
1052.0, 0.01091031278978882
1053.0, 0.014124568508494582
1054.0, 0.008502710991360357
1055.0, 0.010304401139929554
1056.0, 0.02307919701441781
1057.0, 0.023537932939538368
1058.0, 0.020421399700873838
1059.0, 0.027416323284147087
1060.0, 0.03500388357084062
1061.0, 0.026770271671522388
1062.0, 0.020644030480554243
1063.0, 0.024537735852858386
1064.0, 0.019386624385306445
1065.0, 0.016085983874976555
1066.0, 0.013950336242712578
1067.0, 0.005125442846972214
1068.0, 0.015890018055395583
1069.0, 0.021391352058543985
1070.0, 0.02863369090499447
1071.0, 0.022991338273843698
1072.0, 0.018716585641188964
1073.0, 0.0055885518944754605
1074.0, 0.011366121970889527
1075.0, 0.028259773804321354
1076.0, 0.03310889717735988
1077.0, 0.020564357447094336
1078.0, 0.007058278763947518
1079.0, 0.00843104386541034
1080.0, 0.020406674232624232
1081.0, 0.03039761573926276
1082.0, 0.017298164968669136
1083.0, 0.02067915560490399
1084.0, 0.01720672042156362
1085.0, 0.017396423167741044
1086.0, 0.023381443057992845
1087.0, 0.026382083205472046
1088.0, 0.022784029664048314
1089.0, 0.017350267837382274
1090.0, 0.012372724869308538
1091.0, 0.013607228120408581
1092.0, 0.010697699320162563
1093.0, 0.01636247788853319
1094.0, 0.014355146052747474
1095.0, 0.008506322283850246
1096.0, 0.015686718142080308
1097.0, 0.014838512135065781
1098.0, 0.01297427372206415
1099.0, 0.019960949709404964
1100.0, 0.018759820897116516
1101.0, 0.022143053555418166
1102.0, 0.019229362482458042
1103.0, 0.019730463100171937
1104.0, 0.011690608745020616
1105.0, 0.002628160612351656
1106.0, 0.007867713214227634
1107.0, 0.0077416875608446786
1108.0, 0.013059207948627815
1109.0, 0.013841052662653256
1110.0, 0.007381514861775055
1111.0, 0.013390353106856354
1112.0, 0.0176201314716572
1113.0, 0.008918226771940804
1114.0, 0.02178989952473352
1115.0, 0.0038835778221037558
1116.0, 0.014376677126672741
1117.0, 0.008317205382686517
1118.0, 0.009021473307387754
1119.0, 0.015425573769899302
1120.0, 0.015386747998739894
1121.0, 0.014717456720555307
1122.0, 0.015670485883340673
1123.0, 0.005103812517099413
1124.0, 0.011054901574595315
1125.0, 0.025025569796512204
1126.0, 0.01869543575128048
1127.0, 0.006372768900766655
1128.0, 0.01441648846144747
1129.0, 0.015327852113928243
1130.0, 0.02133183110642963
1131.0, 0.021042212347066675
1132.0, 0.020692497185608016
1133.0, 0.020202254649888368
1134.0, 0.00787159180713903
1135.0, 0.01176800092822134
1136.0, 0.0063886567314087855
1137.0, 0.012316139148069474
1138.0, 0.013051189097820139
1139.0, 0.004829207565163793
1140.0, 0.014052673130605615
1141.0, 0.01812695882234037
1142.0, 0.020323417793111035
1143.0, 0.020824535361317092
1144.0, 0.01436449223549026
1145.0, 0.005225114183194306
1146.0, 0.002836475249506012
1147.0, 0.003523703350910789
1148.0, 0.002975264898713534
1149.0, 0.001679666056411461
1150.0, 0.0048381500819884085
1151.0, 0.022105463906186285
1152.0, 0.031212435936018156
1153.0, 0.026141273421134585
1154.0, 0.026695884123257043
1155.0, 0.026505297892143037
1156.0, 0.021220915644923996
1157.0, 0.01879490995452423
1158.0, 0.014617093097063256
1159.0, 0.006321824365136247
1160.0, 0.020035753688747812
1161.0, 0.014058889388533773
1162.0, 0.012591428547085995
1163.0, 0.009059814172297375
1164.0, 0.026712815568963006
1165.0, 0.017379805036250476
1166.0, 0.009790872067736886
1167.0, 0.005483867064886969
1168.0, 0.003921928871103914
1169.0, 0.01765555617436278
1170.0, 0.032201700018974884
1171.0, 0.0223230075434652
1172.0, 0.021505956992592754
1173.0, 0.0261814689968686
1174.0, 0.007105928275302679
1175.0, 0.009061959585727263
1176.0, 0.03163105025727589
1177.0, 0.014276208359287713
1178.0, 0.004431850633575137
1179.0, 0.01325244851368169
1180.0, 0.01856869232517574
1181.0, 0.021531161671333662
1182.0, 0.02818667166569
1183.0, 0.022595577133104762
1184.0, 0.025011016082994452
1185.0, 0.007788608032280594
1186.0, 0.030585611160565514
1187.0, 0.013690714510052701
1188.0, 0.01787054260670027
1189.0, 0.016231263256387563
1190.0, 0.0194245996474952
1191.0, 0.013864986359296753
1192.0, 0.00591068970075827
1193.0, 0.009710854164826798
1194.0, 0.01231771611242707
1195.0, 0.0012057197222670284
1196.0, 0.004389534617360697
1197.0, 0.01794166165030371
1198.0, 0.008056594438251727
1199.0, 0.0021626819380702873
1200.0, 0.016781804964206972
1201.0, 0.004881606491367054
1202.0, 0.010430559335055014
1203.0, 0.006364675629214285
1204.0, 0.00665291992764371
1205.0, 0.007992317175682776
1206.0, 0.010391388038213286
1207.0, 0.016336122328257086
1208.0, 0.014379037373156163
1209.0, 0.012214689787886375
1210.0, 0.00955267627959157
1211.0, 0.012588405752227805
1212.0, 0.010484532689098117
1213.0, 0.01679749181608272
1214.0, 0.013071096027132325
1215.0, 0.009825709680364395
1216.0, 0.011738698618873738
1217.0, 0.014722622481118086
1218.0, 0.014983762157798144
1219.0, 0.012453699748385517
1220.0, 0.008097971205860872
1221.0, 0.007795768290509732
1222.0, 0.017327553032786037
1223.0, 0.017780094829683603
1224.0, 0.013592653357887246
1225.0, 0.021460781412739476
1226.0, 0.014984132667879057
1227.0, 0.018941384559823037
1228.0, 0.015782146744292482
1229.0, 0.014336353161704842
1230.0, 0.017591219007348804
1231.0, 0.01660159154380543
1232.0, 0.018069120666679196
1233.0, 0.025801518286258065
1234.0, 0.02574519919209633
1235.0, 0.014979202136575689
1236.0, 0.011674927777769937
1237.0, 0.007115006210210402
1238.0, 0.01458931013185865
1239.0, 0.027728452401773525
1240.0, 0.028672075750372603
1241.0, 0.019944209794633058
1242.0, 0.03295816565249868
1243.0, 0.037299014225464465
1244.0, 0.02871866308735838
1245.0, 0.024163573293001093
1246.0, 0.017726417229879488
1247.0, 0.014715634329050015
1248.0, 0.02644369676150267
1249.0, 0.025432995967215162
1250.0, 0.008565519898881527
1251.0, 0.03234564375926954
1252.0, 0.015450115600549694
1253.0, 0.009355244107935305
1254.0, 0.012165498733969882
1255.0, 0.007428730850103818
1256.0, 0.016441455861036347
1257.0, 0.013473650305799674
1258.0, 0.022412672520417502
1259.0, 0.03060566487924796
1260.0, 0.027077530033498914
1261.0, 0.027766498999189003
1262.0, 0.03312855204943833
1263.0, 0.031218325830003644
1264.0, 0.03808845041433546
1265.0, 0.03425573739644501
1266.0, 0.03555065673532234
1267.0, 0.00466862086279549
1268.0, 0.020506122759108462
1269.0, 0.01774372713253198
1270.0, 0.009917683471080675
1271.0, 0.015307753130388626
1272.0, 0.016072083341892807
1273.0, 0.008553829618283494
1274.0, 0.007372580240616205
1275.0, 0.01824617400898311
1276.0, 0.02070445805802548
1277.0, 0.008134475926867708
1278.0, 0.010975306998810445
1279.0, 0.02356306242543387
1280.0, 0.010415123655525351
1281.0, 0.02697870613892557
1282.0, 0.006664497227782611
1283.0, 0.005828449749118542
1284.0, 0.028151744933236397
1285.0, 0.025335406965825577
1286.0, 0.026646631733763505
1287.0, 0.010448238208583403
1288.0, 0.009036665656775654
1289.0, 0.017688239963964045
1290.0, 0.011873809524149896
1291.0, 0.002019265743424046
1292.0, 0.008224746478347415
1293.0, 0.019559252490660973
1294.0, 0.01599426336207338
1295.0, 0.00748453235759673
1296.0, 0.009722291221098588
1297.0, 0.0066627072315416066
1298.0, 0.003576480917067708
1299, 0.0
1300, 0.0
1301, 0.0
1302, 0.0
1303, 0.0
1304, 0.0
1305, 0.0
1306, 0.0
1307, 0.0
1308, 0.0
1309, 0.0
1310, 0.0
1311, 0.0
1312, 0.0
1313, 0.0
1314, 0.0
1315, 0.0
1316, 0.0
1317, 0.0
1318, 0.0
1319, 0.0
1320, 0.0
1321, 0.0
1322, 0.0
1323, 0.0
1324, 0.0
1325, 0.0
1326, 0.0
1327, 0.0
1328, 0.0
1329, 0.0
1330, 0.0
1331, 0.0
1332, 0.0
1333, 0.0
1334, 0.0
1335, 0.0
1336, 0.0
1337, 0.0
1338, 0.0
1339, 0.0
1340, 0.0
1341, 0.0
1342, 0.0
1343, 0.0
1344, 0.0
1345, 0.0
1346, 0.0
1347, 0.0
1348, 0.0
1349, 0.0
1350, 0.0
1351, 0.0
1352, 0.0
1353, 0.0
1354, 0.0
1355, 0.0
1356, 0.0
1357, 0.0
1358, 0.0
1359, 0.0
1360, 0.0
1361, 0.0
1362, 0.0
1363, 0.0
1364, 0.0
1365, 0.0
1366, 0.0
1367, 0.0
1368, 0.0
1369, 0.0
1370, 0.0
1371, 0.0
1372, 0.0
1373, 0.0
1374, 0.0
1375, 0.0
1376, 0.0
1377, 0.0
1378, 0.0
1379, 0.0
1380, 0.0
1381, 0.0
1382, 0.0
1383, 0.0
1384, 0.0
1385, 0.0
1386, 0.0
1387, 0.0
1388, 0.0
1389, 0.0
1390, 0.0
1391, 0.0
1392, 0.0
1393, 0.0
1394, 0.0
1395, 0.0
1396, 0.0
1397, 0.0
1398, 0.0
1399, 0.0
1400, 0.0
1401, 0.0
1402, 0.0
1403, 0.0
1404, 0.0
1405, 0.0
1406, 0.0
1407, 0.0
1408, 0.0
1409, 0.0
1410, 0.0
1411, 0.0
1412, 0.0
1413, 0.0
1414, 0.0
1415, 0.0
1416, 0.0
1417, 0.0
1418, 0.0
1419, 0.0
1420, 0.0
1421, 0.0
1422, 0.0
1423, 0.0
1424, 0.0
1425, 0.0
1426, 0.0
1427, 0.0
1428, 0.0
1429, 0.0
1430, 0.0
1431, 0.0
1432, 0.0
1433, 0.0
1434, 0.0
1435, 0.0
1436, 0.0
1437, 0.0
1438, 0.0
1439, 0.0
1440, 0.0
1441, 0.0
1442, 0.0
1443, 0.0
1444, 0.0
1445, 0.0
1446, 0.0
1447, 0.0
1448, 0.0
1449, 0.0
1450, 0.0
1451, 0.0
1452, 0.0
1453, 0.0
1454, 0.0
1455, 0.0
1456, 0.0
1457, 0.0
1458, 0.0
1459, 0.0
1460, 0.0
1461, 0.0
1462, 0.0
1463, 0.0
1464, 0.0
1465, 0.0
1466, 0.0
1467, 0.0
1468, 0.0
1469, 0.0
1470, 0.0
1471, 0.0
1472, 0.0
1473, 0.0
1474, 0.0
1475, 0.0
1476, 0.0
1477, 0.0
1478, 0.0
1479, 0.0
1480, 0.0
1481, 0.0
1482, 0.0
1483, 0.0
1484, 0.0
1485, 0.0
1486, 0.0
1487, 0.0
1488, 0.0
1489, 0.0
1490, 0.0
1491, 0.0
1492, 0.0
1493, 0.0
1494, 0.0
1495, 0.0
1496, 0.0
1497, 0.0
1498, 0.0
1499, 0.0
1500, 0.0
1501, 0.0
1502, 0.0
1503, 0.0
1504, 0.0
1505, 0.0
1506, 0.0
1507, 0.0
1508, 0.0
1509, 0.0
1510, 0.0
1511, 0.0
1512, 0.0
1513, 0.0
1514, 0.0
1515, 0.0
1516, 0.0
1517, 0.0
1518, 0.0
1519, 0.0
1520, 0.0
1521, 0.0
1522, 0.0
1523, 0.0
1524, 0.0
1525, 0.0
1526, 0.0
1527, 0.0
1528, 0.0
1529, 0.0
1530, 0.0
1531, 0.0
1532, 0.0
1533, 0.0
1534, 0.0
1535, 0.0
1536, 0.0
1537, 0.0
1538, 0.0
1539, 0.0
1540, 0.0
1541, 0.0
1542, 0.0
1543, 0.0
1544, 0.0
1545, 0.0
1546, 0.0
1547, 0.0
1548, 0.0
1549, 0.0
1550, 0.0
1551, 0.0
1552, 0.0
1553, 0.0
1554, 0.0
1555, 0.0
1556, 0.0
1557, 0.0
1558, 0.0
1559, 0.0
1560, 0.0
1561, 0.0
1562, 0.0
1563, 0.0
1564, 0.0
1565, 0.0
1566, 0.0
1567, 0.0
1568, 0.0
1569, 0.0
1570, 0.0
1571, 0.0
1572, 0.0
1573, 0.0
1574, 0.0
1575, 0.0
1576, 0.0
1577, 0.0
1578, 0.0
1579, 0.0
1580, 0.0
1581, 0.0
1582, 0.0
1583, 0.0
1584, 0.0
1585, 0.0
1586, 0.0
1587, 0.0
1588, 0.0
1589, 0.0
1590, 0.0
1591, 0.0
1592, 0.0
1593, 0.0
1594, 0.0
1595, 0.0
1596, 0.0
1597, 0.0
1598, 0.0
1599, 0.0
