30, 0.0
31, 0.0
32, 0.0
33, 0.0
34, 0.0
35, 0.0
36, 0.0
37, 0.0
38, 0.0
39, 0.0
40, 0.0
41, 0.0
42, 0.0
43, 0.0
44, 0.0
45, 0.0
46, 0.0
47, 0.0
48, 0.0
49, 0.0
50, 0.0
51, 0.0
52, 0.0
53, 0.0
54, 0.0
55, 0.0
56, 0.0
57, 0.0
58, 0.0
59, 0.0
60, 0.0
61, 0.0
62, 0.0
63, 0.0
64, 0.0
65, 0.0
66, 0.0
67, 0.0
68, 0.0
69, 0.0
70, 0.0
71, 0.0
72, 0.0
73, 0.0
74, 0.0
75, 0.0
76, 0.0
77, 0.0
78, 0.0
79, 0.0
80, 0.0
81, 0.0
82, 0.0
83, 0.0
84, 0.0
85, 0.0
86, 0.0
87, 0.0
88, 0.0
89, 0.0
90, 0.0
91, 0.0
92, 0.0
93, 0.0
94, 0.0
95, 0.0
96, 0.0
97, 0.0
98, 0.0
99, 0.0
100, 0.0
101, 0.0
102, 0.0
103, 0.0
104, 0.0
105, 0.0
106, 0.0
107, 0.0
108, 0.0
109, 0.0
110, 0.0
111.0, 4.720387479815915e-05
112.0, 0.0009500067978395667
113.0, 0.0036582118295034978
114.0, 0.01298146750200974
115.0, 0.0198446869362409
116.0, 0.02448913977908866
117.0, 0.02663507681784758
118.0, 0.02254363306806277
119.0, 0.014063774636824133
120.0, 0.00551055426700767
121.0, 0.009980100983871705
122.0, 0.008456383886167911
123.0, 0.005349783730404173
124.0, 0.00227446415280668
125.0, 0.0050370933504117815
126.0, 0.00665366916913145
127.0, 0.008698335548232964
128.0, 0.014183089686699228
129.0, 0.012244245404967366
130.0, 0.011434487546188398
131.0, 0.012685719303557136
132.0, 0.0058139852191557186
133.0, 0.0035739094269567344
134.0, 0.003021315471234797
135.0, 0.001590264500287567
136.0, 0.006281167726382099
137.0, 0.009950218489103458
138.0, 0.013173781236225313
139.0, 0.022103087102863624
140.0, 0.025930772344394705
141.0, 0.031810905928462155
142.0, 0.043974163653115225
143.0, 0.054324482178314225
144.0, 0.06336766491858235
145.0, 0.06756444763946721
146.0, 0.05701486904210708
147.0, 0.04393907651224777
148.0, 0.032168576010244705
149.0, 0.02273565621137064
150.0, 0.01389681951154306
151.0, 0.010765040125197627
152.0, 0.0086351324912079
153.0, 0.0021479593719138357
154.0, 0.005850419990063319
155.0, 0.0058405273773360815
156.0, 0.0018190099657487023
157.0, 0.0004054564434015376
158.0, 0.0012980677530519554
159.0, 0.001839282388106903
160.0, 0.0004941276251915485
161.0, 0.0038208784639537034
162.0, 0.0044697893073791855
163.0, 0.0036166358318379345
164.0, 0.0037996213384214007
165.0, 0.0027275807526491993
166.0, 0.0026463479640131274
167.0, 0.0037778344096474755
168.0, 0.0016982647511830495
169.0, 0.002734785891648894
170.0, 0.0041932995441190946
171.0, 0.003514056497106833
172.0, 0.003111055317359661
173.0, 0.003075110410807231
174.0, 0.0032152575813885723
175.0, 0.0028091541153128646
176.0, 0.0017768878060572496
177.0, 0.0007582979305718167
178.0, 0.00011501532361603414
179.0, 0.003493397137357979
180.0, 0.005735043133186605
181.0, 0.005899386190808
182.0, 0.002050499294235958
183.0, 0.001302158501513805
184.0, 0.0035120013663094934
185.0, 0.007990915100542022
186.0, 0.01097447293068681
187.0, 0.013156030819677934
188.0, 0.01587316172236574
189.0, 0.019959834315479257
190.0, 0.033809259962859786
191.0, 0.04665588700379484
192.0, 0.056811055598266415
193.0, 0.06042737810500038
194.0, 0.06167166247290457
195.0, 0.06219265008194832
196.0, 0.06391675953592907
197.0, 0.079356576941585
198.0, 0.10181136956318813
199.0, 0.1335264554370833
200.0, 0.17760601045144184
201.0, 0.24104246188240025
202.0, 0.3047872356308961
203.0, 0.3563609123618743
204.0, 0.3649337134253634
205.0, 0.34115297498546937
206.0, 0.3054824983730027
207.0, 0.2612794836049911
208.0, 0.19844877287022053
209.0, 0.14965787447299372
210.0, 0.11025606549402658
211.0, 0.07821675176715641
212.0, 0.05419971144807044
213.0, 0.03949087422189122
214.0, 0.031003459980234013
215.0, 0.022353458259106562
216.0, 0.021709023634025753
217.0, 0.02304181549652065
218.0, 0.0250903529624385
219.0, 0.028958007964556158
220.0, 0.03349560054749823
221.0, 0.038877567958875335
222.0, 0.045360654816405444
223.0, 0.0516356401014393
224.0, 0.050402264889900884
225.0, 0.04305158501638028
226.0, 0.031902033182421186
227.0, 0.02426657779042157
228.0, 0.01880450849826507
229.0, 0.014557286301860458
230.0, 0.006425425262180906
231.0, 0.0038604737638055554
232.0, 0.004064673472252466
233.0, 0.0056245034639372995
234.0, 0.0019926591903935563
235.0, 0.0015297995459419812
236.0, 0.00266211008855856
237.0, 0.002780875616418489
238.0, 0.002841313320548103
239.0, 0.002745353121922223
240.0, 0.0024182959045402712
241.0, 0.0015481980537060708
242.0, 0.0011770235739203818
243.0, 0.001344611151935446
244.0, 0.0021459703655738018
245.0, 0.004499309110976134
246.0, 0.0050849115684913244
247.0, 0.005414323229571572
248.0, 0.00733828132548634
249.0, 0.01976108494196315
250.0, 0.029184278854152607
251.0, 0.036921740478501996
252.0, 0.05122098050199031
253.0, 0.06806966621516262
254.0, 0.08546862017538959
255.0, 0.10198102017112576
256.0, 0.10856796110785731
257.0, 0.09582917279107234
258.0, 0.07459875996658083
259.0, 0.05214954518017191
260.0, 0.036063965941720975
261.0, 0.026202629923485158
262.0, 0.01928871339714474
263.0, 0.00940449597866536
264.0, 0.005585371564741057
265.0, 0.003920372403455424
266.0, 0.0032995578766143122
267.0, 0.0014525175255128836
268.0, 0.0014396728535584684
269.0, 0.0029730130452261918
270.0, 0.0056744654616173685
271.0, 0.0019667690823148504
272.0, 0.0014244769025313101
273.0, 0.001974562443174183
274.0, 0.001637737711113136
275.0, 0.0023311000771677488
276.0, 0.0019062170179685192
277.0, 0.0008207982995352467
278.0, 0.0003640136451928309
279.0, 0.0007947282254580719
280.0, 0.0031727475940034546
281.0, 0.006702943362228185
282.0, 0.005261811585407195
283.0, 0.00958784404502835
284.0, 0.013238769565768057
285.0, 0.013335725333915985
286.0, 0.017749390957291708
287.0, 0.027091401558876887
288.0, 0.03618275386397086
289.0, 0.03938626323863776
290.0, 0.04740574265385077
291.0, 0.05856881800414383
292.0, 0.06879285266895184
293.0, 0.06855131754547172
294.0, 0.0708170056883178
295.0, 0.06796853861415235
296.0, 0.060376443697243064
297.0, 0.057968874101589324
298.0, 0.05932141501543813
299.0, 0.06251393018089176
300.0, 0.06697557206056907
301.0, 0.07518764427300571
302.0, 0.08102509191527486
303.0, 0.08675349725900386
304.0, 0.09438906579659459
305.0, 0.11728636162718092
306.0, 0.1468259736838649
307.0, 0.1784038485857352
308.0, 0.20431066959532457
309.0, 0.24511494675130185
310.0, 0.2602588425497966
311.0, 0.2496727443025238
312.0, 0.23158227689809954
313.0, 0.19758107018189267
314.0, 0.16469957255466833
315.0, 0.13766266843901415
316.0, 0.11200954861554469
317.0, 0.09469332686176313
318.0, 0.08307950671028075
319.0, 0.07601064710810558
320.0, 0.07205563181252611
321.0, 0.07390867607431952
322.0, 0.08058064889347077
323.0, 0.09149619811126235
324.0, 0.11055695428717618
325.0, 0.12970730629750576
326.0, 0.1524128770425911
327.0, 0.1874728686157487
328.0, 0.20011270663266537
329.0, 0.202331046510721
330.0, 0.19384597291032002
331.0, 0.16533239943421665
332.0, 0.1367488487601779
333.0, 0.10685084769435735
334.0, 0.07732949504453518
335.0, 0.06564309876910827
336.0, 0.05265864806275227
337.0, 0.042567577653553894
338.0, 0.037602622908362825
339.0, 0.028363195170177526
340.0, 0.021864933006485524
341.0, 0.020756452018043957
342.0, 0.02821617038611938
343.0, 0.01942693354801825
344.0, 0.01545681464513991
345.0, 0.013767731317133916
346.0, 0.009073850892179908
347.0, 0.00969636618807015
348.0, 0.010428068312779584
349.0, 0.010193648979174998
350.0, 0.007513849221198066
351.0, 0.01026566378455732
352.0, 0.014344240393177029
353.0, 0.01820055593368312
354.0, 0.018583472174831105
355.0, 0.020694989373411864
356.0, 0.024156887391257816
357.0, 0.02885407780584382
358.0, 0.03449367836576955
359.0, 0.04542137501935652
360.0, 0.05773987416903882
361.0, 0.06945530965477116
362.0, 0.08939601177163713
363.0, 0.11323075774133554
364.0, 0.14054572598050605
365.0, 0.1712192544737746
366.0, 0.20227860881755905
367.0, 0.23805024857844156
368.0, 0.28495448522928857
369.0, 0.35361250966809205
370.0, 0.43548496741623627
371.0, 0.536252458561514
372.0, 0.6460334030774973
373.0, 0.7419355644045993
374.0, 0.811980102666578
375.0, 0.8394853592330217
376.0, 0.8173071536364482
377.0, 0.7262967719150981
378.0, 0.6480725427213802
379.0, 0.5663985807363121
380.0, 0.4835425578471016
381.0, 0.4350670910896938
382.0, 0.4092349298472327
383.0, 0.3901746046148946
384.0, 0.3725501968904715
385.0, 0.36201727126417593
386.0, 0.34930729253968956
387.0, 0.3322030198351601
388.0, 0.308654188339062
389.0, 0.2677812562796551
390.0, 0.23311777180442503
391.0, 0.1987120732756782
392.0, 0.16002752047167662
393.0, 0.13175025514356628
394.0, 0.10540764911147626
395.0, 0.0826625374679133
396.0, 0.06558288983166911
397.0, 0.060819523647666796
398.0, 0.051008455523890224
399.0, 0.041212820949490823
400.0, 0.03997319657310973
401.0, 0.03368040366763855
402.0, 0.02976136265565399
403.0, 0.028650196128942318
404.0, 0.030312746360356913
405.0, 0.027624380426770498
406.0, 0.023457819145465127
407.0, 0.020664349495101306
408.0, 0.026032702076693892
409.0, 0.02672798760584971
410.0, 0.02660839873844129
411.0, 0.027059416606797504
412.0, 0.03051309179140271
413.0, 0.028705025094221282
414.0, 0.033134903903616536
415.0, 0.043137931461282315
416.0, 0.04205388522750372
417.0, 0.04077526888956506
418.0, 0.04360571633894919
419.0, 0.05050460254241882
420.0, 0.05213554723329145
421.0, 0.054111046555674974
422.0, 0.0521064299367593
423.0, 0.04688313939209132
424.0, 0.06061491745037745
425.0, 0.06939668457526521
426.0, 0.0775046358013591
427.0, 0.08759488052353749
428.0, 0.10609679569605894
429.0, 0.11813494305148085
430.0, 0.12994329001830662
431.0, 0.1452891924239689
432.0, 0.1645339051541917
433.0, 0.17632545591081175
434.0, 0.17842912019367307
435.0, 0.16921588975933155
436.0, 0.15912360914075205
437.0, 0.1419287733454116
438.0, 0.12388971408528485
439.0, 0.11005573297785223
440.0, 0.08956281103900131
441.0, 0.07326293866552319
442.0, 0.06065438507950352
443.0, 0.051347460345291085
444.0, 0.04559714570835353
445.0, 0.03710471212617097
446.0, 0.029163630543756227
447.0, 0.025434616604491693
448.0, 0.020877167820744676
449.0, 0.01343234954067322
450.0, 0.008369101018202645
451.0, 0.012250257654845265
452.0, 0.007033153707857584
453.0, 0.008569339232931966
454.0, 0.010291917528017098
455.0, 0.0027574543088804233
456.0, 0.003822794486496084
457.0, 0.0033018360862270314
458.0, 0.00168645598441278
459.0, 0.0002896802295647837
460.0, 0.00010992733550297231
461.0, 0.0007427103179010687
462.0, 0.002208182522572331
463.0, 0.004612463910429241
464.0, 0.0015581167094774774
465.0, 0.0008207469281403854
466.0, 0.0025346427009234
467.0, 0.006251080093498099
468.0, 0.0030096468794254187
469.0, 0.0009126108214512484
470.0, 0.0009946179832674561
471.0, 0.004150103388340968
472.0, 0.0019275290120203594
473.0, 0.002632027420501285
474.0, 0.004106384493802054
475.0, 0.001753363443602109
476.0, 0.002648752805871435
477.0, 0.003133247829616346
478.0, 0.003940093607758596
479.0, 0.00676684986093251
480.0, 0.006238645009823289
481.0, 0.007670668724860131
482.0, 0.009996517733811983
483.0, 0.010848844331716219
484.0, 0.009086414100377317
485.0, 0.00824478582308485
486.0, 0.007727498380790624
487.0, 0.0061907273586700754
488.0, 0.006254225564661298
489.0, 0.006669561363142961
490.0, 0.006713486207541165
491.0, 0.0053847085063326115
492.0, 0.005148201067083808
493.0, 0.0064835735138212515
494.0, 0.0071019117070292475
495.0, 0.003635234335464925
496.0, 0.002720947804700911
497.0, 0.0013632471346899386
498.0, 0.0012478298619305998
499.0, 0.0048587719503192725
500.0, 0.006025432869109522
501.0, 0.004942165935991814
502.0, 0.004335262668029201
503.0, 0.007545902291082836
504.0, 0.003072400390407964
505.0, 0.004475310924765348
506.0, 0.00968651783098893
507.0, 0.016106104089485433
508.0, 0.011108105769423345
509.0, 0.013293860158559238
510.0, 0.017816880362860076
511.0, 0.01975057205969112
512.0, 0.022988062381038586
513.0, 0.027093317145550667
514.0, 0.03247386957836868
515.0, 0.039527225269674164
516.0, 0.04972821384314786
517.0, 0.061038292541915055
518.0, 0.07568634281151365
519.0, 0.09489854846565732
520.0, 0.10897046024499021
521.0, 0.13447161116966605
522.0, 0.16325943402029064
523.0, 0.1893955291012239
524.0, 0.20351245120799558
525.0, 0.20364712520774675
526.0, 0.18922746993804418
527.0, 0.16175758436012325
528.0, 0.13955514734409222
529.0, 0.1136096649422041
530.0, 0.08871656312054696
531.0, 0.06712065069923599
532.0, 0.04932933836690043
533.0, 0.03907817931061212
534.0, 0.031535572351905954
535.0, 0.025201145294829946
536.0, 0.021207398541335576
537.0, 0.017488433075552062
538.0, 0.014735693699280702
539.0, 0.013315833108793473
540.0, 0.01386329077857929
541.0, 0.0092149426788436
542.0, 0.009589745468772528
543.0, 0.012178658928626459
544.0, 0.0020673845324899855
545.0, 0.004866341224127866
546.0, 0.008498138409612962
547.0, 0.009950517147675229
548.0, 0.006737142208525002
549.0, 0.009712452760872533
550.0, 0.008898307005514614
551.0, 0.007707840091215732
552.0, 0.013815525607809269
553.0, 0.012920390523257736
554.0, 0.011254706663015658
555.0, 0.0118485772772752
556.0, 0.018135752953859923
557.0, 0.021848404426034657
558.0, 0.02466791824370094
559.0, 0.026082679867844325
560.0, 0.025559012104599065
561.0, 0.022118237445990004
562.0, 0.021983945500734615
563.0, 0.02170258377519489
564.0, 0.01918098094587341
565.0, 0.020720688207160172
566.0, 0.024545081802520845
567.0, 0.024886702126254302
568.0, 0.02126876377213748
569.0, 0.03337997238956189
570.0, 0.04071016472472118
571.0, 0.048209351055222296
572.0, 0.05830572497902431
573.0, 0.07364883971705216
574.0, 0.08641005588952252
575.0, 0.09164954340147073
576.0, 0.08941817606720583
577.0, 0.08386054355144244
578.0, 0.07094563903678841
579.0, 0.05539469035313015
580.0, 0.04519519654404351
581.0, 0.05570564841542866
582.0, 0.035738254431896495
583.0, 0.029901958136735823
584.0, 0.03177654617969
585.0, 0.026502333189951217
586.0, 0.026058614790680983
587.0, 0.02914320696695825
588.0, 0.03404733458574058
589.0, 0.038862588479523896
590.0, 0.03691736404687662
591.0, 0.03365705380418811
592.0, 0.027961014699391145
593.0, 0.01967424863316695
594.0, 0.01475626036174522
595.0, 0.013585313645367279
596.0, 0.011863488957666214
597.0, 0.00821062297866338
598.0, 0.005293989054931643
599.0, 0.005436765892903581
600.0, 0.0054232697497494705
601.0, 0.004593528370065222
602.0, 0.0036366828268414083
603.0, 0.0013275988183675809
604.0, 0.0016782974848443505
605.0, 0.003916204399832998
606.0, 0.005347481350790906
607.0, 0.0027048886602233785
608.0, 0.0011235395318187273
609.0, 0.0004787167095215835
610.0, 0.00017842436801997327
611.0, 0.0012129298196628677
612.0, 0.0013091703496799659
613.0, 0.001362574623301388
614.0, 0.001932210430519834
615.0, 0.0010945827886222664
616.0, 0.002111522565149356
617.0, 0.0034486546385849516
618.0, 0.004176923359179059
619.0, 0.00322987928209262
620.0, 0.0016525923887378113
621.0, 0.002483193943757968
622.0, 0.005478805677156422
623.0, 0.007345480468100008
624.0, 0.005701401318205262
625.0, 0.006235806769221861
626.0, 0.006701367584316682
627.0, 0.0018091966697840866
628.0, 0.002984117205255587
629.0, 0.002660505703823782
630.0, 0.0023934181497500496
631.0, 0.004023657939652415
632.0, 0.003780304329489401
633.0, 0.00253703606565386
634.0, 0.002161542502130995
635.0, 0.0032856058379823142
636.0, 0.0019014077893944278
637.0, 0.0033660034725911956
638.0, 0.0034134714573315914
639.0, 0.0016488607804526739
640.0, 0.0019689479436773532
641.0, 0.008266903002079704
642.0, 0.007584521453031659
643.0, 0.002113801013266821
644.0, 0.0004706211927728084
645.0, 0.0009526558066167248
646.0, 0.0025975258532967634
647.0, 0.0036435930678853138
648.0, 0.0024284147178248914
649.0, 0.004274670003448047
650.0, 0.005920646872432268
651.0, 0.005169303348362265
652.0, 0.0025895595314962038
653.0, 0.011570190811991038
654.0, 0.007540007978689804
655.0, 0.0058279257150756
656.0, 0.007604117508083454
657.0, 0.0008264750474535013
658.0, 0.006660524614540174
659.0, 0.010962188955424952
660.0, 0.011740551355279944
661.0, 0.009223717412326896
662.0, 0.009454268297439523
663.0, 0.010789205139215536
664.0, 0.013417925197159527
665.0, 0.016748251921050672
666.0, 0.0095797082312498
667.0, 0.01331112009294237
668.0, 0.016024811050991943
669.0, 0.014499211785545823
670.0, 0.020041982531027822
671.0, 0.020413835733404852
672.0, 0.01941544242894558
673.0, 0.02029712269932554
674.0, 0.028275626619226387
675.0, 0.028533517878208486
676.0, 0.027371142925585484
677.0, 0.02911563285861556
678.0, 0.037480695244549105
679.0, 0.038045623354994784
680.0, 0.04143068479339279
681.0, 0.045093723465332886
682.0, 0.048679291110777866
683.0, 0.05886917069228031
684.0, 0.06622671467465896
685.0, 0.07522006618584101
686.0, 0.08602119864251442
687.0, 0.0960420380624288
688.0, 0.113064686259753
689.0, 0.1369503171732423
690.0, 0.16663357926060907
691.0, 0.20078291434012335
692.0, 0.24796163573675942
693.0, 0.2990209738354287
694.0, 0.3780174306766328
695.0, 0.4915601825101821
696.0, 0.5942395543176242
697.0, 0.729487796482555
698.0, 0.8498680133919172
699.0, 0.9403371112480482
700.0, 0.9959927910539732
701.0, 0.9553758473436453
702.0, 0.8665046349354948
703.0, 0.7478324614954486
704.0, 0.6185414131873823
705.0, 0.51833936667791
706.0, 0.4298072927987803
707.0, 0.3514027750291216
708.0, 0.28219392494440887
709.0, 0.22281159923235452
710.0, 0.18908668813280405
711.0, 0.1570938566367076
712.0, 0.1282871325405966
713.0, 0.11672973526851861
714.0, 0.09818584379003856
715.0, 0.08899671580692144
716.0, 0.07922733760559901
717.0, 0.060602014090031645
718.0, 0.05978698550513635
719.0, 0.05579327679960435
720.0, 0.0504195637130582
721.0, 0.04475935316845406
722.0, 0.03994169265288094
723.0, 0.03760370815995373
724.0, 0.035865631825436506
725.0, 0.033286935362695655
726.0, 0.02821255936928946
727.0, 0.0287998517298948
728.0, 0.025071975846392244
729.0, 0.02367076303888851
730.0, 0.027943826781526654
731.0, 0.029685511766535486
732.0, 0.026916501040561765
733.0, 0.02194526535791193
734.0, 0.017212028457758734
735.0, 0.016824392905467
736.0, 0.01872021245021972
737.0, 0.020224779663309867
738.0, 0.020194659318873768
739.0, 0.018076796071020185
740.0, 0.018534631895215432
741.0, 0.015851799877327433
742.0, 0.016611823559169743
743.0, 0.02094985715542857
744.0, 0.02000898161836203
745.0, 0.0184931171719304
746.0, 0.017683248057454866
747.0, 0.015863791675649653
748.0, 0.01083072675483232
749.0, 0.013258406127277795
750.0, 0.011723764864928828
751.0, 0.011749273419573499
752.0, 0.014783089724631424
753.0, 0.012690245223391084
754.0, 0.012721171531725172
755.0, 0.014069119470875129
756.0, 0.013946201638927064
757.0, 0.008065362063051317
758.0, 0.015276505154531177
759.0, 0.011120514024741197
760.0, 0.008423759253058574
761.0, 0.01390413560595465
762.0, 0.010359711163932465
763.0, 0.01359060594936553
764.0, 0.016802813337773562
765.0, 0.016335022153105186
766.0, 0.008485879736513628
767.0, 0.018335666022234205
768.0, 0.016592500898728418
769.0, 0.01600394106174859
770.0, 0.025576148165863937
771.0, 0.025923311154350117
772.0, 0.026049441185541006
773.0, 0.032986016592036545
774.0, 0.044067564262738154
775.0, 0.04842665426526513
776.0, 0.06616692220928971
777.0, 0.0806122981119065
778.0, 0.09371971001747342
779.0, 0.10699761921091588
780.0, 0.11034070592686218
781.0, 0.10247140646552563
782.0, 0.08685123931170548
783.0, 0.06784806173171269
784.0, 0.053101269035845944
785.0, 0.04161914082539621
786.0, 0.03399884637897452
787.0, 0.02697040066860124
788.0, 0.0189048291398339
789.0, 0.02214481493316262
790.0, 0.024156995303429327
791.0, 0.018556049741199662
792.0, 0.010228451537489289
793.0, 0.014847754909410066
794.0, 0.0049053641042021015
795.0, 0.0022518474024724217
796.0, 0.005289750719726179
797.0, 0.010057231045108661
798.0, 0.005790810331271772
799.0, 0.0029826743696386077
800.0, 0.0018118373449751946
801.0, 0.0021310314699353383
802.0, 0.003475232623367579
803.0, 0.0008923715435647663
804.0, 0.005055747690024245
805.0, 0.007911167153076274
806.0, 0.004801670726428824
807.0, 0.006892319559202905
808.0, 0.003891047455433003
809.0, 0.0013841518056181867
810.0, 0.00038527974630432263
811.0, 0.00022515406862487518
812.0, 0.003923597249484266
813.0, 0.0034739055356322462
814.0, 0.003889303072797824
815.0, 0.006604582752892884
816.0, 0.0030448406539926327
817.0, 0.0016722446463433567
818.0, 0.0014048212577346785
819.0, 0.0014962784563327552
820.0, 0.0012045703765786887
821.0, 0.0021278765335023347
822.0, 0.0013862732351197446
823.0, 0.0021187232898075416
824.0, 0.0044141950168285855
825.0, 0.003392741259615672
826.0, 0.0018246230617764499
827.0, 0.0009103509340892208
828.0, 0.0014151753288848858
829.0, 0.003776482402426375
830.0, 0.006110393942225103
831.0, 0.007491536606067921
832.0, 0.008905316628531598
833.0, 0.01019776421291181
834.0, 0.010231608434569913
835.0, 0.009599043901525802
836.0, 0.00902241990564914
837.0, 0.00654711716770767
838.0, 0.0017812993098762927
839.0, 0.0011699802570004126
840.0, 0.000980178267994181
841.0, 0.005747388303020373
842.0, 0.009695798678963807
843.0, 0.00297013082256784
844.0, 0.0019779918642155356
845.0, 0.003807546089514929
846.0, 0.0040690951797476595
847.0, 0.0019391754773340792
848.0, 0.002224297680673318
849.0, 0.004184371694415869
850.0, 0.005410605656700316
851.0, 0.005503987762520735
852.0, 0.0043842015213525175
853.0, 0.002082882421502816
854.0, 0.001393355383723071
855.0, 0.00103860260140824
856.0, 0.0007267222177094627
857.0, 0.0006363502613817039
858.0, 0.0013511261979774823
859.0, 0.0012795095814302447
860.0, 0.0029657780168265125
861.0, 0.00657428148000751
862.0, 0.006375086723092738
863.0, 0.00278034118908285
864.0, 0.004879345118248824
865.0, 0.006761516371787731
866.0, 0.0014232046660525724
867.0, 0.001794581223281139
868.0, 0.0022290182346790116
869.0, 0.005280151494360425
870.0, 0.008304027122744638
871.0, 0.004262827290497943
872.0, 0.00574128737723138
873.0, 0.005058295023849085
874.0, 0.005162504555517051
875.0, 0.006696693461264809
876.0, 0.00414477443892062
877.0, 0.0038350512222535813
878.0, 0.005432074622761806
879.0, 0.00701730931028148
880.0, 0.006896338597025059
881.0, 0.008774741326892061
882.0, 0.01056509334689203
883.0, 0.012365714432960145
884.0, 0.014578401347727936
885.0, 0.01784850846633212
886.0, 0.020656801254191167
887.0, 0.02290463526271179
888.0, 0.026367865878226482
889.0, 0.029974057412066983
890.0, 0.02680455002103823
891.0, 0.017122716181017805
892.0, 0.01765507570381399
893.0, 0.018565295526116417
894.0, 0.011577095904850846
895.0, 0.01347557238833268
896.0, 0.008208233609326382
897.0, 0.005586229271695923
898.0, 0.00862043745994673
899.0, 0.0170812484454633
900.0, 0.007610611364324123
901.0, 0.007483660625678207
902.0, 0.0074878851384825905
903.0, 0.00629724531959071
904.0, 0.009997590804345001
905.0, 0.0103753938281709
906.0, 0.00830702281408508
907.0, 0.008080197521821682
908.0, 0.010602569940936021
909.0, 0.008110608780449823
910.0, 0.003999880820437523
911.0, 0.005483875153298062
912.0, 0.008800757330315143
913.0, 0.0092910429053623
914.0, 0.008223929725222633
915.0, 0.008404958309997572
916.0, 0.007664800305784869
917.0, 0.006868965948860352
918.0, 0.007975201292136636
919.0, 0.008672405058617633
920.0, 0.009742547545328321
921.0, 0.008544707336139665
922.0, 0.0060226962692328774
923.0, 0.006548770686184838
924.0, 0.005981161123590643
925.0, 0.00578459440644799
926.0, 0.005872448633022106
927.0, 0.006225725088736614
928.0, 0.0070571948274746315
929.0, 0.00886157063338896
930.0, 0.009127012121033654
931.0, 0.01069836047829664
932.0, 0.01414371557892998
933.0, 0.008485690081489604
934.0, 0.0055194587111649695
935.0, 0.00910576231448757
936.0, 0.010485494430131722
937.0, 0.0019985225018347326
938.0, 0.01458759429711474
939.0, 0.011980978053879994
940.0, 0.010463986581036847
941.0, 0.011490388954744012
942.0, 0.010335198649351826
943.0, 0.011807044090333394
944.0, 0.013096924108878584
945.0, 0.01279552301729942
946.0, 0.01234715267336425
947.0, 0.015834998438758758
948.0, 0.014975808975170701
949.0, 0.013939677805700915
950.0, 0.012786936086182534
951.0, 0.011755423864025704
952.0, 0.011463415112090139
953.0, 0.012732381906414
954.0, 0.01336447000012506
955.0, 0.01374686908841167
956.0, 0.014488231553870797
957.0, 0.016492577534572145
958.0, 0.016402355229227023
959.0, 0.016924601191861455
960.0, 0.018584092742542274
961.0, 0.019783198786961997
962.0, 0.0110084676754153
963.0, 0.012824389501552432
964.0, 0.01752395082604942
965.0, 0.0198934058495915
966.0, 0.01759093864867275
967.0, 0.024394508415899383
968.0, 0.02263332995335768
969.0, 0.02052760296443101
970.0, 0.021047019256501785
971.0, 0.024650418053470163
972.0, 0.021996471663014272
973.0, 0.03025296697288347
974.0, 0.03454325313537355
975.0, 0.036175762755422586
976.0, 0.04337806792421564
977.0, 0.0482526407586134
978.0, 0.04678173920461343
979.0, 0.05572576925387927
980.0, 0.07106433735332444
981.0, 0.07560730464130222
982.0, 0.09526337803766774
983.0, 0.12942954447592092
984.0, 0.15318924461606137
985.0, 0.16617275941466136
986.0, 0.18932609234334585
987.0, 0.1874197565314535
988.0, 0.16988010749429477
989.0, 0.156479133083841
990.0, 0.15103084074977638
991.0, 0.1396082185934041
992.0, 0.13175949211092863
993.0, 0.12245394662457725
994.0, 0.11159358764877653
995.0, 0.09943364456714951
996.0, 0.08655085918312981
997.0, 0.07874088896664286
998.0, 0.07569968343087174
999.0, 0.0677959138253027
1000.0, 0.05471333398324646
1001.0, 0.051544156965127284
1002.0, 0.03766720485889606
1003.0, 0.03533025862288127
1004.0, 0.036731846673860105
1005.0, 0.03596332717492741
1006.0, 0.03291930819273052
1007.0, 0.03448628816243957
1008.0, 0.031315388111358367
1009.0, 0.02904141805369384
1010.0, 0.0306888659615503
1011.0, 0.03268768907046353
1012.0, 0.03476582889189546
1013.0, 0.03681738709168411
1014.0, 0.03822195688657758
1015.0, 0.038578812347774716
1016.0, 0.03788929989191209
1017.0, 0.03923348705239828
1018.0, 0.04137150784517897
1019.0, 0.0411081199133045
1020.0, 0.03999690852674585
1021.0, 0.04991963057688075
1022.0, 0.05192033244347475
1023.0, 0.05584670074440648
1024.0, 0.06296083347427138
1025.0, 0.07114907871435515
1026.0, 0.07274047228310225
1027.0, 0.08444427295136331
1028.0, 0.09536822778442268
1029.0, 0.11166806386168832
1030.0, 0.1331193602271829
1031.0, 0.14552089293001566
1032.0, 0.16282417219390227
1033.0, 0.18877149657515843
1034.0, 0.2312020759697042
1035.0, 0.2879850035915256
1036.0, 0.34038194878222927
1037.0, 0.40759417963652783
1038.0, 0.4778272752339506
1039.0, 0.5357652915412555
1040.0, 0.5687826920923102
1041.0, 0.5671267837814483
1042.0, 0.5042595142590969
1043.0, 0.4391682151847512
1044.0, 0.37391784543354345
1045.0, 0.3095300065376584
1046.0, 0.24782649530479145
1047.0, 0.201742108707797
1048.0, 0.1657924544422215
1049.0, 0.14070906930949786
1050.0, 0.12148666607782489
1051.0, 0.09747801912346213
1052.0, 0.09137665307507949
1053.0, 0.08403448682275957
1054.0, 0.07276222103567183
1055.0, 0.06022453929961307
1056.0, 0.053494735313658386
1057.0, 0.05896136525537375
1058.0, 0.05282894413829817
1059.0, 0.04664270305396322
1060.0, 0.042910702078391344
1061.0, 0.038861983377119054
1062.0, 0.03809437294127739
1063.0, 0.038346348944441846
1064.0, 0.035490596805386
1065.0, 0.03187269231724043
1066.0, 0.031630034484086474
1067.0, 0.027220174574457943
1068.0, 0.03183991113707689
1069.0, 0.028716758522588988
1070.0, 0.02397137285063755
1071.0, 0.028016474582873898
1072.0, 0.03217054333578819
1073.0, 0.027021300126081116
1074.0, 0.025534872427576683
1075.0, 0.026704937230884827
1076.0, 0.026597389211913135
1077.0, 0.02210079180566577
1078.0, 0.027313551174276602
1079.0, 0.034550755839959875
1080.0, 0.03764263494227212
1081.0, 0.03505493779327576
1082.0, 0.03556719268133063
1083.0, 0.0343089688072764
1084.0, 0.03167416572636543
1085.0, 0.027283272200744585
1086.0, 0.021631880206353066
1087.0, 0.016550021851756906
1088.0, 0.018538072234822792
1089.0, 0.01667324006541829
1090.0, 0.015290573838183365
1091.0, 0.014946252170657377
1092.0, 0.01244949416289542
1093.0, 0.013673821424777579
1094.0, 0.010892626724685958
1095.0, 0.0110090386320007
1096.0, 0.012122764648535874
1097.0, 0.008475149236413178
1098.0, 0.00906485801953009
1099.0, 0.008428952942550987
1100.0, 0.010914213698811239
1101.0, 0.012005160172351351
1102.0, 0.007521814596023517
1103.0, 0.01042442159544793
1104.0, 0.008010754234919983
1105.0, 0.010415799956850897
1106.0, 0.00956312884572472
1107.0, 0.002888629471102426
1108.0, 0.011497411023451132
1109.0, 0.008808717745798758
1110.0, 0.009067996064326117
1111.0, 0.009043421962266441
1112.0, 0.006641977460868786
1113.0, 0.00349249333860774
1114.0, 0.00792708734291374
1115.0, 0.007311020180164388
1116.0, 0.004797911014130499
1117.0, 0.00347437691255613
1118.0, 0.0056584296136204
1119.0, 0.0071864075516432655
1120.0, 0.0035402050000985963
1121.0, 0.005037400386846686
1122.0, 0.008593710349847962
1123.0, 0.007329407700123742
1124.0, 0.004526864343661539
1125.0, 0.008533731709183973
1126.0, 0.005254077753963846
1127.0, 0.004688943347263823
1128.0, 0.011107659347489937
1129.0, 0.002321305906091588
1130.0, 0.0038511331972290543
1131.0, 0.003216960619883731
1132.0, 0.0016774811434463438
1133.0, 0.0015293879405070168
1134.0, 0.004869425501650791
1135.0, 0.0048478465273667035
1136.0, 0.009275209150819697
1137.0, 0.009218077735051329
1138.0, 0.006383042570704407
1139.0, 0.007262536825600922
1140.0, 0.0041765512626709255
1141.0, 0.0013624060460299355
1142.0, 0.0003113439160647445
1143.0, 0.0008968992001100331
1144.0, 0.00238212107671232
1145.0, 0.003702033019146507
1146.0, 0.005843852058523311
1147.0, 0.0051990915595607244
1148.0, 0.004227064136366673
1149.0, 0.0044994870523356705
1150.0, 0.00544037923330434
1151.0, 0.0012605614147674449
1152.0, 0.004589833013342969
1153.0, 0.0076598724354906295
1154.0, 0.006456655422536615
1155.0, 0.0013068870197962168
1156.0, 0.006077990448197198
1157.0, 0.006063239976262562
1158.0, 0.00459035368329369
1159.0, 0.002754420056878353
1160.0, 0.0023195723593570756
1161.0, 0.008340285744576686
1162.0, 0.004222123040658131
1163.0, 0.006981403385319377
1164.0, 0.0071384786807915344
1165.0, 0.004304320059934555
1166.0, 0.00920679585270242
1167.0, 0.0034067217381576896
1168.0, 0.007380617599818802
1169.0, 0.010211002079063197
1170.0, 0.009496578970008008
1171.0, 0.006928379384906096
1172.0, 0.004136912163602259
1173.0, 0.003211015594894897
1174.0, 0.0032159642395102593
1175.0, 0.006669301766648168
1176.0, 0.012115695477896064
1177.0, 0.010710182072913452
1178.0, 0.006498935358790581
1179.0, 0.0091109042349496
1180.0, 0.007591016301404838
1181.0, 0.003436577614321027
1182.0, 0.005498853920696361
1183.0, 0.010884500131207828
1184.0, 0.013966116175255564
1185.0, 0.014775886876440547
1186.0, 0.011015434379823408
1187.0, 0.004995249961207185
1188.0, 0.010555650298962237
1189.0, 0.010222183139743003
1190.0, 0.007026067698241515
1191.0, 0.006682495593193146
1192.0, 0.009798422003202635
1193.0, 0.012148724872369399
1194.0, 0.006897527671846561
1195.0, 0.007075404866245178
1196.0, 0.009379060838272014
1197.0, 0.011605102071333459
1198.0, 0.011175861738051063
1199.0, 0.003678696539819353
1200.0, 0.01333266630968976
1201.0, 0.012931637192933398
1202.0, 0.013073360482922807
1203.0, 0.01644585870690991
1204.0, 0.016434687928583606
1205.0, 0.010863326015352354
1206.0, 0.011353404687718756
1207.0, 0.011604940647734171
1208.0, 0.008209932093032083
1209.0, 0.002774596243731248
1210.0, 0.007530382398513839
1211.0, 0.014732204064571944
1212.0, 0.012900143302709752
1213.0, 0.011493427569508663
1214.0, 0.012640922490660383
1215.0, 0.011492206528003965
1216.0, 0.010785156454235827
1217.0, 0.01072087983440726
1218.0, 0.010149984425582301
1219.0, 0.011151471266688138
1220.0, 0.013541032372313296
1221.0, 0.010262690371903919
1222.0, 0.012580287622445096
1223.0, 0.009646275555702289
1224.0, 0.0098068394892462
1225.0, 0.014082497093543079
1226.0, 0.016759827231265484
1227.0, 0.006730632819913433
1228.0, 0.006698074360386423
1229.0, 0.01023918539994359
1230.0, 0.011823521268800763
1231.0, 0.010654504807272843
1232.0, 0.013404810301169922
1233.0, 0.0076595673553535165
1234.0, 0.010017774780543165
1235.0, 0.010890164254050051
1236.0, 0.008941617337955616
1237.0, 0.007786648840427168
1238.0, 0.012446165572248256
1239.0, 0.009035615576249057
1240.0, 0.012199938515047002
1241.0, 0.016515290341446047
1242.0, 0.016518896687827488
1243.0, 0.010713069603062165
1244.0, 0.010937517431895593
1245.0, 0.00816562869867262
1246.0, 0.010035093979848352
1247.0, 0.013280069342093997
1248.0, 0.012532296062579787
1249.0, 0.005988151898311212
1250.0, 0.018176484562357285
1251.0, 0.011546970766276985
1252.0, 0.007932037493423227
1253.0, 0.01085409359780864
1254.0, 0.011085998770921984
1255.0, 0.007295436099089642
1256.0, 0.0074136853985221065
1257.0, 0.004676451660267596
1258.0, 0.002092844400103367
1259.0, 0.0015812619529697739
1260.0, 0.0016800266721148098
1261.0, 0.0005636274702814856
1262.0, 0.003339201369253103
1263.0, 0.006646582836534716
1264.0, 0.010498882025240606
1265.0, 0.01350010164585062
1266.0, 0.008579715307518191
1267.0, 0.010927532774865585
1268.0, 0.009236602186520993
1269.0, 0.00900929969579623
1270.0, 0.0077071075352071975
1271.0, 0.0016530323542544053
1272.0, 0.006018232017880949
1273.0, 0.007490092867594707
1274.0, 0.0039205818164130555
1275.0, 0.0014053643764745094
1276.0, 0.003611313728724101
1277.0, 0.008881338415291623
1278.0, 0.001211368045866146
1279.0, 0.005754665748497649
1280.0, 0.007523967764487078
1281.0, 0.007558050641625325
1282.0, 0.007712368870998835
1283.0, 0.00482131497969045
1284.0, 0.0018743934322471942
1285.0, 0.006056471986431814
1286.0, 0.00704257566315525
1287.0, 0.004254108123509141
1288.0, 0.0015318249921151984
1289.0, 0.0027326520723634892
1290.0, 0.0015968773685764498
1291.0, 0.004662574590111822
1292.0, 0.0038094844706221364
1293.0, 0.0014197760153585835
1294.0, 0.003976266409905889
1295.0, 0.004836698688063057
1296.0, 0.006764511087586132
1297.0, 0.007062686202627831
1298.0, 0.004388515912310163
1299.0, 0.002247330886577947
1300.0, 0.005700887370399819
1301.0, 0.001993638995586325
1302.0, 0.0025269854612133573
1303.0, 0.0016459650648721772
1304.0, 0.0016220694710855255
1305.0, 0.0027291940855398533
1306.0, 0.0015235984154911243
1307.0, 0.0013496505880827574
1308.0, 0.00354451171147089
1309.0, 0.0023416433807451707
1310.0, 0.0038765134976218273
1311.0, 0.008398406231188245
1312.0, 0.0026712228890326778
1313.0, 0.006108423121305825
1314.0, 0.007336448093730928
1315.0, 0.006032030297326173
1316.0, 0.003251354419551508
1317.0, 0.0015780998137281419
1318.0, 0.005303588985397923
1319.0, 0.004085140255999483
1320.0, 0.005619932489601787
1321.0, 0.0038908002319662104
1322.0, 0.001429789489469963
1323.0, 0.0018342024309355247
1324.0, 0.0005958328550754824
1325.0, 0.000847366314034396
1326.0, 0.007026890937033199
1327.0, 0.006276001863270934
1328.0, 0.003696340628451964
1329.0, 0.007501809853378467
1330.0, 0.0019383818063751427
1331.0, 0.004394724842428197
1332.0, 0.0037419004272175697
1333.0, 0.001905017750944392
1334.0, 0.0009059527214726494
1335.0, 0.0018342767219838144
1336.0, 0.004296758699545161
1337.0, 0.0055618546680184485
1338.0, 0.005685287991304214
1339.0, 0.004585362377061726
1340.0, 0.004559284844608741
1341.0, 0.006814910506327638
1342.0, 0.0014339911243907415
1343.0, 0.002096503963034231
1344.0, 0.0019323035260312344
1345.0, 0.005209463575398518
1346.0, 0.008051489946213065
1347.0, 0.004388319699734404
1348.0, 0.008373326342604416
1349.0, 0.008494883397077149
1350.0, 0.004184027190817589
1351.0, 0.006017778990924566
1352.0, 0.011513606683271166
1353.0, 0.01117213357660776
1354.0, 0.013860564265513214
1355.0, 0.009658103371303376
1356.0, 0.003930937735637699
1357.0, 0.005574473120757654
1358.0, 0.010997889816580083
1359.0, 0.009895382811324937
1360.0, 0.005849645019163341
1361.0, 0.010530122933289492
1362.0, 0.008165746472883036
1363.0, 0.006863084675678124
1364.0, 0.008484084842211002
1365.0, 0.00984895588178983
1366.0, 0.013569746774382744
1367.0, 0.013478600914992494
1368.0, 0.014253583875121127
1369.0, 0.013884893878254983
1370.0, 0.012836738841440461
1371.0, 0.013037062939398374
1372.0, 0.01435118394092241
1373.0, 0.013117816272235986
1374.0, 0.010116257842790721
1375.0, 0.009986637880241844
1376.0, 0.010599448489611139
1377.0, 0.008396199210975468
1378.0, 0.008272828512760115
1379.0, 0.007236207706206522
1380.0, 0.012187370420233618
1381.0, 0.010954989029498189
1382.0, 0.009212260149879171
1383.0, 0.014054306258047695
1384.0, 0.012395707416182847
1385.0, 0.016638521323446235
1386.0, 0.014866557297836475
1387.0, 0.009655591067291363
1388.0, 0.011014751737744325
1389.0, 0.01933267855487963
1390.0, 0.012736328768638987
1391.0, 0.018027393150013712
1392.0, 0.011864013293959492
1393.0, 0.010075700652614239
1394.0, 0.012717708434160046
1395.0, 0.014608799966843989
1396.0, 0.012155107748962807
1397.0, 0.011425991470160799
1398.0, 0.015120851394559634
1399.0, 0.016811864134157594
1400.0, 0.014355263778477645
1401.0, 0.012684888782621272
1402.0, 0.02006317405254819
1403.0, 0.018450631753988013
1404.0, 0.010963819357297023
1405.0, 0.007357140695807126
1406.0, 0.010626257503718883
1407.0, 0.012798361968075017
1408.0, 0.004538120481762722
1409.0, 0.009494635005606062
1410.0, 0.016696418647328435
1411.0, 0.010675547142669158
1412.0, 0.010261693007289728
1413.0, 0.01362609860014389
1414.0, 0.009573662448332099
1415.0, 0.0071627202367163315
1416.0, 0.011434714104970062
1417.0, 0.010975580588581927
1418.0, 0.009259472942358139
1419.0, 0.009444651589656019
1420.0, 0.011179825084314018
1421.0, 0.0088935876209057
1422.0, 0.0076685374054028255
1423.0, 0.007417886162494794
1424.0, 0.010707746528283015
1425.0, 0.012146032243224678
1426.0, 0.00962354406761571
1427.0, 0.007713640531367778
1428.0, 0.00485549994885079
1429.0, 0.009170133574627435
1430.0, 0.006216382573779253
1431.0, 0.003923161558892319
1432.0, 0.006629133064945976
1433.0, 0.01079655983020055
1434.0, 0.008271636498671256
1435.0, 0.0039863041296514514
1436.0, 0.00924707680902503
1437.0, 0.015776826727393115
1438.0, 0.016225073963003322
1439.0, 0.010602574828669884
1440.0, 0.010773810987477019
1441.0, 0.009315832978815152
1442.0, 0.009951509464727445
1443.0, 0.00695283234929492
1444.0, 0.008052050141470446
1445.0, 0.012406992406911623
1446.0, 0.006504193286396174
1447.0, 0.012141226261787855
1448.0, 0.009934889398497024
1449.0, 0.010270475682684093
1450.0, 0.006304565227368134
1451.0, 0.0046307671829409446
1452.0, 0.01468362165156292
1453.0, 0.012104313519602884
1454.0, 0.01006205493033174
1455.0, 0.015477907576413695
1456.0, 0.009051989744920318
1457.0, 0.005502605659711574
1458.0, 0.015982354713687877
1459.0, 0.01744375937813647
1460.0, 0.009164734163159695
1461.0, 0.013469258378731128
1462.0, 0.009146251079882794
1463.0, 0.006171834254983999
1464.0, 0.010234497704625149
1465.0, 0.014491828148551543
1466.0, 0.00955294719883322
1467.0, 0.011257014056493283
1468.0, 0.01701854482741209
1469.0, 0.014582320219481689
1470.0, 0.010443399916011328
1471.0, 0.013295842246460297
1472.0, 0.014019888795006631
1473.0, 0.0018325944181548344
1474.0, 0.012562696986727078
1475.0, 0.011168220654250171
1476.0, 0.005813102126864429
1477.0, 0.006539212261605091
1478.0, 0.010850959925346628
1479.0, 0.00891345998943448
1480.0, 0.005966252447304398
1481.0, 0.006628101344642865
1482.0, 0.004765033548349925
1483.0, 0.003047148191949025
1484.0, 0.005287989153809208
1485.0, 0.00692097876180473
1486.0, 0.0039860688270348405
1487.0, 0.003775021204837187
1488.0, 0.009084776913200466
1489.0, 0.008585041333583171
1490.0, 0.002011150364061161
1491.0, 0.00023998767066869006
1492.0, 0.0014960929946057813
1493.0, 0.0002826080412074981
1494, 0.0
1495, 0.0
1496, 0.0
1497, 0.0
1498, 0.0
1499, 0.0
1500, 0.0
1501, 0.0
1502, 0.0
1503, 0.0
1504, 0.0
1505, 0.0
1506, 0.0
1507, 0.0
1508, 0.0
1509, 0.0
1510, 0.0
1511, 0.0
1512, 0.0
1513, 0.0
1514, 0.0
1515, 0.0
1516, 0.0
1517, 0.0
1518, 0.0
1519, 0.0
1520, 0.0
1521, 0.0
1522, 0.0
1523, 0.0
1524, 0.0
1525, 0.0
1526, 0.0
1527, 0.0
1528, 0.0
1529, 0.0
1530, 0.0
1531, 0.0
1532, 0.0
1533, 0.0
1534, 0.0
1535, 0.0
1536, 0.0
1537, 0.0
1538, 0.0
1539, 0.0
1540, 0.0
1541, 0.0
1542, 0.0
1543, 0.0
1544, 0.0
1545, 0.0
1546, 0.0
1547, 0.0
1548, 0.0
1549, 0.0
1550, 0.0
1551, 0.0
1552, 0.0
1553, 0.0
1554, 0.0
1555, 0.0
1556, 0.0
1557, 0.0
1558, 0.0
1559, 0.0
1560, 0.0
1561, 0.0
1562, 0.0
1563, 0.0
1564, 0.0
1565, 0.0
1566, 0.0
1567, 0.0
1568, 0.0
1569, 0.0
1570, 0.0
1571, 0.0
1572, 0.0
1573, 0.0
1574, 0.0
1575, 0.0
1576, 0.0
1577, 0.0
1578, 0.0
1579, 0.0
1580, 0.0
1581, 0.0
1582, 0.0
1583, 0.0
1584, 0.0
1585, 0.0
1586, 0.0
1587, 0.0
1588, 0.0
1589, 0.0
1590, 0.0
1591, 0.0
1592, 0.0
1593, 0.0
1594, 0.0
1595, 0.0
1596, 0.0
1597, 0.0
1598, 0.0
1599, 0.0
