30, 0.0
31, 0.0
32, 0.0
33, 0.0
34, 0.0
35, 0.0
36, 0.0
37, 0.0
38, 0.0
39, 0.0
40, 0.0
41, 0.0
42, 0.0
43, 0.0
44, 0.0
45, 0.0
46, 0.0
47, 0.0
48, 0.0
49, 0.0
50, 0.0
51, 0.0
52, 0.0
53, 0.0
54, 0.0
55, 0.0
56, 0.0
57, 0.0
58, 0.0
59, 0.0
60, 0.0
61, 0.0
62, 0.0
63, 0.0
64, 0.0
65, 0.0
66, 0.0
67, 0.0
68, 0.0
69, 0.0
70, 0.0
71, 0.0
72, 0.0
73, 0.0
74, 0.0
75, 0.0
76, 0.0
77, 0.0
78, 0.0
79, 0.0
80, 0.0
81, 0.0
82, 0.0
83, 0.0
84, 0.0
85, 0.0
86, 0.0
87, 0.0
88, 0.0
89, 0.0
90, 0.0
91, 0.0
92, 0.0
93, 0.0
94, 0.0
95, 0.0
96, 0.0
97, 0.0
98, 0.0
99, 0.0
100, 0.0
101, 0.0
102, 0.0
103, 0.0
104, 0.0
105, 0.0
106, 0.0
107, 0.0
108, 0.0
109, 0.0
110, 0.0
111, 0.0
112, 0.0
113.0, 0.00019621377011882438
114.0, 0.0038298021056524783
115.0, 0.005182232752572448
116.0, 0.005155270145402918
117.0, 0.004077141505377598
118.0, 0.002418853069885573
119.0, 0.0025400921295082673
120.0, 0.0031729992881075844
121.0, 0.002265760379593769
122.0, 0.002888831978594403
123.0, 0.006659818649541824
124.0, 0.008629798944543196
125.0, 0.009474509620852042
126.0, 0.012387151650115216
127.0, 0.01504981646385857
128.0, 0.01698797033710184
129.0, 0.02071914233567444
130.0, 0.01854011051725914
131.0, 0.01626861719941219
132.0, 0.013235674482816807
133.0, 0.009476124120767267
134.0, 0.005874485827318962
135.0, 0.0071626462475477895
136.0, 0.007654658651150176
137.0, 0.009959424548043513
138.0, 0.013958070913417048
139.0, 0.01881508418166068
140.0, 0.024702267767164252
141.0, 0.030397620048808926
142.0, 0.035811946154694976
143.0, 0.04185717794020211
144.0, 0.047801917211117796
145.0, 0.049852934799317586
146.0, 0.051286132282756865
147.0, 0.045304558151980215
148.0, 0.036327681569180106
149.0, 0.026524751801046985
150.0, 0.016151564759399117
151.0, 0.01070943034314055
152.0, 0.007850593898665808
153.0, 0.004644605870260134
154.0, 0.00226512112567447
155.0, 0.0023796586005540737
156.0, 0.0023994236435333116
157.0, 0.0019772514179953304
158.0, 0.0012027932350132443
159.0, 0.0004409537133560148
160.0, 0.00017544963494130634
161.0, 0.000989170359192246
162.0, 0.002142414002313044
163.0, 0.0027118018165790663
164.0, 0.003234329944529963
165.0, 0.0029037019404847255
166.0, 0.00048653470576644957
167.0, 0.0011203490816345978
168.0, 0.0018757981333755523
169.0, 0.0016903412024805563
170.0, 0.0008246247646690889
171.0, 0.0004305424076497665
172.0, 0.0031883407444890798
173.0, 0.0013265659031341508
174.0, 0.00041302643536197297
175.0, 0.00039342237453780755
176.0, 0.0011033264156321532
177.0, 0.002873512533186562
178.0, 0.002646353408121448
179.0, 0.004038595360425518
180.0, 0.005454225926577312
181.0, 0.006821142968495554
182.0, 0.008778891316754186
183.0, 0.011262743970980078
184.0, 0.01358474856932816
185.0, 0.016386704660354436
186.0, 0.019325621299398514
187.0, 0.022568498963993537
188.0, 0.02762911531630916
189.0, 0.04135927660355944
190.0, 0.05382796048268882
191.0, 0.06842838868017603
192.0, 0.08554581638645894
193.0, 0.10245376441082236
194.0, 0.11169669626749981
195.0, 0.11147797271646182
196.0, 0.1117589380344586
197.0, 0.11767678148676482
198.0, 0.13229049521626132
199.0, 0.1572219616688823
200.0, 0.18858719161801157
201.0, 0.23209835423084663
202.0, 0.27750445376890853
203.0, 0.3186777575715353
204.0, 0.35283219866748494
205.0, 0.347797468293656
206.0, 0.3155742572924038
207.0, 0.26757046758608405
208.0, 0.21158204345402618
209.0, 0.154420532720527
210.0, 0.10236280854696378
211.0, 0.06987367658213094
212.0, 0.0461360247743068
213.0, 0.03130835655908195
214.0, 0.0233706967961702
215.0, 0.017716651668090885
216.0, 0.013444109994738114
217.0, 0.014793049648370858
218.0, 0.015390434114413184
219.0, 0.015850991402965357
220.0, 0.017962499982991688
221.0, 0.019650938374726423
222.0, 0.02274673539122496
223.0, 0.022015242725540906
224.0, 0.020453737978556204
225.0, 0.018461997103254427
226.0, 0.013571953441063798
227.0, 0.008377958241542577
228.0, 0.007306961298091902
229.0, 0.0037728666245246075
230.0, 0.0009534485936264457
231.0, 0.0021107646291582253
232.0, 0.002479450275704468
233.0, 0.0016976987165768067
234.0, 0.0006761460914359919
235.0, 0.001162235242606968
236.0, 0.002393989751629125
237.0, 0.0019303963178736768
238.0, 0.0014663270473665709
239.0, 0.0016047158814711815
240.0, 0.001186552300257179
241.0, 0.0007753734626038635
242.0, 0.001480407818852788
243.0, 0.004558705006068346
244.0, 0.00786867556953653
245.0, 0.011998270041515834
246.0, 0.019386777189041023
247.0, 0.027149065742594104
248.0, 0.03095334840226015
249.0, 0.03731923363024579
250.0, 0.048052674682116873
251.0, 0.06364812848369301
252.0, 0.08025111991748159
253.0, 0.0957396814362065
254.0, 0.11158303982220828
255.0, 0.12466432574408111
256.0, 0.1290923305853332
257.0, 0.12254618003371007
258.0, 0.10506148514790949
259.0, 0.07989887631883001
260.0, 0.05637291074079022
261.0, 0.035404923013791556
262.0, 0.020854301990914214
263.0, 0.011184385672530193
264.0, 0.0050699072552091995
265.0, 0.0020811035736221467
266.0, 0.0038811245003700116
267.0, 0.0015756078956711656
268.0, 0.0008984888083663589
269.0, 0.0015357472668092954
270.0, 0.00208437807218742
271.0, 0.0019433454501642518
272.0, 0.0013704996204852683
273.0, 0.0016496780003474854
274.0, 0.0020189874798496378
275.0, 0.002472675252288106
276.0, 0.002903868708794948
277.0, 0.0012675053817569667
278.0, 0.0025207820350865028
279.0, 0.00503779361031912
280.0, 0.007642695993614231
281.0, 0.010362899890306662
282.0, 0.014079678945893435
283.0, 0.017120606559666737
284.0, 0.021619661272344094
285.0, 0.02596406905704988
286.0, 0.030356049940210027
287.0, 0.03553922019020414
288.0, 0.04231319151433361
289.0, 0.04847786520510502
290.0, 0.05768986525369181
291.0, 0.06449219888218588
292.0, 0.06943042181588187
293.0, 0.07437464756694832
294.0, 0.07659432583414567
295.0, 0.07669558981817974
296.0, 0.07756786326042087
297.0, 0.08240086786109123
298.0, 0.08890770500163339
299.0, 0.09303760163701665
300.0, 0.10479526685881375
301.0, 0.12011165490607474
302.0, 0.1385408800984507
303.0, 0.1605480453574068
304.0, 0.18565429750869886
305.0, 0.21269998407295815
306.0, 0.2482407755187263
307.0, 0.28509924885948695
308.0, 0.3255668052454826
309.0, 0.3577853379233592
310.0, 0.37186920371061094
311.0, 0.3695980723178626
312.0, 0.3476680401667721
313.0, 0.3085955234283895
314.0, 0.26424455982789236
315.0, 0.22208288269030987
316.0, 0.18624301137919674
317.0, 0.15846315511230033
318.0, 0.14245463057623373
319.0, 0.1378405136589216
320.0, 0.1377058261045042
321.0, 0.1405239550113144
322.0, 0.14852757897102462
323.0, 0.16268408537456794
324.0, 0.17985108452930573
325.0, 0.20160916233912599
326.0, 0.22484524841464312
327.0, 0.24497956986384944
328.0, 0.2576288726448075
329.0, 0.2621004795269312
330.0, 0.25376743228968845
331.0, 0.22382580990731354
332.0, 0.18453778251576355
333.0, 0.14629288202035456
334.0, 0.11140981059488435
335.0, 0.08676925663252598
336.0, 0.06533537576579335
337.0, 0.050718146576881944
338.0, 0.04184680091416855
339.0, 0.03624358731907582
340.0, 0.0315899078976587
341.0, 0.025547818029585445
342.0, 0.0220763492108674
343.0, 0.020705238217805424
344.0, 0.019120964438307114
345.0, 0.016625983498559288
346.0, 0.016854035162086223
347.0, 0.019251695505542107
348.0, 0.019385240605897667
349.0, 0.020397838303952604
350.0, 0.02104832651570211
351.0, 0.020839585927449392
352.0, 0.025680862202062844
353.0, 0.030515036905388995
354.0, 0.034152439096497615
355.0, 0.03949864690276885
356.0, 0.04812130590205918
357.0, 0.05902671867458262
358.0, 0.0665484482612908
359.0, 0.08423130047676983
360.0, 0.10406553577019145
361.0, 0.13053927290512976
362.0, 0.1641825752803054
363.0, 0.20387807109376768
364.0, 0.2524770122471124
365.0, 0.30323709330521836
366.0, 0.3558969979200245
367.0, 0.4077193445468564
368.0, 0.4630497848023646
369.0, 0.5292639549976732
370.0, 0.6084495449520836
371.0, 0.7024558775068342
372.0, 0.8020767156943953
373.0, 0.8947071790121055
374.0, 0.9648528535795114
375.0, 0.9986250579521984
376.0, 0.9890768492869099
377.0, 0.9250846537340116
378.0, 0.8555210748008267
379.0, 0.7671267889543321
380.0, 0.6669175357271777
381.0, 0.5787495250366861
382.0, 0.5242700091922653
383.0, 0.49382879866308893
384.0, 0.47789790802574544
385.0, 0.46292194150552585
386.0, 0.443072872642767
387.0, 0.41789576041038873
388.0, 0.3827364166688886
389.0, 0.34543325246837064
390.0, 0.30082128701675964
391.0, 0.2546528113742201
392.0, 0.2103424581417214
393.0, 0.1689119142687275
394.0, 0.1316810357035582
395.0, 0.10645630880699053
396.0, 0.08370919102781357
397.0, 0.06644433848281232
398.0, 0.05498883485737578
399.0, 0.0474543737098845
400.0, 0.042145587697185086
401.0, 0.03557589158570372
402.0, 0.03229197645696577
403.0, 0.030178575211595848
404.0, 0.02812921260091766
405.0, 0.02613681052761217
406.0, 0.024889462535523234
407.0, 0.023578492939067438
408.0, 0.022861823618541603
409.0, 0.022757352187188638
410.0, 0.02287043644638094
411.0, 0.02299428843304281
412.0, 0.023756849700490485
413.0, 0.025495969489964722
414.0, 0.026646782425967606
415.0, 0.028117072192402212
416.0, 0.030829273838899017
417.0, 0.03463092253093794
418.0, 0.03752519448803038
419.0, 0.038477528364442744
420.0, 0.044000825221359716
421.0, 0.04916020829541639
422.0, 0.056010698198261134
423.0, 0.0659467014549261
424.0, 0.07606548356097528
425.0, 0.08739923114026064
426.0, 0.09913420749195068
427.0, 0.11231346025812967
428.0, 0.1256401408196325
429.0, 0.1387919151268196
430.0, 0.15308367355717115
431.0, 0.16778420732154034
432.0, 0.17855047340482816
433.0, 0.18342550026503648
434.0, 0.1848785964412165
435.0, 0.1819349807566216
436.0, 0.17101359087486728
437.0, 0.1545035150114688
438.0, 0.13495282540695852
439.0, 0.11731464231687212
440.0, 0.10056430353215243
441.0, 0.08470431535393352
442.0, 0.07006260975487523
443.0, 0.05440351947436073
444.0, 0.04652848144633177
445.0, 0.037127121552962036
446.0, 0.029923975531314727
447.0, 0.025394575132015387
448.0, 0.021941147456632462
449.0, 0.017993313482364742
450.0, 0.015461233023427185
451.0, 0.013530424245201008
452.0, 0.01002277987921654
453.0, 0.006915394432127675
454.0, 0.005373808766804501
455.0, 0.0037515851920517287
456.0, 0.006228322636144627
457.0, 0.004982126670062664
458.0, 0.004781561951690746
459.0, 0.002925688597791591
460.0, 0.000743685197324285
461.0, 0.002721497619185843
462.0, 0.0015924501309379367
463.0, 0.0004031179602026005
464.0, 0.00019009811903147246
465.0, 0.001041755108589425
466.0, 0.00174004364287383
467.0, 0.001090293397722359
468.0, 0.00011410762743706922
469.0, 0.0021277334305655187
470.0, 0.0012817724900768437
471.0, 0.0005242349487976862
472.0, 0.0007487139388669543
473.0, 0.001326200045663349
474.0, 0.000996663329880281
475.0, 0.0007760992456649672
476.0, 0.0007105608388347923
477.0, 0.0003055396829106755
478.0, 0.00042116979270281034
479.0, 0.0010843238678762436
480.0, 0.001380149845894315
481.0, 0.0017835849552026914
482.0, 0.001024051129122347
483.0, 0.0009988125650754924
484.0, 0.0012043744307243581
485.0, 0.0014432820753865693
486.0, 0.0015120383241439316
487.0, 0.0003653168358958862
488.0, 0.00011770544344163694
489.0, 0.00016104135162724038
490.0, 0.0004088318443799691
491.0, 0.0008747876259396991
492.0, 0.001294794584243346
493.0, 0.001141831223088015
494.0, 0.0012730252719739073
495.0, 0.0025388356808914107
496.0, 0.0034134223056908495
497.0, 0.0024708329823743534
498.0, 0.0015708136861192793
499.0, 0.0035700861267614244
500.0, 0.00588487466439914
501.0, 0.0038360281361204387
502.0, 0.006624762034329976
503.0, 0.006697953275967807
504.0, 0.0068745843157762745
505.0, 0.009833875616113756
506.0, 0.010480315174496761
507.0, 0.015036911728411905
508.0, 0.017063918689456194
509.0, 0.019328984296107726
510.0, 0.023214128363273145
511.0, 0.028952295328048636
512.0, 0.035635751963068396
513.0, 0.041246054623905876
514.0, 0.05216156016132007
515.0, 0.061179571775121074
516.0, 0.07574575551875244
517.0, 0.09196993357276435
518.0, 0.10575814596308175
519.0, 0.12250286518857935
520.0, 0.1476139744138105
521.0, 0.16422119807600002
522.0, 0.18745308596182525
523.0, 0.20702158998133577
524.0, 0.2170003972788637
525.0, 0.21834635261581198
526.0, 0.2057735403040456
527.0, 0.18032828990226346
528.0, 0.1505436706531481
529.0, 0.122739419273536
530.0, 0.09734304415787255
531.0, 0.07370964894387555
532.0, 0.0539414272491648
533.0, 0.044282718073654685
534.0, 0.037585389211723295
535.0, 0.028849693843545306
536.0, 0.021722468722703663
537.0, 0.017206020858834707
538.0, 0.01418493006578151
539.0, 0.013826646031096942
540.0, 0.01116609379836986
541.0, 0.009542885536746246
542.0, 0.007880164665501952
543.0, 0.006931384127181087
544.0, 0.0069087577483787676
545.0, 0.006987144448235715
546.0, 0.007896165446155975
547.0, 0.008573618268104785
548.0, 0.00843990659560649
549.0, 0.008855685043446034
550.0, 0.010439160711059957
551.0, 0.012389186976535233
552.0, 0.012913929178758509
553.0, 0.016888813847474718
554.0, 0.018439098581206185
555.0, 0.023917008865140543
556.0, 0.026476489172870345
557.0, 0.026892687249050945
558.0, 0.030611518461889007
559.0, 0.03318485487985674
560.0, 0.03391054600224547
561.0, 0.03519984006357621
562.0, 0.034893110936492194
563.0, 0.03225820067036075
564.0, 0.028411758786688262
565.0, 0.025991631614504893
566.0, 0.027983064827870524
567.0, 0.02753039103887098
568.0, 0.029913996471817746
569.0, 0.033188683937053695
570.0, 0.03646671061710919
571.0, 0.040944192095008304
572.0, 0.0489531266310407
573.0, 0.056592420459959165
574.0, 0.0633197831397637
575.0, 0.06781289015080844
576.0, 0.06812107748668228
577.0, 0.06370974593373398
578.0, 0.05643339592151419
579.0, 0.05048395075985369
580.0, 0.04536075820385885
581.0, 0.035598218237672744
582.0, 0.02936423825712898
583.0, 0.026359420130787542
584.0, 0.02559310974796987
585.0, 0.02658107665061403
586.0, 0.02793991582819852
587.0, 0.0322497435294525
588.0, 0.03258604757843964
589.0, 0.03043619521721052
590.0, 0.029580948050186868
591.0, 0.02868482442222651
592.0, 0.023437199891571427
593.0, 0.018364967422450338
594.0, 0.012216398692248264
595.0, 0.008874388999182248
596.0, 0.005811420985911206
597.0, 0.004587878323173562
598.0, 0.003935905503943304
599.0, 0.00047327871484328433
600.0, 0.0024282050565219773
601.0, 0.003573579606703783
602.0, 0.001212419392646233
603.0, 0.0011164597143907508
604.0, 0.002174790641489916
605.0, 0.0024205112429794206
606.0, 0.0024658843166722438
607.0, 0.0011778957570665527
608.0, 0.0016483086647150046
609.0, 0.001837397259370729
610.0, 0.0018555397277961495
611.0, 0.001272263248683556
612.0, 0.0003794245965635283
613.0, 0.0006328431820154499
614.0, 0.0023682675755657134
615.0, 0.0012830774720614833
616.0, 0.003007265432134285
617.0, 0.002421716391341349
618.0, 0.0006960514856486366
619.0, 0.00035418383390229384
620.0, 0.0011272894738928547
621.0, 0.005042745031142909
622.0, 0.002724257485509028
623.0, 0.004417730467675282
624.0, 0.0029308467607699526
625.0, 0.002078002301803352
626.0, 0.005129933315235275
627.0, 0.006286051342350547
628.0, 0.002378436769154238
629.0, 0.0017726856831823765
630.0, 0.0012202432957699521
631.0, 0.0018700148957768508
632.0, 0.0023848176821631515
633.0, 0.0017481847944804691
634.0, 0.00116100414444938
635.0, 0.00146454050978257
636.0, 0.0011463924250186962
637.0, 0.0025177347294761013
638.0, 0.0024289318025687246
639.0, 0.001542216628293925
640.0, 0.0015502118525138817
641.0, 0.002433374190376666
642.0, 0.0015740752019660687
643.0, 0.002808185125873137
644.0, 0.005172572768064915
645.0, 0.005485741795252067
646.0, 0.004356154339616177
647.0, 0.003912941792952472
648.0, 0.005216322286804494
649.0, 0.005887445583678078
650.0, 0.005459485573812371
651.0, 0.0077592114567702365
652.0, 0.005999860801023692
653.0, 0.003991096543883822
654.0, 0.004023735221436039
655.0, 0.004217178323908974
656.0, 0.005371213442782183
657.0, 0.005602238147147314
658.0, 0.00560379753455843
659.0, 0.004968763860749319
660.0, 0.004975809155175302
661.0, 0.005206555304707503
662.0, 0.005261402138194715
663.0, 0.008221084707371278
664.0, 0.008681616523676938
665.0, 0.00970385661761938
666.0, 0.010018089625895987
667.0, 0.009875595610441427
668.0, 0.010967027538804954
669.0, 0.013001859604311375
670.0, 0.012172876190967715
671.0, 0.01447283704628868
672.0, 0.016885445755670112
673.0, 0.018333670508830783
674.0, 0.020729661996797485
675.0, 0.02329646516440702
676.0, 0.025546677014862063
677.0, 0.02874660525797492
678.0, 0.030836089514026045
679.0, 0.03565935471253755
680.0, 0.04108581371680718
681.0, 0.045327109884397886
682.0, 0.052365477801134507
683.0, 0.06235067676903942
684.0, 0.072465220281813
685.0, 0.08823569900463434
686.0, 0.10215117939190604
687.0, 0.11928696623540991
688.0, 0.14389328884567718
689.0, 0.17488833720984284
690.0, 0.21371197146179244
691.0, 0.2623212117037892
692.0, 0.3193410615227177
693.0, 0.39356074293960047
694.0, 0.4711541635081277
695.0, 0.5651054170153673
696.0, 0.6633892828338848
697.0, 0.7604721763339115
698.0, 0.8517732252315595
699.0, 0.9252826892144195
700.0, 0.9591104938849002
701.0, 0.9332354998563686
702.0, 0.8686904074573796
703.0, 0.764615509874504
704.0, 0.6439714759328353
705.0, 0.5280207111182937
706.0, 0.425945329882476
707.0, 0.33858779862337834
708.0, 0.27124560016357396
709.0, 0.21903518963463797
710.0, 0.17983777635564688
711.0, 0.14865634931323948
712.0, 0.12510704511337917
713.0, 0.10680339517215799
714.0, 0.0879707187786936
715.0, 0.07923163204687551
716.0, 0.06721708944996244
717.0, 0.06058269308483053
718.0, 0.052940762682493536
719.0, 0.04707064826073012
720.0, 0.04321509124660682
721.0, 0.03844392420172525
722.0, 0.03395843205526393
723.0, 0.02833617749789198
724.0, 0.025869030443869442
725.0, 0.024799385585267526
726.0, 0.02474277175091599
727.0, 0.0220214702765923
728.0, 0.018825178579038336
729.0, 0.021836344847849118
730.0, 0.01722761279604694
731.0, 0.01900833323901731
732.0, 0.016245504807371247
733.0, 0.015082090809100996
734.0, 0.01450166412714523
735.0, 0.01413605609660939
736.0, 0.014116407524308717
737.0, 0.012616604887743535
738.0, 0.014467867869413061
739.0, 0.010051425822366126
740.0, 0.008580762330775036
741.0, 0.00976211799379059
742.0, 0.009249952645852643
743.0, 0.0083531740256908
744.0, 0.011161720429215118
745.0, 0.010689646985777948
746.0, 0.010960673170299147
747.0, 0.0110300743561589
748.0, 0.009512622569651335
749.0, 0.00759645703045988
750.0, 0.006698273690099251
751.0, 0.00694019113445612
752.0, 0.007223024455675366
753.0, 0.007722510681061082
754.0, 0.008398547091805899
755.0, 0.008815502219556764
756.0, 0.009022660816852664
757.0, 0.009414362449608676
758.0, 0.009853570010142275
759.0, 0.01002339888950792
760.0, 0.010243854701501565
761.0, 0.012017379895996305
762.0, 0.011280462547595712
763.0, 0.011393084153200922
764.0, 0.014886005157949354
765.0, 0.017015634811790203
766.0, 0.017554970372030913
767.0, 0.01915969160836978
768.0, 0.020141412658830262
769.0, 0.026881317806447973
770.0, 0.029306765241402386
771.0, 0.036330584316611535
772.0, 0.04549363019029384
773.0, 0.055865558092324824
774.0, 0.0676679830366381
775.0, 0.08093574141095895
776.0, 0.09538998279339048
777.0, 0.11709085621606702
778.0, 0.13208687628435944
779.0, 0.1406104502114234
780.0, 0.13781047056267273
781.0, 0.1253757907947463
782.0, 0.10888672075843452
783.0, 0.09191009408425838
784.0, 0.07182655027200574
785.0, 0.05301638324511752
786.0, 0.038254958287461074
787.0, 0.027450860451416936
788.0, 0.022073767499697743
789.0, 0.018209419288124265
790.0, 0.01384367530451533
791.0, 0.010745551983600454
792.0, 0.008763108297514297
793.0, 0.005206313570585837
794.0, 0.007487700439654156
795.0, 0.007374797634735733
796.0, 0.0067293071482468145
797.0, 0.004272091982093419
798.0, 0.0019937591900454363
799.0, 0.0029058537729331844
800.0, 0.0015793212880472235
801.0, 0.0030101331776363946
802.0, 0.0027709363003163884
803.0, 0.0012350463249594201
804.0, 0.0009131801862149236
805.0, 0.0008111625364121269
806.0, 0.0003391013915365466
807.0, 0.00022991600010612508
808.0, 0.0001938235016219834
809.0, 0.0003768099733772246
810.0, 0.0002996949492050972
811.0, 0.00010262401153809871
812.0, 0.0008474710745994261
813.0, 0.0008686312820182617
814.0, 0.0003144709868195851
815.0, 0.0004295163137262443
816.0, 0.000364341546261634
817.0, 0.0013542937583736403
818.0, 0.0008912912354708607
819.0, 0.0012026779030820509
820.0, 0.0021791711727479736
821.0, 0.001450139613431022
822.0, 0.0007854955337820947
823.0, 0.001686752871266758
824.0, 0.00088634527411682
825.0, 2.968941261225432e-05
826.0, 0.0032388976766985237
827.0, 0.0017045116734508462
828.0, 0.0011752766409425072
829.0, 0.0008505150100350683
830.0, 0.0005561145333206468
831.0, 0.0008271744929563142
832.0, 0.0012219218435197646
833.0, 0.0005971266383202889
834.0, 0.000686761922956311
835.0, 0.0006124388355286272
836.0, 0.0012686251249852724
837.0, 0.0018996154387301224
838.0, 0.002741599739285653
839.0, 0.0024470813926477557
840.0, 0.0004194097566629558
841.0, 0.0013451866071276068
842.0, 0.002325056081138258
843.0, 0.0030422273919706094
844.0, 0.0031811103483438555
845.0, 0.00275720878268357
846.0, 0.002617909579121346
847.0, 0.0027925528723044424
848.0, 0.0025645218200329475
849.0, 0.001968174968370773
850.0, 0.0034829718668463448
851.0, 0.003953185725731021
852.0, 0.004346875147196856
853.0, 0.004186312827773824
854.0, 0.004677371341921302
855.0, 0.005157736445006964
856.0, 0.005350750912511271
857.0, 0.005892329886041883
858.0, 0.005794603213342387
859.0, 0.007619686158932912
860.0, 0.008330805064207183
861.0, 0.009137654008267068
862.0, 0.009124857270852936
863.0, 0.008736254118427756
864.0, 0.00872267583891798
865.0, 0.008566450377405298
866.0, 0.006817202532431722
867.0, 0.0052279260558388595
868.0, 0.005717950976443706
869.0, 0.0065405684142294885
870.0, 0.005720783996763451
871.0, 0.004744322199125627
872.0, 0.005728544169893047
873.0, 0.00597359107104941
874.0, 0.0032057056568679703
875.0, 0.004765810790634173
876.0, 0.005020327956254139
877.0, 0.002117593777550057
878.0, 0.0020249635383387467
879.0, 0.004509203617075518
880.0, 0.0066129273196253065
881.0, 0.006874032084521288
882.0, 0.006495523731360774
883.0, 0.007063147244476532
884.0, 0.006709193211816467
885.0, 0.005149006361528186
886.0, 0.00552700799937524
887.0, 0.005722160639697803
888.0, 0.004733685757756114
889.0, 0.006231972551877261
890.0, 0.007236516114796941
891.0, 0.0047326216155532275
892.0, 0.004226771918543698
893.0, 0.006418622717649194
894.0, 0.009695397841901609
895.0, 0.007407425739497658
896.0, 0.004781575922837407
897.0, 0.0038029057222253426
898.0, 0.005295387995181329
899.0, 0.005258925578955078
900.0, 0.0025983433826263173
901.0, 0.004319985420776121
902.0, 0.0015292647640899114
903.0, 0.0022967250387857085
904.0, 0.0018032553614084556
905.0, 0.0013551514369343554
906.0, 0.0010122989022183046
907.0, 0.0012733386977305406
908.0, 0.0020406181864138307
909.0, 0.0023650620574239244
910.0, 0.002178320743283077
911.0, 0.005393886314309568
912.0, 0.001650064603119185
913.0, 0.000671673468269871
914.0, 0.0024621043860359824
915.0, 0.0017205191880777621
916.0, 0.0006063643868130872
917.0, 0.0006394367319840461
918.0, 0.0016698389938873707
919.0, 0.005593898871906902
920.0, 0.0007559924380623861
921.0, 0.0019328987438459399
922.0, 0.0010295802385824869
923.0, 0.00048171359607336877
924.0, 0.000358123740828343
925.0, 0.0012981662591362178
926.0, 0.0019911082849100813
927.0, 0.0013029430984999868
928.0, 0.001371972278637311
929.0, 0.0006646529423627097
930.0, 0.0009034164001208747
931.0, 0.00314800296189991
932.0, 0.0012497749248708838
933.0, 0.0015870094490279688
934.0, 0.002069518452474439
935.0, 0.0020634715518596026
936.0, 0.0026086976812557724
937.0, 0.0016262097898397468
938.0, 0.002409474133570481
939.0, 0.0029837460571288483
940.0, 0.00144193070267136
941.0, 0.00348128518777669
942.0, 0.0038153780062385144
943.0, 0.0021662114235100035
944.0, 0.0015882001760144447
945.0, 0.002038113200840315
946.0, 0.0009182947901651111
947.0, 0.0026329543067015434
948.0, 0.006399507548929196
949.0, 0.002918159687839282
950.0, 0.0042927605865812355
951.0, 0.004314272817657144
952.0, 0.003268013435603446
953.0, 0.003774352572455269
954.0, 0.004534045781745963
955.0, 0.003304411494558459
956.0, 0.003927897424176726
957.0, 0.0035493170301605596
958.0, 0.005147067253939438
959.0, 0.006864010978422921
960.0, 0.009420349419479307
961.0, 0.008711692480322249
962.0, 0.006418903848223742
963.0, 0.00564824602614702
964.0, 0.008106278992784295
965.0, 0.012506319152402816
966.0, 0.01086540290584013
967.0, 0.011922951335229116
968.0, 0.012582232832216732
969.0, 0.010852193309569389
970.0, 0.013654851988640956
971.0, 0.015026459324122126
972.0, 0.015626221774784798
973.0, 0.01807012736851782
974.0, 0.021065763241732385
975.0, 0.024839153336126275
976.0, 0.02933783633624619
977.0, 0.03563934403924137
978.0, 0.04165346289540615
979.0, 0.054844929188670885
980.0, 0.06324664691092727
981.0, 0.07647788695583194
982.0, 0.0930572146952069
983.0, 0.10606882477169449
984.0, 0.12053226274301278
985.0, 0.13526367894628166
986.0, 0.13768245937061166
987.0, 0.12992121587592026
988.0, 0.11592102091782604
989.0, 0.10041532265768396
990.0, 0.08191976942672984
991.0, 0.06634175285608325
992.0, 0.05507567445210582
993.0, 0.04682583557345993
994.0, 0.044085661745218115
995.0, 0.03770122878604609
996.0, 0.030388358180071906
997.0, 0.030524235039675253
998.0, 0.02933035731347867
999.0, 0.028771345721930387
1000.0, 0.029178188019424775
1001.0, 0.02779639303353036
1002.0, 0.026532677162412935
1003.0, 0.028127759349367943
1004.0, 0.02705556795190265
1005.0, 0.01994628886031758
1006.0, 0.018947990554106973
1007.0, 0.018672030001964934
1008.0, 0.02223925453800741
1009.0, 0.023655309217847326
1010.0, 0.022673778444155943
1011.0, 0.020691988222954025
1012.0, 0.02119786494854304
1013.0, 0.025286330517901308
1014.0, 0.027266345426039437
1015.0, 0.026011136562472115
1016.0, 0.03286851776035499
1017.0, 0.027616572213532132
1018.0, 0.033627927212832004
1019.0, 0.03976213999099452
1020.0, 0.045514439961209636
1021.0, 0.05096958256946472
1022.0, 0.05716873833144172
1023.0, 0.0628341577850146
1024.0, 0.06591779449602582
1025.0, 0.0815291765653128
1026.0, 0.0897831996438168
1027.0, 0.09787550523714617
1028.0, 0.11616816577112801
1029.0, 0.1352016005181516
1030.0, 0.15704566761817682
1031.0, 0.1890641892551671
1032.0, 0.22865458496341023
1033.0, 0.2728458418884558
1034.0, 0.32896330045741873
1035.0, 0.395623960723022
1036.0, 0.45808042741804156
1037.0, 0.521814813304384
1038.0, 0.5747401846796995
1039.0, 0.607250741508041
1040.0, 0.6109642011280074
1041.0, 0.583758485418126
1042.0, 0.5294987139520997
1043.0, 0.4566709117113401
1044.0, 0.3769154600241136
1045.0, 0.30228675429026314
1046.0, 0.2403107934813788
1047.0, 0.19495479912734104
1048.0, 0.1584483598842102
1049.0, 0.13043588192842268
1050.0, 0.11088797885590246
1051.0, 0.09557868493476458
1052.0, 0.0778830812501364
1053.0, 0.06435282343296049
1054.0, 0.05951956295920795
1055.0, 0.05077145122170811
1056.0, 0.04279433489395601
1057.0, 0.04406623564700949
1058.0, 0.03821348403103755
1059.0, 0.032911367125199056
1060.0, 0.033598649031404804
1061.0, 0.029759333607951827
1062.0, 0.026229205519900607
1063.0, 0.024707088189832103
1064.0, 0.02274166263905063
1065.0, 0.021290874124377752
1066.0, 0.021485045174116854
1067.0, 0.019227273417278392
1068.0, 0.021243137665611877
1069.0, 0.020556374862469
1070.0, 0.017834883044186334
1071.0, 0.018219025709394505
1072.0, 0.016841435551902418
1073.0, 0.017303511231186886
1074.0, 0.020239802170367065
1075.0, 0.019969019476722562
1076.0, 0.016303236534179526
1077.0, 0.018656235247103616
1078.0, 0.019699877394610155
1079.0, 0.02088096583139734
1080.0, 0.021748989360578983
1081.0, 0.021857801473448353
1082.0, 0.0218330722002485
1083.0, 0.02082851655274972
1084.0, 0.01897249794745463
1085.0, 0.01617764259598016
1086.0, 0.013808221839895433
1087.0, 0.012222442743713185
1088.0, 0.007189812655099653
1089.0, 0.00876742519822885
1090.0, 0.005369607518476684
1091.0, 0.006115442380487768
1092.0, 0.005257179935683749
1093.0, 0.0066658986500822736
1094.0, 0.007510803386799343
1095.0, 0.005561669753698118
1096.0, 0.0045180844083062555
1097.0, 0.006781675203278538
1098.0, 0.007513259164115266
1099.0, 0.0036282392417881643
1100.0, 0.005873889017347311
1101.0, 0.0063243132189185315
1102.0, 0.00274537451420757
1103.0, 0.0032830858799259045
1104.0, 0.00450626656105276
1105.0, 0.00609181940047348
1106.0, 0.006202096561098447
1107.0, 0.005199930474112752
1108.0, 0.004853828369141868
1109.0, 0.005189331327062674
1110.0, 0.004870423075389985
1111.0, 0.004334697719767488
1112.0, 0.004769093772105392
1113.0, 0.0011399685704991103
1114.0, 0.006731397575602151
1115.0, 0.00508360178651125
1116.0, 0.0071763490411805905
1117.0, 0.009781503224248934
1118.0, 0.010418347997084777
1119.0, 0.011993583550613003
1120.0, 0.014451757914132323
1121.0, 0.015422996009857961
1122.0, 0.01951459546375936
1123.0, 0.01737949098313502
1124.0, 0.015776677638251614
1125.0, 0.015106935785451048
1126.0, 0.01315343236656534
1127.0, 0.011176581846340402
1128.0, 0.009594233127642649
1129.0, 0.00844805219242095
1130.0, 0.007185137923527417
1131.0, 0.004990992681372532
1132.0, 0.0029283290052396055
1133.0, 0.0028409157137791003
1134.0, 0.002184901629475508
1135.0, 0.007754313012427911
1136.0, 0.005959696195604864
1137.0, 0.005664136643497646
1138.0, 0.004588161395676036
1139.0, 0.00488150936399563
1140.0, 0.002144381030024591
1141.0, 0.0004928529717370656
1142.0, 0.0013141484045755497
1143.0, 0.0031308529114467444
1144.0, 0.003842325456215226
1145.0, 0.0010792079701275523
1146.0, 0.0049593985115923825
1147.0, 0.005722262608921188
1148.0, 0.0023405112010985475
1149.0, 0.0013525780914470926
1150.0, 0.0014845057722957145
1151.0, 0.0009342483204016178
1152.0, 0.00047709361784417344
1153.0, 0.0005187488551713382
1154.0, 0.0006846988247303265
1155.0, 0.0006596678791598972
1156.0, 0.0008384754250201893
1157.0, 0.0013547987183867738
1158.0, 0.0006773174891201953
1159.0, 0.0019321448609089583
1160.0, 0.0019168636021423915
1161.0, 0.003078150315802659
1162.0, 0.004146830273606169
1163.0, 0.0019219433638995036
1164.0, 0.002253232170263862
1165.0, 0.006042904940708793
1166.0, 0.004748713147902315
1167.0, 0.0011948788127063954
1168.0, 0.0030823841226261892
1169.0, 0.004517210277097036
1170.0, 0.0045196631437766695
1171.0, 0.005742370507890138
1172.0, 0.003919737452656308
1173.0, 0.0034446462870730624
1174.0, 0.0024057060241307994
1175.0, 0.0011989948014467923
1176.0, 0.0011873669905935942
1177.0, 0.0011868095613674812
1178.0, 0.0017744745584581207
1179.0, 0.002257352158809173
1180.0, 0.002355417543001647
1181.0, 0.003142901918859003
1182.0, 0.0032200542394704513
1183.0, 0.002419470569850255
1184.0, 0.003253505073337543
1185.0, 0.004975377931250831
1186.0, 0.0032956208094997467
1187.0, 0.00426478417854358
1188.0, 0.003278409007381906
1189.0, 0.0025702284052189304
1190.0, 0.0012851608477221679
1191.0, 0.0020896020781992126
1192.0, 0.002881577417936099
1193.0, 0.0015146038344564607
1194.0, 0.0017898539941990747
1195.0, 0.0024746056611940404
1196.0, 0.0023432083592724597
1197.0, 0.001221928107409012
1198.0, 0.0013109548809876
1199.0, 0.0022293120204406754
1200.0, 0.002960796450847748
1201.0, 0.003916655195656451
1202.0, 0.00393762130390821
1203.0, 0.0027939053500665783
1204.0, 0.004828114601831321
1205.0, 0.0046667200442775435
1206.0, 0.0014603959175293509
1207.0, 0.0037431173212243967
1208.0, 0.004580774457257001
1209.0, 0.003060397243455557
1210.0, 0.0035504053530529115
1211.0, 0.004512099387504662
1212.0, 0.0005096970853760415
1213.0, 0.00181791525010788
1214.0, 0.0029931258937129206
1215.0, 0.003479595387375738
1216.0, 0.0019740634025395107
1217.0, 0.0018937948675337329
1218.0, 0.0023047241689167493
1219.0, 0.001545429342759814
1220.0, 0.0014555683567829666
1221.0, 0.0015150578134329193
1222.0, 0.0011885273599880287
1223.0, 0.0010061906775011402
1224.0, 0.000751092771178291
1225.0, 0.0005476537608678118
1226.0, 0.000508385390422698
1227.0, 0.0005348722215954762
1228.0, 0.0012840367024809546
1229.0, 0.0018070738031566148
1230.0, 0.004237628220036121
1231.0, 0.003785189545901954
1232.0, 0.0015569403824774771
1233.0, 0.0037795637686359193
1234.0, 0.005751777877237062
1235.0, 0.0007573771655132453
1236.0, 0.0024684515922718383
1237.0, 0.005346834494238837
1238.0, 0.004432764635140676
1239.0, 0.0031297647662658725
1240.0, 0.0034094809014307806
1241.0, 0.004028558112006144
1242.0, 0.0036150109644440052
1243.0, 0.003403790957684927
1244.0, 0.002130617754184909
1245.0, 0.0013612731867883548
1246.0, 0.0015810005342259085
1247.0, 0.0017023775190646224
1248.0, 0.0024023773551646596
1249.0, 0.00334513045807377
1250.0, 0.002152157409046016
1251.0, 0.0005529099806458259
1252.0, 0.0018840109926393034
1253.0, 0.001465393262589089
1254.0, 0.0029157044302227193
1255.0, 0.0028391560502146764
1256.0, 0.0011218084121881492
1257.0, 0.0024128957000022835
1258.0, 0.0019362821074468605
1259.0, 0.0010478155832715783
1260.0, 0.00283321600692825
1261.0, 0.0036857131382694473
1262.0, 0.0031618267791028963
1263.0, 0.0051487648990793805
1264.0, 0.0027593581547127495
1265.0, 0.0044013905300221865
1266.0, 0.0033201183319758816
1267.0, 0.004332107170650638
1268.0, 0.007752889433079147
1269.0, 0.0019839155208651984
1270.0, 0.006238619055341698
1271.0, 0.002557672147896482
1272.0, 0.0033272817113792082
1273.0, 0.006627723083025725
1274.0, 0.006212718098235497
1275.0, 0.004598747126163975
1276.0, 0.004646068211721799
1277.0, 0.0042272592077830665
1278.0, 0.0030045210594631996
1279.0, 0.0027724595388069094
1280.0, 0.0017523403213769487
1281.0, 0.002431555487778279
1282.0, 0.0025957743477803396
1283.0, 0.005905395341254796
1284.0, 0.005345027028779774
1285.0, 0.0018800323638289592
1286.0, 0.002835404916174289
1287.0, 0.006302600283239994
1288.0, 0.004732123828307155
1289.0, 0.004211171555056857
1290.0, 0.004233067088888279
1291.0, 0.002541074954217595
1292.0, 0.0037771492609719754
1293.0, 0.005485317373279645
1294.0, 0.003401215480968832
1295.0, 0.0029583214980985493
1296.0, 0.002754036407470184
1297.0, 0.0028736548825939257
1298.0, 0.005435715131070422
1299.0, 0.004821754419582059
1300.0, 0.0034086876137482203
1301.0, 0.006361390809378995
1302.0, 0.00715013976318022
1303.0, 0.006558067544282166
1304.0, 0.006467952843641233
1305.0, 0.006064939419642498
1306.0, 0.006022009175948197
1307.0, 0.0060633903795069295
1308.0, 0.00571031315923636
1309.0, 0.007722031834074664
1310.0, 0.009116083743120501
1311.0, 0.006552372294915109
1312.0, 0.007759893872668891
1313.0, 0.006324575841445873
1314.0, 0.007662078264334523
1315.0, 0.005218844586246407
1316.0, 0.004949737334962277
1317.0, 0.006407186405991976
1318.0, 0.008966335486299857
1319.0, 0.007486047290857487
1320.0, 0.0073006704751799175
1321.0, 0.00916570742883347
1322.0, 0.009240196448058933
1323.0, 0.006323445096843449
1324.0, 0.0038296484944291462
1325.0, 0.004675268523756627
1326.0, 0.005455444057207715
1327.0, 0.006299463038443783
1328.0, 0.006937177603940613
1329.0, 0.005766970947259271
1330.0, 0.005456727141774557
1331.0, 0.002598150255716387
1332.0, 0.0029046596222484134
1333.0, 0.0026056824369158874
1334.0, 0.002217661259786039
1335.0, 0.0029782820611338936
1336.0, 0.004672310259473601
1337.0, 0.006000871957377743
1338.0, 0.0069279706934901805
1339.0, 0.0060302452848591
1340.0, 0.005722257403929172
1341.0, 0.00666541172802375
1342.0, 0.00435173425620805
1343.0, 0.004602514481942543
1344.0, 0.0067515581548101
1345.0, 0.003730539703111186
1346.0, 0.004712687468740489
1347.0, 0.004824182436416966
1348.0, 0.005981007394190872
1349.0, 0.005806500679828637
1350.0, 0.0052282763981508695
1351.0, 0.005036179381406563
1352.0, 0.004429801861700081
1353.0, 0.00389368020784474
1354.0, 0.0037816666820144557
1355.0, 0.0036950188481175406
1356.0, 0.00355871706171584
1357.0, 0.003927764187006483
1358.0, 0.005274515864766091
1359.0, 0.005010141558576919
1360.0, 0.0022296340037487174
1361.0, 0.0032231194120185863
1362.0, 0.0018800754701046119
1363.0, 0.004655091360221916
1364.0, 0.003969768274086117
1365.0, 0.003643522349529699
1366.0, 0.0009531487970605211
1367.0, 0.004026922630862811
1368.0, 0.005192122241623616
1369.0, 0.0035519120595258018
1370.0, 0.0031472434530006193
1371.0, 0.00440418217897382
1372.0, 0.005941308613560706
1373.0, 0.005815837438092273
1374.0, 0.0038783086886326748
1375.0, 0.003059835661327641
1376.0, 0.003855964139565201
1377.0, 0.004525020715521628
1378.0, 0.005686059389175697
1379.0, 0.006271175734682894
1380.0, 0.005495921197636758
1381.0, 0.007518453925027345
1382.0, 0.006522642833984446
1383.0, 0.0048450243638675046
1384.0, 0.0010218560850899176
1385.0, 0.004717833811252861
1386.0, 0.004743457126784313
1387.0, 0.0029683480515643175
1388.0, 0.0038068781661755036
1389.0, 0.004123398469476546
1390.0, 0.002549432109360049
1391.0, 0.002314912399103049
1392.0, 0.003976366605612129
1393.0, 0.0030690781767430207
1394.0, 0.0017237505090746145
1395.0, 0.0015648175820037699
1396.0, 0.0018128442465460215
1397.0, 0.0031109428110249497
1398.0, 0.0022152643774152954
1399.0, 0.0019955158507879477
1400.0, 0.001708070995906326
1401.0, 0.0035978465268756664
1402.0, 0.0032681552209805178
1403.0, 0.0033709569695126013
1404.0, 0.0048731117865816985
1405.0, 0.005361909491488637
1406.0, 0.007237214263819103
1407.0, 0.0019012829531773459
1408.0, 0.0006833709664248182
1409.0, 0.002359720008695273
1410.0, 0.0046078394815467355
1411.0, 0.0043202797926421115
1412.0, 0.0042593626762424935
1413.0, 0.0025171507294466725
1414.0, 0.0017814644010466854
1415.0, 0.0024673466086746094
1416.0, 0.003079249331046984
1417.0, 0.0035992937935883738
1418.0, 0.002291528686711032
1419.0, 0.004547277231479338
1420.0, 0.005805491230767975
1421.0, 0.004360720945253906
1422.0, 0.00492629594041192
1423.0, 0.005622090623618743
1424.0, 0.005588067184462231
1425.0, 0.003107261501349298
1426.0, 0.0058186279994185235
1427.0, 0.007205918516031717
1428.0, 0.00500247379663281
1429.0, 0.004546363613200078
1430.0, 0.008372083501885482
1431.0, 0.008267503440026004
1432.0, 0.008663824564481027
1433.0, 0.009153132889938966
1434.0, 0.01022646220157641
1435.0, 0.008543134986739049
1436.0, 0.010106837714905567
1437.0, 0.015223222363815157
1438.0, 0.014220270355666875
1439.0, 0.011538460933790613
1440.0, 0.013083545742845117
1441.0, 0.013631456427199174
1442.0, 0.015539054660794121
1443.0, 0.015040589485160977
1444.0, 0.014769528861043092
1445.0, 0.019336746852240856
1446.0, 0.02411215533154955
1447.0, 0.022315445050637542
1448.0, 0.02088893823951159
1449.0, 0.01682018283459015
1450.0, 0.019818360287308632
1451.0, 0.023288890337384547
1452.0, 0.025215793445700203
1453.0, 0.026019776884841445
1454.0, 0.02659087897171601
1455.0, 0.02503671789003278
1456.0, 0.023838519013726724
1457.0, 0.021997212776141813
1458.0, 0.01758711599392802
1459.0, 0.01694533453818417
1460.0, 0.017249757217035783
1461.0, 0.01675212580138677
1462.0, 0.017658890856037876
1463.0, 0.0153340592460572
1464.0, 0.01600339943815886
1465.0, 0.014992777283394385
1466.0, 0.011424940336313336
1467.0, 0.007382247288340917
1468.0, 0.01115537861987162
1469.0, 0.012276752778277077
1470.0, 0.0056511968815931585
1471.0, 0.010711876703788419
1472.0, 0.007844201287087477
1473.0, 0.010008618861673271
1474.0, 0.006778312861852787
1475.0, 0.010028217890198043
1476.0, 0.0075798692828534945
1477.0, 0.009976698377605665
1478.0, 0.010925582840139282
1479.0, 0.007059986236759406
1480.0, 0.00633440845085937
1481.0, 0.007214185871097032
1482.0, 0.005373104439889676
1483.0, 0.006599720113103475
1484.0, 0.008323874369134444
1485.0, 0.0058750023784938455
1486.0, 0.0033935728078871635
1487.0, 0.004553397822551795
1488.0, 0.005754720701098339
1489.0, 0.004832240358544303
1490.0, 0.005925781168793375
1491.0, 0.0022596500079506833
1492.0, 0.0022731175468643705
1493.0, 0.003285368762912922
1494.0, 0.0018405250618732584
1495.0, 0.004561060364972937
1496.0, 0.0023887405832014276
1497.0, 0.0010514363954115754
1498.0, 0.002645017002253261
1499.0, 0.004622024850210735
1500.0, 0.00479296597941128
1501.0, 0.0014043463670835026
1502.0, 0.0009674201125581168
1503.0, 0.000443458662446395
1504.0, 0.003228814231099949
1505.0, 0.003269381785278239
1506.0, 0.0008925733566460901
1507.0, 0.006360807579756596
1508.0, 0.005401905348411009
1509.0, 0.003893431321990792
1510.0, 0.0044404354722724845
1511.0, 0.0030834904668822836
1512.0, 0.0033796637502825494
1513.0, 0.0038047842953927487
1514.0, 0.0015277189668419012
1515.0, 0.001547167765644827
1516.0, 0.005587518779832794
1517.0, 0.008416172735427307
1518.0, 0.007255218969003101
1519.0, 0.006341446220568966
1520.0, 0.006486697456954582
1521.0, 0.006544778467956321
1522.0, 0.005733798247780835
1523.0, 0.003924939170914518
1524.0, 0.005050897536472605
1525.0, 0.0004138887620204083
1526.0, 0.0023306672252473475
1527.0, 0.0045778195018547005
1528.0, 0.00301121142874162
1529.0, 0.005953632755491564
1530.0, 0.0037704012213096035
1531.0, 0.006143365549130159
1532.0, 0.005035036695108829
1533.0, 0.004665749204570614
1534.0, 0.0026887161498509483
1535.0, 0.005649121557733941
1536.0, 0.004211016309563248
1537.0, 0.004223593972798328
1538.0, 0.004843920057127242
1539.0, 0.0020852451022376037
1540.0, 0.0034925295285466455
1541.0, 0.0036660086756437216
1542.0, 0.0035824424543082936
1543.0, 0.0032790512428017738
1544.0, 0.004553210558921397
1545.0, 0.004372548252927934
1546.0, 0.0027667485877320894
1547.0, 0.004586971084504148
1548.0, 0.004901012100934673
1549.0, 0.0035796766295929624
1550.0, 0.004153456880996235
1551.0, 0.006545318905706082
1552.0, 0.007688894967559363
1553.0, 0.006015305223781521
1554.0, 0.007147272163353458
1555.0, 0.008028934998117639
1556.0, 0.003277839896030358
1557.0, 0.007075401911093389
1558.0, 0.008488139325030647
1559.0, 0.0012902862889588522
1560.0, 0.00415469900071301
1561.0, 0.005166890762031945
1562.0, 0.005639991525629271
1563.0, 0.004570659323593582
1564.0, 0.002058453652039254
1565.0, 0.0013991855802256625
1566.0, 0.00016326593370786992
1567.0, 0.0038114310182514057
1568.0, 0.0033760345304268977
1569.0, 0.0031856261900941522
1570.0, 0.0006071353170512233
1571, 0.0
1572, 0.0
1573, 0.0
1574, 0.0
1575, 0.0
1576, 0.0
1577, 0.0
1578, 0.0
1579, 0.0
1580, 0.0
1581, 0.0
1582, 0.0
1583, 0.0
1584, 0.0
1585, 0.0
1586, 0.0
1587, 0.0
1588, 0.0
1589, 0.0
1590, 0.0
1591, 0.0
1592, 0.0
1593, 0.0
1594, 0.0
1595, 0.0
1596, 0.0
1597, 0.0
1598, 0.0
1599, 0.0
