30, 0.0
31, 0.0
32, 0.0
33, 0.0
34, 0.0
35, 0.0
36, 0.0
37, 0.0
38, 0.0
39, 0.0
40, 0.0
41, 0.0
42, 0.0
43, 0.0
44, 0.0
45, 0.0
46, 0.0
47, 0.0
48, 0.0
49, 0.0
50, 0.0
51, 0.0
52, 0.0
53, 0.0
54, 0.0
55, 0.0
56, 0.0
57, 0.0
58, 0.0
59, 0.0
60, 0.0
61, 0.0
62, 0.0
63, 0.0
64, 0.0
65, 0.0
66, 0.0
67, 0.0
68, 0.0
69, 0.0
70, 0.0
71, 0.0
72, 0.0
73, 0.0
74, 0.0
75, 0.0
76, 0.0
77, 0.0
78, 0.0
79, 0.0
80, 0.0
81, 0.0
82, 0.0
83, 0.0
84, 0.0
85, 0.0
86, 0.0
87, 0.0
88, 0.0
89, 0.0
90, 0.0
91, 0.0
92, 0.0
93, 0.0
94, 0.0
95, 0.0
96, 0.0
97, 0.0
98, 0.0
99, 0.0
100, 0.0
101, 0.0
102, 0.0
103, 0.0
104.0, 0.0007197454135329797
105.0, 0.003318800707873373
106.0, 0.004282726921157391
107.0, 0.0035417300924455385
108.0, 0.0007745980278592303
109.0, 0.0003794418705469868
110.0, 0.004145408463525665
111.0, 0.007728894163388762
112.0, 0.004469888209646301
113.0, 0.0017119622137352884
114.0, 0.0040033372340299075
115.0, 0.009096846193741005
116.0, 0.006212965110805768
117.0, 0.003578310310832641
118.0, 0.005026982960461347
119.0, 0.0057626079439251875
120.0, 0.007267851998971326
121.0, 0.008583571785090586
122.0, 0.008721606513329226
123.0, 0.00781748221034275
124.0, 0.014362090182921314
125.0, 0.012396804881012764
126.0, 0.007537040260356396
127.0, 0.010993631818247286
128.0, 0.010892560408205696
129.0, 0.009761044719677587
130.0, 0.009783436661741316
131.0, 0.011897751054954844
132.0, 0.011947793864585275
133.0, 0.011625093099388193
134.0, 0.012061859780392785
135.0, 0.015163416422344696
136.0, 0.01564444853626953
137.0, 0.014910529213166681
138.0, 0.014314694407674083
139.0, 0.014225001821540165
140.0, 0.013736647759220748
141.0, 0.017905135520835468
142.0, 0.017958643139660682
143.0, 0.01550238930536223
144.0, 0.017904301465527656
145.0, 0.01762245758604782
146.0, 0.014616360833597629
147.0, 0.011097508948948722
148.0, 0.0089937263125963
149.0, 0.010013127105771584
150.0, 0.009641646123674926
151.0, 0.007788080165226164
152.0, 0.005994082413902997
153.0, 0.006434277019519907
154.0, 0.0026754089928736273
155.0, 0.0004164768124150198
156.0, 0.0007824129034999172
157.0, 0.0006585153807066096
158.0, 0.0032840910579315574
159.0, 0.0023456422839604604
160.0, 0.0005262937337753193
161.0, 0.002283814215228859
162.0, 0.004394045915152903
163.0, 0.0026530359677806106
164.0, 0.0006341523668613018
165.0, 0.0016504745572050172
166.0, 0.0016247942644937834
167.0, 0.004569703701404388
168.0, 0.0027422037853818584
169.0, 0.0008811359748440746
170.0, 0.0008942893439521847
171.0, 0.0009577254479411952
172.0, 0.000610453878081328
173.0, 0.002249524497500926
174.0, 0.004071032123692439
175.0, 0.001408106773304308
176.0, 0.0009987492372704235
177.0, 0.0015070213971061718
178.0, 0.0014110392247492604
179.0, 0.0022663773916460316
180.0, 0.0007485259728478102
181.0, 0.0026882582210589518
182.0, 0.004429920519638713
183.0, 0.003853090064540409
184.0, 0.0017369357965182342
185.0, 0.005028826112880344
186.0, 0.008322647744390451
187.0, 0.004446354460715618
188.0, 0.003756942455133966
189.0, 0.0020732563862663677
190.0, 0.002468092984104197
191.0, 0.0051259608516590035
192.0, 0.003225153858582103
193.0, 0.0050782564157863435
194.0, 0.007400383564557817
195.0, 0.007779696299306694
196.0, 0.006601165278036339
197.0, 0.004653916373217505
198.0, 0.006500144609487484
199.0, 0.008362794813274373
200.0, 0.0075020464297198735
201.0, 0.010311401444156964
202.0, 0.010900135640854697
203.0, 0.012214275987284813
204.0, 0.015342394583630571
205.0, 0.01761483693284848
206.0, 0.0184755535293304
207.0, 0.01877689489572068
208.0, 0.020934396399744443
209.0, 0.02450062862085826
210.0, 0.02281987999884914
211.0, 0.030053586507590616
212.0, 0.034883050825318083
213.0, 0.03401098976433627
214.0, 0.03794696990892847
215.0, 0.03838756841603507
216.0, 0.043665994088316576
217.0, 0.04803629296395178
218.0, 0.046798493121399574
219.0, 0.052379236249016164
220.0, 0.05653427991698051
221.0, 0.059222093214239546
222.0, 0.06207196956095032
223.0, 0.06530957956894165
224.0, 0.07002036697147439
225.0, 0.0713472227397244
226.0, 0.07425061202809012
227.0, 0.08324251402583928
228.0, 0.08112358595346561
229.0, 0.08736683258974688
230.0, 0.09120209894721977
231.0, 0.08943504698148595
232.0, 0.09666291942860819
233.0, 0.10130331286968439
234.0, 0.09943695000717569
235.0, 0.09845522033152543
236.0, 0.10453565186044038
237.0, 0.10860756876865295
238.0, 0.11168439703643807
239.0, 0.10937441864858682
240.0, 0.10384222924983585
241.0, 0.10561191216141316
242.0, 0.10526701307661539
243.0, 0.10560107328001725
244.0, 0.1066585376480636
245.0, 0.10704273861003105
246.0, 0.10687440436649435
247.0, 0.10571405920699083
248.0, 0.10540882926208109
249.0, 0.10403975948917621
250.0, 0.09758023025931072
251.0, 0.09362927051305044
252.0, 0.09233125676089154
253.0, 0.08950875647248809
254.0, 0.08443549488822803
255.0, 0.08129829606066895
256.0, 0.07864177960820372
257.0, 0.07638201557873152
258.0, 0.07422045426195978
259.0, 0.07155293765421873
260.0, 0.0674909826241297
261.0, 0.06771918579498092
262.0, 0.06682548402215444
263.0, 0.06205200591582963
264.0, 0.05763188594942289
265.0, 0.057642795504305365
266.0, 0.05894579184964308
267.0, 0.05902729424083519
268.0, 0.05713976872912146
269.0, 0.057824554724306615
270.0, 0.0570504921496472
271.0, 0.05544520541904044
272.0, 0.05315547456614704
273.0, 0.04950799140266887
274.0, 0.04851557602229258
275.0, 0.04893493900911088
276.0, 0.04952458654737866
277.0, 0.04930840715323356
278.0, 0.04792352138833762
279.0, 0.048689219430598604
280.0, 0.04600459884884944
281.0, 0.045815052672052894
282.0, 0.05253576209401666
283.0, 0.04983584689529934
284.0, 0.043247222103993004
285.0, 0.04296975066257275
286.0, 0.0464625606501668
287.0, 0.04451769443343896
288.0, 0.04457572100186471
289.0, 0.042582859552957736
290.0, 0.039343738411614815
291.0, 0.03840028227005785
292.0, 0.042569216500264774
293.0, 0.041965357816463565
294.0, 0.03906762721724741
295.0, 0.03651623169324117
296.0, 0.03484867038920457
297.0, 0.03060439611685702
298.0, 0.0330283618973818
299.0, 0.03188326848457455
300.0, 0.026884538636732836
301.0, 0.027288918320320765
302.0, 0.028960909435907584
303.0, 0.026216533661792878
304.0, 0.022358660411413822
305.0, 0.01945604083775538
306.0, 0.0163969420256634
307.0, 0.021202853230153293
308.0, 0.018119640040185455
309.0, 0.014207947930369867
310.0, 0.016081589156819433
311.0, 0.016816054810971686
312.0, 0.01584626494327634
313.0, 0.021662598273185223
314.0, 0.028562855310449192
315.0, 0.028132666249233683
316.0, 0.02553237167192535
317.0, 0.03188604292852205
318.0, 0.03272040276225565
319.0, 0.03279105740817647
320.0, 0.044700619402805244
321.0, 0.0492525996875271
322.0, 0.05222329664812799
323.0, 0.05594838851684694
324.0, 0.05891369456360989
325.0, 0.05812131342561143
326.0, 0.061429771136089245
327.0, 0.06561228681772958
328.0, 0.06687861438479484
329.0, 0.0660319472227721
330.0, 0.06741880470024747
331.0, 0.06909314408167314
332.0, 0.07113834183706381
333.0, 0.07237925436757131
334.0, 0.07462355468699529
335.0, 0.08168854189855347
336.0, 0.08239663191607152
337.0, 0.08171521995905989
338.0, 0.08097289513485838
339.0, 0.08126759047980088
340.0, 0.08494778574787472
341.0, 0.07753077671482156
342.0, 0.07403608246908865
343.0, 0.07445811106816969
344.0, 0.0729743408468739
345.0, 0.07065167950846345
346.0, 0.07009965694853468
347.0, 0.06530966570558587
348.0, 0.057258663471458346
349.0, 0.05037852998977566
350.0, 0.0474753744493578
351.0, 0.04095701613747537
352.0, 0.03685801615082832
353.0, 0.03588374135647053
354.0, 0.032557667233966005
355.0, 0.021749226390137887
356.0, 0.02026257497426111
357.0, 0.01918948489478576
358.0, 0.014449489116089646
359.0, 0.012627813563051678
360.0, 0.014155250115593532
361.0, 0.010122112235338071
362.0, 0.0033945966573023876
363.0, 0.0023656344821925946
364.0, 0.006992875802221433
365.0, 0.011719783932166118
366.0, 0.014265090047884081
367.0, 0.014336987636899612
368.0, 0.014620138643766468
369.0, 0.017474545363588907
370.0, 0.02066670530109968
371.0, 0.026166749038907984
372.0, 0.026974405067120108
373.0, 0.025523139190326886
374.0, 0.028594554587351724
375.0, 0.03691904613201403
376.0, 0.03485734472787318
377.0, 0.03421546922402054
378.0, 0.035149631737067914
379.0, 0.02970985624392619
380.0, 0.024185395212598822
381.0, 0.021671891898578415
382.0, 0.016024340713410717
383.0, 0.008814816660389633
384.0, 0.005099706495465816
385.0, 0.0023087827896705647
386.0, 0.009433688370162887
387.0, 0.019803495370078566
388.0, 0.02905005269553934
389.0, 0.03421642157172371
390.0, 0.04453035500678202
391.0, 0.056978059054719817
392.0, 0.06874357752310105
393.0, 0.08316423453947869
394.0, 0.10008752016280174
395.0, 0.10700601514140731
396.0, 0.11580042968629768
397.0, 0.12749291173760977
398.0, 0.13983376436748504
399.0, 0.15272193300981474
400.0, 0.16852412003853415
401.0, 0.18354211777315893
402.0, 0.1958052517570268
403.0, 0.20774966379472995
404.0, 0.22452334673347923
405.0, 0.24818388416838616
406.0, 0.2585856971984111
407.0, 0.27387120493449013
408.0, 0.2906083283134873
409.0, 0.3055652799698457
410.0, 0.3236243552581328
411.0, 0.3358582345004486
412.0, 0.35565503735450155
413.0, 0.3789588257974879
414.0, 0.3989136279044732
415.0, 0.4123199925558195
416.0, 0.4289192708037744
417.0, 0.4460602084623097
418.0, 0.4687546815709925
419.0, 0.49339230056050365
420.0, 0.5114105263831046
421.0, 0.5354317979959263
422.0, 0.5532373506306589
423.0, 0.5727640330117846
424.0, 0.5990284587704859
425.0, 0.6251323859399656
426.0, 0.6411808118919589
427.0, 0.661881172323282
428.0, 0.68505227746521
429.0, 0.7056228290289217
430.0, 0.7232914965351201
431.0, 0.7428499275011003
432.0, 0.7574257956639547
433.0, 0.7751932384703702
434.0, 0.7924877652636324
435.0, 0.8062283622347988
436.0, 0.8217176978363996
437.0, 0.8343674138125274
438.0, 0.8483809575870203
439.0, 0.861266028985754
440.0, 0.8705798141535439
441.0, 0.8792092108087505
442.0, 0.8919871319696108
443.0, 0.9007608253879626
444.0, 0.90065851938417
445.0, 0.8991439283700547
446.0, 0.8977495246681186
447.0, 0.8869257794619932
448.0, 0.8897303863174371
449.0, 0.8795192997444848
450.0, 0.8621651999556068
451.0, 0.8465861634898578
452.0, 0.8278979481391915
453.0, 0.8076518209381607
454.0, 0.7789770953431958
455.0, 0.7581620063317677
456.0, 0.7426904229161324
457.0, 0.7167788916310793
458.0, 0.6876152931234245
459.0, 0.666178470628952
460.0, 0.6444584316399967
461.0, 0.6183705503531992
462.0, 0.5884240431030172
463.0, 0.5573528416586603
464.0, 0.5311733802389199
465.0, 0.5175612227827688
466.0, 0.50222303299748
467.0, 0.48583627741916685
468.0, 0.4829829650445397
469.0, 0.4643651897858461
470.0, 0.45579888702073984
471.0, 0.45196042067321746
472.0, 0.4498219540808926
473.0, 0.4508699164349519
474.0, 0.45081771997459885
475.0, 0.45720735742046287
476.0, 0.46302759761671713
477.0, 0.47066070277138305
478.0, 0.48032839518220144
479.0, 0.4874843710150968
480.0, 0.508372324839676
481.0, 0.5314534285178539
482.0, 0.5523068851288301
483.0, 0.5753364132497532
484.0, 0.6038577175828468
485.0, 0.6267818376277173
486.0, 0.6507011762568629
487.0, 0.6730434253683248
488.0, 0.7010129898354351
489.0, 0.7335350189345018
490.0, 0.7535182320055019
491.0, 0.7821076206222579
492.0, 0.8108862873547332
493.0, 0.8362738886155817
494.0, 0.8594060434342029
495.0, 0.8870459666653314
496.0, 0.9251220724250677
497.0, 0.9353920619613892
498.0, 0.9442834463876107
499.0, 0.9613445196579236
500.0, 0.9769098338247544
501.0, 0.9808431747195566
502.0, 0.9895756992876023
503.0, 0.9975552604359335
504.0, 0.9993904758368933
505.0, 0.9945083302268962
506.0, 0.9890177378067123
507.0, 0.987567384863328
508.0, 0.9757391564091955
509.0, 0.9628196265237555
510.0, 0.9459189342345108
511.0, 0.9261748954473441
512.0, 0.9064415228396806
513.0, 0.8786217066393488
514.0, 0.8561783385309283
515.0, 0.8326782527269324
516.0, 0.8020707132304183
517.0, 0.768246736978425
518.0, 0.7385757870083722
519.0, 0.7108693975645033
520.0, 0.6833977756472404
521.0, 0.6537576774953476
522.0, 0.6176301355869948
523.0, 0.5779788160744024
524.0, 0.5478183826635347
525.0, 0.5212134811713205
526.0, 0.49324928227132536
527.0, 0.46288081058273867
528.0, 0.4318328122420523
529.0, 0.40270772668328064
530.0, 0.3746530799306426
531.0, 0.3480969989392659
532.0, 0.32783106125241823
533.0, 0.30271958218731754
534.0, 0.2727099796747458
535.0, 0.2498674140939822
536.0, 0.23054622985840698
537.0, 0.21067384678759768
538.0, 0.19599138140624311
539.0, 0.18024941404987735
540.0, 0.15816088730284136
541.0, 0.13530429484510173
542.0, 0.1197653340092098
543.0, 0.10569091814476644
544.0, 0.0960035901369278
545.0, 0.08562658805706674
546.0, 0.07117561467435808
547.0, 0.05774377736356274
548.0, 0.04307969718781825
549.0, 0.031108733814376194
550.0, 0.02729767211908492
551.0, 0.028302804425517553
552.0, 0.026083844934916982
553.0, 0.0170726575534025
554.0, 0.00715597396688016
555.0, 0.0013783769728409544
556.0, 0.0031091967356160675
557.0, 0.008929448742580006
558.0, 0.013893930179967887
559.0, 0.011048412147126617
560.0, 0.012251396521615924
561.0, 0.01775153744727514
562.0, 0.021051349960478714
563.0, 0.021418171749933514
564.0, 0.02283616251236522
565.0, 0.026575919368737055
566.0, 0.023792211735037018
567.0, 0.022939493228308575
568.0, 0.023351616424919324
569.0, 0.020592318930552307
570.0, 0.017415455371663353
571.0, 0.025477822988135772
572.0, 0.020763690685198673
573.0, 0.01431865248437726
574.0, 0.01608034859382968
575.0, 0.018459379037356758
576.0, 0.010770154796675228
577.0, 0.006131482407699291
578.0, 0.0032835062103784506
579.0, 0.005188690418984676
580.0, 0.0046862498263653225
581.0, 0.002345004069545867
582.0, 0.002248019853182129
583.0, 0.0034393846944685167
584.0, 0.007421905719231636
585.0, 0.012239174097411272
586.0, 0.012073975715238182
587.0, 0.01101986634816129
588.0, 0.015951975870424417
589.0, 0.019138971533716017
590.0, 0.021616646405824152
591.0, 0.02601942410565769
592.0, 0.030005515091373773
593.0, 0.033421033307201246
594.0, 0.037466059970235194
595.0, 0.04006803733203178
596.0, 0.040251390320930946
597.0, 0.04374678409832316
598.0, 0.04731742353344818
599.0, 0.0500427498183629
600.0, 0.05339286494138694
601.0, 0.05742305540196503
602.0, 0.06308751434616033
603.0, 0.06325911022478611
604.0, 0.0652076545682155
605.0, 0.0713717017519346
606.0, 0.07707782501470826
607.0, 0.07801729055902067
608.0, 0.08159886754267595
609.0, 0.08466194680847672
610.0, 0.08747864710253743
611.0, 0.08852182944669551
612.0, 0.08881762998846611
613.0, 0.09280673767249083
614.0, 0.10201976128765906
615.0, 0.10603947980833668
616.0, 0.10794396731484796
617.0, 0.10920570021032673
618.0, 0.11048439062923684
619.0, 0.1132682639289116
620.0, 0.11641247399372412
621.0, 0.11766889885941408
622.0, 0.12381055636561512
623.0, 0.12507024208353967
624.0, 0.12369875220456655
625.0, 0.12602085828377121
626.0, 0.12809726134921015
627.0, 0.1303802381248636
628.0, 0.13235469901623745
629.0, 0.13081275235061288
630.0, 0.12965974510557077
631.0, 0.13081330708949357
632.0, 0.13081737408280283
633.0, 0.13004230132213643
634.0, 0.12792432522421707
635.0, 0.12722931219355804
636.0, 0.1295193894364203
637.0, 0.13039310951110808
638.0, 0.1269859192337566
639.0, 0.12621185146408564
640.0, 0.12777416399972025
641.0, 0.12920719758939897
642.0, 0.128747833119708
643.0, 0.12645569664888728
644.0, 0.12538906848600143
645.0, 0.12736837669040754
646.0, 0.12309032697685161
647.0, 0.12326646262833561
648.0, 0.12182936523590637
649.0, 0.11997788685867088
650.0, 0.11887570520219864
651.0, 0.11662564850021392
652.0, 0.11707852078977557
653.0, 0.11299518472394925
654.0, 0.11406849111644964
655.0, 0.11474756363480229
656.0, 0.11449805926909648
657.0, 0.11474174487900254
658.0, 0.10898259417464023
659.0, 0.10745880383588381
660.0, 0.11075383523930837
661.0, 0.10893724329993601
662.0, 0.10214375903202375
663.0, 0.09751966521414553
664.0, 0.09983382200621521
665.0, 0.09960076414879382
666.0, 0.09710530675265389
667.0, 0.09358760220841268
668.0, 0.0899319525171288
669.0, 0.08737040510478689
670.0, 0.08440052637375167
671.0, 0.07936589493402428
672.0, 0.07716628375310022
673.0, 0.07366732460349236
674.0, 0.07088803017296756
675.0, 0.06900495050192848
676.0, 0.0670732271721378
677.0, 0.06433906331065015
678.0, 0.06101863887584192
679.0, 0.05773256413926759
680.0, 0.05475825812382086
681.0, 0.05280607926037376
682.0, 0.05207958789556221
683.0, 0.04938131129555665
684.0, 0.043423703095600064
685.0, 0.04249159563022533
686.0, 0.044335568830473834
687.0, 0.04482616003515373
688.0, 0.040702935127835786
689.0, 0.03500430713919642
690.0, 0.03180297258720596
691.0, 0.03130570756742298
692.0, 0.03222698094656405
693.0, 0.028604419101660315
694.0, 0.02546780946611628
695.0, 0.023103656334632922
696.0, 0.021639333863265137
697.0, 0.019687826781132733
698.0, 0.016191094402082978
699.0, 0.0188093314226734
700.0, 0.01817110798851918
701.0, 0.016439508501345686
702.0, 0.014302342856199635
703.0, 0.012014626250233713
704.0, 0.01143447244184135
705.0, 0.012464009688056193
706.0, 0.008297508121068007
707.0, 0.009391105164562614
708.0, 0.009603603665975027
709.0, 0.00751953369427569
710.0, 0.007684657922609356
711.0, 0.008629483147466107
712.0, 0.005590974386893817
713.0, 0.006904430957057851
714.0, 0.005237344361300221
715.0, 0.0016846516647815962
716.0, 5.4124592434925606e-05
717.0, 0.0005191126575506146
718.0, 0.001883433559038058
719.0, 0.003561440351455261
720.0, 0.0003636848333741045
721.0, 0.0017807103947148518
722.0, 0.0009448957260397282
723.0, 0.0026628632691613283
724.0, 0.0015839766413135682
725.0, 0.0002742286850799394
726.0, 0.004188244083086229
727.0, 0.0025803183411899455
728.0, 0.004012968436405391
729.0, 0.003380747391212756
730.0, 0.0012561668262635207
731.0, 0.004399097018100591
732.0, 0.002242190743388959
733.0, 0.0013387355362665986
734.0, 0.005355288335766379
735.0, 0.0009300456852170595
736.0, 0.0013180104356969832
737.0, 0.003789495507517019
738.0, 0.005220740251767752
739.0, 0.006939914930185583
740.0, 0.009487182270958074
741.0, 0.009388843391294005
742.0, 0.012764060142390015
743.0, 0.011709471840945337
744.0, 0.012914672712635264
745.0, 0.013896636381115421
746.0, 0.01357234828925703
747.0, 0.014696601560158378
748.0, 0.01625262696103348
749.0, 0.018237083540028724
750.0, 0.020414501990605183
751.0, 0.01642364623566456
752.0, 0.019541793059642744
753.0, 0.0241079018569083
754.0, 0.023757317650147193
755.0, 0.028208454991840916
756.0, 0.029343896873628584
757.0, 0.026138579688614445
758.0, 0.028536659129166374
759.0, 0.029910627235875762
760.0, 0.027146837331592004
761.0, 0.02490036620354498
762.0, 0.025780361341915997
763.0, 0.026702805537280494
764.0, 0.027893770825042942
765.0, 0.026733004673832675
766.0, 0.0268375799295443
767.0, 0.026602932086255485
768.0, 0.024963664741950352
769.0, 0.024367774723843733
770.0, 0.02716205576431368
771.0, 0.0271940914635523
772.0, 0.02843453347911463
773.0, 0.023548529406495166
774.0, 0.024712061222430085
775.0, 0.025129955577938644
776.0, 0.022010554239848733
777.0, 0.02354615315764078
778.0, 0.02097964077671036
779.0, 0.019821217052480928
780.0, 0.020900905805136785
781.0, 0.01890677739496662
782.0, 0.013699867258967295
783.0, 0.011254719002879224
784.0, 0.012088465458847826
785.0, 0.011089207372930912
786.0, 0.009431301910554744
787.0, 0.009773777432658991
788.0, 0.008948227984436839
789.0, 0.005693186201012514
790.0, 0.0026154634872803556
791.0, 0.0005516551225455974
792.0, 0.00013780589782120945
793.0, 0.0016650103907750113
794.0, 0.0016396286489084343
795.0, 0.003702152071545733
796.0, 0.003105826473195257
797.0, 0.0005631164642930246
798.0, 0.0013037813466157152
799.0, 0.002911573569705438
800.0, 0.001514245018038064
801.0, 0.00024375217809718229
802.0, 0.0022105252003172936
803.0, 0.0006577816094142009
804.0, 0.0002984546198125348
805.0, 0.002138376497694011
806.0, 0.0034356654042774653
807.0, 0.003592462392550326
808.0, 0.006138029813391997
809.0, 0.006401682767258341
810.0, 0.009442961365365363
811.0, 0.007028512587149424
812.0, 0.004664805307455987
813.0, 0.0016130236873193311
814.0, 0.003370773064260879
815.0, 0.009052826715242214
816.0, 0.01129050019008708
817.0, 0.01091841776351769
818.0, 0.008379188811382367
819.0, 0.010551744610810553
820.0, 0.0166062255994638
821.0, 0.017411361704589002
822.0, 0.013691620358542394
823.0, 0.013157339009353822
824.0, 0.016637900990738627
825.0, 0.014649560375012869
826.0, 0.014092615187363869
827.0, 0.018070069055679146
828.0, 0.018787955014114045
829.0, 0.019760483466465667
830.0, 0.020113504695350004
831.0, 0.018591536210186017
832.0, 0.018556401768409315
833.0, 0.020581643661553312
834.0, 0.023522347246149
835.0, 0.02270315880530089
836.0, 0.01837344187229371
837.0, 0.017569470431214238
838.0, 0.021343103733562054
839.0, 0.022844375268918814
840.0, 0.01982915144853326
841.0, 0.01873535341646402
842.0, 0.02119132659472718
843.0, 0.0218652646896106
844.0, 0.021729290858223525
845.0, 0.02360362346277796
846.0, 0.022113035018005236
847.0, 0.02020441332929727
848.0, 0.021241364692283972
849.0, 0.021657456452646325
850.0, 0.021216382916571446
851.0, 0.02612456394792029
852.0, 0.027223829123870186
853.0, 0.023143946322704723
854.0, 0.022864480654038073
855.0, 0.024197328818532465
856.0, 0.023569306385239477
857.0, 0.023408074625246935
858.0, 0.023767885367932565
859.0, 0.029789120433314525
860.0, 0.027610283812136854
861.0, 0.026126514825608512
862.0, 0.02743956175920322
863.0, 0.027256265867712626
864.0, 0.025287351855312987
865.0, 0.025803351413395174
866.0, 0.028298041298365273
867.0, 0.027076075487612254
868.0, 0.026312828557243862
869.0, 0.02867719001859573
870.0, 0.029606389436406987
871.0, 0.029938825558642624
872.0, 0.031083975836260484
873.0, 0.028996089452866344
874.0, 0.027837553589464135
875.0, 0.033403806920149826
876.0, 0.0321212875506757
877.0, 0.03444861339252303
878.0, 0.029609727321729812
879.0, 0.0282159190321978
880.0, 0.03174766697485713
881.0, 0.03363789319106096
882.0, 0.03500910929063621
883.0, 0.037019162454403065
884.0, 0.034567674705823684
885.0, 0.033667128682664194
886.0, 0.03473893480656833
887.0, 0.03301858270390288
888.0, 0.034543841000257716
889.0, 0.03418914425494777
890.0, 0.03295041620575279
891.0, 0.03299472734229883
892.0, 0.03382166324677165
893.0, 0.03487104272962097
894.0, 0.035523342999316705
895.0, 0.03389276813608974
896.0, 0.036698033473489496
897.0, 0.03364245268899212
898.0, 0.03206660020398714
899.0, 0.03133612449912445
900.0, 0.031085834210749137
901.0, 0.03186773730857436
902.0, 0.02905696625738245
903.0, 0.030875398994279143
904.0, 0.026241212713818525
905.0, 0.02706598759570981
906.0, 0.027748147539179015
907.0, 0.029548417112323724
908.0, 0.028422780581888955
909.0, 0.025478758087181464
910.0, 0.025070850530613795
911.0, 0.025498106671081374
912.0, 0.02267873353287518
913.0, 0.021340824944881404
914.0, 0.022614063843515872
915.0, 0.01622294932823679
916.0, 0.018269750403842978
917.0, 0.016726874403959535
918.0, 0.013774333090454964
919.0, 0.014667611427824509
920.0, 0.013896091958369992
921.0, 0.012082078525650568
922.0, 0.008002276362991131
923.0, 0.007802002574787619
924.0, 0.005653664706546782
925.0, 0.006276632940649671
926.0, 0.004561373561201717
927.0, 0.0038876795721247237
928.0, 0.004083941618044347
929.0, 0.0026228243916504353
930.0, 0.0035403813939968217
931.0, 0.007453965737131984
932.0, 0.004080587685403643
933.0, 0.0006581622122669343
934.0, 0.002059512805310691
935.0, 0.0010178061473950426
936.0, 0.0013827924593369854
937.0, 0.00074976209112911
938.0, 0.0005081107167639117
939.0, 0.0007870354557704604
940.0, 0.0007436264432765054
941.0, 0.0025324409778955535
942.0, 0.00030092877639651804
943.0, 0.0030602997436150153
944.0, 0.003280495578959775
945.0, 0.008478945982372924
946.0, 0.005465266075185673
947.0, 0.002397192569952856
948.0, 0.0031755123806944873
949.0, 0.0034968194914726507
950.0, 0.005153445462857279
951.0, 0.003145023867674239
952.0, 0.00568342259180643
953.0, 0.006849899872953191
954.0, 0.0026520666949650853
955.0, 0.0018517844232162066
956.0, 0.0015262939813375897
957.0, 0.0040432701283442205
958.0, 0.0021317729001807447
959.0, 0.0018768348688319955
960.0, 0.0029951473427017113
961.0, 0.0015579385641371608
962.0, 0.0002985279684254587
963.0, 0.0012598077323546701
964.0, 0.002045897532371015
965.0, 0.0012704884487849686
966.0, 0.0004989025981509445
967.0, 0.0009298740703694552
968.0, 0.001705792253897297
969.0, 0.0018276289194033314
970.0, 0.0023224398618106002
971.0, 0.006257107666939503
972.0, 0.0008836453760408641
973.0, 0.0027097276205419983
974.0, 0.005264063748047982
975.0, 0.005620133763959458
976.0, 0.0070874935003568534
977.0, 0.008816750031955171
978.0, 0.009701681123022785
979.0, 0.011151849732617111
980.0, 0.011226218547529285
981.0, 0.008657886814874366
982.0, 0.01057103206267764
983.0, 0.011393419831664444
984.0, 0.015128556839339908
985.0, 0.016422728363947686
986.0, 0.017218013665372633
987.0, 0.018789051697826218
988.0, 0.019781367770451745
989.0, 0.018840918573065427
990.0, 0.01876440872066216
991.0, 0.02143147168048777
992.0, 0.02244342735417213
993.0, 0.021861281582789608
994.0, 0.022418743271901083
995.0, 0.02711942287801318
996.0, 0.027100042951304974
997.0, 0.02896985366457108
998.0, 0.030381576774971136
999.0, 0.030868305052035094
1000.0, 0.03171409019076295
1001.0, 0.033503122572418616
1002.0, 0.0341179089786601
1003.0, 0.0327716503439213
1004.0, 0.03673451214347574
1005.0, 0.037976375840748956
1006.0, 0.035780793288405416
1007.0, 0.03813481458818463
1008.0, 0.03827503578513266
1009.0, 0.03783172364425578
1010.0, 0.03863706379244481
1011.0, 0.03927390154128537
1012.0, 0.04018105967133945
1013.0, 0.04150972183303614
1014.0, 0.04243116090441825
1015.0, 0.044602760426013646
1016.0, 0.0453929794968314
1017.0, 0.04945461022516478
1018.0, 0.05151160327479565
1019.0, 0.04713943970509798
1020.0, 0.046469822403240386
1021.0, 0.047315923892082716
1022.0, 0.04570115346572107
1023.0, 0.04562361783068836
1024.0, 0.0502283065696789
1025.0, 0.054241752863618646
1026.0, 0.050164964706299955
1027.0, 0.04933396799984828
1028.0, 0.053385064837794545
1029.0, 0.05378291310089604
1030.0, 0.05374418806350005
1031.0, 0.05796260766659221
1032.0, 0.0580030844413507
1033.0, 0.061675501557712564
1034.0, 0.06228241257424865
1035.0, 0.06238345247103841
1036.0, 0.06781627707226173
1037.0, 0.07075448720949978
1038.0, 0.06964087381816124
1039.0, 0.06850448860299675
1040.0, 0.06681779264202706
1041.0, 0.06940521600096516
1042.0, 0.06585022456294704
1043.0, 0.06853549645713382
1044.0, 0.07114133835312753
1045.0, 0.06775640440802544
1046.0, 0.06717840650541122
1047.0, 0.07033963547116653
1048.0, 0.07202361209091433
1049.0, 0.07124429261765712
1050.0, 0.06790380992240445
1051.0, 0.06528733998141184
1052.0, 0.07021103233037002
1053.0, 0.06840328173305679
1054.0, 0.06973978968503466
1055.0, 0.07259229902578597
1056.0, 0.07530707806639197
1057.0, 0.07176030178290105
1058.0, 0.07158686637472206
1059.0, 0.06992809566117011
1060.0, 0.06899229549763758
1061.0, 0.07385282375659152
1062.0, 0.07530883688933117
1063.0, 0.07285803883536496
1064.0, 0.07309649515052023
1065.0, 0.07225259803785733
1066.0, 0.0730244479420879
1067.0, 0.07021468528790288
1068.0, 0.07511872691018238
1069.0, 0.0741063565023667
1070.0, 0.07273851978820643
1071.0, 0.07283627148724311
1072.0, 0.07179127748528256
1073.0, 0.07116446925568518
1074.0, 0.06985542796956709
1075.0, 0.07088176861999064
1076.0, 0.07610336695540294
1077.0, 0.07176222304077683
1078.0, 0.07011095092425804
1079.0, 0.06896905495911713
1080.0, 0.07050411234517096
1081.0, 0.07725670323802389
1082.0, 0.07472730016029765
1083.0, 0.07731030653846592
1084.0, 0.08086815811133878
1085.0, 0.083881417912906
1086.0, 0.08730710504643883
1087.0, 0.09104517635269974
1088.0, 0.09874456734755221
1089.0, 0.1031729818764271
1090.0, 0.10033676914613653
1091.0, 0.10604019651811271
1092.0, 0.1155538393933739
1093.0, 0.11683198261369554
1094.0, 0.1117983186740682
1095.0, 0.11186267856532743
1096.0, 0.10956100126857415
1097.0, 0.11270823563222229
1098.0, 0.11051697947780295
1099.0, 0.10666044411339007
1100.0, 0.11240314622635936
1101.0, 0.11669673330184104
1102.0, 0.11585042791137362
1103.0, 0.11906708307182606
1104.0, 0.11573692642338251
1105.0, 0.11349630142506875
1106.0, 0.11206633921429186
1107.0, 0.12378042348835906
1108.0, 0.12366665320559546
1109.0, 0.11946844197141891
1110.0, 0.11482967077141558
1111.0, 0.11081971294296904
1112.0, 0.10711637924688486
1113.0, 0.10462282194826102
1114.0, 0.10375116011839172
1115.0, 0.10154898374380143
1116.0, 0.09938641528467528
1117.0, 0.10084018625149428
1118.0, 0.10131429703153035
1119.0, 0.09536604455396483
1120.0, 0.09292480760930312
1121.0, 0.08383758745098478
1122.0, 0.08352679395208455
1123.0, 0.08617394948275309
1124.0, 0.07816996502080938
1125.0, 0.07865510911009146
1126.0, 0.07223318380008269
1127.0, 0.06662101955435949
1128.0, 0.06672447719957646
1129.0, 0.06751180985033549
1130.0, 0.0635837993049353
1131.0, 0.057744473394331954
1132.0, 0.0557743913252846
1133.0, 0.054501227741457624
1134.0, 0.05114025896840337
1135.0, 0.04082121788894034
1136.0, 0.034846527037900435
1137.0, 0.029366853166049357
1138.0, 0.02576229411291794
1139.0, 0.02190221916019709
1140.0, 0.015034824762767986
1141.0, 0.0053371319505093814
1142.0, 0.003064698998570479
1143.0, 0.011659340835797331
1144.0, 0.0163051745727423
1145.0, 0.025374001092569407
1146.0, 0.021845615368021407
1147.0, 0.007777567028860325
1148.0, 0.008326241196967645
1149.0, 0.012610128753580072
1150.0, 0.012048950081979827
1151.0, 0.003306216161629134
1152.0, 0.010947670805068185
1153.0, 0.02048955681870575
1154.0, 0.02023973973400612
1155.0, 0.02660488241566751
1156.0, 0.030384341927662074
1157.0, 0.027227543027955752
1158.0, 0.03704150372774042
1159.0, 0.046241837655875286
1160.0, 0.04989810636246323
1161.0, 0.053185114135730904
1162.0, 0.06196118209736313
1163.0, 0.06665080753562086
1164.0, 0.06794422810782585
1165.0, 0.0766981542524275
1166.0, 0.07832671785817392
1167.0, 0.07918350691060516
1168.0, 0.08809949771308238
1169.0, 0.10289118613742183
1170.0, 0.10596615140567732
1171.0, 0.1056529117829178
1172.0, 0.11285294311731836
1173.0, 0.11601891027301538
1174.0, 0.0979070471013572
1175.0, 0.0833301157197153
1176.0, 0.0785248708047212
1177.0, 0.06881079472249621
1178.0, 0.06580078499105818
1179.0, 0.07140723642034143
1180.0, 0.07300369855512241
1181.0, 0.06993443854734517
1182.0, 0.06308176297225256
1183.0, 0.053041220324489026
1184.0, 0.05510397857057256
1185.0, 0.053744470419913905
1186.0, 0.034035860608530026
1187.0, 0.05050137508792647
1188.0, 0.042097007400287635
1189.0, 0.04139125548921484
1190.0, 0.0318609105539954
1191.0, 0.035272577754457364
1192.0, 0.028602217625159732
1193.0, 0.02703445284009588
1194.0, 0.029766347538091542
1195.0, 0.023469572283914233
1196.0, 0.017886518953664495
1197.0, 0.017199523755699518
1198.0, 0.010131849329278856
1199.0, 0.007951265616683
1200.0, 0.008396040235785579
1201.0, 0.007519349376095987
1202.0, 0.005306634026265424
1203, 0.0
1204, 0.0
1205, 0.0
1206, 0.0
1207, 0.0
1208, 0.0
1209, 0.0
1210, 0.0
1211, 0.0
1212, 0.0
1213, 0.0
1214, 0.0
1215, 0.0
1216, 0.0
1217, 0.0
1218, 0.0
1219, 0.0
1220, 0.0
1221, 0.0
1222, 0.0
1223, 0.0
1224, 0.0
1225, 0.0
1226, 0.0
1227, 0.0
1228, 0.0
1229, 0.0
1230, 0.0
1231, 0.0
1232, 0.0
1233, 0.0
1234, 0.0
1235, 0.0
1236, 0.0
1237, 0.0
1238, 0.0
1239, 0.0
1240, 0.0
1241, 0.0
1242, 0.0
1243, 0.0
1244, 0.0
1245, 0.0
1246, 0.0
1247, 0.0
1248, 0.0
1249, 0.0
1250, 0.0
1251, 0.0
1252, 0.0
1253, 0.0
1254, 0.0
1255, 0.0
1256, 0.0
1257, 0.0
1258, 0.0
1259, 0.0
1260, 0.0
1261, 0.0
1262, 0.0
1263, 0.0
1264, 0.0
1265, 0.0
1266, 0.0
1267, 0.0
1268, 0.0
1269, 0.0
1270, 0.0
1271, 0.0
1272, 0.0
1273, 0.0
1274, 0.0
1275, 0.0
1276, 0.0
1277, 0.0
1278, 0.0
1279, 0.0
1280, 0.0
1281, 0.0
1282, 0.0
1283, 0.0
1284, 0.0
1285, 0.0
1286, 0.0
1287, 0.0
1288, 0.0
1289, 0.0
1290, 0.0
1291, 0.0
1292, 0.0
1293, 0.0
1294, 0.0
1295, 0.0
1296, 0.0
1297, 0.0
1298, 0.0
1299, 0.0
1300, 0.0
1301, 0.0
1302, 0.0
1303, 0.0
1304, 0.0
1305, 0.0
1306, 0.0
1307, 0.0
1308, 0.0
1309, 0.0
1310, 0.0
1311, 0.0
1312, 0.0
1313, 0.0
1314, 0.0
1315, 0.0
1316, 0.0
1317, 0.0
1318, 0.0
1319, 0.0
1320, 0.0
1321, 0.0
1322, 0.0
1323, 0.0
1324, 0.0
1325, 0.0
1326, 0.0
1327, 0.0
1328, 0.0
1329, 0.0
1330, 0.0
1331, 0.0
1332, 0.0
1333, 0.0
1334, 0.0
1335, 0.0
1336, 0.0
1337, 0.0
1338, 0.0
1339, 0.0
1340, 0.0
1341, 0.0
1342, 0.0
1343, 0.0
1344, 0.0
1345, 0.0
1346, 0.0
1347, 0.0
1348, 0.0
1349, 0.0
1350, 0.0
1351, 0.0
1352, 0.0
1353, 0.0
1354, 0.0
1355, 0.0
1356, 0.0
1357, 0.0
1358, 0.0
1359, 0.0
1360, 0.0
1361, 0.0
1362, 0.0
1363, 0.0
1364, 0.0
1365, 0.0
1366, 0.0
1367, 0.0
1368, 0.0
1369, 0.0
1370, 0.0
1371, 0.0
1372, 0.0
1373, 0.0
1374, 0.0
1375, 0.0
1376, 0.0
1377, 0.0
1378, 0.0
1379, 0.0
1380, 0.0
1381, 0.0
1382, 0.0
1383, 0.0
1384, 0.0
1385, 0.0
1386, 0.0
1387, 0.0
1388, 0.0
1389, 0.0
1390, 0.0
1391, 0.0
1392, 0.0
1393, 0.0
1394, 0.0
1395, 0.0
1396, 0.0
1397, 0.0
1398, 0.0
1399, 0.0
1400, 0.0
1401, 0.0
1402, 0.0
1403, 0.0
1404, 0.0
1405, 0.0
1406, 0.0
1407, 0.0
1408, 0.0
1409, 0.0
1410, 0.0
1411, 0.0
1412, 0.0
1413, 0.0
1414, 0.0
1415, 0.0
1416, 0.0
1417, 0.0
1418, 0.0
1419, 0.0
1420, 0.0
1421, 0.0
1422, 0.0
1423, 0.0
1424, 0.0
1425, 0.0
1426, 0.0
1427, 0.0
1428, 0.0
1429, 0.0
1430, 0.0
1431, 0.0
1432, 0.0
1433, 0.0
1434, 0.0
1435, 0.0
1436, 0.0
1437, 0.0
1438, 0.0
1439, 0.0
1440, 0.0
1441, 0.0
1442, 0.0
1443, 0.0
1444, 0.0
1445, 0.0
1446, 0.0
1447, 0.0
1448, 0.0
1449, 0.0
1450, 0.0
1451, 0.0
1452, 0.0
1453, 0.0
1454, 0.0
1455, 0.0
1456, 0.0
1457, 0.0
1458, 0.0
1459, 0.0
1460, 0.0
1461, 0.0
1462, 0.0
1463, 0.0
1464, 0.0
1465, 0.0
1466, 0.0
1467, 0.0
1468, 0.0
1469, 0.0
1470, 0.0
1471, 0.0
1472, 0.0
1473, 0.0
1474, 0.0
1475, 0.0
1476, 0.0
1477, 0.0
1478, 0.0
1479, 0.0
1480, 0.0
1481, 0.0
1482, 0.0
1483, 0.0
1484, 0.0
1485, 0.0
1486, 0.0
1487, 0.0
1488, 0.0
1489, 0.0
1490, 0.0
1491, 0.0
1492, 0.0
1493, 0.0
1494, 0.0
1495, 0.0
1496, 0.0
1497, 0.0
1498, 0.0
1499, 0.0
1500, 0.0
1501, 0.0
1502, 0.0
1503, 0.0
1504, 0.0
1505, 0.0
1506, 0.0
1507, 0.0
1508, 0.0
1509, 0.0
1510, 0.0
1511, 0.0
1512, 0.0
1513, 0.0
1514, 0.0
1515, 0.0
1516, 0.0
1517, 0.0
1518, 0.0
1519, 0.0
1520, 0.0
1521, 0.0
1522, 0.0
1523, 0.0
1524, 0.0
1525, 0.0
1526, 0.0
1527, 0.0
1528, 0.0
1529, 0.0
1530, 0.0
1531, 0.0
1532, 0.0
1533, 0.0
1534, 0.0
1535, 0.0
1536, 0.0
1537, 0.0
1538, 0.0
1539, 0.0
1540, 0.0
1541, 0.0
1542, 0.0
1543, 0.0
1544, 0.0
1545, 0.0
1546, 0.0
1547, 0.0
1548, 0.0
1549, 0.0
1550, 0.0
1551, 0.0
1552, 0.0
1553, 0.0
1554, 0.0
1555, 0.0
1556, 0.0
1557, 0.0
1558, 0.0
1559, 0.0
1560, 0.0
1561, 0.0
1562, 0.0
1563, 0.0
1564, 0.0
1565, 0.0
1566, 0.0
1567, 0.0
1568, 0.0
1569, 0.0
1570, 0.0
1571, 0.0
1572, 0.0
1573, 0.0
1574, 0.0
1575, 0.0
1576, 0.0
1577, 0.0
1578, 0.0
1579, 0.0
1580, 0.0
1581, 0.0
1582, 0.0
1583, 0.0
1584, 0.0
1585, 0.0
1586, 0.0
1587, 0.0
1588, 0.0
1589, 0.0
1590, 0.0
1591, 0.0
1592, 0.0
1593, 0.0
1594, 0.0
1595, 0.0
1596, 0.0
1597, 0.0
1598, 0.0
1599, 0.0
