30, 0.0
31, 0.0
32, 0.0
33, 0.0
34, 0.0
35, 0.0
36, 0.0
37, 0.0
38, 0.0
39, 0.0
40, 0.0
41, 0.0
42, 0.0
43, 0.0
44, 0.0
45, 0.0
46, 0.0
47, 0.0
48, 0.0
49, 0.0
50, 0.0
51, 0.0
52, 0.0
53, 0.0
54, 0.0
55, 0.0
56, 0.0
57, 0.0
58, 0.0
59, 0.0
60, 0.0
61, 0.0
62, 0.0
63, 0.0
64, 0.0
65, 0.0
66, 0.0
67, 0.0
68, 0.0
69, 0.0
70, 0.0
71, 0.0
72, 0.0
73, 0.0
74, 0.0
75, 0.0
76, 0.0
77, 0.0
78, 0.0
79, 0.0
80, 0.0
81, 0.0
82, 0.0
83, 0.0
84, 0.0
85, 0.0
86, 0.0
87, 0.0
88, 0.0
89, 0.0
90, 0.0
91, 0.0
92, 0.0
93, 0.0
94.0, 0.0003160266553841611
95.0, 0.002799604214208433
96.0, 0.010200807445961614
97.0, 0.005312999010854178
98.0, 0.004619330767998292
99.0, 0.008824071381082823
100.0, 0.010201225687499817
101.0, 0.0032709639603751657
102.0, 0.0006516269052653038
103.0, 0.000518556770118489
104.0, 0.0009300197939586353
105.0, 0.006463207209238585
106.0, 0.016337022598745102
107.0, 0.03674871768370957
108.0, 0.0503825250240302
109.0, 0.04050275461576561
110.0, 0.03372958260534227
111.0, 0.03561498727668947
112.0, 0.04344045471121344
113.0, 0.0527727428813061
114.0, 0.056280512109449524
115.0, 0.06088765900088689
116.0, 0.0724141367366083
117.0, 0.08622227844632016
118.0, 0.08726287562489231
119.0, 0.07818425068145037
120.0, 0.06385433841461433
121.0, 0.05272991536630467
122.0, 0.0527827355091686
123.0, 0.06096861466388596
124.0, 0.06579254018314852
125.0, 0.06211625789054373
126.0, 0.051851971356952374
127.0, 0.042894669516845854
128.0, 0.03997473308803884
129.0, 0.043619015585892026
130.0, 0.0486443091339789
131.0, 0.04453754396969955
132.0, 0.03810113035191022
133.0, 0.031971390638989926
134.0, 0.028740689644229253
135.0, 0.026881127283679966
136.0, 0.02549558097670465
137.0, 0.0260613066626256
138.0, 0.03156783105366938
139.0, 0.03923686512553463
140.0, 0.03610693020635238
141.0, 0.03215412618140101
142.0, 0.02565126184326157
143.0, 0.01577628815907906
144.0, 0.020634107583305382
145.0, 0.021689775163462374
146.0, 0.023373802729396237
147.0, 0.028369671630983015
148.0, 0.02699222763204817
149.0, 0.019568436299077768
150.0, 0.01703144238818715
151.0, 0.019629660545391166
152.0, 0.018260159132520368
153.0, 0.021320959469530738
154.0, 0.021543452752067746
155.0, 0.019088218199668078
156.0, 0.016164875788614644
157.0, 0.01169816666723522
158.0, 0.00451091208003326
159.0, 0.0013293647292757487
160.0, 0.003942646914381558
161.0, 0.00475496171970131
162.0, 0.007449313439590359
163.0, 0.00917704577109334
164.0, 0.008102984429681768
165.0, 0.004611685694080243
166.0, 0.002364093862814484
167.0, 0.0022842189807749233
168.0, 0.001634546937388286
169.0, 0.0013740634913500666
170.0, 0.002710279513153137
171.0, 0.0009957376900063036
172.0, 0.0010591442840652083
173.0, 0.0014737059208569368
174.0, 0.001936549375501549
175.0, 0.00363208948323442
176.0, 0.003974172059199986
177.0, 0.0025377205258265974
178.0, 0.0010591106922352947
179.0, 0.0014996348877990536
180.0, 0.00015490042522821058
181.0, 0.000624925845345436
182.0, 0.004439047057260843
183.0, 0.0043076673465313195
184.0, 0.0015194993984199079
185.0, 0.006550387163581766
186.0, 0.009484427109416523
187.0, 0.011150621331493454
188.0, 0.011546038244757991
189.0, 0.012075691145672345
190.0, 0.016149565574881647
191.0, 0.024513408801726613
192.0, 0.025739859147012698
193.0, 0.027304764502551426
194.0, 0.030170038432478785
195.0, 0.03470008651653618
196.0, 0.04311395035116111
197.0, 0.05022297377974576
198.0, 0.05331376072539154
199.0, 0.05785932137013162
200.0, 0.06943146787195278
201.0, 0.07471878716178446
202.0, 0.07926946560037511
203.0, 0.08527028747228585
204.0, 0.09357429404494311
205.0, 0.10680457786485448
206.0, 0.11708985824118051
207.0, 0.12652897679263903
208.0, 0.1352729994216327
209.0, 0.14213016615350188
210.0, 0.1535489471404882
211.0, 0.16809477524541552
212.0, 0.1821046913986723
213.0, 0.1930087957148787
214.0, 0.20164482592290894
215.0, 0.21653812412192872
216.0, 0.23058681143259172
217.0, 0.23726852287494204
218.0, 0.23500982486379815
219.0, 0.23601547482660462
220.0, 0.23603436032415798
221.0, 0.23579740640883629
222.0, 0.23615893480401984
223.0, 0.23079113845878785
224.0, 0.2235985754051496
225.0, 0.21435485734238507
226.0, 0.2049391956503704
227.0, 0.1993388226963427
228.0, 0.19414686867031222
229.0, 0.18302272455870217
230.0, 0.16979242731068944
231.0, 0.15979375061463302
232.0, 0.1532729539559285
233.0, 0.1466437320479933
234.0, 0.13901510254532634
235.0, 0.13130390159703598
236.0, 0.12453765914777526
237.0, 0.11795655429695756
238.0, 0.11650870182165794
239.0, 0.11341876411334442
240.0, 0.10460698408441323
241.0, 0.10181468084238049
242.0, 0.09849364222059041
243.0, 0.09319283400271298
244.0, 0.08952954268358881
245.0, 0.09258234349665706
246.0, 0.07775536352888726
247.0, 0.07851932264984193
248.0, 0.08180937335036596
249.0, 0.0728265213297006
250.0, 0.062499935318662124
251.0, 0.06562890534137217
252.0, 0.0672971829372628
253.0, 0.06215572098849475
254.0, 0.05694523194862714
255.0, 0.05970071800439468
256.0, 0.06138544879924017
257.0, 0.06088734391672189
258.0, 0.060935290654279634
259.0, 0.06492210729353393
260.0, 0.06447914205609137
261.0, 0.0612073188366963
262.0, 0.059863111500211924
263.0, 0.0636303598742743
264.0, 0.06704812907145657
265.0, 0.07446592037893975
266.0, 0.07481158059076469
267.0, 0.07164315423572741
268.0, 0.08107864206175118
269.0, 0.08144790617931748
270.0, 0.0822181100439007
271.0, 0.08427839442953775
272.0, 0.08595640074046505
273.0, 0.09110214555002882
274.0, 0.09283386768058813
275.0, 0.08949544764408025
276.0, 0.09012182852475883
277.0, 0.10101558627674609
278.0, 0.09351508661332139
279.0, 0.08838139125328077
280.0, 0.08309969837230857
281.0, 0.07357073096128654
282.0, 0.06489487831035241
283.0, 0.06004108962188323
284.0, 0.046367688420480384
285.0, 0.03490745700471964
286.0, 0.036028036797163196
287.0, 0.030079422972545195
288.0, 0.02119097969027814
289.0, 0.012972035248853115
290.0, 0.006016017100066787
291.0, 0.001111194730959312
292.0, 0.005153844767643792
293.0, 0.00436126071036529
294.0, 0.006261894049434414
295.0, 0.011817265843629306
296.0, 0.011911592863705411
297.0, 0.01033414592507465
298.0, 0.008601257318086388
299.0, 0.007991631649408151
300.0, 0.008811754198418462
301.0, 0.00935465010065477
302.0, 0.006727990621712226
303.0, 0.0019727741717999914
304.0, 0.00431268217815117
305.0, 0.011542114606187487
306.0, 0.02049989287857996
307.0, 0.025001821843601255
308.0, 0.02836527995324425
309.0, 0.033976168408389025
310.0, 0.04170856422967553
311.0, 0.0507747009486117
312.0, 0.05681861083458673
313.0, 0.06443324250558394
314.0, 0.07489072240703264
315.0, 0.08100044132950206
316.0, 0.08961018812198981
317.0, 0.09576388369430897
318.0, 0.1018779413601316
319.0, 0.1103500604404111
320.0, 0.11376765620200155
321.0, 0.11699656776460106
322.0, 0.12648988858158378
323.0, 0.1343003408086318
324.0, 0.1304313926227916
325.0, 0.12845519354247184
326.0, 0.13001222591851827
327.0, 0.12941268377982915
328.0, 0.12408448796085308
329.0, 0.11501676824324066
330.0, 0.11061948496546682
331.0, 0.10766497078933375
332.0, 0.10642490161273167
333.0, 0.10811458577440418
334.0, 0.11236896524605403
335.0, 0.11198579882074679
336.0, 0.11446091069341391
337.0, 0.12027496940147847
338.0, 0.12406651635130064
339.0, 0.11957056936937586
340.0, 0.11849032113309649
341.0, 0.1225920452842135
342.0, 0.1252103595916199
343.0, 0.12137472045595801
344.0, 0.1203961071260845
345.0, 0.11915617947740297
346.0, 0.11577660988090027
347.0, 0.11267374280480026
348.0, 0.1126849917937562
349.0, 0.1117198052583143
350.0, 0.11013062015903355
351.0, 0.11231928985285897
352.0, 0.11329424482411092
353.0, 0.10649188177171423
354.0, 0.1132159556148518
355.0, 0.12298607930497753
356.0, 0.12535877188683187
357.0, 0.1244318499553817
358.0, 0.13444250012486203
359.0, 0.14415522390307434
360.0, 0.15263335062606925
361.0, 0.15744444067579072
362.0, 0.1638073136477066
363.0, 0.18307194687638043
364.0, 0.1961657078867197
365.0, 0.2076954129534401
366.0, 0.21921924071408985
367.0, 0.22927496280282442
368.0, 0.2344014168450225
369.0, 0.245056111619256
370.0, 0.25960956464864837
371.0, 0.2694553237074349
372.0, 0.27233125233932465
373.0, 0.2855475398965379
374.0, 0.291199773790866
375.0, 0.28807874709717796
376.0, 0.2843207951013267
377.0, 0.2847748456525869
378.0, 0.2806573296802989
379.0, 0.26918575274516376
380.0, 0.25184902207646476
381.0, 0.2364566545880436
382.0, 0.22638769257563907
383.0, 0.20721765791778113
384.0, 0.18925655782266343
385.0, 0.1775968972029981
386.0, 0.16348064424231462
387.0, 0.14029663139745602
388.0, 0.12300945425166518
389.0, 0.11084217768459124
390.0, 0.09844527021067782
391.0, 0.08428187043867862
392.0, 0.07015149665432982
393.0, 0.05800104011789241
394.0, 0.05208805137279225
395.0, 0.04947401966724818
396.0, 0.0457066325048596
397.0, 0.039309622114202546
398.0, 0.03776496548362669
399.0, 0.038549417221771104
400.0, 0.04251906396449958
401.0, 0.04296315539095159
402.0, 0.03575362833746809
403.0, 0.0349899671839741
404.0, 0.038418128432094745
405.0, 0.04205892041450943
406.0, 0.0431717383675722
407.0, 0.04281199177068538
408.0, 0.05207741176901194
409.0, 0.05964454687158074
410.0, 0.06805057742495726
411.0, 0.07793823346736671
412.0, 0.0861685803776969
413.0, 0.08981205849825227
414.0, 0.09428685524498169
415.0, 0.10032442425520201
416.0, 0.10870330078257315
417.0, 0.11766365638709529
418.0, 0.11963256789185218
419.0, 0.11772101111272397
420.0, 0.12080924345783176
421.0, 0.12193280061110007
422.0, 0.11520732329020877
423.0, 0.11396716347963608
424.0, 0.11628033675386787
425.0, 0.10933521881965369
426.0, 0.10404822470479574
427.0, 0.10895428990086728
428.0, 0.10480138069396706
429.0, 0.09799671964471143
430.0, 0.0897990740188191
431.0, 0.07951256722406759
432.0, 0.07040586023218369
433.0, 0.06872248651749469
434.0, 0.05661546562850588
435.0, 0.04602510344730717
436.0, 0.04010412507262134
437.0, 0.0369558974835505
438.0, 0.034539842018295096
439.0, 0.02826434496036115
440.0, 0.023298807938561046
441.0, 0.016711840310787564
442.0, 0.00929918607132744
443.0, 0.006991441645190869
444.0, 0.00700277573353061
445.0, 0.0016537875540321306
446.0, 0.0040571572985104625
447.0, 0.002600947980977933
448.0, 0.0026103088635098535
449.0, 0.009439184100106895
450.0, 0.012318083174445679
451.0, 0.014424333435877162
452.0, 0.015881616865858404
453.0, 0.013722447389103193
454.0, 0.010211440269737535
455.0, 0.007413148633432123
456.0, 0.008115760970591036
457.0, 0.007970519645226106
458.0, 0.002105492169119631
459.0, 0.005567114402002183
460.0, 0.007757450291891575
461.0, 0.006808770383290959
462.0, 0.007443359244874242
463.0, 0.010437979565905165
464.0, 0.011252747638964673
465.0, 0.008687154351402883
466.0, 0.0053045768242271085
467.0, 0.007220801888027649
468.0, 0.012427080852025785
469.0, 0.010492425481279488
470.0, 0.014942360217277963
471.0, 0.01739570880262248
472.0, 0.020287757192886308
473.0, 0.024665343397947265
474.0, 0.026459327430938467
475.0, 0.02005839669133596
476.0, 0.02156880343109881
477.0, 0.025530722436315306
478.0, 0.024854112275074912
479.0, 0.02098434656286754
480.0, 0.02525962046479329
481.0, 0.022742275202749424
482.0, 0.025025325081953
483.0, 0.02612351627148395
484.0, 0.02124490697197628
485.0, 0.02204659156270523
486.0, 0.019537342899069547
487.0, 0.02247202085368178
488.0, 0.02767896314494192
489.0, 0.027920690550952657
490.0, 0.019825341850426236
491.0, 0.024232742669944216
492.0, 0.022435050769254138
493.0, 0.02084851467708109
494.0, 0.02140226395017743
495.0, 0.018600339746030006
496.0, 0.014689723982996379
497.0, 0.010158379526800992
498.0, 0.011395015917414096
499.0, 0.011370188282133865
500.0, 0.006846096009626624
501.0, 0.008114426928246616
502.0, 0.012277935579095667
503.0, 0.014050006393003652
504.0, 0.014002412287162595
505.0, 0.01391146764604429
506.0, 0.01362223326182218
507.0, 0.013472670042511684
508.0, 0.013826317499276052
509.0, 0.01630464650289982
510.0, 0.018717197079713466
511.0, 0.017536265741587512
512.0, 0.013476974532409975
513.0, 0.02018782791424726
514.0, 0.02035656705151245
515.0, 0.017712165189731212
516.0, 0.019466630451259365
517.0, 0.021822206318405184
518.0, 0.021415059458093147
519.0, 0.01715133014818011
520.0, 0.014206661565897756
521.0, 0.01530143353936649
522.0, 0.019715204641266058
523.0, 0.02602915412699872
524.0, 0.02417035436508243
525.0, 0.02168327824627644
526.0, 0.023571853453012534
527.0, 0.026174129248192155
528.0, 0.023133042835948057
529.0, 0.02532667062522041
530.0, 0.02408918145789355
531.0, 0.023485938448735987
532.0, 0.02749899535856296
533.0, 0.034817816150168164
534.0, 0.037099615257100774
535.0, 0.03260032584157224
536.0, 0.03747604664226263
537.0, 0.04498711948149181
538.0, 0.046328303101693995
539.0, 0.0490489889521498
540.0, 0.04283516613555204
541.0, 0.04262539870876087
542.0, 0.04608345422818942
543.0, 0.04762173293653129
544.0, 0.046332023316191094
545.0, 0.04483613398241809
546.0, 0.045940405332757804
547.0, 0.0437752881262835
548.0, 0.04008630072261681
549.0, 0.04067774472525234
550.0, 0.04546806074420905
551.0, 0.0315565302341594
552.0, 0.028114316776914703
553.0, 0.02764582483434412
554.0, 0.02493102631673899
555.0, 0.02401964069191898
556.0, 0.020586540944104136
557.0, 0.020629999628747595
558.0, 0.020479141369126506
559.0, 0.017026129947532907
560.0, 0.01108967195925185
561.0, 0.007451320885702395
562.0, 0.013385293448422583
563.0, 0.006981533845385358
564.0, 0.004918682832266082
565.0, 0.011022067784610366
566.0, 0.014314391586973096
567.0, 0.012057931299988705
568.0, 0.024314343231768707
569.0, 0.028818333524189874
570.0, 0.03396354782267901
571.0, 0.043523776219324996
572.0, 0.04927891653165171
573.0, 0.0572578227598215
574.0, 0.07071297848809503
575.0, 0.08244139257172713
576.0, 0.09306450688709425
577.0, 0.10501055970388803
578.0, 0.1172335136630985
579.0, 0.13414893212827295
580.0, 0.15629564105450688
581.0, 0.17093325482479177
582.0, 0.18163508390296432
583.0, 0.19795859926023493
584.0, 0.21452692893477118
585.0, 0.2191803688199651
586.0, 0.22813150447419503
587.0, 0.2349922522257082
588.0, 0.23722323503738352
589.0, 0.23875664188494947
590.0, 0.22950586236572462
591.0, 0.2184710373398127
592.0, 0.21008076762914699
593.0, 0.2035426301259702
594.0, 0.19401557800262784
595.0, 0.1774371423615489
596.0, 0.15807075941346496
597.0, 0.14181914678832874
598.0, 0.1310258048149705
599.0, 0.11946748664170898
600.0, 0.1046571801143109
601.0, 0.09290497539474381
602.0, 0.07165704071310194
603.0, 0.058024886479775405
604.0, 0.04611262222506925
605.0, 0.036047076676677225
606.0, 0.03241990269082594
607.0, 0.029200308656848036
608.0, 0.016177689050834308
609.0, 0.015252523392307557
610.0, 0.010795166823528502
611.0, 0.005137828323610195
612.0, 0.010296141427713831
613.0, 0.005364295209393133
614.0, 0.006850276739640209
615.0, 0.005039604652609068
616.0, 0.0014629797552242606
617.0, 0.0005048874933621506
618.0, 0.0015641570515509593
619.0, 0.0018882383824306008
620.0, 0.0003619329200076119
621.0, 0.00023341937784296935
622.0, 0.004412278827699982
623.0, 0.005951027342643887
624.0, 0.003985471251687293
625.0, 0.002768337144025729
626.0, 0.00506962034296123
627.0, 0.005124683945808827
628.0, 0.0028254209586236916
629.0, 0.005153916321516573
630.0, 0.004372550999683157
631.0, 0.008997819649832041
632.0, 0.009849440169067195
633.0, 0.012564529834626153
634.0, 0.015482126104734017
635.0, 0.01833339699342821
636.0, 0.027636150662783077
637.0, 0.036755005852371035
638.0, 0.04370722854223123
639.0, 0.04817979930498585
640.0, 0.05246717230282444
641.0, 0.05890502659170839
642.0, 0.06476734266342
643.0, 0.07110742584620794
644.0, 0.08214704591006919
645.0, 0.0949809237038205
646.0, 0.10931047523489942
647.0, 0.12369399485460186
648.0, 0.13384539466688675
649.0, 0.14607856059480298
650.0, 0.1614777948539989
651.0, 0.18675597596618967
652.0, 0.20948671445248737
653.0, 0.2274763544472301
654.0, 0.2559803234407607
655.0, 0.27808909122677133
656.0, 0.3054053616018931
657.0, 0.3319106268761764
658.0, 0.35731633498738496
659.0, 0.38639296508579957
660.0, 0.421075564338339
661.0, 0.4548149385539172
662.0, 0.47943511077986967
663.0, 0.5006290709334702
664.0, 0.5186295163290944
665.0, 0.5298775158013367
666.0, 0.531279218573663
667.0, 0.5179420610221164
668.0, 0.4944746513836189
669.0, 0.47029200648249
670.0, 0.43420709842310695
671.0, 0.387470326603872
672.0, 0.34705126938748404
673.0, 0.3068817226298742
674.0, 0.2691533190585257
675.0, 0.23717510421990579
676.0, 0.19659547781728573
677.0, 0.15738604054014801
678.0, 0.13909135336960207
679.0, 0.11731577840538834
680.0, 0.09649490952571367
681.0, 0.08021774304912814
682.0, 0.0662801665571686
683.0, 0.055160748989663715
684.0, 0.049728319679136865
685.0, 0.04349243886305433
686.0, 0.03711414574247679
687.0, 0.023948604763315857
688.0, 0.015032945861635442
689.0, 0.012796313022936299
690.0, 0.010746278591246975
691.0, 0.0041431572624801545
692.0, 0.0008574099767744002
693.0, 0.009000735160229038
694.0, 0.009009664848536604
695.0, 0.00808007034185173
696.0, 0.010410703409682663
697.0, 0.004049871643272724
698.0, 0.006092733227802625
699.0, 0.007955724770144354
700.0, 0.00992831593035127
701.0, 0.013161776354721969
702.0, 0.013487754281833039
703.0, 0.008722405844750768
704.0, 0.008263649329399436
705.0, 0.012574222541046922
706.0, 0.010600113689857762
707.0, 0.00792777922417768
708.0, 0.00704559708445237
709.0, 0.006485855533461822
710.0, 0.006095614562970563
711.0, 0.001611697559231645
712.0, 0.0013443692525003839
713.0, 0.0003588265538983742
714.0, 0.00386663114016306
715.0, 0.008791653978788751
716.0, 0.003344673330378917
717.0, 0.0019804143198596533
718.0, 0.0016391802375735397
719.0, 0.0003392629937502152
720.0, 0.00017541924667755784
721.0, 0.000855825682798631
722.0, 0.0016706677502640933
723.0, 0.005703226070662502
724.0, 0.005336787170917989
725.0, 0.005601821307157861
726.0, 0.003905593715122835
727.0, 0.011019799785026313
728.0, 0.026599838716749695
729.0, 0.026929503824507157
730.0, 0.013602962097706124
731.0, 0.011820030443027738
732.0, 0.012038309576165775
733.0, 0.016690131856042595
734.0, 0.024469268304401385
735.0, 0.0276892442109343
736.0, 0.03214118957626164
737.0, 0.03254851472889307
738.0, 0.04203353846765194
739.0, 0.04874148684209423
740.0, 0.056117745881129624
741.0, 0.06854413078216426
742.0, 0.07197325537665275
743.0, 0.07672190547540568
744.0, 0.08982094515463634
745.0, 0.1052731734656172
746.0, 0.11887657034419165
747.0, 0.12812450354871543
748.0, 0.13730285773787124
749.0, 0.16083779633502118
750.0, 0.17963886883096972
751.0, 0.19152184140351775
752.0, 0.2078453250654401
753.0, 0.2241205404642474
754.0, 0.23392494811801007
755.0, 0.2482118017693174
756.0, 0.27350891040204006
757.0, 0.27784938848224094
758.0, 0.2971762804185168
759.0, 0.31995750035015175
760.0, 0.3365109542241204
761.0, 0.35352497577420716
762.0, 0.3731014391965246
763.0, 0.3824769076926894
764.0, 0.3927461716725242
765.0, 0.4083193434524843
766.0, 0.4199552485128468
767.0, 0.4311863584900708
768.0, 0.44871808813070263
769.0, 0.4495339001297991
770.0, 0.4539308347447011
771.0, 0.4658435496188253
772.0, 0.4785379332797747
773.0, 0.48572852101496966
774.0, 0.4874347917199436
775.0, 0.48782565913782855
776.0, 0.48367991475212574
777.0, 0.4878575328006258
778.0, 0.4871728042915469
779.0, 0.4838744504396052
780.0, 0.4847597541003563
781.0, 0.48631660712729086
782.0, 0.4793527616939441
783.0, 0.46700549645686223
784.0, 0.46310739392012984
785.0, 0.4584276628399642
786.0, 0.4573229353178893
787.0, 0.45439752496165037
788.0, 0.4422775424364795
789.0, 0.4374906952365695
790.0, 0.4398853664834647
791.0, 0.4275706000928901
792.0, 0.4196901615721024
793.0, 0.4125234840686255
794.0, 0.4082056663266127
795.0, 0.4138715180226105
796.0, 0.4073919375828576
797.0, 0.40029338959701694
798.0, 0.4017062576554486
799.0, 0.40179074957521377
800.0, 0.40506305457395314
801.0, 0.4138816967604715
802.0, 0.4238448946497998
803.0, 0.43939219657986467
804.0, 0.4459375830058889
805.0, 0.4766589060797942
806.0, 0.49573094374401205
807.0, 0.5152762927362572
808.0, 0.5496117849266362
809.0, 0.5777128658763963
810.0, 0.5941942949211136
811.0, 0.6127617756566291
812.0, 0.6539035193794427
813.0, 0.6850066941536952
814.0, 0.7088562475103248
815.0, 0.7387903656931092
816.0, 0.7724041406423291
817.0, 0.7999070986660552
818.0, 0.8317197503256935
819.0, 0.8633537692548938
820.0, 0.8877410264113164
821.0, 0.9110341762705663
822.0, 0.9340153392744196
823.0, 0.9510478377702482
824.0, 0.9665030667435588
825.0, 0.9791838663489746
826.0, 0.9891154227844661
827.0, 0.9964225936491136
828.0, 0.9999870967663668
829.0, 0.9967358948770998
830.0, 0.9879045960436823
831.0, 0.9812336055598386
832.0, 0.9710331035873063
833.0, 0.9415968315808372
834.0, 0.9177245871126444
835.0, 0.8891884746584846
836.0, 0.8493010672904387
837.0, 0.8116760952987897
838.0, 0.7811303894844965
839.0, 0.7328252616793053
840.0, 0.6867741359780632
841.0, 0.6347614417453453
842.0, 0.5842215872223216
843.0, 0.5366106963526198
844.0, 0.4865557735951327
845.0, 0.43538681234330273
846.0, 0.3849749483446522
847.0, 0.3488061320224127
848.0, 0.30733113882688334
849.0, 0.269509245165976
850.0, 0.23794693426419317
851.0, 0.20829015356890707
852.0, 0.18417583176946128
853.0, 0.16935748026866224
854.0, 0.14772972354969321
855.0, 0.13437642160294672
856.0, 0.11615896717533054
857.0, 0.10049694979028571
858.0, 0.09001088221408471
859.0, 0.08224672678685757
860.0, 0.0931582295753824
861.0, 0.07651465154688973
862.0, 0.06684851157997075
863.0, 0.058996472925531
864.0, 0.051745593163135754
865.0, 0.04343150575374292
866.0, 0.03340776839296277
867.0, 0.02935054124219551
868.0, 0.022702515426515572
869.0, 0.012275407654381124
870.0, 0.0018134348207074985
871.0, 0.005512551008430946
872.0, 0.005861552271679877
873.0, 0.012649962203046473
874.0, 0.018557902714595672
875.0, 0.012899465872911004
876.0, 0.0171736860147057
877.0, 0.01331888639264363
878.0, 0.015392247666255021
879.0, 0.020791518600145473
880.0, 0.02332362310439267
881.0, 0.02084648017009729
882.0, 0.012929129475099296
883.0, 0.02004973257429813
884.0, 0.004292631314994771
885.0, 0.0013970051503127228
886.0, 0.00033663691708748627
887.0, 0.007897749787506403
888.0, 0.01903409671778497
889.0, 0.02565442111664267
890.0, 0.03545748727482531
891.0, 0.03818382910827788
892.0, 0.05603366226143881
893.0, 0.07484757628001858
894.0, 0.08709241368749263
895.0, 0.09933053068601276
896.0, 0.11748692205981454
897.0, 0.13397117556526292
898.0, 0.13485377062899975
899.0, 0.154379739108184
900.0, 0.18217423446861167
901.0, 0.20290011783140321
902.0, 0.2131311259519614
903.0, 0.22912368115763226
904.0, 0.25732463431868347
905.0, 0.2741020023631332
906.0, 0.28186416259374664
907.0, 0.30584616645494794
908.0, 0.3255301306494166
909.0, 0.33621014790706777
910.0, 0.34131461404794244
911.0, 0.343641979353679
912.0, 0.3473927929173665
913.0, 0.3558128598103596
914.0, 0.35415395424810814
915.0, 0.3429260206282115
916.0, 0.33539585137294187
917.0, 0.33106086937711077
918.0, 0.32102899879640295
919.0, 0.30775295874447794
920.0, 0.29957242053798955
921.0, 0.28679384698313903
922.0, 0.277799842208125
923.0, 0.2574520191765912
924.0, 0.24508256570102374
925.0, 0.23993748927093395
926.0, 0.23432582136247043
927.0, 0.22698111422372938
928.0, 0.22051541146699105
929.0, 0.21775703255877474
930.0, 0.21051053762114313
931.0, 0.1993843493676647
932.0, 0.20010746634168422
933.0, 0.20595211513772685
934.0, 0.2033848376104333
935.0, 0.19672429819317275
936.0, 0.19787024139887915
937.0, 0.20243815118704642
938.0, 0.20506827039107836
939.0, 0.2066382345050455
940.0, 0.21910472285848112
941.0, 0.2338886742816806
942.0, 0.2480234957163145
943.0, 0.2594476886212343
944.0, 0.2750977981792518
945.0, 0.31276877502002554
946.0, 0.3235723371203654
947.0, 0.3355682811910297
948.0, 0.3546789949626149
949.0, 0.3576819347333293
950.0, 0.3567324509011648
951.0, 0.3581656829938071
952.0, 0.34530052861227367
953.0, 0.3286073621510104
954.0, 0.303029521899302
955.0, 0.27524884122085236
956.0, 0.250096355860074
957.0, 0.2202382742067728
958.0, 0.19141010460251118
959.0, 0.1693234453150977
960.0, 0.14975736808900858
961.0, 0.12532017733241627
962.0, 0.09876880668570615
963.0, 0.07436761607822491
964.0, 0.06296348597658397
965.0, 0.049508111512387876
966.0, 0.032800840949975256
967.0, 0.020545494646293738
968.0, 0.015411672973610152
969.0, 0.010030120646972418
970.0, 0.006143440778027207
971.0, 0.003926143730955692
972.0, 0.009071881998888249
973.0, 0.007296216728300648
974.0, 0.010073433335248513
975.0, 0.012021198940025039
976.0, 0.009040427289413308
977.0, 0.009984160741665362
978.0, 0.009844200955819508
979.0, 0.006364970898539046
980.0, 0.00900851637360016
981.0, 0.0024209490731925292
982.0, 0.002682026894394353
983.0, 0.000448251035560066
984.0, 0.004125803480812191
985.0, 0.01175663058846619
986.0, 0.013908013169936844
987.0, 0.027689052576236283
988.0, 0.02570990620248023
989.0, 0.015453411286285022
990.0, 0.022311268448227818
991.0, 0.027940770867247326
992.0, 0.029243971505580394
993.0, 0.03400428144461712
994.0, 0.03928941674304402
995.0, 0.04235458382501595
996.0, 0.043422789998060506
997.0, 0.04581507387512444
998.0, 0.04192559765873818
999.0, 0.05383947520567175
1000.0, 0.0624109271155628
1001.0, 0.06637421168991697
1002.0, 0.07202034611157258
1003.0, 0.06980059847093367
1004.0, 0.06885211775065343
1005.0, 0.08338199885025192
1006.0, 0.0823815456612879
1007.0, 0.07889842397635755
1008.0, 0.07722380949332687
1009.0, 0.08577800736833445
1010.0, 0.09483714559993489
1011.0, 0.09489448922767559
1012.0, 0.09651155446124887
1013.0, 0.10000820658026743
1014.0, 0.10179807161136996
1015.0, 0.10982131014332719
1016.0, 0.10874243629704713
1017.0, 0.11080393277127314
1018.0, 0.11476431438786769
1019.0, 0.11603996306065449
1020.0, 0.12068144528391417
1021.0, 0.1307995764504006
1022.0, 0.13546824857197678
1023.0, 0.14916558981797973
1024.0, 0.15039359196085558
1025.0, 0.15828021833411313
1026.0, 0.16761356655410062
1027.0, 0.17540045215110495
1028.0, 0.18703865396122552
1029.0, 0.2025367901445448
1030.0, 0.20889080682683878
1031.0, 0.20562022200950575
1032.0, 0.22272589617436572
1033.0, 0.23224936682854377
1034.0, 0.253177531878748
1035.0, 0.2595245843567002
1036.0, 0.26636352571211114
1037.0, 0.2878768114663147
1038.0, 0.305076208378502
1039.0, 0.31108631145957594
1040.0, 0.3255091396805997
1041.0, 0.3367904763355317
1042.0, 0.34269684453789373
1043.0, 0.3578528479114806
1044.0, 0.35822595111487227
1045.0, 0.3648533890846633
1046.0, 0.36901084404060536
1047.0, 0.358001629845538
1048.0, 0.34944113183989395
1049.0, 0.3413401603724916
1050.0, 0.3278175108854052
1051.0, 0.3183640004096105
1052.0, 0.30205058772193233
1053.0, 0.2864405272836519
1054.0, 0.2705950427346178
1055.0, 0.2516790776457882
1056.0, 0.23451063681293238
1057.0, 0.22277180193846144
1058.0, 0.21129929598276284
1059.0, 0.1962396159790552
1060.0, 0.17680117439126042
1061.0, 0.17053788792946903
1062.0, 0.16474163068634337
1063.0, 0.15319853552791615
1064.0, 0.14534849748912998
1065.0, 0.13871990396548237
1066.0, 0.1346185903895273
1067.0, 0.1358279966291642
1068.0, 0.12668834569645743
1069.0, 0.12310919091557312
1070.0, 0.12268885706309195
1071.0, 0.10524304189255189
1072.0, 0.10329664153257832
1073.0, 0.1054131822647745
1074.0, 0.10613712773605741
1075.0, 0.10978109838278208
1076.0, 0.10928116258888222
1077.0, 0.10464633761867163
1078.0, 0.10333971135462522
1079.0, 0.09878978312810982
1080.0, 0.10190452235510232
1081.0, 0.09575055417831031
1082.0, 0.09676388088872752
1083.0, 0.09603377094809583
1084.0, 0.09335521881134874
1085.0, 0.09347943428439455
1086.0, 0.09014339949879573
1087.0, 0.08062313756402913
1088.0, 0.08306067105349489
1089.0, 0.0802829703134405
1090.0, 0.07921023224533506
1091.0, 0.08370996387449849
1092.0, 0.08206809291633542
1093.0, 0.07863475852056587
1094.0, 0.0734394550589841
1095.0, 0.0652381345690908
1096.0, 0.06072095138125339
1097.0, 0.06384388323437266
1098.0, 0.06194901891695577
1099.0, 0.055938364341751375
1100.0, 0.05986945681863983
1101.0, 0.05818007800330152
1102.0, 0.05467679873826737
1103.0, 0.0496092782320344
1104.0, 0.04584901040763774
1105.0, 0.0432702353475358
1106.0, 0.04217604496525193
1107.0, 0.04491922878218014
1108.0, 0.04466496947225546
1109.0, 0.04730383145715869
1110.0, 0.03434013529675708
1111.0, 0.039870847465118105
1112.0, 0.0319917518913388
1113.0, 0.02940349459053321
1114.0, 0.035979936255529525
1115.0, 0.03679981109566036
1116.0, 0.028338104622160718
1117.0, 0.02213943368106027
1118.0, 0.02384450900422162
1119.0, 0.01794187082623069
1120.0, 0.019420364686520565
1121.0, 0.010169879345126339
1122.0, 0.01590648549690361
1123.0, 0.013288759283174854
1124.0, 0.007531319389469029
1125.0, 0.0036137294164708565
1126.0, 0.0022100723638243096
1127.0, 0.0031965081396391204
1128.0, 0.0021673725861771523
1129.0, 0.0023290403214940737
1130.0, 0.005970805889675555
1131.0, 0.005022557347612759
1132.0, 0.016478689508445735
1133.0, 0.003920993928548321
1134.0, 0.0007668718210493905
1135.0, 0.004605029628585577
1136.0, 0.0006590889599933449
1137.0, 0.0009380577942254198
1138.0, 0.005146995138712965
1139.0, 0.0020678379808655345
1140.0, 0.000798250749092901
1141.0, 0.0028892281966115207
1142.0, 0.004311167573764196
1143.0, 0.005964599733019266
1144.0, 0.010691014861344002
1145.0, 0.0023739302672802455
1146.0, 0.0019455181975787798
1147.0, 0.007314146038819751
1148.0, 0.006817477762067813
1149.0, 0.0022529267495818277
1150.0, 0.003803797624927295
1151.0, 0.013272349423002257
1152.0, 0.005956254151303176
1153.0, 0.0034524074380428505
1154.0, 0.007748111355110659
1155.0, 0.013188942373959574
1156.0, 0.010302474404158823
1157.0, 0.007711588469731718
1158.0, 0.008635904062442525
1159.0, 0.0078150554221845
1160.0, 0.008082012884517724
1161.0, 0.010591171085306461
1162.0, 0.002727847733297015
1163.0, 0.008141113007461825
1164.0, 0.003744489368467443
1165.0, 0.009665109853944335
1166.0, 0.010890275721224512
1167.0, 0.010406944579121542
1168.0, 0.0069467568693735455
1169.0, 0.003121341587358036
1170.0, 0.007051274153502858
1171.0, 0.013513086380809263
1172.0, 0.010588463443570291
1173.0, 0.009316019721479621
1174.0, 0.022493022646870805
1175.0, 0.017744161874171396
1176.0, 0.013290162551784678
1177.0, 0.008232640125135254
1178.0, 0.014258692981764914
1179.0, 0.01258236010550394
1180.0, 0.013500947365625503
1181.0, 0.019074294234799095
1182.0, 0.018482115407830027
1183.0, 0.01979613041171502
1184.0, 0.026727003951664715
1185.0, 0.027711809295600888
1186.0, 0.03110677240972849
1187.0, 0.03565804320142597
1188.0, 0.023652339728643914
1189.0, 0.02936602996067908
1190.0, 0.0215805693830803
1191.0, 0.02621856714300394
1192.0, 0.029332719873135522
1193.0, 0.023632540062348915
1194.0, 0.02422243569900883
1195.0, 0.024377050521539195
1196.0, 0.02140556170429526
1197.0, 0.015541750319451965
1198.0, 0.012556709475321138
1199.0, 0.01878653421720966
1200.0, 0.018439996336035484
1201.0, 0.02214805077028157
1202.0, 0.009666491670198191
1203.0, 0.006404228594726619
1204.0, 0.010927444731615877
1205.0, 0.011176449572173772
1206.0, 0.00696540629779607
1207.0, 0.0019554872593463253
1208.0, 0.005777099083919844
1209.0, 0.013550486214710517
1210.0, 0.022629200477917794
1211.0, 0.009001162329837794
1212.0, 0.00532660221535642
1213.0, 0.015031988634575635
1214.0, 0.015247808845262759
1215.0, 0.016297065165740036
1216.0, 0.013711973070837599
1217.0, 0.01029930947913979
1218.0, 0.011209414956136072
1219.0, 0.009995118219240798
1220.0, 0.00937324828417825
1221.0, 0.012129781778888658
1222.0, 0.0007027056304284281
1223.0, 0.005078304168619147
1224.0, 0.015472238341919839
1225.0, 0.009155731809907336
1226.0, 0.003490747032691442
1227.0, 0.0022576591887678815
1228.0, 0.0013387482999883086
1229.0, 0.0006027298146705179
1230.0, 0.002778892557230149
1231.0, 0.009628747521343064
1232.0, 0.01299155694522853
1233.0, 0.01483182369473271
1234.0, 0.012903172387350463
1235.0, 0.008345351604394249
1236.0, 0.009765006586294226
1237.0, 0.027180604258435444
1238.0, 0.012867159978561395
1239.0, 0.010781022363841484
1240.0, 0.007120145623662748
1241.0, 0.009199686936715553
1242.0, 0.006469340100255856
1243.0, 0.004551300863619686
1244.0, 0.012911115316030751
1245.0, 0.01840420276061007
1246.0, 0.015274491795568126
1247.0, 0.014398214097861527
1248.0, 0.01845427676000984
1249.0, 0.005205377169426007
1250.0, 0.016706693694670805
1251.0, 0.01659882149522351
1252.0, 0.010685745325830191
1253.0, 0.0163592747044106
1254.0, 0.010448008948014237
1255.0, 0.00916700892130918
1256.0, 0.005174532742536542
1257.0, 0.005255914624023874
1258.0, 0.014311439291929757
1259.0, 0.011049088230192254
1260.0, 0.011183340434218649
1261.0, 0.011000915283640772
1262.0, 0.015538862054364746
1263.0, 0.012947940790255878
1264.0, 0.008055588091046877
1265.0, 0.011257121980994095
1266.0, 0.005112041768941214
1267.0, 0.004158393359383308
1268.0, 0.008798162255482385
1269.0, 0.010836494720996024
1270.0, 0.012139474496716702
1271.0, 0.013617371682790523
1272.0, 0.007409393402914662
1273.0, 0.003549118109008456
1274.0, 0.0027801262784802805
1275.0, 0.008600462274090285
1276.0, 0.0042805997716976974
1277.0, 0.005206179377020317
1278.0, 0.0033755896598426723
1279.0, 0.006777959481474337
1280.0, 0.006496826056914591
1281.0, 0.013226970954266124
1282.0, 0.01509000152497826
1283.0, 0.008470582851860697
1284.0, 0.008156824911126515
1285.0, 0.010271161225459612
1286.0, 0.005597343087183085
1287.0, 0.0029389057136002443
1288.0, 0.0037267706686819743
1289.0, 0.002572058304824282
1290.0, 0.011770522447498764
1291.0, 0.013916641452246447
1292.0, 0.006610030071431147
1293.0, 0.007258436757749791
1294.0, 0.0042982178191967564
1295.0, 0.004185448653808991
1296.0, 0.006406138021368077
1297.0, 0.005582669402161676
1298.0, 0.004985574447838604
1299.0, 0.0038157588594008333
1300.0, 0.0024207446844480016
1301.0, 0.0010286684559571383
1302, 0.0
1303, 0.0
1304, 0.0
1305, 0.0
1306, 0.0
1307, 0.0
1308, 0.0
1309, 0.0
1310, 0.0
1311, 0.0
1312, 0.0
1313, 0.0
1314, 0.0
1315, 0.0
1316, 0.0
1317, 0.0
1318, 0.0
1319, 0.0
1320, 0.0
1321, 0.0
1322, 0.0
1323, 0.0
1324, 0.0
1325, 0.0
1326, 0.0
1327, 0.0
1328, 0.0
1329, 0.0
1330, 0.0
1331, 0.0
1332, 0.0
1333, 0.0
1334, 0.0
1335, 0.0
1336, 0.0
1337, 0.0
1338, 0.0
1339, 0.0
1340, 0.0
1341, 0.0
1342, 0.0
1343, 0.0
1344, 0.0
1345, 0.0
1346, 0.0
1347, 0.0
1348, 0.0
1349, 0.0
1350, 0.0
1351, 0.0
1352, 0.0
1353, 0.0
1354, 0.0
1355, 0.0
1356, 0.0
1357, 0.0
1358, 0.0
1359, 0.0
1360, 0.0
1361, 0.0
1362, 0.0
1363, 0.0
1364, 0.0
1365, 0.0
1366, 0.0
1367, 0.0
1368, 0.0
1369, 0.0
1370, 0.0
1371, 0.0
1372, 0.0
1373, 0.0
1374, 0.0
1375, 0.0
1376, 0.0
1377, 0.0
1378, 0.0
1379, 0.0
1380, 0.0
1381, 0.0
1382, 0.0
1383, 0.0
1384, 0.0
1385, 0.0
1386, 0.0
1387, 0.0
1388, 0.0
1389, 0.0
1390, 0.0
1391, 0.0
1392, 0.0
1393, 0.0
1394, 0.0
1395, 0.0
1396, 0.0
1397, 0.0
1398, 0.0
1399, 0.0
1400, 0.0
1401, 0.0
1402, 0.0
1403, 0.0
1404, 0.0
1405, 0.0
1406, 0.0
1407, 0.0
1408, 0.0
1409, 0.0
1410, 0.0
1411, 0.0
1412, 0.0
1413, 0.0
1414, 0.0
1415, 0.0
1416, 0.0
1417, 0.0
1418, 0.0
1419, 0.0
1420, 0.0
1421, 0.0
1422, 0.0
1423, 0.0
1424, 0.0
1425, 0.0
1426, 0.0
1427, 0.0
1428, 0.0
1429, 0.0
1430, 0.0
1431, 0.0
1432, 0.0
1433, 0.0
1434, 0.0
1435, 0.0
1436, 0.0
1437, 0.0
1438, 0.0
1439, 0.0
1440, 0.0
1441, 0.0
1442, 0.0
1443, 0.0
1444, 0.0
1445, 0.0
1446, 0.0
1447, 0.0
1448, 0.0
1449, 0.0
1450, 0.0
1451, 0.0
1452, 0.0
1453, 0.0
1454, 0.0
1455, 0.0
1456, 0.0
1457, 0.0
1458, 0.0
1459, 0.0
1460, 0.0
1461, 0.0
1462, 0.0
1463, 0.0
1464, 0.0
1465, 0.0
1466, 0.0
1467, 0.0
1468, 0.0
1469, 0.0
1470, 0.0
1471, 0.0
1472, 0.0
1473, 0.0
1474, 0.0
1475, 0.0
1476, 0.0
1477, 0.0
1478, 0.0
1479, 0.0
1480, 0.0
1481, 0.0
1482, 0.0
1483, 0.0
1484, 0.0
1485, 0.0
1486, 0.0
1487, 0.0
1488, 0.0
1489, 0.0
1490, 0.0
1491, 0.0
1492, 0.0
1493, 0.0
1494, 0.0
1495, 0.0
1496, 0.0
1497, 0.0
1498, 0.0
1499, 0.0
1500, 0.0
1501, 0.0
1502, 0.0
1503, 0.0
1504, 0.0
1505, 0.0
1506, 0.0
1507, 0.0
1508, 0.0
1509, 0.0
1510, 0.0
1511, 0.0
1512, 0.0
1513, 0.0
1514, 0.0
1515, 0.0
1516, 0.0
1517, 0.0
1518, 0.0
1519, 0.0
1520, 0.0
1521, 0.0
1522, 0.0
1523, 0.0
1524, 0.0
1525, 0.0
1526, 0.0
1527, 0.0
1528, 0.0
1529, 0.0
1530, 0.0
1531, 0.0
1532, 0.0
1533, 0.0
1534, 0.0
1535, 0.0
1536, 0.0
1537, 0.0
1538, 0.0
1539, 0.0
1540, 0.0
1541, 0.0
1542, 0.0
1543, 0.0
1544, 0.0
1545, 0.0
1546, 0.0
1547, 0.0
1548, 0.0
1549, 0.0
1550, 0.0
1551, 0.0
1552, 0.0
1553, 0.0
1554, 0.0
1555, 0.0
1556, 0.0
1557, 0.0
1558, 0.0
1559, 0.0
1560, 0.0
1561, 0.0
1562, 0.0
1563, 0.0
1564, 0.0
1565, 0.0
1566, 0.0
1567, 0.0
1568, 0.0
1569, 0.0
1570, 0.0
1571, 0.0
1572, 0.0
1573, 0.0
1574, 0.0
1575, 0.0
1576, 0.0
1577, 0.0
1578, 0.0
1579, 0.0
1580, 0.0
1581, 0.0
1582, 0.0
1583, 0.0
1584, 0.0
1585, 0.0
1586, 0.0
1587, 0.0
1588, 0.0
1589, 0.0
1590, 0.0
1591, 0.0
1592, 0.0
1593, 0.0
1594, 0.0
1595, 0.0
1596, 0.0
1597, 0.0
1598, 0.0
1599, 0.0
