30, 0.0
31, 0.0
32, 0.0
33, 0.0
34, 0.0
35, 0.0
36, 0.0
37, 0.0
38, 0.0
39, 0.0
40, 0.0
41, 0.0
42, 0.0
43, 0.0
44, 0.0
45, 0.0
46, 0.0
47, 0.0
48, 0.0
49, 0.0
50, 0.0
51, 0.0
52, 0.0
53, 0.0
54, 0.0
55, 0.0
56, 0.0
57, 0.0
58, 0.0
59, 0.0
60, 0.0
61, 0.0
62, 0.0
63, 0.0
64, 0.0
65, 0.0
66, 0.0
67, 0.0
68, 0.0
69, 0.0
70, 0.0
71, 0.0
72, 0.0
73, 0.0
74, 0.0
75, 0.0
76, 0.0
77, 0.0
78, 0.0
79, 0.0
80, 0.0
81, 0.0
82, 0.0
83, 0.0
84, 0.0
85, 0.0
86, 0.0
87, 0.0
88, 0.0
89, 0.0
90, 0.0
91, 0.0
92, 0.0
93, 0.0
94, 0.0
95, 0.0
96, 0.0
97, 0.0
98, 0.0
99, 0.0
100, 0.0
101, 0.0
102, 0.0
103, 0.0
104, 0.0
105, 0.0
106, 0.0
107, 0.0
108, 0.0
109, 0.0
110, 0.0
111, 0.0
112, 0.0
113, 0.0
114, 0.0
115, 0.0
116, 0.0
117, 0.0
118, 0.0
119, 0.0
120, 0.0
121, 0.0
122, 0.0
123, 0.0
124, 0.0
125, 0.0
126, 0.0
127, 0.0
128, 0.0
129, 0.0
130, 0.0
131, 0.0
132, 0.0
133, 0.0
134, 0.0
135, 0.0
136, 0.0
137, 0.0
138, 0.0
139, 0.0
140, 0.0
141.0, 0.0008180985491423684
142.0, 0.0033292646787521697
143.0, 0.0032527148694470208
144.0, 0.008569608995892134
145.0, 0.009986787311204373
146.0, 0.009723491169976289
147.0, 0.011044920937522223
148.0, 0.007403121995957796
149.0, 0.005876053256784213
150.0, 0.005078454000714018
151.0, 0.0037189242992362844
152.0, 0.002019814843275105
153.0, 0.002459842275938558
154.0, 0.0033710828633227176
155.0, 0.00361737338473812
156.0, 0.002287564085125372
157.0, 0.0004483942751922946
158.0, 0.00018491772077911512
159.0, 0.0005651143580908984
160.0, 0.0006109704315852067
161.0, 0.0005484115347660472
162.0, 0.0012001849263783468
163.0, 0.0031474195587852896
164.0, 0.00579366472283575
165.0, 0.008089812454719483
166.0, 0.009707901162829803
167.0, 0.010436264336192895
168.0, 0.011549837394038068
169.0, 0.015813644552754434
170.0, 0.018790351848643645
171.0, 0.022526233399967302
172.0, 0.02466374886296024
173.0, 0.027135538728342682
174.0, 0.03238784850169526
175.0, 0.03349552676426889
176.0, 0.03815545280523823
177.0, 0.04375504822123073
178.0, 0.04927612860925584
179.0, 0.054708697172223326
180.0, 0.061456798303187225
181.0, 0.06827970789100034
182.0, 0.07968938655480283
183.0, 0.09187266365688698
184.0, 0.10351102167384588
185.0, 0.11532676982629537
186.0, 0.12647491898614688
187.0, 0.14156814720631508
188.0, 0.15597387982445596
189.0, 0.17172676836999617
190.0, 0.19050835873567407
191.0, 0.20828979673438444
192.0, 0.22546884416851082
193.0, 0.23611233343583007
194.0, 0.24329208752845016
195.0, 0.24933617394962765
196.0, 0.2552230401031875
197.0, 0.2639345561177357
198.0, 0.26752148696545497
199.0, 0.277350932339617
200.0, 0.2884129094959283
201.0, 0.29384520078857673
202.0, 0.29952322298101963
203.0, 0.30549634777369444
204.0, 0.3045907739949368
205.0, 0.2991360522854871
206.0, 0.2934412397458814
207.0, 0.29178538743951177
208.0, 0.28218399984233594
209.0, 0.2714509084205254
210.0, 0.2588437318589719
211.0, 0.24623198402676524
212.0, 0.2354800144585554
213.0, 0.22512423206671958
214.0, 0.21394095279570385
215.0, 0.20001886704932118
216.0, 0.18635587803408188
217.0, 0.17452377768157373
218.0, 0.16382578219515542
219.0, 0.15199434163250675
220.0, 0.14186510773885352
221.0, 0.13273337449469744
222.0, 0.12378346155177597
223.0, 0.11490283403073803
224.0, 0.1082661886194184
225.0, 0.10067957321965167
226.0, 0.09493915237583574
227.0, 0.08884287752818028
228.0, 0.08200392864967312
229.0, 0.07614155394344366
230.0, 0.07302762780013865
231.0, 0.0678148163899337
232.0, 0.06318184727462343
233.0, 0.059502272874886596
234.0, 0.05597071110455071
235.0, 0.050679802487345514
236.0, 0.04584175033257727
237.0, 0.04314148329094271
238.0, 0.04175921908032703
239.0, 0.040759169904482036
240.0, 0.03946496285782012
241.0, 0.038646849983408754
242.0, 0.03877028922855536
243.0, 0.0385115137696303
244.0, 0.03895317460721632
245.0, 0.040223324288300874
246.0, 0.040164534236875965
247.0, 0.04164763786901313
248.0, 0.0420184790657696
249.0, 0.04296344559485698
250.0, 0.0446710357117123
251.0, 0.0463628543260721
252.0, 0.04669145282394342
253.0, 0.0479119003082674
254.0, 0.04743478145916574
255.0, 0.04705876293188544
256.0, 0.04609436493301135
257.0, 0.04148947771378367
258.0, 0.03997861771511847
259.0, 0.035828041693115695
260.0, 0.03305093730024596
261.0, 0.03092285492667139
262.0, 0.028547739119604912
263.0, 0.027817121912404374
264.0, 0.026995836396936614
265.0, 0.025730539250665048
266.0, 0.02410228387521921
267.0, 0.022265326446919833
268.0, 0.020804156511253058
269.0, 0.022328931983906772
270.0, 0.021506107205868465
271.0, 0.02179754641768399
272.0, 0.022954574687682406
273.0, 0.023434497550619094
274.0, 0.02152922071034696
275.0, 0.0245068340829588
276.0, 0.027038495068904406
277.0, 0.02760397287569325
278.0, 0.028040123236694872
279.0, 0.030638316905495643
280.0, 0.036290121795113574
281.0, 0.036676015150905454
282.0, 0.03467466499875773
283.0, 0.03247217619698555
284.0, 0.030906967140747192
285.0, 0.028881109305414966
286.0, 0.020903113492772844
287.0, 0.01786319635974663
288.0, 0.014209785752169293
289.0, 0.011359727525185092
290.0, 0.00936426346676584
291.0, 0.006682350642979733
292.0, 0.004968786010334599
293.0, 0.002966067614425121
294.0, 0.0018950918158038225
295.0, 0.0015893869099853832
296.0, 0.0014321300355314814
297.0, 0.0007735262439107063
298.0, 0.0018007853121161745
299.0, 0.0031615876144083176
300.0, 0.00441326465282056
301.0, 0.004783316525773246
302.0, 0.003797558833130674
303.0, 0.0019489362611230863
304.0, 0.0017717862919838768
305.0, 0.003035200212100147
306.0, 0.0030208583606489486
307.0, 0.0021248000250390095
308.0, 0.0021430487718353884
309.0, 0.002636954332809229
310.0, 0.0007907765683664777
311.0, 0.0004901292227997412
312.0, 0.0017354077878935633
313.0, 0.0027537376936955143
314.0, 0.0016160569872831526
315.0, 0.002607959320119124
316.0, 0.0020922768197124916
317.0, 0.003548386770102901
318.0, 0.0030162971781890107
319.0, 0.0010143605937079124
320.0, 0.0036918855827040953
321.0, 0.0031071465213924404
322.0, 0.005235624770244179
323.0, 0.005932565456326362
324.0, 0.006020871809426069
325.0, 0.006297033063975135
326.0, 0.005355825056720984
327.0, 0.000936438366019051
328.0, 0.0006437769526188157
329.0, 0.0004296728679855318
330.0, 0.0003866282705689019
331.0, 0.0010712526402771544
332.0, 0.0007817651268490354
333.0, 0.0016993345373416836
334.0, 0.0018023755710708726
335.0, 0.0014014457354123218
336.0, 0.001870727002459085
337.0, 0.0031894285481362202
338.0, 0.0004414620474840305
339.0, 0.0012703531446813365
340.0, 0.0022747196600729916
341.0, 0.004282836103480524
342.0, 0.0059491943789481035
343.0, 0.006364311707964827
344.0, 0.010664577595618178
345.0, 0.013087074456935998
346.0, 0.018851716983986265
347.0, 0.02658627382411939
348.0, 0.033583426964319985
349.0, 0.0378365111760017
350.0, 0.042074190243524316
351.0, 0.04404301407884846
352.0, 0.047282672124133514
353.0, 0.054030978008087815
354.0, 0.06164810693407379
355.0, 0.06519840082673153
356.0, 0.06636147535028616
357.0, 0.06414111546602438
358.0, 0.056083634042190356
359.0, 0.045511324494300155
360.0, 0.03492042663028371
361.0, 0.025236450459204956
362.0, 0.0175815902721822
363.0, 0.015306680034170381
364.0, 0.012389201213780761
365.0, 0.012373959072761793
366.0, 0.014099479667006278
367.0, 0.01261595362950019
368.0, 0.01283501664964048
369.0, 0.016239009144785738
370.0, 0.01655047209294985
371.0, 0.01847135049745714
372.0, 0.021696345953724758
373.0, 0.02149614265082749
374.0, 0.024549097405039414
375.0, 0.025556735411816814
376.0, 0.023766390305213013
377.0, 0.024167760294202433
378.0, 0.026162982363794014
379.0, 0.02471720961150392
380.0, 0.024623437376271325
381.0, 0.022665902372032806
382.0, 0.020848485466926525
383.0, 0.018975073146570303
384.0, 0.01708552339230477
385.0, 0.015447004450808524
386.0, 0.012903401243983492
387.0, 0.011489812783965313
388.0, 0.011352980123258041
389.0, 0.009601573896146319
390.0, 0.00832445090584288
391.0, 0.01132981437218361
392.0, 0.00903810070821053
393.0, 0.007678801293075255
394.0, 0.009428348482302389
395.0, 0.009487222599999326
396.0, 0.008596054441100462
397.0, 0.01102667546935469
398.0, 0.015488768411566566
399.0, 0.013369564756822633
400.0, 0.01564145736301112
401.0, 0.019250714305823664
402.0, 0.023131206976307554
403.0, 0.029023123274992072
404.0, 0.040643631738259724
405.0, 0.04832886325298545
406.0, 0.057149889591252015
407.0, 0.06940561114183198
408.0, 0.0807936141288379
409.0, 0.08792496544408883
410.0, 0.09946421473081943
411.0, 0.11287243112916981
412.0, 0.12545644778262321
413.0, 0.13476522982690134
414.0, 0.13947194867540416
415.0, 0.13676430638522796
416.0, 0.12002226027240534
417.0, 0.09131685483362476
418.0, 0.07231316909887042
419.0, 0.05701047954351268
420.0, 0.044961590423075674
421.0, 0.038326090304267105
422.0, 0.03900862613982857
423.0, 0.0356414183934363
424.0, 0.031715355366050364
425.0, 0.03235699696458989
426.0, 0.0345064343613547
427.0, 0.034570653033326515
428.0, 0.03226520859944587
429.0, 0.034549554217395764
430.0, 0.03293432552559816
431.0, 0.033137309603187046
432.0, 0.031072698929834476
433.0, 0.02652260984922234
434.0, 0.024289568522161162
435.0, 0.027417250503262026
436.0, 0.02785241552965566
437.0, 0.029584440992229556
438.0, 0.03196975482783115
439.0, 0.03488691393209851
440.0, 0.038535708015647846
441.0, 0.04195756724811083
442.0, 0.04768203439419994
443.0, 0.05153323787520432
444.0, 0.057168244053564236
445.0, 0.06449223104003275
446.0, 0.07241520923684926
447.0, 0.08212834120144086
448.0, 0.09850213166546305
449.0, 0.11325029218195143
450.0, 0.13622606693973344
451.0, 0.16720649140612434
452.0, 0.20475034514346396
453.0, 0.25091739670446583
454.0, 0.3140255681691131
455.0, 0.39043368587471333
456.0, 0.4782576634228096
457.0, 0.5716229692358323
458.0, 0.6596779456626269
459.0, 0.7332994258628732
460.0, 0.8033336287642
461.0, 0.8663583492997107
462.0, 0.925680173435431
463.0, 0.9743842553009988
464.0, 0.998545728381159
465.0, 0.9880699708567569
466.0, 0.9496199552278599
467.0, 0.8475319969245201
468.0, 0.7385919302509742
469.0, 0.6236331643558021
470.0, 0.515227526590428
471.0, 0.42352748372688853
472.0, 0.34875494200298474
473.0, 0.2935049481110002
474.0, 0.25057689654593723
475.0, 0.21627957931759828
476.0, 0.19170737046532169
477.0, 0.1719423565564037
478.0, 0.15022922570488206
479.0, 0.13460748596842545
480.0, 0.12159156034849102
481.0, 0.11078648512242237
482.0, 0.1009230569462191
483.0, 0.0923698718847981
484.0, 0.08513144718386405
485.0, 0.07686748772729358
486.0, 0.06690941645836972
487.0, 0.05775684408427032
488.0, 0.051312915295722204
489.0, 0.048215489044277186
490.0, 0.04666430261907539
491.0, 0.04345384738791308
492.0, 0.0394492463346061
493.0, 0.03832425627828619
494.0, 0.03428358089714954
495.0, 0.03205996230893699
496.0, 0.03093033883262618
497.0, 0.027990796431443116
498.0, 0.0250978364042273
499.0, 0.024021543527828097
500.0, 0.024363380917844166
501.0, 0.022819666984497635
502.0, 0.020875566519684863
503.0, 0.020062561116394016
504.0, 0.0196795923628497
505.0, 0.01732550490411896
506.0, 0.018134917574291576
507.0, 0.01856278273201722
508.0, 0.018049224051909257
509.0, 0.01715996395182139
510.0, 0.016827271259991793
511.0, 0.01748755641726058
512.0, 0.017239395766472095
513.0, 0.019010526712475686
514.0, 0.019845067721043223
515.0, 0.02058372470446954
516.0, 0.02111071907343211
517.0, 0.018917226162637697
518.0, 0.012214738692498438
519.0, 0.01180023865080508
520.0, 0.010855243018746876
521.0, 0.010160091020615658
522.0, 0.0093848415910699
523.0, 0.007828712900543601
524.0, 0.006367992885948101
525.0, 0.00801870147951502
526.0, 0.006805876431096791
527.0, 0.006335245571419091
528.0, 0.005664350047961094
529.0, 0.004679387409882869
530.0, 0.004742562548609261
531.0, 0.005096485891741257
532.0, 0.005222341266124735
533.0, 0.006193316705998498
534.0, 0.0064826420628932985
535.0, 0.005524621305452841
536.0, 0.004494535809776344
537.0, 0.005621806027409732
538.0, 0.004062841085570668
539.0, 0.003626492987874986
540.0, 0.003999653273516646
541.0, 0.0037314267683015586
542.0, 0.0032198325666958137
543.0, 0.0036245464767804296
544.0, 0.004133507739424235
545.0, 0.003815168285438504
546.0, 0.0037799616114293846
547.0, 0.004374566822525017
548.0, 0.003990487207660088
549.0, 0.0031513488104032684
550.0, 0.004018251793688545
551.0, 0.003100521965532706
552.0, 0.0021438487534125375
553.0, 0.0015591383800759593
554.0, 0.0017079389866129309
555.0, 0.001692880928897753
556.0, 0.0016010084119582458
557.0, 0.0030618992955666726
558.0, 0.0007124363287694009
559.0, 0.0006618763458111418
560.0, 0.0024332076049459854
561.0, 0.0023121592457646884
562.0, 0.0025325797139159507
563.0, 0.00460667301432394
564.0, 0.0005062707500931937
565.0, 0.002076765908220313
566.0, 0.001787559607472687
567.0, 0.0015015061345607515
568.0, 0.001274578291308555
569.0, 0.0013233485004782554
570.0, 0.0020749576640807336
571.0, 0.0031251393311441614
572.0, 0.004264242221415274
573.0, 0.00462907566292817
574.0, 0.005007230694580589
575.0, 0.005322211885294026
576.0, 0.005353118863471131
577.0, 0.005221371061235934
578.0, 0.005717610098595891
579.0, 0.005304177132738853
580.0, 0.005478935748001876
581.0, 0.0053456440314326005
582.0, 0.0057180786623103165
583.0, 0.006359511220879468
584.0, 0.005592647297706175
585.0, 0.007024945880514942
586.0, 0.008190820398752264
587.0, 0.00463056044635489
588.0, 0.005700786221161843
589.0, 0.007819025100366273
590.0, 0.00715217984619702
591.0, 0.009339583003157534
592.0, 0.008674636756955642
593.0, 0.008962755439761765
594.0, 0.013036746331272126
595.0, 0.014482962717125443
596.0, 0.012851602705216411
597.0, 0.012170733197214704
598.0, 0.015518969414753631
599.0, 0.014640733934966234
600.0, 0.01673538474800328
601.0, 0.020143490335869253
602.0, 0.021930949447135015
603.0, 0.022275146211945356
604.0, 0.02349574080150814
605.0, 0.02719167791841685
606.0, 0.028493662252571612
607.0, 0.027128953355987293
608.0, 0.02915087629067052
609.0, 0.03128236205156687
610.0, 0.032525214653782275
611.0, 0.033849991363044875
612.0, 0.035103541420893836
613.0, 0.03781958582612209
614.0, 0.037365514736245574
615.0, 0.03809222416867239
616.0, 0.036483318909895646
617.0, 0.03387749672578489
618.0, 0.032967370332519355
619.0, 0.031287567593070005
620.0, 0.031873198881332755
621.0, 0.03157792274212488
622.0, 0.03249896525323021
623.0, 0.03270946382739906
624.0, 0.03368853375499318
625.0, 0.03598674133792551
626.0, 0.034785134669357336
627.0, 0.03841968854771154
628.0, 0.03885768920394126
629.0, 0.043253934018260526
630.0, 0.04400352112407727
631.0, 0.04395001926095737
632.0, 0.047828586114293394
633.0, 0.05068462278596811
634.0, 0.052508121197963095
635.0, 0.04999602212625439
636.0, 0.051675024956387594
637.0, 0.053386118462483444
638.0, 0.05406876391132186
639.0, 0.055594634340066985
640.0, 0.05894888164095345
641.0, 0.05673430272517675
642.0, 0.060304585878335905
643.0, 0.05684057736467681
644.0, 0.052627670307240866
645.0, 0.04991156374800213
646.0, 0.0487492594642661
647.0, 0.04907708709016417
648.0, 0.04668017652113328
649.0, 0.0415191519516776
650.0, 0.03656949047856877
651.0, 0.033038425816961245
652.0, 0.02965931028537687
653.0, 0.025814585806849623
654.0, 0.022520678005527532
655.0, 0.020193429641722348
656.0, 0.01851570058679666
657.0, 0.016273437913970568
658.0, 0.01442306622486315
659.0, 0.012604917381446756
660.0, 0.010832663260161027
661.0, 0.009329703962216567
662.0, 0.0071783537722547655
663.0, 0.0052822771513802175
664.0, 0.003512912523292996
665.0, 0.0024693702974624213
666.0, 0.001907353291077181
667.0, 0.0018220680807045
668.0, 0.002296470094190925
669.0, 0.002782510166098552
670.0, 0.0004477452485978047
671.0, 0.00016119251334906708
672.0, 0.001262664997162678
673.0, 0.003824392803965284
674.0, 0.003989172612810767
675.0, 0.0018776754660683355
676.0, 0.0031814748383747976
677.0, 0.0011504500091537861
678.0, 0.0003393026985829888
679.0, 0.001101610467755024
680.0, 0.0017120942775511315
681.0, 0.001557191521034887
682.0, 0.0011251598021402329
683.0, 0.0009894717819319957
684.0, 0.00031584134900669895
685.0, 0.001909671666484866
686.0, 0.00249307178780443
687.0, 0.0026527901583835527
688.0, 0.001505929923557575
689.0, 0.0003423289331443607
690.0, 0.00042964431878239
691.0, 0.00027189652073169397
692.0, 0.0014113585357554436
693.0, 0.000989853356280364
694.0, 0.0005357112939587572
695.0, 0.00046989473338659066
696.0, 0.00034650019634430715
697.0, 0.0005539104441272646
698.0, 0.0016987661278214704
699.0, 0.00034479386510333644
700.0, 0.0018125077407911893
701.0, 0.001431853072780467
702.0, 0.0024662977710038178
703.0, 0.002037198460540579
704.0, 0.0005903511821616521
705.0, 0.00045013507519895443
706.0, 0.00027664052958851224
707.0, 0.0025963078126286744
708.0, 0.0021769762924896308
709.0, 0.0015381514523774614
710.0, 0.002265255596941315
711.0, 0.0038105324724095526
712.0, 0.003955853581502075
713.0, 0.00169850297959529
714.0, 0.0026396933135017855
715.0, 0.0007614993026535687
716.0, 0.002390295758530651
717.0, 0.001347679310436919
718.0, 0.0019983030482891534
719.0, 0.003861114412113265
720.0, 0.0035438905377394928
721.0, 0.0024835467714999573
722.0, 0.0011363913105491275
723.0, 0.0022646577854951544
724.0, 0.0023090514123618967
725.0, 0.0010797912918781025
726.0, 0.0016159114122671601
727.0, 0.0026816992078343782
728.0, 0.0006410518921858557
729.0, 0.0008231654524618254
730.0, 0.0003761054661373872
731.0, 0.0013208481752097817
732.0, 0.0018724472817326205
733.0, 0.0024650052265383212
734.0, 0.0023117282294889425
735.0, 0.002005390580997826
736.0, 0.004061968478904776
737.0, 0.0050920661001051
738.0, 0.004437163116101022
739.0, 0.007422296472757342
740.0, 0.007556027214667527
741.0, 0.004797070825325015
742.0, 0.0037090194736600504
743.0, 0.0063032722542420575
744.0, 0.006819729966922648
745.0, 0.005266779423974794
746.0, 0.005883961234604662
747.0, 0.007029122087529067
748.0, 0.007958707739032605
749.0, 0.007121603433893736
750.0, 0.006087270657878859
751.0, 0.006509748448456775
752.0, 0.00321391389474115
753.0, 0.001998615560611164
754.0, 0.0013406119560317458
755.0, 0.0024377898633860667
756.0, 0.002580881686222239
757.0, 0.0032612240426341623
758.0, 0.004307869837435267
759.0, 0.003085428417930453
760.0, 0.002918297287109619
761.0, 0.0021385496249614593
762.0, 0.0026125935152474405
763.0, 0.002868654931732715
764.0, 0.0037521245921759323
765.0, 0.0051985361005594186
766.0, 0.006266416487978579
767.0, 0.005846992605648567
768.0, 0.0029909703861044842
769.0, 0.004063898075239521
770.0, 0.0032830981671156025
771.0, 0.0011105443425575518
772.0, 0.0012110515791055613
773.0, 0.001820986897939392
774.0, 0.0017849636515585687
775.0, 0.003749777991933531
776.0, 0.0012538403046766595
777.0, 0.0027399920202870005
778.0, 0.0029391251389651292
779.0, 0.004692554285718971
780.0, 0.0033285477118374426
781.0, 0.003061688745389665
782.0, 0.0058060137435223605
783.0, 0.004379165848969321
784.0, 0.00845069590831422
785.0, 0.004773667563767462
786.0, 0.0028433029829965433
787.0, 0.003535965681198577
788.0, 0.005468300216173866
789.0, 0.006903642331529693
790.0, 0.00720477949424095
791.0, 0.007560829702891249
792.0, 0.010603153857421783
793.0, 0.0073336025268338385
794.0, 0.006658814536749481
795.0, 0.008890388053933124
796.0, 0.010829937385597333
797.0, 0.009802844059971085
798.0, 0.007765778199661788
799.0, 0.009335752526824163
800.0, 0.01060144200525381
801.0, 0.011985412710663904
802.0, 0.0124023654045294
803.0, 0.013173026555239848
804.0, 0.013743934487644929
805.0, 0.013993011581878387
806.0, 0.015061331299605272
807.0, 0.017362352312572108
808.0, 0.016673849002256085
809.0, 0.0166562031059554
810.0, 0.01335134105479357
811.0, 0.014087368323467263
812.0, 0.013784534218591044
813.0, 0.011839355240481363
814.0, 0.01040904263612241
815.0, 0.009949781487935738
816.0, 0.008064421333697351
817.0, 0.008390702719852752
818.0, 0.01037458323064738
819.0, 0.007728757878383493
820.0, 0.00810853582382174
821.0, 0.008309211872088188
822.0, 0.006659528930152294
823.0, 0.006071084560556956
824.0, 0.007199527335757357
825.0, 0.008297536049485691
826.0, 0.009564082834771497
827.0, 0.011496105048421862
828.0, 0.009192611198028949
829.0, 0.00910293197394646
830.0, 0.00912481879959559
831.0, 0.006847348136993983
832.0, 0.008532835830924438
833.0, 0.008055682687076121
834.0, 0.006525508198498016
835.0, 0.007726350965843974
836.0, 0.0088989300866755
837.0, 0.010526986918121794
838.0, 0.011238562174737078
839.0, 0.00967620588424656
840.0, 0.008025466057305594
841.0, 0.012011844855919426
842.0, 0.011414911437682704
843.0, 0.008172611854763256
844.0, 0.00998402425422773
845.0, 0.010615574074652264
846.0, 0.009672945642484424
847.0, 0.009723007907583665
848.0, 0.011404351153640906
849.0, 0.0118369541745475
850.0, 0.009840144953829918
851.0, 0.012278606230019137
852.0, 0.012886812715006937
853.0, 0.013534194380109646
854.0, 0.012513872660609781
855.0, 0.012034167108759436
856.0, 0.01309361203692728
857.0, 0.01304831036068845
858.0, 0.012046601524570728
859.0, 0.015342846556964714
860.0, 0.015924295359489943
861.0, 0.014074450949045261
862.0, 0.013291372456804812
863.0, 0.01393811701655978
864.0, 0.014078996325754494
865.0, 0.01348591526217439
866.0, 0.01443514191731702
867.0, 0.013188644388178785
868.0, 0.011911663201160896
869.0, 0.011231432265251093
870.0, 0.010870629740515418
871.0, 0.01210896619751392
872.0, 0.011333845325262661
873.0, 0.009234046965527274
874.0, 0.009369606098798593
875.0, 0.00834948201556185
876.0, 0.010814478964403882
877.0, 0.009542570850335389
878.0, 0.009264054260806847
879.0, 0.006765653886789441
880.0, 0.0067072388584564074
881.0, 0.007080600896183225
882.0, 0.006185694566112999
883.0, 0.007163460088048198
884.0, 0.007948288921404425
885.0, 0.005234442675495353
886.0, 0.0071004172886474405
887.0, 0.005700812074292764
888.0, 0.005604182201001001
889.0, 0.0061063904450201385
890.0, 0.00743814947872088
891.0, 0.009134721659353036
892.0, 0.008579411482496076
893.0, 0.008190329916056697
894.0, 0.0061389310442318355
895.0, 0.008800624001860427
896.0, 0.007841791477596073
897.0, 0.007890370038475765
898.0, 0.008924250122063722
899.0, 0.009291584760651948
900.0, 0.008586508481390833
901.0, 0.008054270736814218
902.0, 0.009780613292956913
903.0, 0.006008052185970113
904.0, 0.00799717821741143
905.0, 0.00848632533527696
906.0, 0.007347979869747066
907.0, 0.007609706754502768
908.0, 0.007897798152339845
909.0, 0.006904684089433646
910.0, 0.008176083202289833
911.0, 0.008234183145191722
912.0, 0.007830052247796034
913.0, 0.009140253154727244
914.0, 0.008558330441124728
915.0, 0.008376737152970477
916.0, 0.0075341552424863225
917.0, 0.007030801191839525
918.0, 0.007947459740996761
919.0, 0.00793283947610211
920.0, 0.007594461863063846
921.0, 0.009362889101832665
922.0, 0.008589892964156368
923.0, 0.008057708684085533
924.0, 0.007735851062325129
925.0, 0.005948361984914784
926.0, 0.004149648100543809
927.0, 0.004359469069114068
928.0, 0.005109924926775204
929.0, 0.0040967351937767045
930.0, 0.006288497616441409
931.0, 0.00676010672341553
932.0, 0.005323963184007521
933.0, 0.004625010233764903
934.0, 0.005647147866478998
935.0, 0.005408944847240305
936.0, 0.0036033364002316095
937.0, 0.0037315407241434815
938.0, 0.003885192064066855
939.0, 0.002460790883055947
940.0, 0.004863394021904363
941.0, 0.0036393166466176714
942.0, 0.0014774038770919685
943.0, 0.001094928817189555
944.0, 0.0011505195253667237
945.0, 0.0013979798006629196
946.0, 0.00219823019615579
947.0, 0.0003487897176761252
948.0, 0.00042141645064801736
949.0, 0.0018429418485141947
950.0, 0.001042536669225885
951.0, 0.0015694214019070791
952.0, 0.001452385738861594
953.0, 0.0006261232973698836
954.0, 0.000604240355736995
955.0, 0.0016073065317457657
956.0, 0.002002464865831693
957.0, 0.002106623345724736
958.0, 0.0013030723721665976
959.0, 0.003187588934135478
960.0, 0.002043484063919296
961.0, 0.002257097160534515
962.0, 0.001930312970371062
963.0, 0.0030814662774133954
964.0, 0.003950657175899766
965.0, 0.0007200466578389438
966.0, 0.00022487891114824124
967.0, 0.00037527160821292766
968.0, 0.000740297938699292
969.0, 0.0009031289373846274
970.0, 0.0019636034110819397
971.0, 0.0018134555104008772
972.0, 0.0011164757630099313
973.0, 0.0011633680472482408
974.0, 0.0013257783937679355
975.0, 0.00031864988230217306
976.0, 0.0002955358026707546
977.0, 0.0009597961354206688
978.0, 0.0011364566502258258
979.0, 0.001213632269441254
980.0, 0.000924379180514607
981.0, 0.0008854182169456161
982.0, 0.0009672572553240528
983.0, 0.0020612970880176497
984.0, 0.0040910273309750535
985.0, 0.004473447174722979
986.0, 0.005903831686528546
987.0, 0.006741715765603274
988.0, 0.009355058251515672
989.0, 0.009204177511938586
990.0, 0.007867179059745872
991.0, 0.00998375898147733
992.0, 0.010387568904434322
993.0, 0.010088855354935953
994.0, 0.013789958394699672
995.0, 0.012705135725716892
996.0, 0.016698410802067704
997.0, 0.01854235647204369
998.0, 0.020525850377241386
999.0, 0.022561532717452974
1000.0, 0.0225235448064666
1001.0, 0.02238766259131506
1002.0, 0.022244929799639986
1003.0, 0.022236830750046777
1004.0, 0.022588727586864567
1005.0, 0.020598098358259747
1006.0, 0.020298360256803302
1007.0, 0.01484441915673005
1008.0, 0.01654510079435493
1009.0, 0.013321467167468464
1010.0, 0.013574857694221891
1011.0, 0.011322219455887947
1012.0, 0.010712160938534667
1013.0, 0.01443998662335259
1014.0, 0.01609882992373294
1015.0, 0.016084563314049845
1016.0, 0.017667698718010053
1017.0, 0.019563035281745005
1018.0, 0.010767922159372783
1019.0, 0.015987793360832055
1020.0, 0.014434239351446734
1021.0, 0.015424456808970765
1022.0, 0.015839652340639807
1023.0, 0.011179191061394976
1024.0, 0.008484396988168705
1025.0, 0.011078376907831975
1026.0, 0.011440912357840376
1027.0, 0.013742289462810154
1028.0, 0.012235693924234169
1029.0, 0.0140997023690165
1030.0, 0.013633971324503648
1031.0, 0.011261403176014333
1032.0, 0.009725653269652199
1033.0, 0.0098072483596614
1034.0, 0.010751406710306364
1035.0, 0.012530066412298625
1036.0, 0.015029081869279586
1037.0, 0.017889801615246823
1038.0, 0.021953017956397994
1039.0, 0.02334130976695517
1040.0, 0.024577920800857453
1041.0, 0.029782803205602185
1042.0, 0.03111651405772393
1043.0, 0.03383985972787126
1044.0, 0.040639443490111296
1045.0, 0.045052193646617736
1046.0, 0.05596344482059447
1047.0, 0.06055195141649625
1048.0, 0.0707276345362143
1049.0, 0.08395532064608446
1050.0, 0.10256180103897544
1051.0, 0.11647360398457707
1052.0, 0.1348562660166582
1053.0, 0.15406496932479216
1054.0, 0.17218718208436604
1055.0, 0.19082147801626723
1056.0, 0.20277327227286424
1057.0, 0.207845501762557
1058.0, 0.20957191092492786
1059.0, 0.20483107333385311
1060.0, 0.1899852295012384
1061.0, 0.17129502170327174
1062.0, 0.15442266006872588
1063.0, 0.13369967702634447
1064.0, 0.11202207924253257
1065.0, 0.09432572530141453
1066.0, 0.0798678919865995
1067.0, 0.06905848686477992
1068.0, 0.060218279457040474
1069.0, 0.05050071834359977
1070.0, 0.04350226603412431
1071.0, 0.044150748571861353
1072.0, 0.041263996062706115
1073.0, 0.03724522229096227
1074.0, 0.03855017288335017
1075.0, 0.04160127993560122
1076.0, 0.04448567174867685
1077.0, 0.050358327708213683
1078.0, 0.05397410680916547
1079.0, 0.0629945253299414
1080.0, 0.06592770475678572
1081.0, 0.07734780366144837
1082.0, 0.07706173815112166
1083.0, 0.07984198629864513
1084.0, 0.08048183767158705
1085.0, 0.08057666766099209
1086.0, 0.07835842891818214
1087.0, 0.07189553623998532
1088.0, 0.06312622142265284
1089.0, 0.051844270268368894
1090.0, 0.05136838306386664
1091.0, 0.048869689634194836
1092.0, 0.047779242646027495
1093.0, 0.053850944935517155
1094.0, 0.05499955659252799
1095.0, 0.05587192882240245
1096.0, 0.06187218558370919
1097.0, 0.06678160985211021
1098.0, 0.0677733090166682
1099.0, 0.06975934006294426
1100.0, 0.07086086428497204
1101.0, 0.07198005108216816
1102.0, 0.06868478253731265
1103.0, 0.06052974448285775
1104.0, 0.058608480421086157
1105.0, 0.052776171975905777
1106.0, 0.04728558795340752
1107.0, 0.0399199076472742
1108.0, 0.03363049268726577
1109.0, 0.030066686262968663
1110.0, 0.0264954419134518
1111.0, 0.022953632030050672
1112.0, 0.020208379132783054
1113.0, 0.01608252612732857
1114.0, 0.016581808584989685
1115.0, 0.0193501659099109
1116.0, 0.016786532450015358
1117.0, 0.016310137972484356
1118.0, 0.016476358047358464
1119.0, 0.015353104931988175
1120.0, 0.015275105386540307
1121.0, 0.015453952648064631
1122.0, 0.014750346177966238
1123.0, 0.019125079550460295
1124.0, 0.01602577631581396
1125.0, 0.020754644539848394
1126.0, 0.017268321102733825
1127.0, 0.021999037812145406
1128.0, 0.022657346677767604
1129.0, 0.028000734221615524
1130.0, 0.03371412873265575
1131.0, 0.03681610904491077
1132.0, 0.03963410672964569
1133.0, 0.043445306262490095
1134.0, 0.04698257400664567
1135.0, 0.05035195429283948
1136.0, 0.04953717270994023
1137.0, 0.04636035957225152
1138.0, 0.04492332445854961
1139.0, 0.041791060155211446
1140.0, 0.03673978624609323
1141.0, 0.033402269524802
1142.0, 0.02923146416782266
1143.0, 0.023719473162935264
1144.0, 0.02081282182418985
1145.0, 0.019821424476068654
1146.0, 0.016262358699293787
1147.0, 0.01637362216686761
1148.0, 0.014076728724284065
1149.0, 0.012771793646322596
1150.0, 0.011465822437557196
1151.0, 0.009619963581135227
1152.0, 0.009313640275347996
1153.0, 0.01259586307564776
1154.0, 0.012311108450025223
1155.0, 0.010300397969389617
1156.0, 0.01208135530576406
1157.0, 0.0145589661631766
1158.0, 0.012354647294007958
1159.0, 0.011230289779050127
1160.0, 0.011371443511702375
1161.0, 0.01227425332290765
1162.0, 0.00953079947085742
1163.0, 0.008277872660173184
1164.0, 0.006162605699859391
1165.0, 0.005580846352600049
1166.0, 0.005003733122288201
1167.0, 0.004423652250849866
1168.0, 0.003923262191048041
1169.0, 0.002786522737104805
1170.0, 0.0029010968506291293
1171.0, 0.006741741676857509
1172.0, 0.0068245488987578665
1173.0, 0.00611935902828143
1174.0, 0.006947385202242943
1175.0, 0.004450529854036711
1176.0, 0.004243205891958354
1177.0, 0.0037130071059905934
1178.0, 0.00310306569968209
1179.0, 0.00406161732108957
1180.0, 0.004861887279169589
1181.0, 0.00474443537101053
1182.0, 0.00520129443123577
1183.0, 0.005877345757004724
1184.0, 0.005810193406312104
1185.0, 0.005559816134141004
1186.0, 0.001468661279599109
1187.0, 0.0029420043359932235
1188.0, 0.0016044570772212829
1189.0, 0.0004737697387965036
1190.0, 0.0013433821206031236
1191.0, 0.0017340426768083575
1192.0, 0.0019936540291304095
1193.0, 0.0029218274191804136
1194.0, 0.002832982113181716
1195.0, 0.0012541247613937368
1196.0, 0.0010032637655149517
1197.0, 0.0015548016721822603
1198.0, 0.0013091319877723676
1199.0, 0.0006116408353489045
1200.0, 0.0007501649211227516
1201.0, 0.0016187273673218215
1202.0, 0.0014684073506195988
1203.0, 0.0030981668359863213
1204.0, 0.0032455925321541908
1205.0, 0.002134438224627043
1206.0, 0.0023463408306929677
1207.0, 0.003226870310915666
1208.0, 0.0025209608332130463
1209.0, 0.0009903374959848363
1210.0, 0.0002183263039415353
1211.0, 0.0009014393347850833
1212.0, 0.001991143726094414
1213.0, 0.0012944975013585089
1214.0, 0.004989263118972181
1215.0, 0.0023555804722962094
1216.0, 0.0013555808800673693
1217.0, 0.0032174734950239027
1218.0, 0.00475559903040121
1219.0, 0.0030067775399502178
1220.0, 0.0013514173855990028
1221.0, 0.0016614173819743702
1222.0, 0.0016869821438373982
1223.0, 0.004104100213174425
1224.0, 0.0025467294143097234
1225.0, 0.0012763138258689384
1226.0, 0.0034357711779045893
1227.0, 0.005998671775063824
1228.0, 0.0018173481649553984
1229.0, 0.0024351374744844647
1230.0, 0.0022557752620451267
1231.0, 0.0034811512462915384
1232.0, 0.0021053232473981064
1233.0, 0.002387859262599137
1234.0, 0.005189043236357179
1235.0, 0.0037758461541781982
1236.0, 0.0006663976587575778
1237.0, 0.0012678021312704283
1238.0, 0.002469334331699274
1239.0, 0.003295149103267294
1240.0, 0.001075776151627831
1241.0, 0.003330565037529004
1242.0, 0.004465956223554089
1243.0, 0.0016992047516171036
1244.0, 0.0016644837621766194
1245.0, 0.001833971532010727
1246.0, 0.0012945463483804063
1247.0, 0.0028016948953328022
1248.0, 0.0031002366700954775
1249.0, 0.0015571790532360927
1250.0, 0.004216330113683016
1251.0, 0.00487517886943016
1252.0, 0.006276882369482703
1253.0, 0.004999225774013827
1254.0, 0.004603578042123121
1255.0, 0.0071758665782000065
1256.0, 0.008283540006702525
1257.0, 0.006987206895969639
1258.0, 0.007832571269702186
1259.0, 0.005296310015216707
1260.0, 0.004000794073341146
1261.0, 0.0061491954240406755
1262.0, 0.007145356580049774
1263.0, 0.006692516116614422
1264.0, 0.007945740420314734
1265.0, 0.007964746703327554
1266.0, 0.007462314569024545
1267.0, 0.0095469651325124
1268.0, 0.011081687080580133
1269.0, 0.01071533241157119
1270.0, 0.011968858338151539
1271.0, 0.010853544146204718
1272.0, 0.00926210130522087
1273.0, 0.007001469378363405
1274.0, 0.008738279364086766
1275.0, 0.010622557170012804
1276.0, 0.009738991157166314
1277.0, 0.007468900948032147
1278.0, 0.007277134438402784
1279.0, 0.010296493612788988
1280.0, 0.009689199841921384
1281.0, 0.004847543525003809
1282.0, 0.008944647959140748
1283.0, 0.004127070546178061
1284.0, 0.008780537161805378
1285.0, 0.004424601892933623
1286.0, 0.006871535662530482
1287.0, 0.008455464787438112
1288.0, 0.008274425730045162
1289.0, 0.011014800609460201
1290.0, 0.010518481354994806
1291.0, 0.011222241009506988
1292.0, 0.010873647903166632
1293.0, 0.010965089978083799
1294.0, 0.017462180932789655
1295.0, 0.015229028229442592
1296.0, 0.015708019291522542
1297.0, 0.014817620253200972
1298.0, 0.013573030699655061
1299.0, 0.014913584909963898
1300.0, 0.014946819768795942
1301.0, 0.01337213688636399
1302.0, 0.015350784504259321
1303.0, 0.015153785735809817
1304.0, 0.013515601747459405
1305.0, 0.015310836100847285
1306.0, 0.01665040865348239
1307.0, 0.017522527489685687
1308.0, 0.01882198290012715
1309.0, 0.01760933282407205
1310.0, 0.015660136928696496
1311.0, 0.016401819994541662
1312.0, 0.016825356811257318
1313.0, 0.01733642651188156
1314.0, 0.02079110248831153
1315.0, 0.014374300541614926
1316.0, 0.01812834309761566
1317.0, 0.015588927916884078
1318.0, 0.017110486173587923
1319.0, 0.018789621147762534
1320.0, 0.017235365144080684
1321.0, 0.014911226317891284
1322.0, 0.01688136865397515
1323.0, 0.018115506370512534
1324.0, 0.01603494744232426
1325.0, 0.015875167583309233
1326.0, 0.01673816159042853
1327.0, 0.0138146206596303
1328.0, 0.011337799965043997
1329.0, 0.012508767946228756
1330.0, 0.012257594053709646
1331.0, 0.01158742180086653
1332.0, 0.009077574382983362
1333.0, 0.009208116035746878
1334.0, 0.012056408878586023
1335.0, 0.010708550309240606
1336.0, 0.010360077867158757
1337.0, 0.009629062472730314
1338.0, 0.008045253820947272
1339.0, 0.008461330051872482
1340.0, 0.007094933691403695
1341.0, 0.007141473169424539
1342.0, 0.011101436540582812
1343.0, 0.01043919653234092
1344.0, 0.009436308036919763
1345.0, 0.010854890518213275
1346.0, 0.009147856680424839
1347.0, 0.005100423226813349
1348.0, 0.011209622765113808
1349.0, 0.014340968231663143
1350.0, 0.013378704094816965
1351.0, 0.006321332337208855
1352.0, 0.006856030136934919
1353.0, 0.008804280114123696
1354.0, 0.008469054581581937
1355.0, 0.009203557617151187
1356.0, 0.010403360657893438
1357.0, 0.010625453303726037
1358.0, 0.011753535303336508
1359.0, 0.011554608311408792
1360.0, 0.007368737686747773
1361.0, 0.00687014052777783
1362.0, 0.011656585819967522
1363.0, 0.008832063325314684
1364.0, 0.011619894244533207
1365.0, 0.01215296697504795
1366.0, 0.0054686814184312805
1367.0, 0.005665881068531211
1368.0, 0.006972561002094846
1369.0, 0.008979034567355033
1370.0, 0.00798225940030555
1371.0, 0.008085589418750533
1372.0, 0.01069367792477677
1373.0, 0.012667331580830714
1374.0, 0.012446494523996593
1375.0, 0.010620838910171484
1376.0, 0.011754167781756598
1377.0, 0.013617118292481927
1378.0, 0.011490005436170297
1379.0, 0.008984813400668116
1380.0, 0.007030101527952127
1381.0, 0.009898779798146176
1382.0, 0.007389325329035107
1383.0, 0.008363265121380685
1384.0, 0.010761497875058505
1385.0, 0.009078370717023996
1386.0, 0.00990086187529988
1387.0, 0.01209444406319576
1388.0, 0.007725421765539122
1389.0, 0.010317863150944313
1390.0, 0.003972878281716715
1391.0, 0.00644530334583474
1392.0, 0.00813184102880737
1393.0, 0.00760400894429375
1394.0, 0.00533330708213136
1395.0, 0.0040225501823240185
1396.0, 0.0070262649909444775
1397.0, 0.007736761525207115
1398.0, 0.00481942296735117
1399.0, 0.007349866679291427
1400.0, 0.009153988004331868
1401.0, 0.004725085776034765
1402.0, 0.004659246172711392
1403.0, 0.005720619274828331
1404.0, 0.00626804343237209
1405.0, 0.004566784445596613
1406.0, 0.0020032665294722864
1407.0, 0.0064084646529743525
1408.0, 0.00809350857169069
1409.0, 0.0068021913902126495
1410.0, 0.007423878847525263
1411.0, 0.007505730718358212
1412.0, 0.0073253183524425855
1413.0, 0.0071417336779119895
1414.0, 0.008808031835899907
1415.0, 0.010898219060566944
1416.0, 0.01138847107100464
1417.0, 0.00904891161390798
1418.0, 0.006642102252153523
1419.0, 0.00942152862075362
1420.0, 0.006066067373230335
1421.0, 0.0037428360653917973
1422.0, 0.004485562742752633
1423.0, 0.005204057720114255
1424.0, 0.007917893110673873
1425.0, 0.005392872025616508
1426.0, 0.006656783835618461
1427.0, 0.009618397465202978
1428.0, 0.009614829430499036
1429.0, 0.00752230394157672
1430.0, 0.007888751609699695
1431.0, 0.008200937821026162
1432.0, 0.008850757734561664
1433.0, 0.009633797134126302
1434.0, 0.010933240501029942
1435.0, 0.011636017103579841
1436.0, 0.011266838778695552
1437.0, 0.011286299321123289
1438.0, 0.014312026127800206
1439.0, 0.019429806211653387
1440.0, 0.0206497877027094
1441.0, 0.017445067373206034
1442.0, 0.01555064351568758
1443.0, 0.02108105717825581
1444.0, 0.01839415218231549
1445.0, 0.02055275276495841
1446.0, 0.016417265965965114
1447.0, 0.017514808230314757
1448.0, 0.022299227502944143
1449.0, 0.020563908319624825
1450.0, 0.023704581137142935
1451.0, 0.022672426252550525
1452.0, 0.023653040304147083
1453.0, 0.023885654627051413
1454.0, 0.023937444753013903
1455.0, 0.023696196315078827
1456.0, 0.02145287928243255
1457.0, 0.021204822503819006
1458.0, 0.022123461830084915
1459.0, 0.019894586201663105
1460.0, 0.016445823050075494
1461.0, 0.014123325247605414
1462.0, 0.013138608542074302
1463.0, 0.014470042983627933
1464.0, 0.012961327552827327
1465.0, 0.009588447257921216
1466.0, 0.011685716108434909
1467.0, 0.010985822234661907
1468.0, 0.010071873204410522
1469.0, 0.007993142655182502
1470.0, 0.009820777820416831
1471.0, 0.005649152294894496
1472.0, 0.007105466891330884
1473.0, 0.010591553749337922
1474.0, 0.011218209022608425
1475.0, 0.005085008496628698
1476.0, 0.008274256731723242
1477.0, 0.005135959048108489
1478.0, 0.004312975431353724
1479.0, 0.004195020331756652
1480.0, 0.00424452108571233
1481.0, 0.0069678666964365565
1482.0, 0.007099922858716463
1483.0, 0.005530824440708849
1484.0, 0.003566774958115241
1485.0, 0.0032498491846502365
1486.0, 0.003973054992174953
1487.0, 0.001399922786124092
1488.0, 0.003978190396474796
1489.0, 0.0036153724811993464
1490.0, 0.0021555593685485893
1491.0, 0.0035632170480194426
1492.0, 0.005465451713557892
1493.0, 0.005613967516883783
1494.0, 0.005993765055919763
1495.0, 0.006167244161921024
1496.0, 0.003841154598546139
1497.0, 0.0025306434144048997
1498.0, 0.0019713030772782565
1499.0, 0.00032018228697350954
1500.0, 0.0008068803031440757
1501.0, 0.0013870445449742667
1502.0, 0.0009805154697164365
1503.0, 0.004876783895932011
1504.0, 0.004411176632788562
1505.0, 0.002089369203580926
1506.0, 0.003229238553354101
1507.0, 0.0018412012173165786
1508.0, 0.002965879719362644
1509.0, 0.005047263211875799
1510.0, 0.004467635864709831
1511.0, 0.002794674239276011
1512.0, 0.0007747427574079536
1513.0, 0.0011134437849942861
1514.0, 0.004190478016785524
1515.0, 0.005712547959992835
1516.0, 0.00320177819148698
1517.0, 0.004787420303930208
1518.0, 0.009056689833927397
1519.0, 0.005071911092325772
1520.0, 0.005491649458736627
1521.0, 0.004461668525932678
1522.0, 0.007905108084623651
1523.0, 0.006496065377659649
1524.0, 0.0049750845378277635
1525.0, 0.006558174711056962
1526.0, 0.0054613088106653645
1527.0, 0.002909542730998327
1528.0, 0.0031641128745111212
1529.0, 0.002292405973073065
1530.0, 0.0029750255162245324
1531.0, 0.0023702441943548144
1532.0, 0.0031912670494041308
1533.0, 0.004672011566644766
1534.0, 0.0020293590351191737
1535.0, 0.0043682234315527676
1536.0, 0.004818292893681585
1537.0, 0.0015918849114091916
1538.0, 7.847957480939545e-06
1539, 0.0
1540, 0.0
1541, 0.0
1542, 0.0
1543, 0.0
1544, 0.0
1545, 0.0
1546, 0.0
1547, 0.0
1548, 0.0
1549, 0.0
1550, 0.0
1551, 0.0
1552, 0.0
1553, 0.0
1554, 0.0
1555, 0.0
1556, 0.0
1557, 0.0
1558, 0.0
1559, 0.0
1560, 0.0
1561, 0.0
1562, 0.0
1563, 0.0
1564, 0.0
1565, 0.0
1566, 0.0
1567, 0.0
1568, 0.0
1569, 0.0
1570, 0.0
1571, 0.0
1572, 0.0
1573, 0.0
1574, 0.0
1575, 0.0
1576, 0.0
1577, 0.0
1578, 0.0
1579, 0.0
1580, 0.0
1581, 0.0
1582, 0.0
1583, 0.0
1584, 0.0
1585, 0.0
1586, 0.0
1587, 0.0
1588, 0.0
1589, 0.0
1590, 0.0
1591, 0.0
1592, 0.0
1593, 0.0
1594, 0.0
1595, 0.0
1596, 0.0
1597, 0.0
1598, 0.0
1599, 0.0
