30, 0.0
31, 0.0
32, 0.0
33, 0.0
34, 0.0
35, 0.0
36, 0.0
37, 0.0
38, 0.0
39, 0.0
40, 0.0
41, 0.0
42, 0.0
43, 0.0
44, 0.0
45, 0.0
46, 0.0
47, 0.0
48, 0.0
49, 0.0
50, 0.0
51, 0.0
52, 0.0
53, 0.0
54, 0.0
55, 0.0
56, 0.0
57, 0.0
58, 0.0
59, 0.0
60, 0.0
61, 0.0
62, 0.0
63, 0.0
64, 0.0
65, 0.0
66, 0.0
67, 0.0
68, 0.0
69, 0.0
70, 0.0
71, 0.0
72, 0.0
73, 0.0
74, 0.0
75, 0.0
76, 0.0
77, 0.0
78, 0.0
79, 0.0
80, 0.0
81, 0.0
82, 0.0
83, 0.0
84, 0.0
85, 0.0
86, 0.0
87, 0.0
88, 0.0
89, 0.0
90, 0.0
91, 0.0
92, 0.0
93, 0.0
94, 0.0
95, 0.0
96, 0.0
97, 0.0
98, 0.0
99, 0.0
100, 0.0
101, 0.0
102, 0.0
103, 0.0
104, 0.0
105, 0.0
106.0, 1.494371289706821e-06
107.0, 0.00025055625290750037
108.0, 0.001141457678211502
109.0, 0.0029400793336811304
110.0, 0.006530768646468739
111.0, 0.019091362914784325
112.0, 0.03585427279926389
113.0, 0.05572297635458187
114.0, 0.07768741339618644
115.0, 0.1053463584721076
116.0, 0.13497989123886991
117.0, 0.1614014807993488
118.0, 0.1759036160551296
119.0, 0.1760666635139445
120.0, 0.1622036076903698
121.0, 0.1467475882078534
122.0, 0.13138944035033803
123.0, 0.11734295659884694
124.0, 0.10626855528937955
125.0, 0.08841609655149747
126.0, 0.07708330682545607
127.0, 0.07265820676666175
128.0, 0.06962227845382651
129.0, 0.061011785552667806
130.0, 0.05485519439961549
131.0, 0.05706000826116581
132.0, 0.05688941948226879
133.0, 0.055718795777889144
134.0, 0.05631399955145876
135.0, 0.06813356547331205
136.0, 0.08027392152962301
137.0, 0.09117042219217299
138.0, 0.10024796590368902
139.0, 0.12196288992175981
140.0, 0.13773202642045337
141.0, 0.15156565288261392
142.0, 0.17073176653234126
143.0, 0.1988997139275385
144.0, 0.22501847168771286
145.0, 0.24692698311056308
146.0, 0.26975237649980033
147.0, 0.28166679485669116
148.0, 0.2812828399358792
149.0, 0.26377447042731866
150.0, 0.23323406092712556
151.0, 0.19920321847823225
152.0, 0.16294775377005224
153.0, 0.12537653675590227
154.0, 0.09833919378051927
155.0, 0.07701362785256856
156.0, 0.05957996417228918
157.0, 0.04788023512054531
158.0, 0.035588314476084223
159.0, 0.024276204725188346
160.0, 0.018395381944983344
161.0, 0.014683722778598293
162.0, 0.009858628800234276
163.0, 0.003375526141599842
164.0, 0.00239425338320189
165.0, 0.002547038101246039
166.0, 0.003121361150158378
167.0, 0.003377131187122258
168.0, 0.0018644236144472514
169.0, 0.001308217207225975
170.0, 0.0016085673573753997
171.0, 0.0007001623955977666
172.0, 0.0006451722331275053
173.0, 0.001458276321404532
174.0, 0.00326682655833829
175.0, 0.004127403118933685
176.0, 0.00507880239606706
177.0, 0.005970680633578726
178.0, 0.00642804760777687
179.0, 0.011317274144823402
180.0, 0.015609292420185536
181.0, 0.018354321978607098
182.0, 0.022640096740822586
183.0, 0.029056187218341505
184.0, 0.037841253117788826
185.0, 0.04974952380913565
186.0, 0.06634687236831556
187.0, 0.08286835859397423
188.0, 0.09827670057117514
189.0, 0.1099365193691559
190.0, 0.12122635259357045
191.0, 0.1268950534915759
192.0, 0.12460824160521822
193.0, 0.11929080966662889
194.0, 0.109418090340248
195.0, 0.0975837046991128
196.0, 0.08693719689985523
197.0, 0.0774328647051666
198.0, 0.06675525305713051
199.0, 0.05559221110118163
200.0, 0.04905633464273053
201.0, 0.04089384804066532
202.0, 0.03459368155747055
203.0, 0.03215144763271136
204.0, 0.027433627100557544
205.0, 0.02388704882349332
206.0, 0.02185127113126689
207.0, 0.02227891687844666
208.0, 0.02174571357868302
209.0, 0.02116977094888434
210.0, 0.020977527573952878
211.0, 0.022919076908139772
212.0, 0.0264897299097481
213.0, 0.029542408503799883
214.0, 0.03066814874560897
215.0, 0.024690243847098996
216.0, 0.0217772863570906
217.0, 0.019678951982201473
218.0, 0.013621577119752967
219.0, 0.009739238602646765
220.0, 0.005573003760408845
221.0, 0.001238320380037663
222.0, 0.0011784972882904444
223.0, 0.002302993418952852
224.0, 0.0044786389935434524
225.0, 0.007765686082650306
226.0, 0.00778965225743333
227.0, 0.007337925143796283
228.0, 0.006740457190379118
229.0, 0.006551877302365918
230.0, 0.005936773853072998
231.0, 0.005732239934398422
232.0, 0.005928477393606045
233.0, 0.005330154708278682
234.0, 0.004589407998369176
235.0, 0.003835257645689897
236.0, 0.0031435816849273964
237.0, 0.002236853532100489
238.0, 0.0012362549259149038
239.0, 0.0005793661024938563
240.0, 0.0011156857991695625
241.0, 0.0021018258073131645
242.0, 0.0035454669844926616
243.0, 0.00548923895501106
244.0, 0.008176528808921927
245.0, 0.010486452644531009
246.0, 0.013567504871792035
247.0, 0.017991617450231392
248.0, 0.020794328670967085
249.0, 0.024592700866624073
250.0, 0.02922038787935364
251.0, 0.03460199120367555
252.0, 0.04143030576063896
253.0, 0.04793750592629926
254.0, 0.056003617036861034
255.0, 0.07361927740564635
256.0, 0.08962085979491366
257.0, 0.1054002192265922
258.0, 0.12130438785574972
259.0, 0.13543039651586303
260.0, 0.14955643365475346
261.0, 0.1590966495354149
262.0, 0.15902507107195318
263.0, 0.1505830046913649
264.0, 0.1438187190747616
265.0, 0.1356365996604572
266.0, 0.117116969547895
267.0, 0.10813938741565012
268.0, 0.0998126111492249
269.0, 0.09038462307215252
270.0, 0.08099200021005427
271.0, 0.0773204914591196
272.0, 0.07615418311423255
273.0, 0.07602653442846899
274.0, 0.08294026913691924
275.0, 0.08926801345572132
276.0, 0.09554074276832832
277.0, 0.10249076100297097
278.0, 0.11354646826632821
279.0, 0.12368733812970961
280.0, 0.13233188052263475
281.0, 0.1390501136861542
282.0, 0.14413473725987724
283.0, 0.14556841415743987
284.0, 0.14333132473359161
285.0, 0.1443992715343934
286.0, 0.1387182455307824
287.0, 0.12984398102307237
288.0, 0.11990341630128618
289.0, 0.10403363899107237
290.0, 0.08941155095934857
291.0, 0.07627974064514774
292.0, 0.06517183265386296
293.0, 0.053448958163875925
294.0, 0.04367898103988711
295.0, 0.035619529949273906
296.0, 0.027443664070877283
297.0, 0.025393132289171543
298.0, 0.025375184836641137
299.0, 0.02616520811530188
300.0, 0.0276183977672153
301.0, 0.02955892369134393
302.0, 0.03054076522826837
303.0, 0.029495161513505674
304.0, 0.03730877594024216
305.0, 0.04638838839767105
306.0, 0.0551277714862262
307.0, 0.06109545220442648
308.0, 0.060815059813086686
309.0, 0.06078998207243736
310.0, 0.06034816525405166
311.0, 0.05528425472455423
312.0, 0.04808495804487776
313.0, 0.04134774574793494
314.0, 0.03561803111201546
315.0, 0.029922198502502377
316.0, 0.026152971206481607
317.0, 0.021385379189255937
318.0, 0.014338739834972398
319.0, 0.015759309872867434
320.0, 0.01784546386153098
321.0, 0.020800093205512987
322.0, 0.024947879124248708
323.0, 0.03193445275826876
324.0, 0.04071806975270499
325.0, 0.05215354173217603
326.0, 0.0685156105211375
327.0, 0.08648155975211345
328.0, 0.10752246397177798
329.0, 0.1319905515770419
330.0, 0.16056837105677219
331.0, 0.18845742192263024
332.0, 0.21909628067780218
333.0, 0.25159606123080075
334.0, 0.26641462396036675
335.0, 0.27763191374159396
336.0, 0.2800448616999595
337.0, 0.2697470051321805
338.0, 0.2451806659226864
339.0, 0.22242760058344704
340.0, 0.1997137381214312
341.0, 0.17500783632499683
342.0, 0.15110776175915377
343.0, 0.1357567709971836
344.0, 0.12412092578249292
345.0, 0.10591197610194819
346.0, 0.09584883787733278
347.0, 0.0825181598893338
348.0, 0.06589793822740897
349.0, 0.05199047052583586
350.0, 0.04337644805304174
351.0, 0.0343353798074635
352.0, 0.024011130098233625
353.0, 0.01805217182351851
354.0, 0.013762814758203054
355.0, 0.011300516571435321
356.0, 0.010524100276420213
357.0, 0.005439331154576002
358.0, 0.005974448524402215
359.0, 0.007443590544166633
360.0, 0.006000022829498509
361.0, 0.0070978647649918205
362.0, 0.007823193720472162
363.0, 0.008154599859915424
364.0, 0.008064547152997013
365.0, 0.005745361909630918
366.0, 0.00502844026671034
367.0, 0.005298729361856069
368.0, 0.004613728715708507
369.0, 0.00444828113595925
370.0, 0.003056807974648231
371.0, 0.0009106795608334511
372.0, 0.0007248943857809502
373.0, 0.0005353292851915787
374.0, 0.0015752417829423457
375.0, 0.0033887847724279416
376.0, 0.0009448860937294654
377.0, 0.0023608529763008332
378.0, 0.0035715753645837885
379.0, 0.003039261661737763
380.0, 0.003788724683270855
381.0, 0.004475478401727788
382.0, 0.003688049476381454
383.0, 0.0006089077366573548
384.0, 0.003465094814762964
385.0, 0.0033756604255563956
386.0, 0.0027293845754094515
387.0, 0.003864082866411499
388.0, 0.0024944701673595654
389.0, 0.0025213057177212016
390.0, 0.004381698409789419
391.0, 0.008737158442330285
392.0, 0.01018798772035734
393.0, 0.012462655695032774
394.0, 0.015058014119927882
395.0, 0.016335198889711525
396.0, 0.017465479327977932
397.0, 0.018130862587639438
398.0, 0.017986929855977496
399.0, 0.016065459766187312
400.0, 0.01615413120242026
401.0, 0.01895010054890774
402.0, 0.02325181478639113
403.0, 0.023157258617502424
404.0, 0.029866829036437968
405.0, 0.03756926384093516
406.0, 0.044343741628598304
407.0, 0.04929766148310269
408.0, 0.06084793004051439
409.0, 0.0748181760896986
410.0, 0.08998521799015168
411.0, 0.111034266955927
412.0, 0.13491206615972418
413.0, 0.16212524516437307
414.0, 0.19293378630940403
415.0, 0.22406428438344922
416.0, 0.26158789072624244
417.0, 0.3019367661741389
418.0, 0.3420705479017026
419.0, 0.35626770163406807
420.0, 0.35999534282929985
421.0, 0.3517184585885816
422.0, 0.32943037690360455
423.0, 0.30091968891148113
424.0, 0.27396632797854675
425.0, 0.24714816720764687
426.0, 0.2185906763097019
427.0, 0.19729613012616898
428.0, 0.18128639161970872
429.0, 0.17138350448874407
430.0, 0.16940340952309058
431.0, 0.16648075931296477
432.0, 0.1611504314319032
433.0, 0.15439775278185822
434.0, 0.14817495010945556
435.0, 0.14057365694988846
436.0, 0.13084453589151274
437.0, 0.12019342319808472
438.0, 0.11148946523569318
439.0, 0.0999752266496611
440.0, 0.09062537167477985
441.0, 0.08248043098898185
442.0, 0.07107548451044844
443.0, 0.06566174003581912
444.0, 0.05809966384114987
445.0, 0.048835741180281105
446.0, 0.0438992589564252
447.0, 0.039533754817292585
448.0, 0.0351304971629357
449.0, 0.03133029702778407
450.0, 0.031040433012167704
451.0, 0.03355746804037513
452.0, 0.0354544353485355
453.0, 0.03687184362471463
454.0, 0.04211666525242134
455.0, 0.04491093738021636
456.0, 0.0440995917673358
457.0, 0.03939754860532923
458.0, 0.031193643224276625
459.0, 0.02216611566190243
460.0, 0.01314091522430268
461.0, 0.005579902292332598
462.0, 0.006098561437615857
463.0, 0.005680863313242055
464.0, 0.006343179502319593
465.0, 0.009091943086137713
466.0, 0.015645881813273994
467.0, 0.023994141146676366
468.0, 0.03454490211990081
469.0, 0.04631611938938385
470.0, 0.05156242474982831
471.0, 0.06435972714688264
472.0, 0.08044145940289171
473.0, 0.09739669720482198
474.0, 0.10973748880876304
475.0, 0.12264313530594945
476.0, 0.13616026232825534
477.0, 0.14923406769230652
478.0, 0.1539706571261953
479.0, 0.17145212103128332
480.0, 0.1895324993432024
481.0, 0.20582957281606268
482.0, 0.24096911597449536
483.0, 0.28482376661967185
484.0, 0.3344099787473212
485.0, 0.3901373657646805
486.0, 0.46362646813035086
487.0, 0.5423916630541613
488.0, 0.6210034101999891
489.0, 0.6931691361078816
490.0, 0.7299228104410148
491.0, 0.7460013432572469
492.0, 0.731512086230465
493.0, 0.6853181115795812
494.0, 0.6319909741973706
495.0, 0.5452891962457282
496.0, 0.4581082455942766
497.0, 0.38284058153405287
498.0, 0.3146700757296526
499.0, 0.26349232844848397
500.0, 0.21917805689931263
501.0, 0.17971348643757737
502.0, 0.155150538438347
503.0, 0.13306632399928053
504.0, 0.11556145151418719
505.0, 0.10290920527494646
506.0, 0.09230291123842439
507.0, 0.08470838282401622
508.0, 0.07888596378061521
509.0, 0.07384249355172186
510.0, 0.06662971336998838
511.0, 0.06302376832038939
512.0, 0.06227281480803749
513.0, 0.06336098998583518
514.0, 0.06284421252369843
515.0, 0.06326818403374482
516.0, 0.06433054069988807
517.0, 0.06760770010049827
518.0, 0.07918803774455863
519.0, 0.08675086619674872
520.0, 0.0949845377375062
521.0, 0.10463443694359954
522.0, 0.11483737004003339
523.0, 0.12820515063649734
524.0, 0.14208600685852335
525.0, 0.15520341377900226
526.0, 0.16540881526420895
527.0, 0.17357937000147816
528.0, 0.17792796333091684
529.0, 0.17771586424963326
530.0, 0.171736235736293
531.0, 0.17382629280582784
532.0, 0.1680490905048129
533.0, 0.159092625841819
534.0, 0.15904491735135995
535.0, 0.15394867981735966
536.0, 0.1500657977790442
537.0, 0.14553357069958597
538.0, 0.136698868214606
539.0, 0.1272295542740785
540.0, 0.1231484498398996
541.0, 0.12077736150508331
542.0, 0.11514572042444554
543.0, 0.10669112470350234
544.0, 0.10155745917479835
545.0, 0.09749117901646473
546.0, 0.09213073983346992
547.0, 0.0888214741050724
548.0, 0.08409436061945665
549.0, 0.07800751907184296
550.0, 0.07107690708140497
551.0, 0.07290227977184367
552.0, 0.07212276923022065
553.0, 0.06997567535174797
554.0, 0.06803596359123289
555.0, 0.07507478593937085
556.0, 0.07835385633833761
557.0, 0.08249169962953082
558.0, 0.08957758643785443
559.0, 0.0984726057882581
560.0, 0.11172689217871776
561.0, 0.12619983916842045
562.0, 0.1423440072243261
563.0, 0.16771878149876734
564.0, 0.19325145736537835
565.0, 0.22405442279262155
566.0, 0.26082811627401203
567.0, 0.3014193815573101
568.0, 0.3323898623973112
569.0, 0.36188479400281165
570.0, 0.38614924322112176
571.0, 0.3926015462624629
572.0, 0.3707584613151839
573.0, 0.34553523195749075
574.0, 0.3161526458938439
575.0, 0.2764443179579343
576.0, 0.23798354478984488
577.0, 0.20248644430794213
578.0, 0.1702818050117132
579.0, 0.14158189855000505
580.0, 0.11775192230363578
581.0, 0.09662774856834942
582.0, 0.0778241091199444
583.0, 0.06148922283767474
584.0, 0.05924211565939774
585.0, 0.05278649580470705
586.0, 0.04727165747773293
587.0, 0.045302193038074
588.0, 0.04182231690692599
589.0, 0.03967304427823894
590.0, 0.040532135415996956
591.0, 0.04542583406554824
592.0, 0.05593504420271302
593.0, 0.06471835819356542
594.0, 0.07031322397985025
595.0, 0.0729279874261882
596.0, 0.07446579750437672
597.0, 0.0661885099337775
598.0, 0.05624168982389629
599.0, 0.04572900256609888
600.0, 0.03421755605514214
601.0, 0.02128511407558876
602.0, 0.01242587277869955
603.0, 0.006682929089290598
604.0, 0.002169449821337752
605.0, 0.002905401202003712
606.0, 0.00268975292866586
607.0, 0.003992352129623227
608.0, 0.0085600554717467
609.0, 0.007513087440617251
610.0, 0.006907449038454846
611.0, 0.004615079048747862
612.0, 0.0002958619980632294
613.0, 0.0002125745594948253
614.0, 0.002658090710702314
615.0, 0.007018752164040471
616.0, 0.013261690112426068
617.0, 0.02206725745931444
618.0, 0.029437070042117028
619.0, 0.039571185693265495
620.0, 0.05071361592992455
621.0, 0.05698576191290732
622.0, 0.06735037833943186
623.0, 0.07359902593917698
624.0, 0.07703092013677543
625.0, 0.08051915887239063
626.0, 0.07572633707106051
627.0, 0.06882330392405588
628.0, 0.060364976763193884
629.0, 0.05081500684478212
630.0, 0.040162701660381155
631.0, 0.032820746011764865
632.0, 0.0271618518271225
633.0, 0.022082860303075012
634.0, 0.01602292983793348
635.0, 0.015594769827389224
636.0, 0.013540117825150584
637.0, 0.009334217725098279
638.0, 0.007634111154925185
639.0, 0.004716723029545908
640.0, 0.006415816476973859
641.0, 0.01095086683847386
642.0, 0.013931605583050505
643.0, 0.014377146758825376
644.0, 0.016705295982143393
645.0, 0.021707226950350027
646.0, 0.02968173485486108
647.0, 0.035557358607506175
648.0, 0.04043094646349263
649.0, 0.04510354146703466
650.0, 0.04951627635755121
651.0, 0.050427764028321886
652.0, 0.05460939284718618
653.0, 0.055345085332483515
654.0, 0.05313197511293799
655.0, 0.05551785056618638
656.0, 0.055712594705784095
657.0, 0.056015982155609795
658.0, 0.056009626665874925
659.0, 0.054557334018899784
660.0, 0.05286032222572727
661.0, 0.054595832952381074
662.0, 0.056925396211171014
663.0, 0.057690337888553996
664.0, 0.06348625918294995
665.0, 0.0675820091989353
666.0, 0.07159122839403767
667.0, 0.07672189076323596
668.0, 0.08509515656988935
669.0, 0.09853048177536129
670.0, 0.11167390970692323
671.0, 0.12660410671188765
672.0, 0.15078837098163597
673.0, 0.17044037241954263
674.0, 0.1906793264621491
675.0, 0.20861203154452035
676.0, 0.22058330322314695
677.0, 0.23094705371291258
678.0, 0.23406678878459666
679.0, 0.2276296344593879
680.0, 0.2108357447122864
681.0, 0.18663094751152387
682.0, 0.16629064978113556
683.0, 0.1492502740195226
684.0, 0.13237445855352456
685.0, 0.10732617657294684
686.0, 0.09083985676498434
687.0, 0.07998465699990577
688.0, 0.07033524810999052
689.0, 0.056396978778005
690.0, 0.051045869411149504
691.0, 0.04298774044468803
692.0, 0.03393962065830006
693.0, 0.026287028415013895
694.0, 0.028908193097021282
695.0, 0.02600265694506869
696.0, 0.01994846384845497
697.0, 0.014803919353478606
698.0, 0.020245284938217752
699.0, 0.0133160008072952
700.0, 0.00884581864839664
701.0, 0.007396827813815317
702.0, 0.0071333657674346445
703.0, 0.002550317250257985
704.0, 0.0037340758695635855
705.0, 0.004740642500389029
706.0, 0.0024520055706136043
707.0, 0.0036394477584246214
708.0, 0.0028169969206803883
709.0, 0.0033134077414815697
710.0, 0.004605593818813182
711.0, 0.0026629197738418033
712.0, 0.0018368575601666554
713.0, 0.00402642600694335
714.0, 0.005348469080942224
715.0, 0.0014542205361649345
716.0, 0.0068475931363090785
717.0, 0.009414878437344367
718.0, 0.010147581374347773
719.0, 0.010747897526726427
720.0, 0.016968060052697832
721.0, 0.017110397002598955
722.0, 0.019369797381777652
723.0, 0.02318096794672743
724.0, 0.023572436979012026
725.0, 0.025874290478990702
726.0, 0.02803570397289427
727.0, 0.027426061022309732
728.0, 0.022768601493851365
729.0, 0.025637773958674327
730.0, 0.022798835241532384
731.0, 0.01946178026122427
732.0, 0.017658027781226472
733.0, 0.017127671931367425
734.0, 0.0134079967744359
735.0, 0.011809233324796196
736.0, 0.011632623012912565
737.0, 0.010841282023072503
738.0, 0.006776331491225354
739.0, 0.005310794557893828
740.0, 0.004359406764002121
741.0, 0.0031084505474074627
742.0, 0.004311857169645052
743.0, 0.0034636741430119746
744.0, 0.002482365649057862
745.0, 0.0017169121406091098
746.0, 0.0009611592703523244
747.0, 0.0013714327392009933
748.0, 0.0015679918028278143
749.0, 0.0017128180246737334
750.0, 0.0020685071862020865
751.0, 0.0033494948545578504
752.0, 0.0030193230651385547
753.0, 0.002304612463425866
754.0, 0.0015650479603063895
755.0, 0.0006530430445124753
756.0, 0.0008695768910435596
757.0, 0.0011521269095695274
758.0, 0.0017918384581597593
759.0, 0.002977804451722608
760.0, 0.0014207174324561969
761.0, 0.00147036890720802
762.0, 0.002009060195412051
763.0, 0.00294974193972847
764.0, 0.005671600587993051
765.0, 0.005845388725406912
766.0, 0.005258554374885374
767.0, 0.00570922497492734
768.0, 0.008913081952685588
769.0, 0.008807657080596335
770.0, 0.008573220299558182
771.0, 0.008920120808047126
772.0, 0.009786677099656738
773.0, 0.009480436397911372
774.0, 0.00915607574584549
775.0, 0.00942318832715406
776.0, 0.009341051130466769
777.0, 0.007529247404863952
778.0, 0.006905608658646494
779.0, 0.007707364207898371
780.0, 0.007702802547278002
781.0, 0.006475742122995373
782.0, 0.007761061316291088
783.0, 0.006838048681586387
784.0, 0.00412552865680712
785.0, 0.001476609578655639
786.0, 0.0014371980586071445
787.0, 0.0007573445415400681
788.0, 0.0014563954801848004
789.0, 0.0024654969347291085
790.0, 0.0029355922287938752
791.0, 0.0019268169340254438
792.0, 0.003476410308741694
793.0, 0.003974064436883822
794.0, 0.003851664299033036
795.0, 0.004702099300125261
796.0, 0.008443705093976999
797.0, 0.008915846220821554
798.0, 0.00844908230491038
799.0, 0.00811307006168341
800.0, 0.006829311170127416
801.0, 0.006245529121695983
802.0, 0.006152975411041112
803.0, 0.007335230524287422
804.0, 0.010457345485833928
805.0, 0.005369628399856481
806.0, 0.00584634652942514
807.0, 0.005344437676327215
808.0, 0.0028301444875711832
809.0, 0.005841007372086043
810.0, 0.006913815115780901
811.0, 0.003895507584820646
812.0, 0.00047622515580377113
813.0, 0.0009661809396891162
814.0, 0.0020678723406798907
815.0, 0.003342548291613737
816.0, 0.004427820272908511
817.0, 0.00480835875039393
818.0, 0.003491905917368308
819.0, 0.0040598371806377116
820.0, 0.006627341269752843
821.0, 0.009261911976557602
822.0, 0.010533912849282059
823.0, 0.01396547365479658
824.0, 0.014897400038046557
825.0, 0.01800413268340712
826.0, 0.023381235935060522
827.0, 0.028265921572674105
828.0, 0.0327642710363664
829.0, 0.034442262022584956
830.0, 0.039142714192708636
831.0, 0.048419825501124364
832.0, 0.048322650700047834
833.0, 0.05501711271455932
834.0, 0.059719324205670984
835.0, 0.06201349615437476
836.0, 0.06408448369059065
837.0, 0.0686119818916293
838.0, 0.07336835160718065
839.0, 0.0781842253677871
840.0, 0.08236913841713792
841.0, 0.08394123848783794
842.0, 0.08873135120937231
843.0, 0.0927107574738854
844.0, 0.09457643228740381
845.0, 0.09363192805930155
846.0, 0.09069768771177174
847.0, 0.0880841594396951
848.0, 0.08375166366659101
849.0, 0.07898087371788799
850.0, 0.07767643144336762
851.0, 0.07197197990479537
852.0, 0.07021801372843417
853.0, 0.06799557143173474
854.0, 0.06412503667791077
855.0, 0.06776413014253982
856.0, 0.07070536135153825
857.0, 0.07106694832231351
858.0, 0.07210012622279699
859.0, 0.07783582804532337
860.0, 0.08163348750706319
861.0, 0.08660252557708724
862.0, 0.09157077307059651
863.0, 0.09707888610410298
864.0, 0.10552563253986066
865.0, 0.11743571412667746
866.0, 0.13228249315658083
867.0, 0.1502215754179282
868.0, 0.17037777311932117
869.0, 0.18810370511461655
870.0, 0.20661793386663402
871.0, 0.22218284426232615
872.0, 0.23014699007784672
873.0, 0.2265315093547564
874.0, 0.22587345357383132
875.0, 0.2204215345117262
876.0, 0.2115601919049535
877.0, 0.2018480165303342
878.0, 0.19596183446837867
879.0, 0.19533628758004878
880.0, 0.1978644647358551
881.0, 0.20207459404288056
882.0, 0.20933436538127626
883.0, 0.23167776998591014
884.0, 0.23895357042524162
885.0, 0.243518903878778
886.0, 0.25201627509311475
887.0, 0.2673914931917871
888.0, 0.2574099988802
889.0, 0.26044836625298007
890.0, 0.255956855559453
891.0, 0.24006540623853104
892.0, 0.21984916050315828
893.0, 0.21274975232429577
894.0, 0.1970074210672651
895.0, 0.1832568419802188
896.0, 0.17626001101402655
897.0, 0.16903464176212982
898.0, 0.1646752096724817
899.0, 0.16002919039224914
900.0, 0.15420698025113572
901.0, 0.14810530954281573
902.0, 0.15189996692509744
903.0, 0.15277582992685984
904.0, 0.15199896494767068
905.0, 0.152513263328494
906.0, 0.15775219844186406
907.0, 0.15885094430050184
908.0, 0.16186057467063733
909.0, 0.16451648353132192
910.0, 0.16529200325501217
911.0, 0.16296475556155376
912.0, 0.16781199971716054
913.0, 0.17231858737806294
914.0, 0.17560697443185602
915.0, 0.17887432786903057
916.0, 0.18818360618722874
917.0, 0.19347924800193111
918.0, 0.1997230602380818
919.0, 0.20642294223193383
920.0, 0.2118936418942727
921.0, 0.2116623128751132
922.0, 0.21970687607039946
923.0, 0.22178456487489925
924.0, 0.22082127359193304
925.0, 0.22489074668153652
926.0, 0.22599767194495302
927.0, 0.23026047327148508
928.0, 0.23398142082537882
929.0, 0.23712191452592582
930.0, 0.2422340781850932
931.0, 0.2384615519644609
932.0, 0.241850797047807
933.0, 0.2373753799318893
934.0, 0.22347681059380692
935.0, 0.2187797831788705
936.0, 0.2182883736304762
937.0, 0.2041739794854663
938.0, 0.19198245576910553
939.0, 0.19016393943189053
940.0, 0.18156590938845266
941.0, 0.17506361922324767
942.0, 0.17038771506973524
943.0, 0.1650509175171629
944.0, 0.1576579675986154
945.0, 0.15508968366083226
946.0, 0.1462028730245631
947.0, 0.1405129741538329
948.0, 0.13707809079905675
949.0, 0.13238172840922532
950.0, 0.13156347689074926
951.0, 0.13031998576426995
952.0, 0.12794388070086776
953.0, 0.12526220951386713
954.0, 0.12413906037121704
955.0, 0.1301023548673217
956.0, 0.1299889755704084
957.0, 0.13453394139941963
958.0, 0.14296869790782735
959.0, 0.14424161144353775
960.0, 0.14681932139090872
961.0, 0.1496621783442582
962.0, 0.1493959626621446
963.0, 0.14651099458624675
964.0, 0.14708750873919305
965.0, 0.15338801301407992
966.0, 0.15106366924429818
967.0, 0.14974057826786458
968.0, 0.15461948634701783
969.0, 0.15975818205189238
970.0, 0.1592162158030605
971.0, 0.1689949207189434
972.0, 0.18073022609128594
973.0, 0.18988488666484715
974.0, 0.21164370286490072
975.0, 0.2333874978231233
976.0, 0.25686628079133006
977.0, 0.28425387996513163
978.0, 0.31586885371410955
979.0, 0.3443586689512113
980.0, 0.3787230799454253
981.0, 0.40315734635952427
982.0, 0.4195971622388733
983.0, 0.43168105649101324
984.0, 0.4265308587405907
985.0, 0.40991673178889537
986.0, 0.3845926502051263
987.0, 0.3528910655593398
988.0, 0.3171894356591853
989.0, 0.2765405361968327
990.0, 0.252359475426071
991.0, 0.22471680778261088
992.0, 0.1954424693553029
993.0, 0.17347118082547958
994.0, 0.15776141911967298
995.0, 0.13447442393030276
996.0, 0.11801151895947665
997.0, 0.10798242948115237
998.0, 0.09786351392012912
999.0, 0.09181195158174127
1000.0, 0.0855805301073815
1001.0, 0.07945221173990291
1002.0, 0.07274137359146932
1003.0, 0.0644152026072116
1004.0, 0.056518118894718875
1005.0, 0.04980406737256749
1006.0, 0.050321857943005144
1007.0, 0.052046507235713954
1008.0, 0.042816661909228525
1009.0, 0.03829557152964775
1010.0, 0.038994355344396416
1011.0, 0.03698702602881684
1012.0, 0.032737271328425604
1013.0, 0.03162802126934223
1014.0, 0.03125698698140427
1015.0, 0.0247236316049768
1016.0, 0.023910050687623877
1017.0, 0.026509140285677964
1018.0, 0.02163662318458395
1019.0, 0.016077689405606825
1020.0, 0.01960062862170519
1021.0, 0.021285150479892854
1022.0, 0.02080175132510841
1023.0, 0.023962558594048753
1024.0, 0.022427603050969684
1025.0, 0.021895761044687694
1026.0, 0.0241096558478657
1027.0, 0.025752554216946794
1028.0, 0.021458025884460982
1029.0, 0.02904603601790881
1030.0, 0.02828513289962813
1031.0, 0.026091751718435512
1032.0, 0.026849306745691616
1033.0, 0.03282628285391093
1034.0, 0.033241944612324235
1035.0, 0.036603318120260485
1036.0, 0.04166192370809687
1037.0, 0.045915161416166375
1038.0, 0.04748147034335045
1039.0, 0.06109204353883576
1040.0, 0.06385127431580016
1041.0, 0.07026861075462015
1042.0, 0.08221593251252213
1043.0, 0.09541359758930155
1044.0, 0.09982681092360352
1045.0, 0.11010729074056934
1046.0, 0.12074501066866108
1047.0, 0.12598457772530558
1048.0, 0.12334344608294555
1049.0, 0.1341338918579871
1050.0, 0.13847140646597814
1051.0, 0.1384055805201008
1052.0, 0.13783532148505015
1053.0, 0.14096886289524982
1054.0, 0.15042288206455862
1055.0, 0.16480876610693362
1056.0, 0.17603070542963137
1057.0, 0.19052286419450354
1058.0, 0.21509236391947184
1059.0, 0.24664593301009113
1060.0, 0.27910511377863784
1061.0, 0.32708875647119523
1062.0, 0.38284592671562023
1063.0, 0.4396902682921746
1064.0, 0.5049736947895207
1065.0, 0.5902160034912901
1066.0, 0.6728234088014197
1067.0, 0.754521083680779
1068.0, 0.8404168410265377
1069.0, 0.9377284931173874
1070.0, 0.9676260062530212
1071.0, 0.9894684179575532
1072.0, 0.9909621623541732
1073.0, 0.9562901827927661
1074.0, 0.8694886219727235
1075.0, 0.8131428908943606
1076.0, 0.7337676047758542
1077.0, 0.658720907420604
1078.0, 0.5965463386219634
1079.0, 0.5372801312869463
1080.0, 0.49311128948366234
1081.0, 0.4638763296244485
1082.0, 0.44542976974290627
1083.0, 0.4318874086165148
1084.0, 0.41920883163934985
1085.0, 0.4422718614266813
1086.0, 0.4668195239790189
1087.0, 0.4962178018282791
1088.0, 0.5300923041390617
1089.0, 0.5647889875828188
1090.0, 0.5864930762177681
1091.0, 0.5896584220800106
1092.0, 0.581506921940515
1093.0, 0.5648467098372221
1094.0, 0.5385855511584738
1095.0, 0.489323610844083
1096.0, 0.4296510105277469
1097.0, 0.36871543468049645
1098.0, 0.3152254902574498
1099.0, 0.270702440145566
1100.0, 0.22328431663528225
1101.0, 0.19645373100508265
1102.0, 0.173705112898656
1103.0, 0.1479635015885086
1104.0, 0.12441424549328514
1105.0, 0.12010056890884968
1106.0, 0.10083680678541272
1107.0, 0.09166313610731776
1108.0, 0.08498763554255485
1109.0, 0.07622414451391198
1110.0, 0.06435354093431116
1111.0, 0.06445878541598642
1112.0, 0.055676431459969665
1113.0, 0.04850700569483773
1114.0, 0.044690669259492256
1115.0, 0.042736095889497956
1116.0, 0.04011000200669118
1117.0, 0.0375704408940032
1118.0, 0.03524698915081497
1119.0, 0.03289398031470779
1120.0, 0.030219829799583153
1121.0, 0.02695793989408913
1122.0, 0.02395485376865884
1123.0, 0.02161241464106812
1124.0, 0.019716435002000217
1125.0, 0.01782113039293967
1126.0, 0.015469907349800888
1127.0, 0.018744855041994583
1128.0, 0.018124584320203304
1129.0, 0.013762821665905046
1130.0, 0.010370490680468584
1131.0, 0.013150625391435591
1132.0, 0.012861841676871905
1133.0, 0.008844576361491933
1134.0, 0.006172388250159184
1135.0, 0.006607965990800598
1136.0, 0.008912396054882712
1137.0, 0.00552777098047823
1138.0, 0.006893134587627784
1139.0, 0.00676231100834912
1140.0, 0.006524778037103918
1141.0, 0.006290987732932501
1142.0, 0.0036187121374055744
1143.0, 0.004565374635228248
1144.0, 0.003774352532391678
1145.0, 0.0036066493537871783
1146.0, 0.003603441395458188
1147.0, 0.002101409667217322
1148.0, 0.002598898571475302
1149.0, 0.003326315432656987
1150.0, 0.0064325349674362545
1151.0, 0.007185088568068716
1152.0, 0.0027203821411984843
1153.0, 0.0009585233423972186
1154.0, 0.006917437952178325
1155.0, 0.004976248121973686
1156.0, 0.004675143597280979
1157.0, 0.0072906284427001755
1158.0, 0.0021266497079170696
1159.0, 0.003756803453015631
1160.0, 0.0025420551812498342
1161.0, 0.0011584744486312646
1162.0, 0.000519113378788216
1163.0, 0.0005392035142206212
1164.0, 0.0010858002730591873
1165.0, 0.0036679503610473124
1166.0, 0.004062300361879055
1167.0, 0.003698645598539426
1168.0, 0.0033908383864162802
1169.0, 0.00041974085783615675
1170.0, 0.000806048525454932
1171.0, 0.0004432741300300963
1172.0, 0.00026056773020509215
1173.0, 0.0010894052763264896
1174.0, 0.003086253028105155
1175.0, 0.0018996613883439438
1176.0, 0.002510269448959464
1177.0, 0.002225805390238413
1178.0, 0.0018604097022967318
1179.0, 0.00335090295301906
1180.0, 0.008812916800859586
1181.0, 0.0037228958529030567
1182.0, 0.0013185359378648288
1183.0, 0.0038395955777038053
1184.0, 0.006726532384843719
1185.0, 0.0006455539326214451
1186.0, 0.0017269275195719554
1187.0, 0.002000284474762655
1188.0, 0.002414552145910097
1189.0, 0.0021056377786316163
1190.0, 0.0004928188635231552
1191.0, 0.0006387598953732507
1192.0, 0.0005941291479430937
1193.0, 0.0010348386502157835
1194.0, 0.0013634337283372198
1195.0, 0.0011570655592115465
1196.0, 0.00046859154662215333
1197.0, 0.0007633297795062791
1198.0, 0.0012696352500638597
1199.0, 0.001116302380889872
1200.0, 0.0005868579261358013
1201.0, 0.0005782136181369722
1202.0, 0.002392166500981783
1203.0, 0.001001930954964469
1204.0, 0.0008613656805927138
1205.0, 0.0011438249616391053
1206.0, 0.001371854888336049
1207.0, 0.0021966437263462417
1208.0, 0.0029040370084890813
1209.0, 0.003069078261833721
1210.0, 0.003384802694274207
1211.0, 0.0031382225147139737
1212.0, 0.0017612064476698302
1213.0, 0.0011485756028528232
1214.0, 0.003952049345908128
1215.0, 0.0056548564558133434
1216.0, 0.004098122355705009
1217.0, 0.0011622821673986335
1218.0, 0.002208828927707876
1219.0, 0.006719422112790152
1220.0, 0.0030461659015601434
1221.0, 0.003046348233183546
1222.0, 0.0036681609690594804
1223.0, 0.0011350972248051682
1224.0, 0.0030345813960112114
1225.0, 0.00705853457826019
1226.0, 0.0045745415268039135
1227.0, 0.003461120484025499
1228.0, 0.004248073608783525
1229.0, 0.0019867133555205906
1230.0, 0.0024871554261623255
1231.0, 0.002573581943712703
1232.0, 0.0025076658198999657
1233.0, 0.0021201843111887655
1234.0, 0.002350858847717027
1235.0, 0.006067094522706523
1236.0, 0.004697971079261597
1237.0, 0.0017036856805431717
1238.0, 0.003701215019097305
1239.0, 0.0061666720985575196
1240.0, 0.0023906127765307736
1241.0, 0.001851117907648448
1242.0, 0.0035278257049541836
1243.0, 0.0020357767348383187
1244.0, 0.0014204650288256418
1245.0, 0.002145481023292078
1246.0, 0.0003825140342627051
1247.0, 0.0035165443326506413
1248.0, 0.005269022481795963
1249.0, 0.003995298507553278
1250.0, 0.002392519128904616
1251.0, 0.0033704724668652693
1252.0, 0.007281199853609969
1253.0, 0.0034532037940468623
1254.0, 0.005262570525379886
1255.0, 0.008475751529107066
1256.0, 0.007898516024162961
1257.0, 0.0017268625750555856
1258.0, 0.0034517371378513773
1259.0, 0.0024952209101850808
1260.0, 0.003815407720512537
1261.0, 0.0045967713335990845
1262.0, 0.003682034697641371
1263.0, 0.0030052712441338207
1264.0, 0.007144119135381433
1265.0, 0.0066498869327886794
1266.0, 0.0048466787663151425
1267.0, 0.005253601499252741
1268.0, 0.007689403304058991
1269.0, 0.005460490532506892
1270.0, 0.0036003328885607995
1271.0, 0.006319385444910932
1272.0, 0.005448800742158797
1273.0, 0.0027133342127153097
1274.0, 0.003461613092817473
1275.0, 0.008706931356157022
1276.0, 0.0056435469490485
1277.0, 0.004619138314847233
1278.0, 0.0041189049359029745
1279.0, 0.003223476642230097
1280.0, 0.002714459564369953
1281.0, 0.006886617342170087
1282.0, 0.003644917413925648
1283.0, 0.0020000720195897455
1284.0, 0.0023196160569354906
1285.0, 0.002855591203513924
1286.0, 0.0015809981600186623
1287.0, 0.002584777134957472
1288.0, 0.006127930467109471
1289.0, 0.005667493885543989
1290.0, 0.005209384350122318
1291.0, 0.005950638993340528
1292.0, 7.257257272477041e-05
1293.0, 0.000461357543698287
1294.0, 0.005313767981770008
1295.0, 0.004332050571813324
1296.0, 0.002501172182023578
1297.0, 0.004834447139052596
1298.0, 0.0009317068660709658
1299.0, 0.0007832817465481688
1300.0, 0.003878911712053543
1301.0, 0.003982405326392908
1302.0, 0.002657860937101348
1303.0, 0.003661800464232508
1304.0, 0.0021817372113237463
1305.0, 0.004506533721585819
1306.0, 0.0027274976145281416
1307.0, 0.0014960099744963755
1308.0, 0.0021598736740342547
1309.0, 0.0031929025247653996
1310.0, 0.005277397990598806
1311.0, 0.0013464529187359993
1312.0, 0.0013868214257735268
1313.0, 0.0018649502352277273
1314.0, 0.0009663769339250592
1315.0, 0.0006965560124206406
1316.0, 0.007124163235800744
1317.0, 0.006491817315763804
1318.0, 0.003044226838897165
1319.0, 0.0034909119616030023
1320.0, 0.00642165040432125
1321.0, 0.00327774594754876
1322.0, 0.006809633267630152
1323.0, 0.007983284179782278
1324.0, 0.004196521392091343
1325.0, 0.003833980342946124
1326.0, 0.008338173790110615
1327.0, 0.008194799819742837
1328.0, 0.006334634441130043
1329.0, 0.008899972395150597
1330.0, 0.008711830363441666
1331.0, 0.006468677060243801
1332.0, 0.005932762692835046
1333.0, 0.010683707377185669
1334.0, 0.003989764973924344
1335.0, 0.0020247445018301037
1336.0, 0.006140420782109156
1337.0, 0.006827093327920002
1338.0, 0.0033180030486513294
1339.0, 0.010848305148699841
1340.0, 0.010300805609103876
1341.0, 0.0073712984673256566
1342.0, 0.008460603879214759
1343.0, 0.008632923031775605
1344.0, 0.006938390763851403
1345.0, 0.012860679655984244
1346.0, 0.012660812652756013
1347.0, 0.006629854704716812
1348.0, 0.006780713210729405
1349.0, 0.011645933467633367
1350.0, 0.014004503679196305
1351.0, 0.006540476871389877
1352.0, 0.011384233896248177
1353.0, 0.011284576609828635
1354.0, 0.005436919695293603
1355.0, 0.00570893481534851
1356.0, 0.0125856073294751
1357.0, 0.006537284555360205
1358.0, 0.009529472908601976
1359.0, 0.011330275945749832
1360.0, 0.008625716521958666
1361.0, 0.0068449469101902125
1362.0, 0.009149507031243153
1363.0, 0.01137029115480451
1364.0, 0.002697468287624384
1365.0, 0.01192866411059718
1366.0, 0.012431710821100539
1367.0, 0.008237137694852618
1368.0, 0.007232045914563053
1369.0, 0.011123630698587232
1370.0, 0.014009691289798586
1371.0, 0.009923608009737548
1372.0, 0.008131613058091517
1373.0, 0.005201358797640866
1374.0, 0.0018965198958038384
1375.0, 0.004692110575141717
1376.0, 0.007916505878481939
1377.0, 0.002311936715034465
1378.0, 0.0050562609669682354
1379.0, 0.005429464943498636
1380.0, 0.0021239607320999825
1381.0, 0.005085505512113251
1382.0, 0.014791868153402676
1383.0, 0.008222866927023039
1384.0, 0.00988220516427323
1385.0, 0.011573152494199752
1386.0, 0.010036383582658648
1387.0, 0.00884515913372688
1388.0, 0.011429685091639706
1389.0, 0.013376604272687434
1390.0, 0.007626117280867643
1391.0, 0.008047581442592325
1392.0, 0.011061165795385722
1393.0, 0.00864800325827053
1394.0, 0.012118571519153468
1395.0, 0.01256749869456168
1396.0, 0.008165187467968717
1397.0, 0.006869913209602766
1398.0, 0.009261133867676078
1399.0, 0.011975383090825246
1400.0, 0.011521229233091432
1401.0, 0.006003761417386743
1402.0, 0.008628119271757436
1403.0, 0.008864036934238623
1404.0, 0.010270424557738344
1405.0, 0.013459748598087802
1406.0, 0.010208171808707981
1407.0, 0.010349377197405165
1408.0, 0.007798736814465362
1409.0, 0.008093436285423512
1410.0, 0.007454591315501085
1411.0, 0.005737257694574491
1412.0, 0.006965698736394958
1413.0, 0.007413674665601943
1414.0, 0.006491624871507457
1415.0, 0.00880950331950961
1416.0, 0.005909228973243298
1417.0, 0.002592964990139863
1418.0, 0.006754995917413265
1419.0, 0.00452687918947964
1420.0, 0.007013822698033546
1421.0, 0.010094554670895354
1422.0, 0.007355706128544524
1423.0, 0.005552939774934169
1424.0, 0.009195997895258464
1425.0, 0.007639012727156046
1426.0, 0.0031198425258183184
1427.0, 0.0060944071887206784
1428.0, 0.008791682034311715
1429.0, 0.008466644600300149
1430.0, 0.007314211674956376
1431.0, 0.00938378573380218
1432.0, 0.00419345887547348
1433.0, 0.006998771876403801
1434.0, 0.009538735397216488
1435.0, 0.0077926384211198605
1436.0, 0.004436366903395104
1437.0, 0.004283249398563018
1438.0, 0.004198121480347561
1439.0, 0.0010004777349320166
1440.0, 0.0014774025263272206
1441.0, 0.004702951174831536
1442.0, 0.005236358136034413
1443.0, 0.003477170307312819
1444.0, 0.010846973021565032
1445.0, 0.008108628313076311
1446.0, 0.005645679587369076
1447.0, 0.008408554774601234
1448.0, 0.00821890801050569
1449.0, 0.005551115200167056
1450.0, 0.008801453783407461
1451.0, 0.0070414512320170035
1452.0, 0.006495023315807052
1453.0, 0.00924768431828097
1454.0, 0.008799603810894546
1455.0, 0.006532148869565565
1456.0, 0.007229651243135414
1457.0, 0.011187989478548184
1458.0, 0.006159658731217017
1459.0, 0.009497860796523866
1460.0, 0.00997968615290325
1461.0, 0.00798173644702645
1462.0, 0.006004539971129194
1463.0, 0.0052922976804892575
1464.0, 0.010656193376824
1465.0, 0.004585522451849551
1466.0, 0.007191130594681151
1467.0, 0.010570393434899824
1468.0, 0.008689008093777028
1469.0, 0.004581440787318035
1470.0, 0.012853654008909574
1471.0, 0.0063695172681411845
1472.0, 0.008764790821763131
1473.0, 0.01168701493115866
1474.0, 0.00964798482099169
1475.0, 0.004540259068105586
1476.0, 0.004592435287387489
1477.0, 0.01268394423665659
1478.0, 0.004804379805077055
1479.0, 0.009889094694907117
1480.0, 0.012695919498016104
1481.0, 0.009177787619791794
1482.0, 0.005890900407254542
1483.0, 0.00989851749443545
1484.0, 0.006418324927639579
1485.0, 0.00391564628573945
1486.0, 0.008690167138913163
1487.0, 0.009538519318221257
1488.0, 0.0054870977914075235
1489.0, 0.006894071045766069
1490.0, 0.008587479954284018
1491.0, 0.005870353568843256
1492.0, 0.0068327109737998295
1493.0, 0.006204289396259085
1494.0, 0.0046165906657563375
1495.0, 0.005336790797215603
1496.0, 0.009278967198856505
1497.0, 0.005590403218154863
1498.0, 0.003441707347159121
1499.0, 0.008719885960923743
1500.0, 0.00721725393092435
1501.0, 0.001848000959359543
1502.0, 0.004382893864873753
1503.0, 0.008048044972555315
1504.0, 0.002798198122288291
1505.0, 0.0068747025486816625
1506.0, 0.005652816204616758
1507.0, 0.0019876952792069053
1508.0, 0.003126150638026089
1509.0, 0.00996483336886521
1510.0, 0.002847694441261722
1511.0, 0.0018808947358795718
1512.0, 0.009200858940291564
1513.0, 0.008556212469839855
1514.0, 0.006171378981388224
1515.0, 0.009111462610013298
1516.0, 0.008030709089069651
1517.0, 0.004016107027474656
1518.0, 0.007410014533612288
1519.0, 0.007297008373031513
1520.0, 0.003452862120455003
1521.0, 1.865274674915631e-05
1522, 0.0
1523, 0.0
1524, 0.0
1525, 0.0
1526, 0.0
1527, 0.0
1528, 0.0
1529, 0.0
1530, 0.0
1531, 0.0
1532, 0.0
1533, 0.0
1534, 0.0
1535, 0.0
1536, 0.0
1537, 0.0
1538, 0.0
1539, 0.0
1540, 0.0
1541, 0.0
1542, 0.0
1543, 0.0
1544, 0.0
1545, 0.0
1546, 0.0
1547, 0.0
1548, 0.0
1549, 0.0
1550, 0.0
1551, 0.0
1552, 0.0
1553, 0.0
1554, 0.0
1555, 0.0
1556, 0.0
1557, 0.0
1558, 0.0
1559, 0.0
1560, 0.0
1561, 0.0
1562, 0.0
1563, 0.0
1564, 0.0
1565, 0.0
1566, 0.0
1567, 0.0
1568, 0.0
1569, 0.0
1570, 0.0
1571, 0.0
1572, 0.0
1573, 0.0
1574, 0.0
1575, 0.0
1576, 0.0
1577, 0.0
1578, 0.0
1579, 0.0
1580, 0.0
1581, 0.0
1582, 0.0
1583, 0.0
1584, 0.0
1585, 0.0
1586, 0.0
1587, 0.0
1588, 0.0
1589, 0.0
1590, 0.0
1591, 0.0
1592, 0.0
1593, 0.0
1594, 0.0
1595, 0.0
1596, 0.0
1597, 0.0
1598, 0.0
1599, 0.0
