30, 0.0
31, 0.0
32, 0.0
33, 0.0
34, 0.0
35, 0.0
36, 0.0
37, 0.0
38, 0.0
39, 0.0
40, 0.0
41, 0.0
42, 0.0
43, 0.0
44, 0.0
45, 0.0
46, 0.0
47, 0.0
48, 0.0
49, 0.0
50, 0.0
51, 0.0
52, 0.0
53, 0.0
54, 0.0
55, 0.0
56, 0.0
57, 0.0
58, 0.0
59, 0.0
60, 0.0
61, 0.0
62, 0.0
63, 0.0
64, 0.0
65, 0.0
66, 0.0
67, 0.0
68, 0.0
69, 0.0
70, 0.0
71, 0.0
72, 0.0
73, 0.0
74, 0.0
75, 0.0
76, 0.0
77, 0.0
78, 0.0
79, 0.0
80, 0.0
81, 0.0
82, 0.0
83, 0.0
84, 0.0
85, 0.0
86, 0.0
87, 0.0
88, 0.0
89, 0.0
90, 0.0
91, 0.0
92, 0.0
93.0, 0.00017183185628162452
94.0, 0.04702076630693797
95.0, 0.15152468717547554
96.0, 0.16096458756744603
97.0, 0.1523997367914849
98.0, 0.14576894003867347
99.0, 0.13382449181560088
100.0, 0.09995922734461037
101.0, 0.05344325756618882
102.0, 0.03475700373884279
103.0, 0.02310589086767215
104.0, 0.013820791548712023
105.0, 0.023328558091647633
106.0, 0.03882607178310078
107.0, 0.03393931581967785
108.0, 0.01983572998616303
109.0, 0.025324827980125884
110.0, 0.031418645541596554
111.0, 0.037647528818416126
112.0, 0.04425043576273195
113.0, 0.05184325598240757
114.0, 0.0672385567200932
115.0, 0.07373860232653394
116.0, 0.07787206821994014
117.0, 0.08854912865842766
118.0, 0.10026216518473773
119.0, 0.10202486276703107
120.0, 0.10592946866917222
121.0, 0.12185538740696254
122.0, 0.14183448191494802
123.0, 0.14391548676714236
124.0, 0.1315337802609623
125.0, 0.12143360087259353
126.0, 0.12979111148780395
127.0, 0.14844844528482073
128.0, 0.15885452321223156
129.0, 0.15293509233470648
130.0, 0.13392790418445158
131.0, 0.14200825544399676
132.0, 0.13488708513502665
133.0, 0.111775410610607
134.0, 0.09344584970132702
135.0, 0.10570306310780976
136.0, 0.11291798625728096
137.0, 0.10661567760810592
138.0, 0.0939348090137516
139.0, 0.09927612910425006
140.0, 0.09934468832702333
141.0, 0.09686453936010105
142.0, 0.09478742911076933
143.0, 0.08907465181420696
144.0, 0.07539692009688118
145.0, 0.07814898961254131
146.0, 0.08916702141170531
147.0, 0.08377050035614972
148.0, 0.0906989780677593
149.0, 0.10643564630693633
150.0, 0.11348372337439033
151.0, 0.0945003465173273
152.0, 0.10018529261303351
153.0, 0.11064790439745764
154.0, 0.11724999049986273
155.0, 0.11807494864510563
156.0, 0.12217685096294341
157.0, 0.1164955796656849
158.0, 0.11358828792861118
159.0, 0.12291631255036566
160.0, 0.13930031924169947
161.0, 0.1423547796170039
162.0, 0.1439060064120211
163.0, 0.1489071313117406
164.0, 0.15350038285158119
165.0, 0.1452971265253349
166.0, 0.1479580835666344
167.0, 0.15693791241770488
168.0, 0.16423551597832134
169.0, 0.17465677805471963
170.0, 0.17629843028548445
171.0, 0.16924040916026575
172.0, 0.16021084133313435
173.0, 0.15877807118147066
174.0, 0.1707602306686906
175.0, 0.17381066586775906
176.0, 0.17004481564879256
177.0, 0.17493330132498772
178.0, 0.17605150356160817
179.0, 0.18874993885571276
180.0, 0.1876720328103426
181.0, 0.16912796555356124
182.0, 0.17804243693908922
183.0, 0.16944800968843096
184.0, 0.16132710832705854
185.0, 0.16458996102228526
186.0, 0.16593666155995204
187.0, 0.1452383548091553
188.0, 0.13655909473044675
189.0, 0.1333133292538493
190.0, 0.1208737200472377
191.0, 0.13561399308984007
192.0, 0.12095338012239387
193.0, 0.10811568029528287
194.0, 0.11040263398527209
195.0, 0.09386500031544998
196.0, 0.08911137755161043
197.0, 0.07259392374555437
198.0, 0.05728282505024041
199.0, 0.0677684059664265
200.0, 0.0705500782144169
201.0, 0.06333944116679706
202.0, 0.051193199720017665
203.0, 0.0411940136832439
204.0, 0.0516251156305785
205.0, 0.045206353615611414
206.0, 0.03657918558680829
207.0, 0.031500111122913135
208.0, 0.01966665657007302
209.0, 0.024947579926308645
210.0, 0.017068689384328414
211.0, 0.010129776530344718
212.0, 0.023283154725049073
213.0, 0.01463543080752549
214.0, 0.016888980660557395
215.0, 0.019759976591695694
216.0, 0.015426999820959216
217.0, 0.014842454834347218
218.0, 0.019576392370764906
219.0, 0.019420799035868245
220.0, 0.012405382107478633
221.0, 0.003507112128416404
222.0, 0.005477369528526054
223.0, 0.011657615790699107
224.0, 0.006269494491457289
225.0, 0.008241544922074519
226.0, 0.0022551171207678454
227.0, 0.003605882677460335
228.0, 0.0005379776773731977
229.0, 0.003713454400812788
230.0, 0.006467118902934732
231.0, 0.0017801160306971202
232.0, 0.007279958616034027
233.0, 0.007369944685295485
234.0, 0.0014975436038568131
235.0, 0.0037581757924053704
236.0, 0.000768418387254501
237.0, 0.0022805137818559876
238.0, 0.006378547318484283
239.0, 0.006568186353211754
240.0, 0.001527059671612784
241.0, 0.0036426985085244016
242.0, 0.010894605093046905
243.0, 0.01315704670265176
244.0, 0.004534053535858333
245.0, 0.0036389279170194193
246.0, 0.0015545481486197105
247.0, 0.0010401668780234668
248.0, 0.013597885070478287
249.0, 0.006699921774380186
250.0, 0.007642708009034435
251.0, 0.01111254254397558
252.0, 0.014508535925441803
253.0, 0.022481860385575217
254.0, 0.0243839865886793
255.0, 0.030885771057991052
256.0, 0.03166074232393609
257.0, 0.02357626869483102
258.0, 0.024971119123797878
259.0, 0.030946194067494177
260.0, 0.034909447161178865
261.0, 0.03595780712834221
262.0, 0.03592394734258178
263.0, 0.0371289876956274
264.0, 0.041848969627332325
265.0, 0.0512401509518375
266.0, 0.054820777244423025
267.0, 0.04038021120857505
268.0, 0.045594440927125994
269.0, 0.05568755778158817
270.0, 0.05757319660278097
271.0, 0.05397160821456354
272.0, 0.06540457756079773
273.0, 0.06029141079512001
274.0, 0.056330901795372354
275.0, 0.05719356970412733
276.0, 0.055093923579791614
277.0, 0.06317225178499881
278.0, 0.07041062953777526
279.0, 0.07244971020000138
280.0, 0.07343903088876727
281.0, 0.07867797586351034
282.0, 0.06945884702118772
283.0, 0.07188720644891852
284.0, 0.07926042350095724
285.0, 0.0776665678194057
286.0, 0.08008586007509622
287.0, 0.07391270137573888
288.0, 0.0736999746308798
289.0, 0.07706047814057047
290.0, 0.0688532820478655
291.0, 0.06394457952929086
292.0, 0.06852754923156769
293.0, 0.07075105767948196
294.0, 0.0682709355540041
295.0, 0.07172717049943134
296.0, 0.07546562132448756
297.0, 0.07057709073692592
298.0, 0.06276153880776973
299.0, 0.0589465301200381
300.0, 0.05803133450643782
301.0, 0.0528676404276572
302.0, 0.04929508517476807
303.0, 0.05295598999168548
304.0, 0.0619933940419481
305.0, 0.057870960676041173
306.0, 0.051894279170490346
307.0, 0.05161330738022372
308.0, 0.0520091039359674
309.0, 0.046462371201713856
310.0, 0.05198322917558213
311.0, 0.05933333610969682
312.0, 0.052768764911734656
313.0, 0.03815727466802509
314.0, 0.047173999445269184
315.0, 0.04801058844601263
316.0, 0.04775753330890483
317.0, 0.04427516243303371
318.0, 0.03782422470595586
319.0, 0.03815913332228979
320.0, 0.0373777848785162
321.0, 0.03587813206448703
322.0, 0.03562430879652032
323.0, 0.03859000935051468
324.0, 0.044161303165697684
325.0, 0.03784432374448493
326.0, 0.030902005033886973
327.0, 0.02925127565068747
328.0, 0.02903671215409167
329.0, 0.02401605032655467
330.0, 0.02953344636533707
331.0, 0.03311485910737475
332.0, 0.026985867721646024
333.0, 0.015902449342466835
334.0, 0.017048154878370924
335.0, 0.011385929414938108
336.0, 0.010675705192629444
337.0, 0.015633206186003057
338.0, 0.015163165691777636
339.0, 0.012373972298467992
340.0, 0.011150851268567345
341.0, 0.0151138375612908
342.0, 0.020393428575381744
343.0, 0.014682131855631641
344.0, 0.011168804939891933
345.0, 0.0034537010990076757
346.0, 0.0013894661285734477
347.0, 0.004176852508656489
348.0, 0.0028289748605390655
349.0, 0.009870098726956978
350.0, 0.005577825997553426
351.0, 0.000615774004507786
352.0, 0.0010542086796742245
353.0, 0.0017560944295495165
354.0, 0.0018068056622841508
355.0, 0.000413928701614689
356.0, 0.003214993460567355
357.0, 0.00444083209883641
358.0, 0.0022782235804460226
359.0, 0.0048103285447311725
360.0, 0.004015799308878295
361.0, 0.0013388734792375804
362.0, 0.006732367188913585
363.0, 0.011839950281631742
364.0, 0.010128992259960928
365.0, 0.00620573194913876
366.0, 0.00501887861247602
367.0, 0.006301027840168633
368.0, 0.003802443301745145
369.0, 0.0065140500095257105
370.0, 0.008276979996275085
371.0, 0.007207967089126107
372.0, 0.005858042461210204
373.0, 0.007539109449411131
374.0, 0.0019209055425913563
375.0, 0.0035842061783356795
376.0, 0.0029697272249793088
377.0, 0.0030440037451859594
378.0, 0.011843708750413674
379.0, 0.008447047740118957
380.0, 0.007647867765068133
381.0, 0.010043145700194848
382.0, 0.01012179644383351
383.0, 0.006288852996635831
384.0, 0.009162913295131662
385.0, 0.012297955471243259
386.0, 0.013158336098178366
387.0, 0.014086551653789966
388.0, 0.01765972351379646
389.0, 0.015240150112237555
390.0, 0.021479133713683998
391.0, 0.022603190431091744
392.0, 0.01734934531213608
393.0, 0.02533004731564254
394.0, 0.03189026823249797
395.0, 0.03276317956213979
396.0, 0.03838921410547394
397.0, 0.04421877238218574
398.0, 0.038862064340662514
399.0, 0.04236438155951339
400.0, 0.05107799569443701
401.0, 0.05418013418670735
402.0, 0.05594378776372258
403.0, 0.06639723657870547
404.0, 0.07131892268009098
405.0, 0.08490564095793193
406.0, 0.09219705643545786
407.0, 0.09391785031651123
408.0, 0.10393272165305827
409.0, 0.11905928781368615
410.0, 0.12814624327167926
411.0, 0.1353088129610538
412.0, 0.14148818436444277
413.0, 0.14659297987233968
414.0, 0.1586861073623555
415.0, 0.17474106917801063
416.0, 0.17706381801060128
417.0, 0.1783925418291775
418.0, 0.1903537477994643
419.0, 0.1870950260567887
420.0, 0.18097836411835977
421.0, 0.17644164620603853
422.0, 0.1724689558435822
423.0, 0.1684590266885487
424.0, 0.1675649084070866
425.0, 0.16220079001693072
426.0, 0.15687842803445495
427.0, 0.14678869514802043
428.0, 0.1377824333987776
429.0, 0.14525499331995115
430.0, 0.14456604245088203
431.0, 0.13614851760202534
432.0, 0.14126662038336588
433.0, 0.1507312978716621
434.0, 0.14911089126950144
435.0, 0.16066659606965514
436.0, 0.1652598109555229
437.0, 0.17805287009289605
438.0, 0.19315641715917192
439.0, 0.2028979637847799
440.0, 0.21893171156737165
441.0, 0.23312507011051653
442.0, 0.2596893005278739
443.0, 0.290044374386872
444.0, 0.31270355749567735
445.0, 0.32997073188678316
446.0, 0.3650636124682705
447.0, 0.3832056509077637
448.0, 0.40566986701333774
449.0, 0.4383939821056836
450.0, 0.4651130886201217
451.0, 0.49607522525750314
452.0, 0.5341359955303377
453.0, 0.57101566281054
454.0, 0.5997326156506955
455.0, 0.6256493234086415
456.0, 0.6666680906542419
457.0, 0.6881432444270952
458.0, 0.7241341350653241
459.0, 0.7681748335578644
460.0, 0.803462766153618
461.0, 0.8250886912851167
462.0, 0.8527928523519339
463.0, 0.8702578903067326
464.0, 0.89273090654917
465.0, 0.9204757725046113
466.0, 0.9420493396072069
467.0, 0.9797302915557398
468.0, 0.9710330206261507
469.0, 0.9787013620250337
470.0, 0.9910936152713501
471.0, 0.983735158292636
472.0, 0.9989503323158025
473.0, 0.9826507278789639
474.0, 0.975872857880345
475.0, 0.9761473091684382
476.0, 0.9684843970617464
477.0, 0.948588253086604
478.0, 0.9278792772714152
479.0, 0.9161534068510022
480.0, 0.8930425588190822
481.0, 0.8604669264651285
482.0, 0.8373479102008743
483.0, 0.8192513362385153
484.0, 0.7783951274574813
485.0, 0.7403556485644871
486.0, 0.7115178847055204
487.0, 0.6808697965358896
488.0, 0.6412383283135455
489.0, 0.5960334119750906
490.0, 0.5620885301175115
491.0, 0.523541092185564
492.0, 0.48625834015098424
493.0, 0.4541672989812098
494.0, 0.40899970747221015
495.0, 0.3696608948146744
496.0, 0.33649113741504455
497.0, 0.3093908689464036
498.0, 0.28628798876287
499.0, 0.26297926622006224
500.0, 0.2371995475281724
501.0, 0.21557139733412453
502.0, 0.19912746745742257
503.0, 0.17425807996329284
504.0, 0.14695679965868436
505.0, 0.13834989252397295
506.0, 0.13207021407052655
507.0, 0.11723440780250957
508.0, 0.09492606587683985
509.0, 0.08004160282553383
510.0, 0.07886099608582825
511.0, 0.07176858624727907
512.0, 0.06175721651246265
513.0, 0.04933476514432242
514.0, 0.04531805032475995
515.0, 0.0475148840111208
516.0, 0.04276696838425161
517.0, 0.03853867364998964
518.0, 0.030965173743786597
519.0, 0.02968003204289212
520.0, 0.027728337150289804
521.0, 0.020263345020079912
522.0, 0.01643294622271131
523.0, 0.02214056896646513
524.0, 0.018036630555748907
525.0, 0.009167255508817987
526.0, 0.008572273581746195
527.0, 0.016962693835935846
528.0, 0.007609830780244157
529.0, 0.002634880897563829
530.0, 0.004563073260195486
531.0, 0.006898961152909538
532.0, 0.00617906820096096
533.0, 0.0024150443907257403
534.0, 0.0059644472467897955
535.0, 0.005365904971410634
536.0, 0.003472173220138563
537.0, 0.005474578936270803
538.0, 0.006962373147648397
539.0, 0.0014707623845252981
540.0, 0.004150022688700552
541.0, 0.005560457758694599
542.0, 0.005415249879239504
543.0, 0.004994896422369652
544.0, 0.004638252148948042
545.0, 0.00343038265566087
546.0, 0.0025352234240125717
547.0, 0.00471585713004956
548.0, 0.005821183553991224
549.0, 0.0037574747890290576
550.0, 0.0009055985541496864
551.0, 0.0004634925657487546
552.0, 0.002781275484924254
553.0, 0.0012114256802571526
554.0, 0.0054726797319493885
555.0, 0.005613170988287551
556.0, 0.0011313902665303357
557.0, 0.0066992955013284025
558.0, 0.005653187804804289
559.0, 0.00434594343547749
560.0, 0.0015908719504956047
561.0, 0.0018117489521330599
562.0, 0.0010849706223346413
563.0, 0.000756639095594097
564.0, 0.002685753485987065
565.0, 0.006001399605905704
566.0, 0.007344920211250885
567.0, 0.005122774019336665
568.0, 0.0019130694460940667
569.0, 0.004644066096695426
570.0, 0.00385073643250043
571.0, 0.004385417822648918
572.0, 0.011617464307971517
573.0, 0.0191617641063872
574.0, 0.015180579047306084
575.0, 0.013232724631023221
576.0, 0.015344500421174804
577.0, 0.013684366022236025
578.0, 0.012320274879401402
579.0, 0.011713665597785
580.0, 0.00929967445713692
581.0, 0.01636509772030535
582.0, 0.014043101890985758
583.0, 0.007774265218654121
584.0, 0.008074192957745602
585.0, 0.015786835175004142
586.0, 0.021832862237424738
587.0, 0.021088098734943984
588.0, 0.02231738502227618
589.0, 0.018856510295938815
590.0, 0.01793683419875371
591.0, 0.02398813101840645
592.0, 0.029523863273004384
593.0, 0.024497035957060792
594.0, 0.020101692771630857
595.0, 0.021853068069166686
596.0, 0.021565001568627375
597.0, 0.018879972528595086
598.0, 0.01876874834080706
599.0, 0.021246668805110173
600.0, 0.02111641252270058
601.0, 0.02255966500548213
602.0, 0.019925107589242694
603.0, 0.021038911760029505
604.0, 0.02693291457000457
605.0, 0.020518099853842925
606.0, 0.021747152574410903
607.0, 0.025079287993183517
608.0, 0.024009537459158896
609.0, 0.021945600263246684
610.0, 0.021793700496783856
611.0, 0.017860725659492357
612.0, 0.017259464710161872
613.0, 0.019869459952682706
614.0, 0.021884243046422648
615.0, 0.020141717934239703
616.0, 0.01487331227482292
617.0, 0.009999618124834284
618.0, 0.015094698063422472
619.0, 0.018433860934780128
620.0, 0.014426132704768044
621.0, 0.012468893386524127
622.0, 0.013143388432142107
623.0, 0.011247724191647204
624.0, 0.013208244079111073
625.0, 0.017912553013693957
626.0, 0.011520069796283988
627.0, 0.006716224237877685
628.0, 0.008117864990285372
629.0, 0.010435467206261885
630.0, 0.011449810305967268
631.0, 0.014628835242627236
632.0, 0.01645426786304551
633.0, 0.00670303220415534
634.0, 0.0017609357608713474
635.0, 0.006495521462464349
636.0, 0.00693210711228447
637.0, 0.007020967067966505
638.0, 0.008656455311569953
639.0, 0.004537058374553388
640.0, 0.005648045375576578
641.0, 0.00689243729789721
642.0, 0.0018494603516359656
643.0, 0.0023863016989592047
644.0, 0.0017780215175153438
645.0, 0.005427920131474442
646.0, 0.0069664881715265446
647.0, 0.004708441289950522
648.0, 0.0052064456539927095
649.0, 0.005694022788922735
650.0, 0.00703524946768084
651.0, 0.008151942941660311
652.0, 0.007084099744947574
653.0, 0.00261733044888072
654.0, 0.0014551158091739367
655.0, 0.006393720534939992
656.0, 0.008079208139226638
657.0, 0.005264677104745967
658.0, 0.004214238730127511
659.0, 0.0034210435558598884
660.0, 0.006624784543514437
661.0, 0.008989393343886806
662.0, 0.002008423366128868
663.0, 5.106352264282036e-05
664.0, 0.004013499704119923
665.0, 0.0002950756620730854
666.0, 0.003695003586687187
667.0, 0.010122364727468972
668.0, 0.008846168651037278
669.0, 0.008569450132021907
670.0, 0.005080799447055635
671.0, 0.003942682737467756
672.0, 0.006221415141496936
673.0, 0.006688998126076045
674.0, 0.0022165745993210726
675.0, 0.002302146695832712
676.0, 0.00019757768390785949
677.0, 0.004684681480703779
678.0, 0.0029821417232675403
679.0, 0.0044475189525212296
680.0, 0.009635603071780964
681.0, 0.011162663075495212
682.0, 0.006856018268783557
683.0, 0.008881228860648962
684.0, 0.011625349660248158
685.0, 0.006324156121041804
686.0, 0.004656713964740632
687.0, 0.006261235628138724
688.0, 0.006325871769960226
689.0, 0.01168343657888528
690.0, 0.012146833131789395
691.0, 0.011250916255758163
692.0, 0.00949583404045301
693.0, 0.008820095335018836
694.0, 0.010612904226316904
695.0, 0.014111466076038746
696.0, 0.015798715331309894
697.0, 0.01475254127117593
698.0, 0.015105474985365627
699.0, 0.019926162615848553
700.0, 0.02083901754870061
701.0, 0.015539603036552213
702.0, 0.012460834012137262
703.0, 0.022288464560095003
704.0, 0.020606614999298403
705.0, 0.02246797677466447
706.0, 0.02173617731569
707.0, 0.02336543785238808
708.0, 0.027614275149510176
709.0, 0.026806791991825812
710.0, 0.02288790720412194
711.0, 0.024449335443655098
712.0, 0.023367421250607246
713.0, 0.020148004625816427
714.0, 0.02439246771984385
715.0, 0.030178015199804516
716.0, 0.027781609689829755
717.0, 0.028476129413188042
718.0, 0.02545066399977359
719.0, 0.02034512290675404
720.0, 0.029436691506486992
721.0, 0.03190794700968132
722.0, 0.026156516548503796
723.0, 0.026435922104066922
724.0, 0.0278551009139542
725.0, 0.029281279734651836
726.0, 0.02649617287589388
727.0, 0.0241060708410096
728.0, 0.020797973153542374
729.0, 0.019739693421606308
730.0, 0.02213219207525914
731.0, 0.02063150518234691
732.0, 0.02258632077522687
733.0, 0.017927217868061587
734.0, 0.02129060932993512
735.0, 0.01704428771984797
736.0, 0.00982344305779957
737.0, 0.017582678118867698
738.0, 0.02020111556637181
739.0, 0.015447522435374526
740.0, 0.021417851994707904
741.0, 0.01739485565646775
742.0, 0.013715799334930303
743.0, 0.0183864296464334
744.0, 0.0224642561213849
745.0, 0.0167060202768006
746.0, 0.021025508336466193
747.0, 0.0180570767533069
748.0, 0.02065272937848057
749.0, 0.02315385875140329
750.0, 0.023365575764301552
751.0, 0.022967461637047493
752.0, 0.021403301801785693
753.0, 0.02187507737925428
754.0, 0.036826060056279156
755.0, 0.030306054039806064
756.0, 0.024720542321756488
757.0, 0.022855546751589042
758.0, 0.02120243785370001
759.0, 0.020326291352521796
760.0, 0.02038094513027287
761.0, 0.02584103739117094
762.0, 0.02302378281624262
763.0, 0.023142765095240134
764.0, 0.02062690499566685
765.0, 0.01962165361450534
766.0, 0.020412851813982755
767.0, 0.016130264423081145
768.0, 0.015564534385162691
769.0, 0.01696459398058164
770.0, 0.013793023034974735
771.0, 0.014913201362698051
772.0, 0.01400421108735193
773.0, 0.010721258142897394
774.0, 0.012777326367260814
775.0, 0.01839532302200911
776.0, 0.013585790746925801
777.0, 0.014897535726639861
778.0, 0.011708663651741143
779.0, 0.01045172963942854
780.0, 0.010693169559420682
781.0, 0.008135887554338835
782.0, 0.007137672245006926
783.0, 0.008354091319139275
784.0, 0.004655343936383642
785.0, 0.0040189929853584015
786.0, 0.004392382688367357
787.0, 0.008337481949412811
788.0, 0.010502842522242505
789.0, 0.006995928388138035
790.0, 0.004248594420902567
791.0, 0.0005324739161617324
792.0, 0.007226631061077706
793.0, 0.002277739184371226
794.0, 0.00024891154812038886
795.0, 0.0005555080116833671
796.0, 0.001765695639272385
797.0, 0.0030121757588138284
798.0, 0.0017112909072156666
799.0, 0.00037858732762089065
800.0, 0.0018791677732618286
801.0, 0.0015733223432703787
802.0, 0.0015527312717999392
803.0, 0.007341453449707836
804.0, 0.006302301682389554
805.0, 0.0037545549424088773
806.0, 0.003228822630843756
807.0, 0.002212900680450127
808.0, 0.00358264031656033
809.0, 0.002667659097300498
810.0, 0.0033210015960096167
811.0, 0.0027671679242339776
812.0, 0.0018091688069504946
813.0, 0.0033957646554523937
814.0, 0.001126700852704618
815.0, 0.0011320752180371278
816.0, 0.000413354703440018
817.0, 0.001519706204857983
818.0, 0.0008587870670368303
819.0, 0.0005536031425938093
820.0, 0.0028579413011638154
821.0, 0.0037837383733933796
822.0, 0.0012652949630354178
823.0, 0.0030863363915167707
824.0, 0.005477289765510693
825.0, 0.004145341826001982
826.0, 0.0009229387849759057
827.0, 0.0019497750455193317
828.0, 0.004108833438261139
829.0, 0.004070733649328288
830.0, 0.005855046413176188
831.0, 0.005011092611356976
832.0, 0.006463297783741337
833.0, 0.005476291538457676
834.0, 0.004276699912007054
835.0, 0.008164407277640458
836.0, 0.009687470608529133
837.0, 0.006271071087936931
838.0, 0.00746641249271534
839.0, 0.006941386688154904
840.0, 0.009989878937817881
841.0, 0.010092200104053284
842.0, 0.01408023452145771
843.0, 0.01270199983419224
844.0, 0.007656503763223606
845.0, 0.008246642206531294
846.0, 0.010708319416818879
847.0, 0.010742688359088596
848.0, 0.008198011773285467
849.0, 0.010174025232422506
850.0, 0.011991151073410271
851.0, 0.007570942498704224
852.0, 0.009753324884340558
853.0, 0.015605295877303004
854.0, 0.012553739117763956
855.0, 0.00804059976117296
856.0, 0.009750578652360911
857.0, 0.013325596087660733
858.0, 0.011029098455078037
859.0, 0.010368770876726604
860.0, 0.01356372632312365
861.0, 0.015067853459830118
862.0, 0.015188466521232522
863.0, 0.016120281337679624
864.0, 0.01197361038947609
865.0, 0.011146890696571432
866.0, 0.01147192406866277
867.0, 0.012956836098058791
868.0, 0.013693761291242678
869.0, 0.010755523572231187
870.0, 0.011232974354275256
871.0, 0.015450763231858435
872.0, 0.011343188084079182
873.0, 0.012016897181180205
874.0, 0.011217710456963228
875.0, 0.01067356411590062
876.0, 0.015386337216523566
877.0, 0.014269906713566682
878.0, 0.011909939682272795
879.0, 0.012244222787607558
880.0, 0.014360703370098817
881.0, 0.01925493608791218
882.0, 0.01774153857149211
883.0, 0.010176785140377525
884.0, 0.009295553229892317
885.0, 0.009659589159884907
886.0, 0.011729746517497829
887.0, 0.012858617820078902
888.0, 0.013129527580724028
889.0, 0.013954324789705104
890.0, 0.010401688340155806
891.0, 0.011281254111071693
892.0, 0.010726185210631132
893.0, 0.012140529317141269
894.0, 0.010815342157459521
895.0, 0.010940204656039084
896.0, 0.011991018206702711
897.0, 0.012646164903852663
898.0, 0.011752396181740345
899.0, 0.008044440017365536
900.0, 0.010013232479250306
901.0, 0.015027021770591498
902.0, 0.005872991127204906
903.0, 0.004787004427722976
904.0, 0.00830135381703076
905.0, 0.006442511204256464
906.0, 0.00337143183218135
907.0, 0.003997938798155151
908.0, 0.005071738944395337
909.0, 0.005687132722186617
910.0, 0.00831965733524165
911.0, 0.006865838063325871
912.0, 0.005536463568043283
913.0, 0.004467257272322874
914.0, 0.003679761369615834
915.0, 0.005422991173926904
916.0, 0.005942375221580702
917.0, 0.001188393046300266
918.0, 0.0009354131107909732
919.0, 0.002187858262304916
920.0, 0.0008390990972617152
921.0, 0.0021399842538611237
922.0, 0.0045512700569764995
923.0, 0.0016576330723086644
924.0, 0.0019472157880172421
925.0, 0.000855673555570419
926.0, 0.0029683330599298585
927.0, 0.0014436440176682816
928.0, 0.005032787584758124
929.0, 0.0037787898817555725
930.0, 0.00477358253222477
931.0, 0.0017713141280963477
932.0, 0.0015274132853462042
933.0, 0.001182286465689326
934.0, 0.001304368167665396
935.0, 0.0018995439994884133
936.0, 0.0007992352424873112
937.0, 0.0011052580516330104
938.0, 0.0005703056035711408
939.0, 0.0020914819158008397
940.0, 0.002405130930148911
941.0, 0.003561943776765055
942.0, 0.006639375297042192
943.0, 0.00328915182643035
944.0, 0.0013651841462218146
945.0, 0.0030340089227995984
946.0, 0.00020964582936469666
947.0, 0.0016508577456053116
948.0, 0.0054408201409588694
949.0, 0.004346154978609205
950.0, 0.006522973909325772
951.0, 0.003520531740682155
952.0, 0.004057171832672469
953.0, 0.005933266981802316
954.0, 0.006967150529015446
955.0, 0.0073200831285195125
956.0, 0.004747766837403138
957.0, 0.0036843573663268296
958.0, 0.004854046195081079
959.0, 0.0035104565063673815
960.0, 0.004329874651926818
961.0, 0.005718417683072526
962.0, 0.007512145651726567
963.0, 0.007354152855574552
964.0, 0.005551402371609515
965.0, 0.005307267611134638
966.0, 0.007495833451121543
967.0, 0.00937080615844554
968.0, 0.009964642415893041
969.0, 0.006511724065578013
970.0, 0.009050599234347822
971.0, 0.00915082611868176
972.0, 0.008691291375683056
973.0, 0.009320044439762733
974.0, 0.010123365640298984
975.0, 0.009243836882931589
976.0, 0.006398073134405967
977.0, 0.004705242151332222
978.0, 0.006184654399215447
979.0, 0.007275336047182874
980.0, 0.006133481632487688
981.0, 0.007786428060251062
982.0, 0.004991521936195679
983.0, 0.0024458702199042703
984.0, 0.0007276778513718466
985.0, 0.002843784431739847
986.0, 0.005359674583170873
987.0, 0.0025812375039849897
988.0, 0.0024141217485600234
989.0, 0.00608446567020196
990.0, 0.00222910864266602
991.0, 0.002032012313845368
992.0, 0.0034253110347350537
993.0, 0.007327059226098395
994.0, 0.008179786024976677
995.0, 0.0039199243070645925
996.0, 0.0006936245302945674
997.0, 0.0009636722970987618
998.0, 0.0026312917664792243
999.0, 0.001479375596419351
1000.0, 0.006285687536068446
1001.0, 0.004266433897361902
1002.0, 0.009607982558550138
1003.0, 0.0032552186088512522
1004.0, 0.0018925553746010613
1005.0, 0.004420435278399711
1006.0, 0.006084548303524129
1007.0, 0.006991684570246211
1008.0, 0.006749220531446941
1009.0, 0.005722824349937164
1010.0, 0.007906871427564622
1011.0, 0.011345283098070874
1012.0, 0.0063931695947747145
1013.0, 0.00520355096071184
1014.0, 0.0074782533559125414
1015.0, 0.01470726557057645
1016.0, 0.016032198140690814
1017.0, 0.014009371393382644
1018.0, 0.014220329705523563
1019.0, 0.01382657454885982
1020.0, 0.014246737872512995
1021.0, 0.017169862042052408
1022.0, 0.01340415740649451
1023.0, 0.012291094101270472
1024.0, 0.01586334949305062
1025.0, 0.016635082232179237
1026.0, 0.013807777437006898
1027.0, 0.020622451661973764
1028.0, 0.022740059726205356
1029.0, 0.019401363934239527
1030.0, 0.016088985218672823
1031.0, 0.014268522506927547
1032.0, 0.014373255371305628
1033.0, 0.014225736350157909
1034.0, 0.012983520196282985
1035.0, 0.016009141634291204
1036.0, 0.012137102120464397
1037.0, 0.015469947245085222
1038.0, 0.01652191147725537
1039.0, 0.009942841406386198
1040.0, 0.01243299408141657
1041.0, 0.02040517500292561
1042.0, 0.02255749673501786
1043.0, 0.018546246273718245
1044.0, 0.015386329737021533
1045.0, 0.017140657822571546
1046.0, 0.01777391597235045
1047.0, 0.01928405281549633
1048.0, 0.017749714056939807
1049.0, 0.018990143134760034
1050.0, 0.019261014930084124
1051.0, 0.020177867182917635
1052.0, 0.0226587620418123
1053.0, 0.02224310045308174
1054.0, 0.022959416525198492
1055.0, 0.024033176899130076
1056.0, 0.023822038045392076
1057.0, 0.02626798735427657
1058.0, 0.03023402987460418
1059.0, 0.03085437012274513
1060.0, 0.02964575791773981
1061.0, 0.03447696528062428
1062.0, 0.03272039426788289
1063.0, 0.02876655840196703
1064.0, 0.031942025008902586
1065.0, 0.03951254669167425
1066.0, 0.042446664738925256
1067.0, 0.046604460207204865
1068.0, 0.042776854169261865
1069.0, 0.033032831245356185
1070.0, 0.035865928797250764
1071.0, 0.04128277185492016
1072.0, 0.04503189444152379
1073.0, 0.041743444444083476
1074.0, 0.03762191513441544
1075.0, 0.04050331864503613
1076.0, 0.04443283847367208
1077.0, 0.039394428358990125
1078.0, 0.03991366884961084
1079.0, 0.036890591787984005
1080.0, 0.036370351315214385
1081.0, 0.03731092670579051
1082.0, 0.03835815823936595
1083.0, 0.03841083314753363
1084.0, 0.030704141993892053
1085.0, 0.03721381048102676
1086.0, 0.0319028169860886
1087.0, 0.02722194270884186
1088.0, 0.025551276265546128
1089.0, 0.022623711933202062
1090.0, 0.025240154392259285
1091.0, 0.025739639631580113
1092.0, 0.021788900037827894
1093.0, 0.028911125680430933
1094.0, 0.03211439712208974
1095.0, 0.025540851645359127
1096.0, 0.02429014521136295
1097.0, 0.025556358571121294
1098.0, 0.023489311921294234
1099.0, 0.024486870671454015
1100.0, 0.022568927643616694
1101.0, 0.018421331023042997
1102.0, 0.022640779086890963
1103.0, 0.017540537082310664
1104.0, 0.02021642136314188
1105.0, 0.020333373787798818
1106.0, 0.012379708030106913
1107.0, 0.007903772098918675
1108.0, 0.012387645911028698
1109.0, 0.01539001723121496
1110.0, 0.0139077174799663
1111.0, 0.011940338059886979
1112.0, 0.007874714341114827
1113.0, 0.007690768897885247
1114.0, 0.004401179764477777
1115.0, 0.008721859853412341
1116.0, 0.0066486309889764224
1117.0, 0.0066617035344982214
1118.0, 0.010486677340166587
1119.0, 0.0056685357735958165
1120.0, 0.004902557434822297
1121.0, 0.0066067434952066925
1122.0, 0.007997315834579733
1123.0, 0.009559702906050814
1124.0, 0.007272484701204596
1125.0, 0.0029152862095371043
1126.0, 0.004126989709228205
1127.0, 0.007569068589934252
1128.0, 0.006857301051146069
1129.0, 0.005534792996370011
1130.0, 0.0067727536180065915
1131.0, 0.00838238637359877
1132.0, 0.0020065931814365508
1133.0, 0.0018578224589323
1134.0, 0.0012778262740376226
1135.0, 0.0009071330435814339
1136.0, 0.004337256304393902
1137.0, 0.008111077605774201
1138.0, 0.007328283906535253
1139.0, 0.0038589089773759066
1140.0, 0.005891655206566119
1141.0, 0.008088526864126524
1142.0, 0.0030445230985680478
1143.0, 0.0026570380616264978
1144.0, 0.007119655794287777
1145.0, 0.007213646855250164
1146.0, 0.0008547720618854301
1147.0, 0.0017363831221273267
1148.0, 0.003251128011273389
1149.0, 0.0037769760245354874
1150.0, 0.0011124337182387481
1151.0, 0.0030618780694783754
1152.0, 0.002785538988342788
1153.0, 0.00017571913532708696
1154.0, 0.005548932586993859
1155.0, 0.009699733713839573
1156.0, 0.0043855240816216765
1157.0, 0.0003472395392845403
1158.0, 0.0012317020857532726
1159.0, 0.002258986258548583
1160.0, 0.0016168628300463354
1161.0, 0.0017740645519040371
1162.0, 0.000497550119959921
1163.0, 0.003676575315271537
1164.0, 0.0013000155343066105
1165.0, 0.0005118230225376781
1166.0, 0.0002655976404820258
1167.0, 0.0002831515161947908
1168.0, 0.0019440047641582983
1169.0, 0.0007125766031169642
1170.0, 0.0006642576877625306
1171.0, 0.00032478640885595157
1172.0, 0.0003250948015892463
1173.0, 0.0005935121549819824
1174.0, 0.0012379270701581865
1175.0, 0.0020187463147130747
1176.0, 0.0024934072956823736
1177.0, 0.0015527462719875326
1178.0, 0.004967215826625364
1179.0, 0.0017652536628855382
1180.0, 0.0017231299952616234
1181.0, 0.003978130796790952
1182.0, 0.0012905349977198424
1183.0, 0.002634915836911049
1184.0, 0.001114286879755464
1185.0, 0.0017807032500602852
1186.0, 0.0005346206723632473
1187.0, 0.0017377851000454827
1188.0, 0.0024086040874728987
1189.0, 0.002746100135554783
1190.0, 0.003809669418840307
1191.0, 0.0009756827225518468
1192.0, 0.0011054365202637579
1193.0, 0.0030280914241306175
1194.0, 0.0036712060765700387
1195.0, 0.008158405336684833
1196.0, 0.006413417377042865
1197.0, 0.004391285391650885
1198.0, 0.0059516226086324415
1199.0, 0.004137468265756403
1200.0, 0.004425167624733496
1201.0, 0.0027009934290133544
1202.0, 0.006644718754691995
1203.0, 0.0053291902515855
1204.0, 0.006382411395521014
1205.0, 0.0033797942080349883
1206.0, 0.0039195154892009264
1207.0, 0.005336065518258841
1208.0, 0.006445730551868431
1209.0, 0.005465373307577066
1210.0, 0.00677096314567114
1211.0, 0.008239574269572678
1212.0, 0.007834805021471936
1213.0, 0.00801659616872545
1214.0, 0.00924350753409611
1215.0, 0.009379099379598434
1216.0, 0.006974705826978744
1217.0, 0.0079336524359063
1218.0, 0.004258157114471693
1219.0, 0.010609450896238362
1220.0, 0.012154849695603721
1221.0, 0.010522441393823736
1222.0, 0.00989611982693265
1223.0, 0.010320247031759941
1224.0, 0.009889512652284254
1225.0, 0.009297814320000812
1226.0, 0.013908449764929028
1227.0, 0.010271855536224773
1228.0, 0.007426542007712626
1229.0, 0.006334544168610892
1230.0, 0.011012065239373514
1231.0, 0.014499295657527226
1232.0, 0.011346829085041532
1233.0, 0.008703503213924088
1234.0, 0.011163493098525674
1235.0, 0.011024972581626926
1236.0, 0.006324310940661474
1237.0, 0.007912733970180651
1238.0, 0.011078935710770692
1239.0, 0.01239768742478873
1240.0, 0.00913405763402193
1241.0, 0.005857227811875453
1242.0, 0.006965939591474021
1243.0, 0.00724661698787455
1244.0, 0.006138111983213569
1245.0, 0.005900346171741675
1246.0, 0.008246680881517626
1247.0, 0.00618948330515978
1248.0, 0.0025422750903067353
1249.0, 0.00493937418695673
1250.0, 0.004803024276182808
1251.0, 0.003096220603996725
1252.0, 0.004596593253048871
1253.0, 0.005932027571000665
1254.0, 0.00683399179119511
1255.0, 0.0035317557048630396
1256.0, 0.003461119015828247
1257.0, 0.008454537232949961
1258.0, 0.00905212437668793
1259.0, 0.0076521678724094655
1260.0, 0.008377043204279153
1261.0, 0.00603558396083746
1262.0, 0.004311573512692036
1263.0, 0.005501878453103676
1264.0, 0.006605924562824554
1265.0, 0.00878407812294055
1266.0, 0.0064993152650753665
1267.0, 0.004649526489351478
1268.0, 0.007962406402257524
1269.0, 0.004932358860984786
1270.0, 0.001517223190300795
1271.0, 0.0010033812869322234
1272.0, 0.0040233686934575555
1273.0, 0.0030498916814361565
1274.0, 0.002098227996545598
1275.0, 0.004877683121883633
1276.0, 0.005020067692727382
1277.0, 0.0025954486427463164
1278.0, 0.004618674606010109
1279.0, 0.0009760934598210732
1280.0, 0.0011090141422707138
1281.0, 0.004888927129812631
1282.0, 0.0015953480697086264
1283.0, 0.002340048639201479
1284.0, 0.002414205748886804
1285, 0.0
1286, 0.0
1287, 0.0
1288, 0.0
1289, 0.0
1290, 0.0
1291, 0.0
1292, 0.0
1293, 0.0
1294, 0.0
1295, 0.0
1296, 0.0
1297, 0.0
1298, 0.0
1299, 0.0
1300, 0.0
1301, 0.0
1302, 0.0
1303, 0.0
1304, 0.0
1305, 0.0
1306, 0.0
1307, 0.0
1308, 0.0
1309, 0.0
1310, 0.0
1311, 0.0
1312, 0.0
1313, 0.0
1314, 0.0
1315, 0.0
1316, 0.0
1317, 0.0
1318, 0.0
1319, 0.0
1320, 0.0
1321, 0.0
1322, 0.0
1323, 0.0
1324, 0.0
1325, 0.0
1326, 0.0
1327, 0.0
1328, 0.0
1329, 0.0
1330, 0.0
1331, 0.0
1332, 0.0
1333, 0.0
1334, 0.0
1335, 0.0
1336, 0.0
1337, 0.0
1338, 0.0
1339, 0.0
1340, 0.0
1341, 0.0
1342, 0.0
1343, 0.0
1344, 0.0
1345, 0.0
1346, 0.0
1347, 0.0
1348, 0.0
1349, 0.0
1350, 0.0
1351, 0.0
1352, 0.0
1353, 0.0
1354, 0.0
1355, 0.0
1356, 0.0
1357, 0.0
1358, 0.0
1359, 0.0
1360, 0.0
1361, 0.0
1362, 0.0
1363, 0.0
1364, 0.0
1365, 0.0
1366, 0.0
1367, 0.0
1368, 0.0
1369, 0.0
1370, 0.0
1371, 0.0
1372, 0.0
1373, 0.0
1374, 0.0
1375, 0.0
1376, 0.0
1377, 0.0
1378, 0.0
1379, 0.0
1380, 0.0
1381, 0.0
1382, 0.0
1383, 0.0
1384, 0.0
1385, 0.0
1386, 0.0
1387, 0.0
1388, 0.0
1389, 0.0
1390, 0.0
1391, 0.0
1392, 0.0
1393, 0.0
1394, 0.0
1395, 0.0
1396, 0.0
1397, 0.0
1398, 0.0
1399, 0.0
1400, 0.0
1401, 0.0
1402, 0.0
1403, 0.0
1404, 0.0
1405, 0.0
1406, 0.0
1407, 0.0
1408, 0.0
1409, 0.0
1410, 0.0
1411, 0.0
1412, 0.0
1413, 0.0
1414, 0.0
1415, 0.0
1416, 0.0
1417, 0.0
1418, 0.0
1419, 0.0
1420, 0.0
1421, 0.0
1422, 0.0
1423, 0.0
1424, 0.0
1425, 0.0
1426, 0.0
1427, 0.0
1428, 0.0
1429, 0.0
1430, 0.0
1431, 0.0
1432, 0.0
1433, 0.0
1434, 0.0
1435, 0.0
1436, 0.0
1437, 0.0
1438, 0.0
1439, 0.0
1440, 0.0
1441, 0.0
1442, 0.0
1443, 0.0
1444, 0.0
1445, 0.0
1446, 0.0
1447, 0.0
1448, 0.0
1449, 0.0
1450, 0.0
1451, 0.0
1452, 0.0
1453, 0.0
1454, 0.0
1455, 0.0
1456, 0.0
1457, 0.0
1458, 0.0
1459, 0.0
1460, 0.0
1461, 0.0
1462, 0.0
1463, 0.0
1464, 0.0
1465, 0.0
1466, 0.0
1467, 0.0
1468, 0.0
1469, 0.0
1470, 0.0
1471, 0.0
1472, 0.0
1473, 0.0
1474, 0.0
1475, 0.0
1476, 0.0
1477, 0.0
1478, 0.0
1479, 0.0
1480, 0.0
1481, 0.0
1482, 0.0
1483, 0.0
1484, 0.0
1485, 0.0
1486, 0.0
1487, 0.0
1488, 0.0
1489, 0.0
1490, 0.0
1491, 0.0
1492, 0.0
1493, 0.0
1494, 0.0
1495, 0.0
1496, 0.0
1497, 0.0
1498, 0.0
1499, 0.0
1500, 0.0
1501, 0.0
1502, 0.0
1503, 0.0
1504, 0.0
1505, 0.0
1506, 0.0
1507, 0.0
1508, 0.0
1509, 0.0
1510, 0.0
1511, 0.0
1512, 0.0
1513, 0.0
1514, 0.0
1515, 0.0
1516, 0.0
1517, 0.0
1518, 0.0
1519, 0.0
1520, 0.0
1521, 0.0
1522, 0.0
1523, 0.0
1524, 0.0
1525, 0.0
1526, 0.0
1527, 0.0
1528, 0.0
1529, 0.0
1530, 0.0
1531, 0.0
1532, 0.0
1533, 0.0
1534, 0.0
1535, 0.0
1536, 0.0
1537, 0.0
1538, 0.0
1539, 0.0
1540, 0.0
1541, 0.0
1542, 0.0
1543, 0.0
1544, 0.0
1545, 0.0
1546, 0.0
1547, 0.0
1548, 0.0
1549, 0.0
1550, 0.0
1551, 0.0
1552, 0.0
1553, 0.0
1554, 0.0
1555, 0.0
1556, 0.0
1557, 0.0
1558, 0.0
1559, 0.0
1560, 0.0
1561, 0.0
1562, 0.0
1563, 0.0
1564, 0.0
1565, 0.0
1566, 0.0
1567, 0.0
1568, 0.0
1569, 0.0
1570, 0.0
1571, 0.0
1572, 0.0
1573, 0.0
1574, 0.0
1575, 0.0
1576, 0.0
1577, 0.0
1578, 0.0
1579, 0.0
1580, 0.0
1581, 0.0
1582, 0.0
1583, 0.0
1584, 0.0
1585, 0.0
1586, 0.0
1587, 0.0
1588, 0.0
1589, 0.0
1590, 0.0
1591, 0.0
1592, 0.0
1593, 0.0
1594, 0.0
1595, 0.0
1596, 0.0
1597, 0.0
1598, 0.0
1599, 0.0
