30, 0.0
31, 0.0
32, 0.0
33, 0.0
34, 0.0
35, 0.0
36, 0.0
37, 0.0
38, 0.0
39, 0.0
40, 0.0
41, 0.0
42, 0.0
43, 0.0
44, 0.0
45, 0.0
46, 0.0
47, 0.0
48, 0.0
49, 0.0
50, 0.0
51, 0.0
52, 0.0
53, 0.0
54, 0.0
55, 0.0
56, 0.0
57, 0.0
58, 0.0
59, 0.0
60, 0.0
61, 0.0
62, 0.0
63, 0.0
64, 0.0
65, 0.0
66, 0.0
67, 0.0
68, 0.0
69, 0.0
70, 0.0
71, 0.0
72, 0.0
73, 0.0
74, 0.0
75, 0.0
76, 0.0
77, 0.0
78, 0.0
79, 0.0
80.0, 9.814982782682579e-05
81.0, 0.0011385352734262144
82.0, 0.00621996369581361
83.0, 0.010066141830371241
84.0, 0.015621508620111782
85.0, 0.024443390907299332
86.0, 0.03408366324381089
87.0, 0.0450861115256352
88.0, 0.0578802880570143
89.0, 0.07412487498874157
90.0, 0.09131403185144848
91.0, 0.10901882591025101
92.0, 0.1270569884522758
93.0, 0.1410453794954763
94.0, 0.15451562036958388
95.0, 0.16661100956984012
96.0, 0.1751843190821658
97.0, 0.17694809992422447
98.0, 0.1760692212932886
99.0, 0.17307684612391921
100.0, 0.16197153699499386
101.0, 0.15205304922762417
102.0, 0.13909662290350844
103.0, 0.11617261982679716
104.0, 0.09689143804821357
105.0, 0.08038236874240302
106.0, 0.06626300102893348
107.0, 0.05198623402955811
108.0, 0.042177897223363424
109.0, 0.0355495094674668
110.0, 0.03174976607857357
111.0, 0.03493406505927298
112.0, 0.045625274287833514
113.0, 0.0637225478238424
114.0, 0.08962305265569534
115.0, 0.118785586383706
116.0, 0.14184913032367563
117.0, 0.15187049157903595
118.0, 0.12494257594849893
119.0, 0.10252361806428748
120.0, 0.08516335989518968
121.0, 0.07120422026925047
122.0, 0.06051072372477959
123.0, 0.05350617038395409
124.0, 0.05054654790221464
125.0, 0.04238439345726813
126.0, 0.04024406613825208
127.0, 0.040723038614727
128.0, 0.03837617228625337
129.0, 0.03963867878798336
130.0, 0.03561425175765887
131.0, 0.02520481813075221
132.0, 0.019293241006389007
133.0, 0.013466411983220614
134.0, 0.010431227405883543
135.0, 0.013700674024586523
136.0, 0.013326180991180438
137.0, 0.016698424193930757
138.0, 0.02308933683253317
139.0, 0.025906068934723265
140.0, 0.02755800000366226
141.0, 0.026518852450542342
142.0, 0.02153424838178214
143.0, 0.01424008819989676
144.0, 0.008152227062487024
145.0, 0.0035849072720783486
146.0, 0.0015590625822584207
147.0, 0.003434460924166045
148.0, 0.007378682355679287
149.0, 0.013457371564711261
150.0, 0.028504723274754496
151.0, 0.044678888994202325
152.0, 0.0633660428347198
153.0, 0.08688870302315893
154.0, 0.10715649207345017
155.0, 0.12647438816020162
156.0, 0.1430718279255961
157.0, 0.1460458765208012
158.0, 0.14209132852862408
159.0, 0.13235327134381564
160.0, 0.11663739566387167
161.0, 0.10229190844376757
162.0, 0.08703431325952392
163.0, 0.07156762983578646
164.0, 0.057513545626523305
165.0, 0.04598616403401728
166.0, 0.03680750372745364
167.0, 0.029895609537224303
168.0, 0.02352448120226226
169.0, 0.01985346227508315
170.0, 0.018511758870340365
171.0, 0.019668029889267916
172.0, 0.020408636441755668
173.0, 0.022745314784117142
174.0, 0.0258797145362174
175.0, 0.026297874491389178
176.0, 0.02918546929104524
177.0, 0.03508481674690113
178.0, 0.04447041369190293
179.0, 0.05601832892942742
180.0, 0.06542152247050745
181.0, 0.07420992874595671
182.0, 0.08454496039499962
183.0, 0.09475665784591056
184.0, 0.10272468775001749
185.0, 0.10773303967221068
186.0, 0.10733637633462731
187.0, 0.10136799192155616
188.0, 0.09217523591428076
189.0, 0.0806715501249888
190.0, 0.06952938023713678
191.0, 0.05914747802830613
192.0, 0.04920683612545476
193.0, 0.03914616298638618
194.0, 0.031310833036703234
195.0, 0.02693871502469602
196.0, 0.025632459419410978
197.0, 0.021828675584830537
198.0, 0.023035565469265926
199.0, 0.026321037152688246
200.0, 0.02993996828344134
201.0, 0.030349481711548113
202.0, 0.03317543740457966
203.0, 0.03741024539346654
204.0, 0.04056461162910888
205.0, 0.03962788334149456
206.0, 0.036008291776904344
207.0, 0.030473815568492522
208.0, 0.02773385270682155
209.0, 0.022486037887547695
210.0, 0.017135782584636414
211.0, 0.013527136862130678
212.0, 0.012610384714713522
213.0, 0.010800604236997928
214.0, 0.0094956159833185
215.0, 0.012521567877444035
216.0, 0.01573981595572343
217.0, 0.018686148304067073
218.0, 0.021408684802840732
219.0, 0.02537998261165011
220.0, 0.026462654290839216
221.0, 0.027010666720657422
222.0, 0.0286819625247437
223.0, 0.022125416178405577
224.0, 0.01568779123466848
225.0, 0.00986052378283506
226.0, 0.005323402542753243
227.0, 0.002236093634197143
228.0, 0.0016586084331775674
229.0, 0.0036587370409318434
230.0, 0.006858094065890972
231.0, 0.006740400713569605
232.0, 0.006948370417017462
233.0, 0.009770913609655334
234.0, 0.011376308301773684
235.0, 0.011198142133376327
236.0, 0.010802857399964004
237.0, 0.012953542574687687
238.0, 0.011161327643751773
239.0, 0.01188760416390203
240.0, 0.014813001004431297
241.0, 0.013239961472099111
242.0, 0.012981587688629295
243.0, 0.012177653110165651
244.0, 0.010002603540581004
245.0, 0.009298325816857713
246.0, 0.010381120262266933
247.0, 0.010377948250344791
248.0, 0.005485893799941233
249.0, 0.004917855896662638
250.0, 0.0033663747309536788
251.0, 0.0018301856849374833
252.0, 0.005236419307522036
253.0, 0.0066211593448131795
254.0, 0.009248433312415353
255.0, 0.01348150792914701
256.0, 0.011896380244232103
257.0, 0.012447044137504823
258.0, 0.013362151556940722
259.0, 0.013312462778030975
260.0, 0.01397367607951176
261.0, 0.013536681847788539
262.0, 0.014169515633534177
263.0, 0.020396954747508196
264.0, 0.024107581851864495
265.0, 0.027963412310239272
266.0, 0.03351285764836292
267.0, 0.046341795682371435
268.0, 0.05407940669908958
269.0, 0.06090074624186956
270.0, 0.06830074698350078
271.0, 0.07097114604152605
272.0, 0.06597688377072593
273.0, 0.05908102067767136
274.0, 0.05596453304515882
275.0, 0.055459011308542555
276.0, 0.05760341680715851
277.0, 0.06258144071849672
278.0, 0.07129691332969394
279.0, 0.08495124914889901
280.0, 0.09784901640343063
281.0, 0.10875582551447306
282.0, 0.11741037112607486
283.0, 0.114897682069099
284.0, 0.10617561050423956
285.0, 0.09352726013686809
286.0, 0.08628492937961112
287.0, 0.07250283631310289
288.0, 0.05791833732695773
289.0, 0.04862048615241462
290.0, 0.040743873754702425
291.0, 0.030709619229553946
292.0, 0.021730084282563008
293.0, 0.022031632782753503
294.0, 0.015476649194097946
295.0, 0.010523686265121044
296.0, 0.00821438257075827
297.0, 0.005297993012378928
298.0, 0.003057976186240661
299.0, 0.0016421429462093982
300.0, 0.00110352205509971
301.0, 0.00036054085042576883
302.0, 0.000702318722881302
303.0, 0.002059153376751085
304.0, 0.004486890495906201
305.0, 0.0055436112266748164
306.0, 0.005953347461292368
307.0, 0.006176115181730588
308.0, 0.00699232990356089
309.0, 0.007291947338664423
310.0, 0.00910885867861837
311.0, 0.011929228962222978
312.0, 0.012902824649878837
313.0, 0.015563728121611189
314.0, 0.016810108757572786
315.0, 0.016004890805753125
316.0, 0.016172817230696763
317.0, 0.013859317175057622
318.0, 0.012070653244951662
319.0, 0.0125146319819112
320.0, 0.01024723447393857
321.0, 0.007432576363665746
322.0, 0.005962008467031554
323.0, 0.00815060983725595
324.0, 0.0037227743745976765
325.0, 0.00558110010328008
326.0, 0.010275806758622084
327.0, 0.00930290474680846
328.0, 0.009491140474653735
329.0, 0.013386420993555798
330.0, 0.020615248334290792
331.0, 0.02827282387904802
332.0, 0.03196729704936116
333.0, 0.037768938984341985
334.0, 0.04668360739746521
335.0, 0.05063596227259179
336.0, 0.056463975155634484
337.0, 0.06326719609699247
338.0, 0.07043255130036666
339.0, 0.07312198869611092
340.0, 0.07656333612166595
341.0, 0.07800718334945132
342.0, 0.07451584307978863
343.0, 0.07577216104358105
344.0, 0.07521440636769089
345.0, 0.07267650513042168
346.0, 0.06801666995933928
347.0, 0.06437840966615647
348.0, 0.06142828974398733
349.0, 0.05921357955685277
350.0, 0.05805524797717991
351.0, 0.055076744473338206
352.0, 0.052168627042732355
353.0, 0.04946040405456067
354.0, 0.04549933666605747
355.0, 0.039934952269620703
356.0, 0.03528243653696278
357.0, 0.03232931317433163
358.0, 0.029112684244491267
359.0, 0.02403792570187282
360.0, 0.020462475870479283
361.0, 0.020232286726847425
362.0, 0.01452230554561081
363.0, 0.013159391910754546
364.0, 0.013561842624566101
365.0, 0.013370701315316546
366.0, 0.008431934223257243
367.0, 0.006272236813520149
368.0, 0.005744006815311645
369.0, 0.0049930712187239035
370.0, 0.004187877693772924
371.0, 0.0022368691521176287
372.0, 0.00012407191346399426
373.0, 0.00031011033623142014
374.0, 0.0027211317177304175
375.0, 0.003124822583114773
376.0, 0.0021840582152091734
377.0, 0.004536736968358825
378.0, 0.002856175690949036
379.0, 0.0016795215993016912
380.0, 0.0022615009525152113
381.0, 0.005012291505762314
382.0, 0.005681283066139042
383.0, 0.005023016831338982
384.0, 0.003903264328702565
385.0, 0.007979478527979825
386.0, 0.012185919396829477
387.0, 0.014202879750856172
388.0, 0.012984366246485208
389.0, 0.015482394718411998
390.0, 0.01482176454917793
391.0, 0.015169690470434321
392.0, 0.01978592592193634
393.0, 0.020589499233398735
394.0, 0.01956330234368531
395.0, 0.019436314017301223
396.0, 0.023305427012210632
397.0, 0.01971422575253133
398.0, 0.019820690563934464
399.0, 0.021799696889726848
400.0, 0.022481824032766894
401.0, 0.02236593056950666
402.0, 0.024968767206040413
403.0, 0.028152985653927008
404.0, 0.027088868447369477
405.0, 0.024838821098961447
406.0, 0.024670456101843766
407.0, 0.025240723697451378
408.0, 0.021881695218910903
409.0, 0.020045523281950615
410.0, 0.018240028807856145
411.0, 0.015327005840749752
412.0, 0.00819503339865514
413.0, 0.01157746365783619
414.0, 0.01307038286751246
415.0, 0.01012146203502649
416.0, 0.005198576589488671
417.0, 0.006211384377633634
418.0, 0.008886330459620713
419.0, 0.01175660801890165
420.0, 0.014016008223384929
421.0, 0.0169407415374165
422.0, 0.01887379667992013
423.0, 0.019943314861751403
424.0, 0.02713060857024212
425.0, 0.030523793323502187
426.0, 0.03466968624164724
427.0, 0.041571469182873966
428.0, 0.047809725579788236
429.0, 0.05424549227944687
430.0, 0.06200287638836736
431.0, 0.07158573723966467
432.0, 0.07892874325809567
433.0, 0.07789704030455152
434.0, 0.07588614491366726
435.0, 0.07754813636239719
436.0, 0.06551012894266837
437.0, 0.05850729873045791
438.0, 0.05210711945180549
439.0, 0.04265572718463047
440.0, 0.032019179836392436
441.0, 0.025791192209576937
442.0, 0.023608349735999734
443.0, 0.025222587944143282
444.0, 0.022145828314669432
445.0, 0.02119396931386911
446.0, 0.022419673157128304
447.0, 0.02591019066575748
448.0, 0.02483418997564447
449.0, 0.02355584953489053
450.0, 0.022702800534523008
451.0, 0.022957167986348243
452.0, 0.024896123090672892
453.0, 0.021418976875531646
454.0, 0.01726353977865903
455.0, 0.01903515684254495
456.0, 0.018399185645678544
457.0, 0.016185387145839142
458.0, 0.013729839697083773
459.0, 0.012890999529482576
460.0, 0.01396570248801665
461.0, 0.013761648080175765
462.0, 0.012246985684661137
463.0, 0.009573650025753057
464.0, 0.0063234163237779065
465.0, 0.007121390682452849
466.0, 0.008814474277289312
467.0, 0.005934396881817719
468.0, 0.0044926527619786015
469.0, 0.004249044884382462
470.0, 0.004469523457622488
471.0, 0.003994710066024586
472.0, 0.005955698814807777
473.0, 0.0047263258829370255
474.0, 0.002044068406533057
475.0, 0.0014446701665117127
476.0, 0.0006472588262695127
477.0, 0.0009708335893604815
478.0, 0.00143841314245585
479.0, 0.00025862543158007556
480.0, 0.0014745225318792102
481.0, 0.001799931693990885
482.0, 0.0013222491183210673
483.0, 0.0005514327060739725
484.0, 0.002911321737742357
485.0, 0.0025631757276084145
486.0, 0.0020166826474874115
487.0, 0.005943739004167231
488.0, 0.004586373615491166
489.0, 0.004371721065190864
490.0, 0.005333292924499177
491.0, 0.006925743787813325
492.0, 0.00620794596245018
493.0, 0.008099593578537796
494.0, 0.010334217266610855
495.0, 0.009239437721064975
496.0, 0.009150554553855144
497.0, 0.011672162150020964
498.0, 0.014579849431543083
499.0, 0.014789143040218162
500.0, 0.015846575692736502
501.0, 0.018811159066137915
502.0, 0.02186569564219689
503.0, 0.022737092594667135
504.0, 0.026455345945359064
505.0, 0.0285306218284398
506.0, 0.03000149901218836
507.0, 0.032119941112183054
508.0, 0.03532463652435466
509.0, 0.040405430896152575
510.0, 0.04657203384104696
511.0, 0.05301022038019353
512.0, 0.05803624930056153
513.0, 0.06827792404901355
514.0, 0.07699430249772381
515.0, 0.07880890255113122
516.0, 0.09287938588846106
517.0, 0.1042291230890876
518.0, 0.11425240771859684
519.0, 0.12451969816362778
520.0, 0.14543992799698227
521.0, 0.16567357565015467
522.0, 0.19029286204277787
523.0, 0.22266133039555158
524.0, 0.2628703244504211
525.0, 0.30785517457389694
526.0, 0.36396984081410416
527.0, 0.434594175904566
528.0, 0.5176405267910373
529.0, 0.6190857466681781
530.0, 0.7186646664180228
531.0, 0.8081532324534334
532.0, 0.8936270977727957
533.0, 0.9643292576781174
534.0, 0.9875859548153609
535.0, 0.9548844380489575
536.0, 0.8855551742406588
537.0, 0.7885607345340165
538.0, 0.6837677028959062
539.0, 0.5785539076921834
540.0, 0.4794602319591849
541.0, 0.4030807083533122
542.0, 0.33232554226609806
543.0, 0.2693101381778841
544.0, 0.2314535520130228
545.0, 0.1985997053454532
546.0, 0.16691228114801698
547.0, 0.1394962259407512
548.0, 0.12481359771963937
549.0, 0.10991619897387091
550.0, 0.09814397367703699
551.0, 0.08823005559035381
552.0, 0.07742073612564127
553.0, 0.06719565525518287
554.0, 0.06113097849586755
555.0, 0.057913146848881894
556.0, 0.055542926936093306
557.0, 0.050953328254709454
558.0, 0.04690102322848776
559.0, 0.04204658982164062
560.0, 0.03526604624236377
561.0, 0.03649387222422686
562.0, 0.03266527419628671
563.0, 0.02881346073726443
564.0, 0.028535613795520894
565.0, 0.030360407815443104
566.0, 0.025310545836471167
567.0, 0.02227363873015919
568.0, 0.02498112741831748
569.0, 0.02580867519032391
570.0, 0.022281840115839058
571.0, 0.019193406908829896
572.0, 0.018728487773211493
573.0, 0.02266169252021691
574.0, 0.017963868024379704
575.0, 0.015373153658231555
576.0, 0.015275906249604124
577.0, 0.01022560581769121
578.0, 0.0102626997664045
579.0, 0.01339123911180511
580.0, 0.016227087162667166
581.0, 0.012293970167105027
582.0, 0.014915555397463438
583.0, 0.014687606566517205
584.0, 0.01295537525800782
585.0, 0.012839031144404999
586.0, 0.012280914100653548
587.0, 0.01119295319183901
588.0, 0.01094406920606099
589.0, 0.01263425282240417
590.0, 0.007987951788625798
591.0, 0.007029377868819884
592.0, 0.00605235780869743
593.0, 0.0032195739457700767
594.0, 0.0052894844353938795
595.0, 0.007540693117155332
596.0, 0.007272530262510313
597.0, 0.004258338558115857
598.0, 0.0036076501106587743
599.0, 0.004953332198934394
600.0, 0.005583882793517116
601.0, 0.004760413211686356
602.0, 0.0024920366023318923
603.0, 0.004273654354087106
604.0, 0.0056266000798623345
605.0, 0.005485538095245189
606.0, 0.003136108306003867
607.0, 0.0034006956716772802
608.0, 0.0022231294784472687
609.0, 0.0014560621161699473
610.0, 0.0036395290021414353
611.0, 0.002181662854142727
612.0, 0.003563246372239353
613.0, 0.005229257075121323
614.0, 0.005303373389328561
615.0, 0.0056916715322621785
616.0, 0.00536410280012661
617.0, 0.006625479003941918
618.0, 0.00967961613679586
619.0, 0.009464562840919543
620.0, 0.01260187003214684
621.0, 0.01963884382166909
622.0, 0.027760567784258325
623.0, 0.027994064582218404
624.0, 0.03438175931117363
625.0, 0.03376038567614326
626.0, 0.029881003206681557
627.0, 0.03251572069765135
628.0, 0.02306257604628005
629.0, 0.016330404916173345
630.0, 0.014488045838939295
631.0, 0.018322712853868404
632.0, 0.008713383009401453
633.0, 0.007207641865939498
634.0, 0.006760644982325234
635.0, 0.004142841429265848
636.0, 0.008361467303502448
637.0, 0.00809150738747608
638.0, 0.009022872087647323
639.0, 0.012762089549342864
640.0, 0.01798353055757882
641.0, 0.017958007442244715
642.0, 0.018568999683452818
643.0, 0.020897670405642436
644.0, 0.0250294598307097
645.0, 0.02532924196423084
646.0, 0.027619655202147056
647.0, 0.02868996114912411
648.0, 0.024995902691839204
649.0, 0.024395262051091604
650.0, 0.024634524707398468
651.0, 0.027140149100286542
652.0, 0.03126140232239392
653.0, 0.026385614758879586
654.0, 0.024260938650837654
655.0, 0.020456598210992626
656.0, 0.01594838914192307
657.0, 0.01840355662541372
658.0, 0.017937389971504916
659.0, 0.015096970235796512
660.0, 0.011437827155195354
661.0, 0.00938682774539258
662.0, 0.009365097603806504
663.0, 0.011213984340396716
664.0, 0.010998304550190893
665.0, 0.006354518798044507
666.0, 0.013423988660180025
667.0, 0.01390621497700719
668.0, 0.014165850977735473
669.0, 0.016647168820178963
670.0, 0.018690158556743535
671.0, 0.01565153823099967
672.0, 0.01732540764100559
673.0, 0.021571546492269545
674.0, 0.018938494497185054
675.0, 0.01656854045623287
676.0, 0.01771587376074028
677.0, 0.018707576703057116
678.0, 0.015422794090561054
679.0, 0.014163144882344427
680.0, 0.013135162122631406
681.0, 0.013343676183702982
682.0, 0.014919114238587319
683.0, 0.015311910556688617
684.0, 0.014735313289920934
685.0, 0.01477788078567348
686.0, 0.0154187614059906
687.0, 0.015533766480706644
688.0, 0.01954708308658772
689.0, 0.022834491542151177
690.0, 0.024777397481129317
691.0, 0.025029987657955586
692.0, 0.01619784112689046
693.0, 0.02136277909609814
694.0, 0.02432471962534257
695.0, 0.01870616702348859
696.0, 0.0257514958676662
697.0, 0.022753228728164855
698.0, 0.0235173214077119
699.0, 0.029104107918615174
700.0, 0.03290222806951418
701.0, 0.033699044524469576
702.0, 0.03324615370712233
703.0, 0.03638344781132606
704.0, 0.04769538776696248
705.0, 0.05039641119295847
706.0, 0.04901631100681493
707.0, 0.04421566759099768
708.0, 0.03860571982258184
709.0, 0.04338714204587602
710.0, 0.035198703277733376
711.0, 0.03155520047939084
712.0, 0.030652509018785704
713.0, 0.02056045617435126
714.0, 0.021615450475952425
715.0, 0.01660971041504246
716.0, 0.011708086193638632
717.0, 0.012992930158984485
718.0, 0.011919555983582556
719.0, 0.012136588803525156
720.0, 0.010917765535468455
721.0, 0.008263018880267843
722.0, 0.00838959465062513
723.0, 0.0074042377196093315
724.0, 0.007433027993945448
725.0, 0.008560934200013033
726.0, 0.010369973225904468
727.0, 0.004708106730843705
728.0, 0.006138227671717593
729.0, 0.010095779102583604
730.0, 0.012599888321472722
731.0, 0.009201791722399884
732.0, 0.007825565975104651
733.0, 0.008096014735244073
734.0, 0.009641657894053987
735.0, 0.011832951850902313
736.0, 0.010195584456620561
737.0, 0.009032493005821098
738.0, 0.009631538526709435
739.0, 0.012251008206763348
740.0, 0.007788088214231541
741.0, 0.010488990357429234
742.0, 0.012961553230647014
743.0, 0.013157604491114819
744.0, 0.014708844544269547
745.0, 0.015884289832880653
746.0, 0.015502792936628583
747.0, 0.015904505780183435
748.0, 0.02027180296262971
749.0, 0.025839181931321425
750.0, 0.030206592913183568
751.0, 0.030672527668657055
752.0, 0.02758737397582637
753.0, 0.02962340921442679
754.0, 0.029593452829556954
755.0, 0.029093521179614276
756.0, 0.029488476075706305
757.0, 0.03246882039184563
758.0, 0.025951389929083732
759.0, 0.024294094700503137
760.0, 0.02338488037540945
761.0, 0.020828097978245093
762.0, 0.02131793938232225
763.0, 0.019313018957747202
764.0, 0.014637660947604129
765.0, 0.010539177913805996
766.0, 0.013591293004042628
767.0, 0.010257491593027511
768.0, 0.009869763400405148
769.0, 0.009928700066741633
770.0, 0.007913451546535749
771.0, 0.0026857870593595123
772.0, 0.005107735871133071
773.0, 0.0048708186398398415
774.0, 0.0020127453879756094
775.0, 0.003671519476561908
776.0, 0.001820096669761513
777.0, 0.0015430175243890344
778.0, 0.002024140811195449
779.0, 0.0022188104502047484
780.0, 0.001798136777261116
781.0, 0.004134824081487249
782.0, 0.005510153891672091
783.0, 0.004505707926863112
784.0, 0.0006551785192444892
785.0, 0.00012037528105393163
786.0, 0.0023725156224918957
787.0, 0.004500097216553027
788.0, 0.0041408680662928295
789.0, 0.0031869956616589843
790.0, 0.0018787812965411006
791.0, 0.0016270401084706916
792.0, 0.0018811280027981226
793.0, 0.0003728612663641066
794.0, 0.0013554238196969532
795.0, 0.0034505222501780277
796.0, 0.005834775645895393
797.0, 0.007094837540604703
798.0, 0.0011443690221590729
799.0, 0.0006633977666320292
800.0, 0.0007864381503018663
801.0, 0.0008772131444357292
802.0, 0.0025037701488023157
803.0, 0.005873024036211749
804.0, 0.006611144352610939
805.0, 0.005481048740521171
806.0, 0.0034110129904018254
807.0, 0.0012681252339102268
808.0, 0.00046331754957626756
809.0, 0.0012197807662608958
810.0, 0.00218823160583567
811.0, 0.0009550817213765636
812.0, 0.0023921601162636523
813.0, 0.0030835145807192703
814.0, 0.003577413690476996
815.0, 0.003926656126567169
816.0, 0.002583500178551938
817.0, 0.0010562953694945808
818.0, 0.0029444890544014905
819.0, 0.004824770749424218
820.0, 0.0013095131828135165
821.0, 0.0010782779646984638
822.0, 0.003971521986488272
823.0, 0.006152094490339811
824.0, 0.005712862957054624
825.0, 0.00267102196671994
826.0, 0.004008079208612379
827.0, 0.00455258637410485
828.0, 0.005375030086457365
829.0, 0.007935448309225539
830.0, 0.008764217919389665
831.0, 0.006686583539340507
832.0, 0.007504222855657889
833.0, 0.01040768131659394
834.0, 0.008864876860567802
835.0, 0.010547103858932236
836.0, 0.011888182607114422
837.0, 0.012252167524241069
838.0, 0.011391382324197565
839.0, 0.009767086422838531
840.0, 0.01439001268817493
841.0, 0.014906681959393953
842.0, 0.012887294091006727
843.0, 0.014272241025554105
844.0, 0.019452155052591097
845.0, 0.017305727432286006
846.0, 0.01589522363563817
847.0, 0.01759426265185745
848.0, 0.016275536720247712
849.0, 0.02138846625683206
850.0, 0.023807572421458426
851.0, 0.02408880210654058
852.0, 0.02381723789239989
853.0, 0.022357229004882864
854.0, 0.024342504576422997
855.0, 0.026516936891231618
856.0, 0.028955762320320114
857.0, 0.033647548373862884
858.0, 0.03419561854584998
859.0, 0.03725332422971761
860.0, 0.039628715538826347
861.0, 0.0388203335378316
862.0, 0.03302937576558804
863.0, 0.03500758976567936
864.0, 0.033298713499894536
865.0, 0.029301129926288975
866.0, 0.026504275873507198
867.0, 0.024557477258945828
868.0, 0.022262242886824542
869.0, 0.02041257817122148
870.0, 0.019131085565584297
871.0, 0.018101127270168278
872.0, 0.019427318628317456
873.0, 0.019777529467823785
874.0, 0.018861519403207138
875.0, 0.016990916127147322
876.0, 0.0158187484890216
877.0, 0.018283327620175142
878.0, 0.020213261025139744
879.0, 0.020385791343227957
880.0, 0.01858879654045084
881.0, 0.019027870637336394
882.0, 0.01910426486020987
883.0, 0.01918234560570337
884.0, 0.018884315554463637
885.0, 0.01734575780553289
886.0, 0.01607029053858874
887.0, 0.018573715997081783
888.0, 0.019524547498381825
889.0, 0.017052352595190775
890.0, 0.015145950288761636
891.0, 0.01895000881553676
892.0, 0.017646770781841205
893.0, 0.01502996302224194
894.0, 0.015358811487109002
895.0, 0.016432967654790444
896.0, 0.017749024499973922
897.0, 0.01820773068232689
898.0, 0.017653216066021396
899.0, 0.016473332982189146
900.0, 0.019308404314307394
901.0, 0.017919654578387505
902.0, 0.018450783555966164
903.0, 0.0204595168699624
904.0, 0.016854131001822762
905.0, 0.018208240756831248
906.0, 0.019451158313880213
907.0, 0.020500337751323327
908.0, 0.020761340516773343
909.0, 0.017504044789125914
910.0, 0.019501844624447224
911.0, 0.020492350778726732
912.0, 0.018615789207171392
913.0, 0.014725522640716766
914.0, 0.02284735448828485
915.0, 0.01777232865882335
916.0, 0.012092233216514757
917.0, 0.011419772658999695
918.0, 0.01827184117748088
919.0, 0.013536247162806613
920.0, 0.012744084589994502
921.0, 0.011872030799059765
922.0, 0.010557935773178902
923.0, 0.01160173228431267
924.0, 0.014391912406264005
925.0, 0.014713178961860966
926.0, 0.014806418766635117
927.0, 0.016246180536362027
928.0, 0.019443096953471514
929.0, 0.01920953445458887
930.0, 0.020218548341008412
931.0, 0.02080963856444337
932.0, 0.019985176433822548
933.0, 0.021953688467842947
934.0, 0.02879476085794697
935.0, 0.02708692090886662
936.0, 0.024994619166865736
937.0, 0.03272024141215344
938.0, 0.0308680830756238
939.0, 0.02348386698950582
940.0, 0.020290505841866768
941.0, 0.01984917694324875
942.0, 0.015760286063465946
943.0, 0.01092148360763319
944.0, 0.012195449805353947
945.0, 0.012953254293154989
946.0, 0.013536730668910217
947.0, 0.02014454899642868
948.0, 0.018146158433059955
949.0, 0.018125457994482563
950.0, 0.02084322975495461
951.0, 0.023992076121145883
952.0, 0.020330234637602796
953.0, 0.02174338693624909
954.0, 0.02085517566070075
955.0, 0.019244132807351134
956.0, 0.01799931759220574
957.0, 0.015700967655347276
958.0, 0.01024525181482094
959.0, 0.01160010077873392
960.0, 0.012560705496539808
961.0, 0.008085382608952977
962.0, 0.010342751554534882
963.0, 0.010820672094781023
964.0, 0.010359673066385761
965.0, 0.009546659571246821
966.0, 0.008879037045490914
967.0, 0.008322173068990104
968.0, 0.005661540027135849
969.0, 0.004186540527087278
970.0, 0.0031427822750211658
971.0, 0.001141868448329448
972.0, 0.004708560570013517
973.0, 0.0043159372424336285
974.0, 0.005608867857827002
975.0, 0.0077261469635206545
976.0, 0.0068461383505181005
977.0, 0.0026164005471533518
978.0, 0.005969620031307637
979.0, 0.006852746154615565
980.0, 0.0046704708495650836
981.0, 0.00499889745184062
982.0, 0.013899131415093106
983.0, 0.0081272371148136
984.0, 0.007921430522515621
985.0, 0.015258315885958253
986.0, 0.016426496373408962
987.0, 0.011404776652259776
988.0, 0.017043501239656457
989.0, 0.021152420267892998
990.0, 0.01986120473345237
991.0, 0.01840423208697156
992.0, 0.019982678928869565
993.0, 0.024041355168405287
994.0, 0.029982551210440786
995.0, 0.03689294340096835
996.0, 0.04340152222585937
997.0, 0.052026833198623966
998.0, 0.053667712299667714
999.0, 0.0591673387164963
1000.0, 0.07001820496649899
1001.0, 0.07172246538854213
1002.0, 0.08296534329529916
1003.0, 0.07842245115583521
1004.0, 0.06902564767935718
1005.0, 0.06296646815774706
1006.0, 0.06071446799639007
1007.0, 0.05739034950151436
1008.0, 0.05903944711684012
1009.0, 0.06001963923727753
1010.0, 0.05706446007959653
1011.0, 0.05260431942195516
1012.0, 0.048569044528147115
1013.0, 0.045575252467636246
1014.0, 0.04030887254440469
1015.0, 0.03374797297924187
1016.0, 0.03640261305085576
1017.0, 0.033741773988422756
1018.0, 0.03016836158443904
1019.0, 0.029299191752149577
1020.0, 0.032433816158353966
1021.0, 0.03656696737128033
1022.0, 0.031195502487988316
1023.0, 0.03400466772807523
1024.0, 0.03553723255514784
1025.0, 0.03247292678194129
1026.0, 0.037668976855475
1027.0, 0.035841457838467906
1028.0, 0.03985943105876439
1029.0, 0.0434995600034223
1030.0, 0.043711976509469036
1031.0, 0.045693641132192375
1032.0, 0.05101230351361049
1033.0, 0.0568465609534528
1034.0, 0.057774437048531274
1035.0, 0.05319648277206734
1036.0, 0.05070618273480061
1037.0, 0.045177126435081864
1038.0, 0.041757175476902164
1039.0, 0.04126399673018517
1040.0, 0.04065983224997594
1041.0, 0.03137698268550283
1042.0, 0.035459175530004314
1043.0, 0.04159865435852021
1044.0, 0.04361736470215453
1045.0, 0.0423855254712814
1046.0, 0.047383579749090896
1047.0, 0.04303599924161608
1048.0, 0.04653943535158991
1049.0, 0.04404582547031909
1050.0, 0.035904641811231736
1051.0, 0.03723904296446699
1052.0, 0.031116299957540793
1053.0, 0.024976426483983856
1054.0, 0.021164458393793353
1055.0, 0.0211114512733814
1056.0, 0.024979504227014566
1057.0, 0.01933106715552585
1058.0, 0.01900423439595606
1059.0, 0.01883546728118073
1060.0, 0.017705217055163765
1061.0, 0.017032116924738577
1062.0, 0.018253586169602123
1063.0, 0.021062173164477022
1064.0, 0.020466463368496727
1065.0, 0.017079747762046564
1066.0, 0.014764493234939835
1067.0, 0.0224029813681371
1068.0, 0.017162553293647857
1069.0, 0.014781972255712168
1070.0, 0.017200369160805546
1071.0, 0.020800684663794308
1072.0, 0.016803790526825423
1073.0, 0.016098122154358175
1074.0, 0.018100520158297714
1075.0, 0.01888390150967022
1076.0, 0.015751742941185518
1077.0, 0.01317883990618027
1078.0, 0.016325561943036155
1079.0, 0.02026805659512766
1080.0, 0.023249859542515017
1081.0, 0.02492482974254118
1082.0, 0.027229681584372934
1083.0, 0.03020453156060038
1084.0, 0.027820393083230973
1085.0, 0.025013168487471968
1086.0, 0.024185159367249416
1087.0, 0.02258308282351161
1088.0, 0.022131237345569744
1089.0, 0.021183307609521536
1090.0, 0.020746172634964154
1091.0, 0.02045401665628012
1092.0, 0.018729548205784815
1093.0, 0.019575109865760974
1094.0, 0.019906839224300206
1095.0, 0.018175875088140257
1096.0, 0.01790055352971942
1097.0, 0.023995815642847276
1098.0, 0.024923289584047745
1099.0, 0.026897902789434866
1100.0, 0.025737031891908183
1101.0, 0.02473837994709227
1102.0, 0.02716251697106639
1103.0, 0.022809360169474286
1104.0, 0.02523458227201657
1105.0, 0.02066000554418258
1106.0, 0.01648855524996444
1107.0, 0.01814118904562817
1108.0, 0.015252091541832427
1109.0, 0.01648832569347602
1110.0, 0.015715524604463783
1111.0, 0.014755017941183014
1112.0, 0.014260390178532494
1113.0, 0.012271416455230041
1114.0, 0.013772203884184105
1115.0, 0.013191644258205938
1116.0, 0.012131928150098897
1117.0, 0.012192039194053473
1118.0, 0.014419650023975878
1119.0, 0.013608777739774917
1120.0, 0.014742270278479732
1121.0, 0.01621734436100762
1122.0, 0.01701819866260728
1123.0, 0.01734777884797035
1124.0, 0.022849701158230915
1125.0, 0.015063209989980394
1126.0, 0.015734330769189613
1127.0, 0.014951475242555544
1128.0, 0.006566926909141337
1129.0, 0.009672231257784587
1130.0, 0.011647191053002546
1131.0, 0.009096419333631431
1132.0, 0.00561621451093982
1133.0, 0.003014934266017369
1134.0, 0.0003853501383521401
1135.0, 0.01129666478697434
1136.0, 0.005498817592582787
1137.0, 0.004419439612414475
1138.0, 0.006751958459416377
1139.0, 0.0006505292835370224
1140.0, 0.002008359148488736
1141.0, 0.0012391294971989503
1142.0, 0.001396179145331209
1143.0, 0.0023749087898820554
1144.0, 0.003473998557542973
1145.0, 0.004868888964207694
1146.0, 0.001257204708160455
1147.0, 0.0026287380022249453
1148.0, 0.0036396893701830155
1149.0, 0.0019306177240454732
1150.0, 0.0012418749023788492
1151.0, 0.0014334390067259816
1152.0, 0.004196217015243858
1153.0, 0.005365209192390734
1154.0, 0.0037951211820179097
1155.0, 0.0008341018289258167
1156.0, 0.0016221738260061326
1157.0, 0.0011228934301656145
1158.0, 0.0020998213260640486
1159.0, 0.0025366607699142214
1160.0, 0.0009670943649947264
1161.0, 0.0006570367724021769
1162.0, 0.000261890602411904
1163.0, 0.0013325664162470567
1164.0, 0.001883273609659398
1165.0, 0.0022257269438926627
1166.0, 0.005256857440661768
1167.0, 0.00789707423748253
1168.0, 0.0037539462915174952
1169.0, 0.006008267918945646
1170.0, 0.008923578745237441
1171.0, 0.003361954306893197
1172.0, 0.0063410757497960575
1173.0, 0.005168295111844168
1174.0, 0.008244662984789267
1175.0, 0.011421683367501913
1176.0, 0.01009742872262628
1177.0, 0.0026349234517402302
1178.0, 0.004066926980409409
1179.0, 0.004465832895276534
1180.0, 0.002527144038371861
1181.0, 0.0013244600454007391
1182.0, 0.005145838975488782
1183.0, 0.005728969761543042
1184.0, 0.0035364196692329597
1185.0, 0.0014109457801371784
1186.0, 0.0024292307339702063
1187.0, 0.006008623305653749
1188.0, 0.0031613863309082777
1189.0, 0.004524386150759222
1190.0, 0.0035932972250145977
1191.0, 0.0036204993674922746
1192.0, 0.004113902287455121
1193.0, 0.0018648394090268856
1194.0, 0.0032530039932777625
1195.0, 0.0018151557886007575
1196.0, 0.005072073475254457
1197.0, 0.0063895030900075695
1198.0, 0.002061327596226235
1199.0, 0.007538726179710809
1200.0, 0.004147519536430871
1201.0, 0.0094206469961004
1202.0, 0.00823383029596712
1203.0, 0.0025030066251952227
1204.0, 0.008832145279825593
1205.0, 0.00897790413742531
1206.0, 0.009032495935339656
1207.0, 0.009861037968909997
1208.0, 0.010224840607805132
1209.0, 0.009401737772663168
1210.0, 0.009738809246212317
1211.0, 0.006621065070370219
1212.0, 0.006541817404128535
1213.0, 0.004778522090526111
1214.0, 0.0033937347536641027
1215.0, 0.008889138139010275
1216.0, 0.007964527848663276
1217.0, 0.010083433419400463
1218.0, 0.010793497118432383
1219.0, 0.009415160567554941
1220.0, 0.007174035098712188
1221.0, 0.007075067576421963
1222.0, 0.0026728288375293683
1223.0, 0.004738806512081594
1224.0, 0.009442789292127192
1225.0, 0.011320782252479834
1226.0, 0.006417459639824317
1227.0, 0.003889505559950521
1228.0, 0.008613385160130046
1229.0, 0.011740313311955054
1230.0, 0.010765151860674376
1231.0, 0.007123507994963635
1232.0, 0.0063651885385561146
1233.0, 0.010153428080711053
1234.0, 0.01389332701521074
1235.0, 0.01485966659749181
1236.0, 0.015597243220430209
1237.0, 0.01846844720378902
1238.0, 0.013501740114569578
1239.0, 0.0170495245617307
1240.0, 0.020011152404974603
1241.0, 0.018255175221646932
1242.0, 0.013332200101521242
1243.0, 0.011878648558186324
1244.0, 0.013228471716314657
1245.0, 0.01620400017237863
1246.0, 0.017252921467425738
1247.0, 0.015025989077710522
1248.0, 0.012289564566986422
1249.0, 0.01931055707928155
1250.0, 0.013395294740855655
1251.0, 0.01264290787551425
1252.0, 0.014624858516413932
1253.0, 0.016018811112664136
1254.0, 0.014392441517174384
1255.0, 0.011743893119682918
1256.0, 0.007920984361310448
1257.0, 0.006600153382217348
1258.0, 0.009265065868110009
1259.0, 0.011786421352500732
1260.0, 0.005542587589060146
1261.0, 0.010534731616500518
1262.0, 0.011952789449383336
1263.0, 0.013215305912870203
1264.0, 0.014258023326709536
1265.0, 0.014651891786832155
1266.0, 0.015837724151953787
1267.0, 0.016586420066122168
1268.0, 0.020551146084400795
1269.0, 0.019314026232358516
1270.0, 0.01837268869792729
1271.0, 0.02525348759566079
1272.0, 0.016596401772526196
1273.0, 0.019381713448079353
1274.0, 0.021178552514023622
1275.0, 0.021990306752834737
1276.0, 0.021150776017838126
1277.0, 0.017253697799046307
1278.0, 0.022705371666146182
1279.0, 0.01655242512206754
1280.0, 0.013417247020897024
1281.0, 0.013767562336810955
1282.0, 0.0144552052362154
1283.0, 0.012660822129536065
1284.0, 0.014333336547570885
1285.0, 0.012402687359414143
1286.0, 0.010981899163350446
1287.0, 0.010450215338490849
1288.0, 0.009778335560339083
1289.0, 0.008622490798879895
1290.0, 0.012706149283535988
1291.0, 0.01052673121749003
1292.0, 0.00939390594737665
1293.0, 0.011263523819760727
1294.0, 0.013587140501923852
1295.0, 0.012505596879905182
1296.0, 0.01327889868431866
1297.0, 0.01172868930334495
1298.0, 0.011596025043946153
1299.0, 0.01243938167036174
1300.0, 0.010284613770187665
1301.0, 0.008590078432144696
1302.0, 0.008363077407286201
1303.0, 0.010371327729737813
1304.0, 0.010104549647923516
1305.0, 0.008413754775166062
1306.0, 0.012701008856960742
1307.0, 0.015013248557584454
1308.0, 0.011611442755324403
1309.0, 0.014632302006290352
1310.0, 0.01750339849446395
1311.0, 0.016049037650533986
1312.0, 0.0179021500779434
1313.0, 0.010663985849399867
1314.0, 0.017737382597139993
1315.0, 0.018479450158525746
1316.0, 0.016475484651302483
1317.0, 0.017372530901149402
1318.0, 0.011963844956190604
1319.0, 0.020075422174742234
1320.0, 0.018160549403018398
1321.0, 0.014690246858185707
1322.0, 0.01626990430284581
1323.0, 0.022467774482188507
1324.0, 0.018366730575740238
1325.0, 0.01812898572342312
1326.0, 0.01645026996106865
1327.0, 0.014700178757228248
1328.0, 0.012101608984489939
1329.0, 0.008637232966593052
1330.0, 0.010866010208667027
1331.0, 0.01148202961108304
1332.0, 0.010467282283195793
1333.0, 0.006727835000945447
1334.0, 0.003894093511613481
1335.0, 0.005109377127041589
1336.0, 0.0007606764163732441
1337.0, 0.0029270754450355513
1338.0, 0.0031105789268767847
1339.0, 0.003535104143736902
1340.0, 0.003351805223265965
1341.0, 0.0006446794441031194
1342.0, 0.0005091296661485882
1343.0, 0.0010390752617385726
1344.0, 0.0023753624277166757
1345.0, 0.002901565901951165
1346.0, 0.004464171887514119
1347.0, 0.008687248888392674
1348.0, 0.004290098931435916
1349.0, 0.0020938653369535288
1350.0, 0.007275976302612359
1351.0, 0.008752760909226389
1352.0, 0.005382258855413098
1353.0, 0.004328913287020559
1354.0, 0.008304957746569565
1355.0, 0.00616655038858501
1356.0, 0.005917775880877338
1357.0, 0.006197588527996682
1358.0, 0.005958116193479953
1359.0, 0.005418231248589232
1360.0, 0.005910604389990595
1361.0, 0.0063637993368570265
1362.0, 0.004537015626446333
1363.0, 0.005690789330509459
1364.0, 0.0075940103614310014
1365.0, 0.005178799374873239
1366.0, 0.006086015404373088
1367.0, 0.0074945646621354875
1368.0, 0.006108939778841835
1369.0, 0.004523551857122413
1370.0, 0.005288403657796315
1371.0, 0.008421782745853831
1372.0, 0.007050230717889956
1373.0, 0.007045849653791935
1374.0, 0.009656866056646715
1375.0, 0.009080375746111915
1376.0, 0.006958103293577517
1377.0, 0.007176493715508664
1378.0, 0.005850230477937568
1379.0, 0.011149979523702006
1380.0, 0.009494884996777312
1381.0, 0.007883998912188434
1382.0, 0.008734967961508333
1383.0, 0.01038520852382349
1384.0, 0.00883652346360639
1385.0, 0.010170321262348962
1386.0, 0.006873073704605754
1387.0, 0.007766772012462622
1388.0, 0.007572151060594169
1389.0, 0.0031779758970830914
1390.0, 0.006922227923777142
1391.0, 0.005170673467805274
1392.0, 0.00548447615072742
1393.0, 0.008340324820119597
1394.0, 0.008151911766187132
1395.0, 0.004770377546131469
1396.0, 0.007679671336030347
1397.0, 0.0029025349459696195
1398.0, 0.006756982648433118
1399.0, 0.006965526088597349
1400.0, 0.004933340007889498
1401.0, 0.003807755130228327
1402.0, 0.004363733031949461
1403.0, 0.00655462576051116
1404.0, 0.00427022525121118
1405.0, 0.00698292049077971
1406.0, 0.005805346866265071
1407.0, 0.000985114411880118
1408.0, 0.0024044567659532506
1409.0, 0.013382429286131505
1410.0, 0.0036384927371526364
1411.0, 0.005730708196300486
1412.0, 0.006443588658949806
1413.0, 0.0054893744488049
1414.0, 0.0091456712871212
1415.0, 0.008903894790991254
1416.0, 0.005901962826858775
1417.0, 0.002723586465834514
1418.0, 0.004850463508562638
1419.0, 0.005699644760202616
1420.0, 0.0023338726549134775
1421.0, 0.008062743994750113
1422.0, 0.001106105517830891
1423, 0.0
1424, 0.0
1425, 0.0
1426, 0.0
1427, 0.0
1428, 0.0
1429, 0.0
1430, 0.0
1431, 0.0
1432, 0.0
1433, 0.0
1434, 0.0
1435, 0.0
1436, 0.0
1437, 0.0
1438, 0.0
1439, 0.0
1440, 0.0
1441, 0.0
1442, 0.0
1443, 0.0
1444, 0.0
1445, 0.0
1446, 0.0
1447, 0.0
1448, 0.0
1449, 0.0
1450, 0.0
1451, 0.0
1452, 0.0
1453, 0.0
1454, 0.0
1455, 0.0
1456, 0.0
1457, 0.0
1458, 0.0
1459, 0.0
1460, 0.0
1461, 0.0
1462, 0.0
1463, 0.0
1464, 0.0
1465, 0.0
1466, 0.0
1467, 0.0
1468, 0.0
1469, 0.0
1470, 0.0
1471, 0.0
1472, 0.0
1473, 0.0
1474, 0.0
1475, 0.0
1476, 0.0
1477, 0.0
1478, 0.0
1479, 0.0
1480, 0.0
1481, 0.0
1482, 0.0
1483, 0.0
1484, 0.0
1485, 0.0
1486, 0.0
1487, 0.0
1488, 0.0
1489, 0.0
1490, 0.0
1491, 0.0
1492, 0.0
1493, 0.0
1494, 0.0
1495, 0.0
1496, 0.0
1497, 0.0
1498, 0.0
1499, 0.0
1500, 0.0
1501, 0.0
1502, 0.0
1503, 0.0
1504, 0.0
1505, 0.0
1506, 0.0
1507, 0.0
1508, 0.0
1509, 0.0
1510, 0.0
1511, 0.0
1512, 0.0
1513, 0.0
1514, 0.0
1515, 0.0
1516, 0.0
1517, 0.0
1518, 0.0
1519, 0.0
1520, 0.0
1521, 0.0
1522, 0.0
1523, 0.0
1524, 0.0
1525, 0.0
1526, 0.0
1527, 0.0
1528, 0.0
1529, 0.0
1530, 0.0
1531, 0.0
1532, 0.0
1533, 0.0
1534, 0.0
1535, 0.0
1536, 0.0
1537, 0.0
1538, 0.0
1539, 0.0
1540, 0.0
1541, 0.0
1542, 0.0
1543, 0.0
1544, 0.0
1545, 0.0
1546, 0.0
1547, 0.0
1548, 0.0
1549, 0.0
1550, 0.0
1551, 0.0
1552, 0.0
1553, 0.0
1554, 0.0
1555, 0.0
1556, 0.0
1557, 0.0
1558, 0.0
1559, 0.0
1560, 0.0
1561, 0.0
1562, 0.0
1563, 0.0
1564, 0.0
1565, 0.0
1566, 0.0
1567, 0.0
1568, 0.0
1569, 0.0
1570, 0.0
1571, 0.0
1572, 0.0
1573, 0.0
1574, 0.0
1575, 0.0
1576, 0.0
1577, 0.0
1578, 0.0
1579, 0.0
1580, 0.0
1581, 0.0
1582, 0.0
1583, 0.0
1584, 0.0
1585, 0.0
1586, 0.0
1587, 0.0
1588, 0.0
1589, 0.0
1590, 0.0
1591, 0.0
1592, 0.0
1593, 0.0
1594, 0.0
1595, 0.0
1596, 0.0
1597, 0.0
1598, 0.0
1599, 0.0
