30, 0.0
31, 0.0
32, 0.0
33, 0.0
34, 0.0
35, 0.0
36, 0.0
37, 0.0
38, 0.0
39, 0.0
40, 0.0
41, 0.0
42, 0.0
43, 0.0
44, 0.0
45, 0.0
46, 0.0
47, 0.0
48, 0.0
49, 0.0
50, 0.0
51, 0.0
52, 0.0
53, 0.0
54, 0.0
55, 0.0
56, 0.0
57, 0.0
58, 0.0
59, 0.0
60, 0.0
61, 0.0
62, 0.0
63, 0.0
64, 0.0
65, 0.0
66, 0.0
67, 0.0
68, 0.0
69, 0.0
70, 0.0
71, 0.0
72, 0.0
73, 0.0
74, 0.0
75, 0.0
76, 0.0
77, 0.0
78, 0.0
79, 0.0
80, 0.0
81, 0.0
82, 0.0
83, 0.0
84, 0.0
85, 0.0
86, 0.0
87, 0.0
88, 0.0
89, 0.0
90, 0.0
91, 0.0
92, 0.0
93, 0.0
94, 0.0
95, 0.0
96, 0.0
97, 0.0
98, 0.0
99, 0.0
100, 0.0
101, 0.0
102, 0.0
103, 0.0
104, 0.0
105, 0.0
106, 0.0
107, 0.0
108, 0.0
109, 0.0
110, 0.0
111, 0.0
112, 0.0
113, 0.0
114, 0.0
115, 0.0
116, 0.0
117, 0.0
118, 0.0
119, 0.0
120, 0.0
121, 0.0
122, 0.0
123, 0.0
124, 0.0
125, 0.0
126, 0.0
127, 0.0
128, 0.0
129, 0.0
130, 0.0
131, 0.0
132, 0.0
133, 0.0
134, 0.0
135, 0.0
136.0, 0.02255798529369148
137.0, 0.04527555166697431
138.0, 0.06702716990835815
139.0, 0.09299290386812623
140.0, 0.09444963613628306
141.0, 0.0871363996240039
142.0, 0.07828650438735374
143.0, 0.05699665807427951
144.0, 0.03839986941859759
145.0, 0.023126459832654163
146.0, 0.012970770328689457
147.0, 0.00464011813818332
148.0, 0.001096575423658325
149.0, 0.0031385135779566876
150.0, 0.005881234700762013
151.0, 0.018670327394735096
152.0, 0.038782976096385036
153.0, 0.06490390394454983
154.0, 0.10398271479702491
155.0, 0.12741863805856607
156.0, 0.13518632447481493
157.0, 0.1432158049540865
158.0, 0.1398173328949545
159.0, 0.1302808415160443
160.0, 0.11667589857183343
161.0, 0.10465333176986408
162.0, 0.09143617275504097
163.0, 0.0770665481625829
164.0, 0.06144350340506073
165.0, 0.054203656296672856
166.0, 0.04692640847125494
167.0, 0.03833734220244536
168.0, 0.03790639180718162
169.0, 0.03874074468995712
170.0, 0.04005622637305868
171.0, 0.04118995192365185
172.0, 0.041813607853485715
173.0, 0.04458674061038713
174.0, 0.049156253565218785
175.0, 0.05368480179340666
176.0, 0.06156646796142066
177.0, 0.07118145156016706
178.0, 0.0819486634629459
179.0, 0.09061931257807335
180.0, 0.10474391592081847
181.0, 0.11823840938045332
182.0, 0.12174716601368094
183.0, 0.12711384851087187
184.0, 0.133834264849037
185.0, 0.14047393824021012
186.0, 0.13917949615868758
187.0, 0.13674979921965616
188.0, 0.13118383072212175
189.0, 0.12092549903874342
190.0, 0.11279849039354573
191.0, 0.10624797737298126
192.0, 0.10176311677471155
193.0, 0.10079799921011841
194.0, 0.09720352765714518
195.0, 0.09608376608937086
196.0, 0.0980090396501036
197.0, 0.09895532488169297
198.0, 0.09617953025914586
199.0, 0.09637378359023453
200.0, 0.1047777499040034
201.0, 0.10974187960817212
202.0, 0.11478976609206692
203.0, 0.11900799187202124
204.0, 0.11979474357581192
205.0, 0.12644549267806712
206.0, 0.1307922239482062
207.0, 0.12965856476688825
208.0, 0.11275001041425355
209.0, 0.09752316503019515
210.0, 0.07997823251195361
211.0, 0.05663225196569808
212.0, 0.03703585780770048
213.0, 0.025199723569422162
214.0, 0.019858305360221214
215.0, 0.01885973277821682
216.0, 0.01970707025813393
217.0, 0.025639054375044993
218.0, 0.035878632624588194
219.0, 0.03541616864162186
220.0, 0.039878997261150295
221.0, 0.04759073178639824
222.0, 0.057805056235400054
223.0, 0.059944722781803905
224.0, 0.046173838841607834
225.0, 0.026989330152196653
226.0, 0.02498119436324895
227.0, 0.02017308361562708
228.0, 0.0155823372546482
229.0, 0.011815593573917435
230.0, 0.008669827973745072
231.0, 0.004512647125791724
232.0, 0.00255176380879648
233.0, 0.005020605907071576
234.0, 0.00403522457781845
235.0, 0.0027987725097124855
236.0, 0.00274634066061652
237.0, 0.00662190290452618
238.0, 0.009786055556469622
239.0, 0.008355966808292677
240.0, 0.004075626730522988
241.0, 0.008834496656627087
242.0, 0.006942736768480237
243.0, 0.005303648367937904
244.0, 0.006961446402366901
245.0, 0.005615587904351111
246.0, 0.005081760851328761
247.0, 0.004522337747229907
248.0, 0.002881347860506538
249.0, 0.0018650828917807154
250.0, 0.0021202783222979975
251.0, 0.004131652816890868
252.0, 0.009547874931661357
253.0, 0.013011077916751237
254.0, 0.015675571475441304
255.0, 0.017970532887979774
256.0, 0.021083073169894755
257.0, 0.02265913803936971
258.0, 0.023870590664789304
259.0, 0.025579904768344448
260.0, 0.025058789625799705
261.0, 0.023639558007777447
262.0, 0.02116236851954698
263.0, 0.0170672306606418
264.0, 0.020037738687416373
265.0, 0.02040224630231074
266.0, 0.018743934897924065
267.0, 0.026020238461980073
268.0, 0.037809671459311175
269.0, 0.04514195221603961
270.0, 0.04455764958170534
271.0, 0.052057399983343744
272.0, 0.05535878112388493
273.0, 0.05451474089647659
274.0, 0.04892836974768187
275.0, 0.041194042076319555
276.0, 0.04266518480086748
277.0, 0.051215731441101184
278.0, 0.06132883326008167
279.0, 0.0726124700327584
280.0, 0.08420088135402011
281.0, 0.09491119063097962
282.0, 0.09877493391503166
283.0, 0.1010118847081448
284.0, 0.09680922498242502
285.0, 0.08360504214059089
286.0, 0.06871689512994654
287.0, 0.06226242391748412
288.0, 0.05723700801750503
289.0, 0.046271507494576834
290.0, 0.03990816882971565
291.0, 0.03479732258516813
292.0, 0.028899520711967046
293.0, 0.017760134282001745
294.0, 0.019606872003628505
295.0, 0.017086455784422444
296.0, 0.009243496154519745
297.0, 0.009026989507259216
298.0, 0.008611976618669933
299.0, 0.006879774345114897
300.0, 0.003632659697510905
301.0, 0.005173094961186524
302.0, 0.0035562296560788533
303.0, 0.0011798171445948692
304.0, 0.00010263505824950245
305.0, 0.002097505415448826
306.0, 0.0061752163348336
307.0, 0.009623080135967365
308.0, 0.007408691725897041
309.0, 0.011114129955066344
310.0, 0.010571331079249789
311.0, 0.008040571618009343
312.0, 0.01688577132889582
313.0, 0.012184466826305414
314.0, 0.010325519346202941
315.0, 0.015185385848621167
316.0, 0.01638264832090505
317.0, 0.014478714956131362
318.0, 0.013390351100694847
319.0, 0.015326460177656537
320.0, 0.012705669664757216
321.0, 0.014169457280033198
322.0, 0.01587378316968982
323.0, 0.01345542117446874
324.0, 0.017741966194362788
325.0, 0.016960235494226927
326.0, 0.015281669873615615
327.0, 0.02286285742104164
328.0, 0.025503565957418227
329.0, 0.027125866908783186
330.0, 0.028928037176359448
331.0, 0.03319036128204224
332.0, 0.036892667667369386
333.0, 0.03867180596175074
334.0, 0.03869657657202154
335.0, 0.04240790823730506
336.0, 0.045801105015272674
337.0, 0.048058555030836836
338.0, 0.0488875516242795
339.0, 0.05526689194815014
340.0, 0.05867843410456841
341.0, 0.06198254201023529
342.0, 0.06801571659359784
343.0, 0.06695333430328301
344.0, 0.06569284608361249
345.0, 0.06359155410765063
346.0, 0.059058381775857705
347.0, 0.056851349011878854
348.0, 0.05510809128880125
349.0, 0.05327168200541536
350.0, 0.0503441011686663
351.0, 0.048988944029478156
352.0, 0.047287025738554665
353.0, 0.04508304398361539
354.0, 0.043733919504404306
355.0, 0.0419255256116332
356.0, 0.03995476596080842
357.0, 0.03811097195895326
358.0, 0.03819256911119295
359.0, 0.03578378301874121
360.0, 0.03358478493393275
361.0, 0.03330864095798894
362.0, 0.036654983569507985
363.0, 0.03016320240193289
364.0, 0.02274382737601313
365.0, 0.022952920552076386
366.0, 0.027661670663033783
367.0, 0.026025351516977883
368.0, 0.021734241308078654
369.0, 0.020523273811145944
370.0, 0.018155433360625597
371.0, 0.019445727297133883
372.0, 0.02093383986139054
373.0, 0.013735900745913902
374.0, 0.013873108034019803
375.0, 0.016914547939369907
376.0, 0.019455322935685016
377.0, 0.012001958087223421
378.0, 0.01664316469745847
379.0, 0.016314010465512847
380.0, 0.009545626938679273
381.0, 0.012766860261702807
382.0, 0.014906146522019707
383.0, 0.015278717353561556
384.0, 0.013586314321260059
385.0, 0.010168630127500095
386.0, 0.012572630413764765
387.0, 0.015890130068581542
388.0, 0.017114690451063955
389.0, 0.010571313088026535
390.0, 0.01317145760746047
391.0, 0.017629245779166774
392.0, 0.01837446340727074
393.0, 0.02091461526548441
394.0, 0.020741558640571436
395.0, 0.02083791792406969
396.0, 0.02454609763356624
397.0, 0.029198812329727073
398.0, 0.02653048971306357
399.0, 0.022977401542555148
400.0, 0.02863068755728218
401.0, 0.021410136353183822
402.0, 0.020264322346926187
403.0, 0.024349319603770854
404.0, 0.029451726121946735
405.0, 0.03341817606042187
406.0, 0.02996659950558895
407.0, 0.02259804414365752
408.0, 0.02257344954575975
409.0, 0.0227825441722367
410.0, 0.022790918272495443
411.0, 0.02265040850636408
412.0, 0.022821922327907744
413.0, 0.021814470149350836
414.0, 0.02129047018337566
415.0, 0.021007234640816042
416.0, 0.01787426065244497
417.0, 0.014577251797516844
418.0, 0.011949093876089214
419.0, 0.010462498281359842
420.0, 0.011304809164628999
421.0, 0.015016449604300557
422.0, 0.017656209489572552
423.0, 0.018934323489256957
424.0, 0.030119748922657612
425.0, 0.03687653839785299
426.0, 0.04035606705804825
427.0, 0.04205853183537711
428.0, 0.05427036048797573
429.0, 0.06434458679856112
430.0, 0.07131658294041929
431.0, 0.07501839362488871
432.0, 0.08509733687287761
433.0, 0.09286446662531814
434.0, 0.09620685089743464
435.0, 0.09368990525899129
436.0, 0.09271423976030758
437.0, 0.08364369917015567
438.0, 0.0755043817316008
439.0, 0.07560380186750151
440.0, 0.06512148069250388
441.0, 0.05765461668710231
442.0, 0.054772008640387546
443.0, 0.05809422987506852
444.0, 0.055617957060249315
445.0, 0.056013031314299126
446.0, 0.057851903366805686
447.0, 0.05956822007298783
448.0, 0.05736166588765632
449.0, 0.05205772827498606
450.0, 0.0490677784499515
451.0, 0.05506013130168178
452.0, 0.061964293167467877
453.0, 0.056715567311241465
454.0, 0.043488415252782325
455.0, 0.028082456350235454
456.0, 0.029682026738325797
457.0, 0.027903961966981815
458.0, 0.024403469543395576
459.0, 0.022794682652351936
460.0, 0.019501984418758292
461.0, 0.01582552546096727
462.0, 0.012568163146200417
463.0, 0.0108743165160768
464.0, 0.014611823025892746
465.0, 0.01426562618783446
466.0, 0.012442161757399364
467.0, 0.014199628266090501
468.0, 0.009677715586461475
469.0, 0.006126880203864821
470.0, 0.005176613248512519
471.0, 0.00882325821824809
472.0, 0.00647377056380134
473.0, 0.007910078596572763
474.0, 0.008886170356052511
475.0, 0.0010734802093393054
476.0, 0.005487179492270547
477.0, 0.010316640427256078
478.0, 0.014657057816041116
479.0, 0.018448599475168817
480.0, 0.01041399845729387
481.0, 0.008351078456861321
482.0, 0.009738128744143943
483.0, 0.00839744832966411
484.0, 0.006414197474501799
485.0, 0.005984189792721761
486.0, 0.007216541916726511
487.0, 0.010096308076961418
488.0, 0.009909347756038953
489.0, 0.013955808924392715
490.0, 0.017013932328326528
491.0, 0.010296485700899914
492.0, 0.017621360972789508
493.0, 0.018449546915795954
494.0, 0.015027660929022222
495.0, 0.0121796880762017
496.0, 0.016577087458271706
497.0, 0.01709453389821573
498.0, 0.01705094547514748
499.0, 0.021601244753113508
500.0, 0.02548931724866693
501.0, 0.02859815008511955
502.0, 0.030275096732295698
503.0, 0.02971094826998238
504.0, 0.025676332966251502
505.0, 0.031936998633658994
506.0, 0.040442900345944874
507.0, 0.041975053433853146
508.0, 0.0378607858299602
509.0, 0.038448020118645676
510.0, 0.0427209013325284
511.0, 0.04953908424354056
512.0, 0.05561986123097287
513.0, 0.059258929469292544
514.0, 0.06496207053991218
515.0, 0.07622592344608221
516.0, 0.07692580215339424
517.0, 0.0878301768323688
518.0, 0.10090341731302127
519.0, 0.11054336679422838
520.0, 0.12583222425733204
521.0, 0.1410180052374006
522.0, 0.15778658703624904
523.0, 0.17806563166426012
524.0, 0.21232390902789194
525.0, 0.250207433721092
526.0, 0.29182432387192453
527.0, 0.3395936825019897
528.0, 0.41456440951620305
529.0, 0.49889064750615614
530.0, 0.5956355439244688
531.0, 0.7030456275294653
532.0, 0.7990456145923687
533.0, 0.897950505233074
534.0, 0.9683600081506405
535.0, 0.9924791345414066
536.0, 0.9395152932837256
537.0, 0.8409076470226627
538.0, 0.7270432018330559
539.0, 0.610785746493556
540.0, 0.5082588588551087
541.0, 0.41704609247702573
542.0, 0.34200375119556414
543.0, 0.28083119461957007
544.0, 0.2237246001172652
545.0, 0.2006859373341957
546.0, 0.17965216931301503
547.0, 0.15803905361565584
548.0, 0.1415476933248173
549.0, 0.12138408050764113
550.0, 0.1025160769588624
551.0, 0.08907023787053017
552.0, 0.08730250127342143
553.0, 0.08250208024304213
554.0, 0.07239042012517005
555.0, 0.06345868392844055
556.0, 0.06429116530225623
557.0, 0.061708387808650504
558.0, 0.057465307323167555
559.0, 0.054259217316613234
560.0, 0.054398361022773206
561.0, 0.044942341305834355
562.0, 0.0463008808722026
563.0, 0.04715737805625967
564.0, 0.039908259034704005
565.0, 0.03468011809064919
566.0, 0.048466546547075
567.0, 0.05071668231558035
568.0, 0.031111841735018957
569.0, 0.03496300634740029
570.0, 0.03542283364037838
571.0, 0.031007350577236272
572.0, 0.024431825429628417
573.0, 0.031280679495897544
574.0, 0.028802001460099813
575.0, 0.024103964034464707
576.0, 0.02119598163256529
577.0, 0.026893144967482786
578.0, 0.017090504010902136
579.0, 0.01425178102291076
580.0, 0.019319344963301597
581.0, 0.026662799532975068
582.0, 0.0199237849210758
583.0, 0.015001386927443213
584.0, 0.012274161504809542
585.0, 0.010264024225002034
586.0, 0.011957611530854848
587.0, 0.011852117697228897
588.0, 0.0124653098462285
589.0, 0.0162221530534565
590.0, 0.01628576443390719
591.0, 0.011599580439898153
592.0, 0.006272315789305655
593.0, 0.0036538359227656788
594.0, 0.009592040759747776
595.0, 0.014649054910449063
596.0, 0.016383082290371418
597.0, 0.013229843527456861
598.0, 0.002624218539838228
599.0, 0.00539209911810153
600.0, 0.009791961258187052
601.0, 0.015388230925882204
602.0, 0.03087825451536505
603.0, 0.01565343198216873
604.0, 0.01194272555693787
605.0, 0.015985436155141135
606.0, 0.007812541093026985
607.0, 0.002640857027339423
608.0, 0.0016527386171479724
609.0, 0.004636808588009262
610.0, 0.011077332444129218
611.0, 0.005935226034271962
612.0, 0.0036962631243349295
613.0, 0.004963151976567775
614.0, 0.009140832332523496
615.0, 0.003480800315583717
616.0, 0.001832132899055105
617.0, 0.0017197692785280603
618.0, 0.0017406492220203838
619.0, 0.0006980257278996265
620.0, 0.006838598516529446
621.0, 0.009223468705780315
622.0, 0.009515819779864602
623.0, 0.02196651954407451
624.0, 0.030408224982587953
625.0, 0.021096606089099166
626.0, 0.006761660885299551
627.0, 0.01286599026015396
628.0, 0.03680524926135306
629.0, 0.023261324628770057
630.0, 0.0038123521877410768
631.0, 0.012794272517870844
632.0, 0.013414482710058033
633.0, 0.006876620336905352
634.0, 0.0018947850609851197
635.0, 0.0028616792950569704
636.0, 0.0018886038979982827
637.0, 0.002441735982146487
638.0, 0.003784823607662661
639.0, 0.004718630678850551
640.0, 0.0018600183426525489
641.0, 0.005693440003345087
642.0, 0.008262312824008156
643.0, 0.007248993402143704
644.0, 0.0009133468294734988
645.0, 0.0015485400574001033
646.0, 0.004979678239716008
647.0, 0.010134275280207668
648.0, 0.015734983591934364
649.0, 0.011101390658404788
650.0, 0.007649054417706237
651.0, 0.004447187610619004
652.0, 0.0029586498840959274
653.0, 0.01765374238000412
654.0, 0.010313461453463527
655.0, 0.00704768695640868
656.0, 0.011009260811963503
657.0, 0.005375313916736027
658.0, 0.0070136859852000496
659.0, 0.012551916664812292
660.0, 0.017881062556579088
661.0, 0.017120951710453563
662.0, 0.009319502993603603
663.0, 0.009710530020236021
664.0, 0.012092027461654104
665.0, 0.010950770318117259
666.0, 0.013735243580987934
667.0, 0.01693857598221158
668.0, 0.017045871717077395
669.0, 0.015095984870650496
670.0, 0.023681011058785215
671.0, 0.0227675385382883
672.0, 0.018863260634830525
673.0, 0.018210632240993587
674.0, 0.031217662210067984
675.0, 0.02185315502603273
676.0, 0.01612075386058597
677.0, 0.0161497849842853
678.0, 0.02153448425636199
679.0, 0.017534160847329772
680.0, 0.016233016825424735
681.0, 0.014483825189257359
682.0, 0.012263842002534601
683.0, 0.020233531894201844
684.0, 0.020570996001620653
685.0, 0.02039564862438955
686.0, 0.020678588991608092
687.0, 0.019057247131332705
688.0, 0.018497342446287125
689.0, 0.02222117909331808
690.0, 0.027659409047391503
691.0, 0.03129295806301555
692.0, 0.03286782521035638
693.0, 0.02186380035137595
694.0, 0.021135753369352223
695.0, 0.03705360089345366
696.0, 0.024608467025682954
697.0, 0.031971720190129456
698.0, 0.03553490226348958
699.0, 0.03223144125829939
700.0, 0.030296143625405596
701.0, 0.04253185262583151
702.0, 0.04537262347910021
703.0, 0.04143086667352086
704.0, 0.036998696201160565
705.0, 0.05329662254463724
706.0, 0.0631651784717523
707.0, 0.06390221093527057
708.0, 0.055582402829278496
709.0, 0.04533086767865277
710.0, 0.04966629589786282
711.0, 0.045020200660830685
712.0, 0.03644972993070973
713.0, 0.04538055784439909
714.0, 0.031050740835649057
715.0, 0.03258009198496063
716.0, 0.03365156182984835
717.0, 0.01977360543583468
718.0, 0.03103206878407859
719.0, 0.04732279995957159
720.0, 0.04742289717282899
721.0, 0.030240988805610262
722.0, 0.02445434872813803
723.0, 0.02507697601993048
724.0, 0.0234231477452356
725.0, 0.020179406553425466
726.0, 0.018426952516143003
727.0, 0.023748978413697587
728.0, 0.019966635467774177
729.0, 0.019786521128533924
730.0, 0.029799892203340027
731.0, 0.03536285069361144
732.0, 0.02801847059612324
733.0, 0.022509721568509663
734.0, 0.020368713707301075
735.0, 0.015645312150074923
736.0, 0.02144866522141235
737.0, 0.02383562876258208
738.0, 0.022379926790478188
739.0, 0.01889998648273257
740.0, 0.029315282358219466
741.0, 0.02100571314401547
742.0, 0.014754079723772169
743.0, 0.017275845938849052
744.0, 0.02162709489404336
745.0, 0.026023114613726292
746.0, 0.02559449536420911
747.0, 0.02177501810504375
748.0, 0.0177858020819534
749.0, 0.028378508728701214
750.0, 0.03297807187390513
751.0, 0.035901300268339535
752.0, 0.037976890438185015
753.0, 0.031027164542664798
754.0, 0.0369717518741844
755.0, 0.0360765352381688
756.0, 0.029986294264899956
757.0, 0.028258578798108662
758.0, 0.039642548743185485
759.0, 0.034462947189130726
760.0, 0.029141477543141323
761.0, 0.03308197966776023
762.0, 0.028960774106412773
763.0, 0.03236060306751739
764.0, 0.02836652824512622
765.0, 0.019817462937035242
766.0, 0.020247886253740535
767.0, 0.02671130479857737
768.0, 0.016956184315756493
769.0, 0.0089419225798236
770.0, 0.015912007745761837
771.0, 0.020023096935667964
772.0, 0.011750965725591225
773.0, 0.011975625424640375
774.0, 0.016640009884445882
775.0, 0.0023641119528786895
776.0, 0.010466104269503174
777.0, 0.01503281274930095
778.0, 0.018907794797091256
779.0, 0.02390696872081372
780.0, 0.011681200997392437
781.0, 0.00907200833997469
782.0, 0.010240614364278559
783.0, 0.010537519838669606
784.0, 0.0035333360901461585
785.0, 0.002346674489054085
786.0, 0.005539969774302965
787.0, 0.006877420246118303
788.0, 0.0024052761634882226
789.0, 0.005450409664580639
790.0, 0.005200179327530069
791.0, 0.0033017547499407662
792.0, 0.002864502774279879
793.0, 0.009687173419111074
794.0, 0.0033681228882013665
795.0, 0.002027988164502044
796.0, 0.005347776808322853
797.0, 0.010866256932732035
798.0, 0.009376204464643942
799.0, 0.004153473055786149
800.0, 0.001886157116562324
801.0, 0.003761468835432219
802.0, 0.008098640822813833
803.0, 0.007902958238031343
804.0, 0.012058423725597235
805.0, 0.015475019044169125
806.0, 0.014490484953779395
807.0, 0.011999396872330065
808.0, 0.004187266641328978
809.0, 0.006171140947592928
810.0, 0.011758633278935931
811.0, 0.0038814957020887227
812.0, 0.0033128221151390107
813.0, 0.0019588141872182163
814.0, 0.0013707458084821406
815.0, 0.002794264360961897
816.0, 0.007309767060883451
817.0, 0.002917117416621913
818.0, 0.0017568934217048096
819.0, 0.004910712055343146
820.0, 0.010185354017422044
821.0, 0.003492223802015687
822.0, 0.002155249562818172
823.0, 0.0037130327425390214
824.0, 0.005604227794970041
825.0, 0.003582541445565532
826.0, 0.004447315578607432
827.0, 0.005439188603967927
828.0, 0.004927344494715882
829.0, 0.002378786924544842
830.0, 0.007350790884049775
831.0, 0.007501237949710351
832.0, 0.007546850171248837
833.0, 0.008510668623732823
834.0, 0.00889191218533387
835.0, 0.008811292922642766
836.0, 0.006938145618504916
837.0, 0.006570808363525052
838.0, 0.008740075639289444
839.0, 0.004301140058545464
840.0, 0.002215110376605705
841.0, 0.0031418800234037352
842.0, 0.005326546369575678
843.0, 0.0058523357838700515
844.0, 0.0060988229467098766
845.0, 0.009312996984736475
846.0, 0.008031120862022033
847.0, 0.0035241337751898477
848.0, 0.012695240920084377
849.0, 0.004129201697636829
850.0, 0.003600829526131178
851.0, 0.008547142995385584
852.0, 0.012330475869781043
853.0, 0.005276616842106317
854.0, 0.006552725752051397
855.0, 0.00934891531129705
856.0, 0.01209093386535671
857.0, 0.015711921384399818
858.0, 0.01751821943728729
859.0, 0.008735442582987779
860.0, 0.006358702781520752
861.0, 0.014835740579886708
862.0, 0.008788510394228406
863.0, 0.0043207192876207855
864.0, 0.011930483581108145
865.0, 0.017296423142828504
866.0, 0.0050485324132503295
867.0, 0.002509627607568895
868.0, 0.013218226507139049
869.0, 0.018286606685683653
870.0, 0.013909346683630421
871.0, 0.005703837864767869
872.0, 0.008195189386534095
873.0, 0.010807612833319425
874.0, 0.012165052788781314
875.0, 0.011920965002342384
876.0, 0.011524039166932598
877.0, 0.013826657245040577
878.0, 0.015222275780103536
879.0, 0.016331831687129966
880.0, 0.01807355330871932
881.0, 0.017036837861922536
882.0, 0.015335725774097305
883.0, 0.015686652946495936
884.0, 0.01600199965441937
885.0, 0.010988782242861626
886.0, 0.014536567286235287
887.0, 0.01416656233566287
888.0, 0.015143341063042264
889.0, 0.018411152942327272
890.0, 0.016917924075170804
891.0, 0.0121438630902551
892.0, 0.013719461333257727
893.0, 0.014272943805777618
894.0, 0.008439275964151734
895.0, 0.012343069448669055
896.0, 0.01112463975669637
897.0, 0.008438801588728782
898.0, 0.009975442253539336
899.0, 0.02125575350944409
900.0, 0.013111958041242138
901.0, 0.015351048582322169
902.0, 0.016386199886412912
903.0, 0.015020538131641725
904.0, 0.019982777483779652
905.0, 0.01272028138518094
906.0, 0.01303964881732736
907.0, 0.018136297661066055
908.0, 0.023313426622137798
909.0, 0.020067395345310775
910.0, 0.015005836808205282
911.0, 0.008722654954142045
912.0, 0.00965833079016889
913.0, 0.022186505573241345
914.0, 0.017286332616955034
915.0, 0.026048339281720893
916.0, 0.026188021571392398
917.0, 0.018119018628958372
918.0, 0.011610386446776484
919.0, 0.02029881566041319
920.0, 0.022349577304655883
921.0, 0.023633111885199197
922.0, 0.02544001082550489
923.0, 0.02531109313387017
924.0, 0.02482226201961049
925.0, 0.025760569664400046
926.0, 0.02605706230219329
927.0, 0.02584318930120227
928.0, 0.029859998004764104
929.0, 0.030728401639363728
930.0, 0.02988033183757887
931.0, 0.032104928053513754
932.0, 0.03800970463079603
933.0, 0.029874100067975428
934.0, 0.027940022967742433
935.0, 0.031853925861546714
936.0, 0.033242223338333314
937.0, 0.025757013042329566
938.0, 0.04033527796243502
939.0, 0.03032483838854488
940.0, 0.02469589581407432
941.0, 0.02737471309922809
942.0, 0.031163639535425863
943.0, 0.028905230160454792
944.0, 0.03175550018988781
945.0, 0.031696304380886546
946.0, 0.030144990287919057
947.0, 0.03665878093143183
948.0, 0.035861197190884694
949.0, 0.03156441059654204
950.0, 0.030806664814489633
951.0, 0.03464075742178155
952.0, 0.035330731706566754
953.0, 0.0320217227400401
954.0, 0.0308128268220619
955.0, 0.032024690989587455
956.0, 0.033008693793006035
957.0, 0.023976025102389775
958.0, 0.023612568760863956
959.0, 0.023126262938730657
960.0, 0.024195655173421565
961.0, 0.026770203625698076
962.0, 0.0183766783644118
963.0, 0.017676305366567547
964.0, 0.019379212686477097
965.0, 0.02168140034917022
966.0, 0.023579855875716715
967.0, 0.025326493530778683
968.0, 0.019409977477942007
969.0, 0.019263200009480244
970.0, 0.022599597097680686
971.0, 0.02193602582233096
972.0, 0.011611808840298637
973.0, 0.02257432175850063
974.0, 0.02741513728579311
975.0, 0.02350954084081095
976.0, 0.020346705362123782
977.0, 0.03638991687529116
978.0, 0.02625886750243682
979.0, 0.024571526881714385
980.0, 0.03292806550797572
981.0, 0.03202617313630961
982.0, 0.03045964202562595
983.0, 0.036863487077177126
984.0, 0.03209539578624928
985.0, 0.023516208910872437
986.0, 0.04199675815639926
987.0, 0.04816443250500659
988.0, 0.038679363475536584
989.0, 0.04093019356043194
990.0, 0.054398179515671385
991.0, 0.04702421026066538
992.0, 0.03794954456372155
993.0, 0.035926407517770924
994.0, 0.03876268762743827
995.0, 0.04219444760200855
996.0, 0.03904845633488521
997.0, 0.05020049951983985
998.0, 0.05464315521411271
999.0, 0.0475093737564956
1000.0, 0.039766699238840186
1001.0, 0.06812308955461271
1002.0, 0.05154507757448712
1003.0, 0.056699876040173104
1004.0, 0.06449395545002244
1005.0, 0.06291508658319003
1006.0, 0.05957559820000072
1007.0, 0.06913038491590036
1008.0, 0.06917995734305082
1009.0, 0.06764769234937397
1010.0, 0.06942410092597409
1011.0, 0.07002249536129868
1012.0, 0.06224265367811207
1013.0, 0.06556035646569594
1014.0, 0.06419725082195804
1015.0, 0.05242520644357937
1016.0, 0.04963635186981116
1017.0, 0.055461897648507674
1018.0, 0.05572640987141479
1019.0, 0.04957324153338144
1020.0, 0.042631241626564356
1021.0, 0.05225113540628421
1022.0, 0.05602837162489022
1023.0, 0.04452802925700059
1024.0, 0.043054739926488256
1025.0, 0.05707702677777322
1026.0, 0.0477789678920853
1027.0, 0.05213149889903007
1028.0, 0.05461152773928582
1029.0, 0.05735063490334217
1030.0, 0.06301974481307188
1031.0, 0.07333076315509451
1032.0, 0.07422441295354638
1033.0, 0.0732137884811406
1034.0, 0.07431177521959008
1035.0, 0.07697354810009861
1036.0, 0.07319934113500119
1037.0, 0.06755669417923127
1038.0, 0.06364641143491097
1039.0, 0.06683162884036142
1040.0, 0.07632491327118762
1041.0, 0.0822953379951199
1042.0, 0.08313352336609282
1043.0, 0.08687996347568004
1044.0, 0.08977956221768932
1045.0, 0.08992768693748193
1046.0, 0.08815504590039672
1047.0, 0.09252682481818283
1048.0, 0.08784727448056623
1049.0, 0.08595077374422058
1050.0, 0.08334901031321951
1051.0, 0.06102187729032513
1052.0, 0.0686733601741316
1053.0, 0.061924503472250966
1054.0, 0.05031223804258609
1055.0, 0.04284534326482774
1056.0, 0.04751977762555379
1057.0, 0.058638432742887575
1058.0, 0.05253831252300641
1059.0, 0.047257084419098046
1060.0, 0.04566916895798595
1061.0, 0.0416150059657379
1062.0, 0.036902477552019045
1063.0, 0.044053537051065954
1064.0, 0.04146425151251731
1065.0, 0.03464249797664399
1066.0, 0.03925768210364222
1067.0, 0.04743627815678475
1068.0, 0.04139102201506766
1069.0, 0.03396198152685115
1070.0, 0.029047915825866456
1071.0, 0.02824382807940211
1072.0, 0.03703445267628841
1073.0, 0.02802198288946315
1074.0, 0.026175403698191005
1075.0, 0.03219352407575903
1076.0, 0.03897958927143139
1077.0, 0.031201675312737313
1078.0, 0.03488778814584051
1079.0, 0.035363323700085575
1080.0, 0.03424605943438902
1081.0, 0.033402043955684
1082.0, 0.029735934348339647
1083.0, 0.034222707156076344
1084.0, 0.03494781551252531
1085.0, 0.032791545918772265
1086.0, 0.03082674057482874
1087.0, 0.03390072025066906
1088.0, 0.03172553242508684
1089.0, 0.03613220964067901
1090.0, 0.03644168724851565
1091.0, 0.031128600540224913
1092.0, 0.02805759539434778
1093.0, 0.034134079645171254
1094.0, 0.03153472262306382
1095.0, 0.03093739258171815
1096.0, 0.03384357688540709
1097.0, 0.03631966925461932
1098.0, 0.03567782644008279
1099.0, 0.04243136204220736
1100.0, 0.04514687895586257
1101.0, 0.04298351056699774
1102.0, 0.0399162609943566
1103.0, 0.045185007527701826
1104.0, 0.03563466366309049
1105.0, 0.03696272014756052
1106.0, 0.036082792654250836
1107.0, 0.024794137194583607
1108.0, 0.027063774545806947
1109.0, 0.015635853905294612
1110.0, 0.02409453680519282
1111.0, 0.030711795079921424
1112.0, 0.02223514070404861
1113.0, 0.004619447859362434
1114.0, 0.01771372840335509
1115.0, 0.02213522360842673
1116.0, 0.01886148236129174
1117.0, 0.014529605602692619
1118.0, 0.018436571210887955
1119.0, 0.01966424685145002
1120.0, 0.00978443750086323
1121.0, 0.008945062192315178
1122.0, 0.01197820759207167
1123.0, 0.007612506381933375
1124.0, 0.009919482508997877
1125.0, 0.011490614036179401
1126.0, 0.008421052930693269
1127.0, 0.010955722343029837
1128.0, 0.019584729883940437
1129.0, 0.0031945787423628743
1130.0, 0.017205053642983317
1131.0, 0.018925855839539634
1132.0, 0.0120215388788574
1133.0, 0.004360085643107217
1134.0, 0.0042267437711018254
1135.0, 0.010653278015337067
1136.0, 0.01447586587546911
1137.0, 0.011269827419639394
1138.0, 0.008844589321196996
1139.0, 0.017064536055381607
1140.0, 0.003084399193779683
1141.0, 0.0006577703261651617
1142.0, 0.0005602559651852083
1143.0, 0.0035007107248831767
1144.0, 0.008757831337524153
1145.0, 0.0030869536420767515
1146.0, 0.004105805822057998
1147.0, 0.0023685987045761773
1148.0, 0.004019321623861749
1149.0, 0.009209515263331441
1150.0, 0.00825215053492382
1151.0, 0.003733429310038772
1152.0, 0.009421142402796744
1153.0, 0.012280675757779864
1154.0, 0.01062517465342003
1155.0, 0.009981616113329254
1156.0, 0.014869402134759072
1157.0, 0.008438798395771205
1158.0, 0.00284153248861214
1159.0, 0.0020144970097895304
1160.0, 0.005725412805648513
1161.0, 0.008335357749247235
1162.0, 0.003741529296161234
1163.0, 0.0072414502051624495
1164.0, 0.008849638766797204
1165.0, 0.006923687303720324
1166.0, 0.010534218245525225
1167.0, 0.010131916780954486
1168.0, 0.012866048639210967
1169.0, 0.010567349360658963
1170.0, 0.005876802304388142
1171.0, 0.004819787190079479
1172.0, 0.005340827099772331
1173.0, 0.00839256856738612
1174.0, 0.011568491177793334
1175.0, 0.013605667388285099
1176.0, 0.013553151057437967
1177.0, 0.010754859690858175
1178.0, 0.011136613398013485
1179.0, 0.010660702244667562
1180.0, 0.006633173115633198
1181.0, 0.003328865794867999
1182.0, 0.008454370767610077
1183.0, 0.02106504700648145
1184.0, 0.012598402172338574
1185.0, 0.004507067960890558
1186.0, 0.007032170590996095
1187.0, 0.0176008909999175
1188.0, 0.010814349908906017
1189.0, 0.005257482466182462
1190.0, 0.00353934194523583
1191.0, 0.005700707323032632
1192.0, 0.010652931610501048
1193.0, 0.015694933551939943
1194.0, 0.008611197385549708
1195.0, 0.012445189250001406
1196.0, 0.011813648292432562
1197.0, 0.013564271789522936
1198.0, 0.021445980147561144
1199.0, 0.01321559182289245
1200.0, 0.021469511255492155
1201.0, 0.01652171804286006
1202.0, 0.020028447591694535
1203.0, 0.02639645748926909
1204.0, 0.008845268030329988
1205.0, 0.021628999240489423
1206.0, 0.019376881767871522
1207.0, 0.02124103945167182
1208.0, 0.018093542852192505
1209.0, 0.005877696482576638
1210.0, 0.01674039937443634
1211.0, 0.01653358043119857
1212.0, 0.013719561779643723
1213.0, 0.01218804042706355
1214.0, 0.013342113298641598
1215.0, 0.015962457086911748
1216.0, 0.013981186742880005
1217.0, 0.018167357130747158
1218.0, 0.022413017198723774
1219.0, 0.018246146959163982
1220.0, 0.007352151686164045
1221.0, 0.014868007977292725
1222.0, 0.017123405583118544
1223.0, 0.018175786283796153
1224.0, 0.020066476445749406
1225.0, 0.01979563828888711
1226.0, 0.01396847119874424
1227.0, 0.02069385438021933
1228.0, 0.016065006330865543
1229.0, 0.016832321707706776
1230.0, 0.021354210447465424
1231.0, 0.0229303255497421
1232.0, 0.013618036695978915
1233.0, 0.013940269003639908
1234.0, 0.015228854126217023
1235.0, 0.013570215871853952
1236.0, 0.008296523810578115
1237.0, 0.004498759467757777
1238.0, 0.024052364834039986
1239.0, 0.014226095614068767
1240.0, 0.0184292498824185
1241.0, 0.02385727305087511
1242.0, 0.021881064622755374
1243.0, 0.016389024024392785
1244.0, 0.009626208015378739
1245.0, 0.026180525161416994
1246.0, 0.029565647860341757
1247.0, 0.024320038985374128
1248.0, 0.019065535691521546
1249.0, 0.00047555489077754157
1250.0, 0.013621814384526037
1251.0, 0.011899505511588212
1252.0, 0.008413385655808299
1253.0, 0.013642643375467497
1254.0, 0.027581318790636956
1255.0, 0.013962964584933561
1256.0, 0.0033303115569419056
1257.0, 0.0011635144886678454
1258.0, 0.008839363494298393
1259.0, 0.01939440958974216
1260.0, 0.018087179257501185
1261.0, 0.005246719900989905
1262.0, 0.00901613431428004
1263.0, 0.00778690381253969
1264.0, 0.006987111311059837
1265.0, 0.01372419987333705
1266.0, 0.01760366983061161
1267.0, 0.01810718459823046
1268.0, 0.011615488939951917
1269.0, 0.012735278363647257
1270.0, 0.013534729128248341
1271.0, 0.002018104973695073
1272.0, 0.012901221176880041
1273.0, 0.011743390077297688
1274.0, 0.014980253992539428
1275.0, 0.01824011906508294
1276.0, 0.01527957515630389
1277.0, 0.003557198753567389
1278.0, 0.006279049225477052
1279.0, 0.012470559097547481
1280.0, 0.012028076128961703
1281.0, 0.01151218776637488
1282.0, 0.013579100498358402
1283.0, 0.008317975129097712
1284.0, 0.010573871138032796
1285.0, 0.012070581874381195
1286.0, 0.010337626268396592
1287.0, 0.006763195631258396
1288.0, 0.004015560070630274
1289.0, 0.003604870067062862
1290.0, 0.0009040840173471568
1291.0, 0.0136859023914931
1292.0, 0.01488060945178076
1293.0, 0.009498503799617341
1294.0, 0.01585552538450708
1295.0, 0.014452098700354703
1296.0, 0.010487096095149407
1297.0, 0.003990364153851825
1298.0, 0.0036385370154015445
1299.0, 0.008035535959751058
1300.0, 0.007955527979861947
1301.0, 0.010043039630018478
1302.0, 0.003072789089008018
1303.0, 0.00020676553617585966
1304, 0.0
1305, 0.0
1306, 0.0
1307, 0.0
1308, 0.0
1309, 0.0
1310, 0.0
1311, 0.0
1312, 0.0
1313, 0.0
1314, 0.0
1315, 0.0
1316, 0.0
1317, 0.0
1318, 0.0
1319, 0.0
1320, 0.0
1321, 0.0
1322, 0.0
1323, 0.0
1324, 0.0
1325, 0.0
1326, 0.0
1327, 0.0
1328, 0.0
1329, 0.0
1330, 0.0
1331, 0.0
1332, 0.0
1333, 0.0
1334, 0.0
1335, 0.0
1336, 0.0
1337, 0.0
1338, 0.0
1339, 0.0
1340, 0.0
1341, 0.0
1342, 0.0
1343, 0.0
1344, 0.0
1345, 0.0
1346, 0.0
1347, 0.0
1348, 0.0
1349, 0.0
1350, 0.0
1351, 0.0
1352, 0.0
1353, 0.0
1354, 0.0
1355, 0.0
1356, 0.0
1357, 0.0
1358, 0.0
1359, 0.0
1360, 0.0
1361, 0.0
1362, 0.0
1363, 0.0
1364, 0.0
1365, 0.0
1366, 0.0
1367, 0.0
1368, 0.0
1369, 0.0
1370, 0.0
1371, 0.0
1372, 0.0
1373, 0.0
1374, 0.0
1375, 0.0
1376, 0.0
1377, 0.0
1378, 0.0
1379, 0.0
1380, 0.0
1381, 0.0
1382, 0.0
1383, 0.0
1384, 0.0
1385, 0.0
1386, 0.0
1387, 0.0
1388, 0.0
1389, 0.0
1390, 0.0
1391, 0.0
1392, 0.0
1393, 0.0
1394, 0.0
1395, 0.0
1396, 0.0
1397, 0.0
1398, 0.0
1399, 0.0
1400, 0.0
1401, 0.0
1402, 0.0
1403, 0.0
1404, 0.0
1405, 0.0
1406, 0.0
1407, 0.0
1408, 0.0
1409, 0.0
1410, 0.0
1411, 0.0
1412, 0.0
1413, 0.0
1414, 0.0
1415, 0.0
1416, 0.0
1417, 0.0
1418, 0.0
1419, 0.0
1420, 0.0
1421, 0.0
1422, 0.0
1423, 0.0
1424, 0.0
1425, 0.0
1426, 0.0
1427, 0.0
1428, 0.0
1429, 0.0
1430, 0.0
1431, 0.0
1432, 0.0
1433, 0.0
1434, 0.0
1435, 0.0
1436, 0.0
1437, 0.0
1438, 0.0
1439, 0.0
1440, 0.0
1441, 0.0
1442, 0.0
1443, 0.0
1444, 0.0
1445, 0.0
1446, 0.0
1447, 0.0
1448, 0.0
1449, 0.0
1450, 0.0
1451, 0.0
1452, 0.0
1453, 0.0
1454, 0.0
1455, 0.0
1456, 0.0
1457, 0.0
1458, 0.0
1459, 0.0
1460, 0.0
1461, 0.0
1462, 0.0
1463, 0.0
1464, 0.0
1465, 0.0
1466, 0.0
1467, 0.0
1468, 0.0
1469, 0.0
1470, 0.0
1471, 0.0
1472, 0.0
1473, 0.0
1474, 0.0
1475, 0.0
1476, 0.0
1477, 0.0
1478, 0.0
1479, 0.0
1480, 0.0
1481, 0.0
1482, 0.0
1483, 0.0
1484, 0.0
1485, 0.0
1486, 0.0
1487, 0.0
1488, 0.0
1489, 0.0
1490, 0.0
1491, 0.0
1492, 0.0
1493, 0.0
1494, 0.0
1495, 0.0
1496, 0.0
1497, 0.0
1498, 0.0
1499, 0.0
1500, 0.0
1501, 0.0
1502, 0.0
1503, 0.0
1504, 0.0
1505, 0.0
1506, 0.0
1507, 0.0
1508, 0.0
1509, 0.0
1510, 0.0
1511, 0.0
1512, 0.0
1513, 0.0
1514, 0.0
1515, 0.0
1516, 0.0
1517, 0.0
1518, 0.0
1519, 0.0
1520, 0.0
1521, 0.0
1522, 0.0
1523, 0.0
1524, 0.0
1525, 0.0
1526, 0.0
1527, 0.0
1528, 0.0
1529, 0.0
1530, 0.0
1531, 0.0
1532, 0.0
1533, 0.0
1534, 0.0
1535, 0.0
1536, 0.0
1537, 0.0
1538, 0.0
1539, 0.0
1540, 0.0
1541, 0.0
1542, 0.0
1543, 0.0
1544, 0.0
1545, 0.0
1546, 0.0
1547, 0.0
1548, 0.0
1549, 0.0
1550, 0.0
1551, 0.0
1552, 0.0
1553, 0.0
1554, 0.0
1555, 0.0
1556, 0.0
1557, 0.0
1558, 0.0
1559, 0.0
1560, 0.0
1561, 0.0
1562, 0.0
1563, 0.0
1564, 0.0
1565, 0.0
1566, 0.0
1567, 0.0
1568, 0.0
1569, 0.0
1570, 0.0
1571, 0.0
1572, 0.0
1573, 0.0
1574, 0.0
1575, 0.0
1576, 0.0
1577, 0.0
1578, 0.0
1579, 0.0
1580, 0.0
1581, 0.0
1582, 0.0
1583, 0.0
1584, 0.0
1585, 0.0
1586, 0.0
1587, 0.0
1588, 0.0
1589, 0.0
1590, 0.0
1591, 0.0
1592, 0.0
1593, 0.0
1594, 0.0
1595, 0.0
1596, 0.0
1597, 0.0
1598, 0.0
1599, 0.0
