30, 0.0
31, 0.0
32, 0.0
33, 0.0
34, 0.0
35, 0.0
36, 0.0
37, 0.0
38, 0.0
39, 0.0
40, 0.0
41, 0.0
42, 0.0
43, 0.0
44, 0.0
45, 0.0
46, 0.0
47, 0.0
48, 0.0
49, 0.0
50, 0.0
51, 0.0
52, 0.0
53, 0.0
54, 0.0
55, 0.0
56, 0.0
57, 0.0
58, 0.0
59, 0.0
60, 0.0
61, 0.0
62, 0.0
63, 0.0
64, 0.0
65, 0.0
66, 0.0
67, 0.0
68, 0.0
69, 0.0
70, 0.0
71, 0.0
72, 0.0
73, 0.0
74, 0.0
75, 0.0
76, 0.0
77, 0.0
78, 0.0
79, 0.0
80.0, 0.0009736959713393368
81.0, 0.002146096285620471
82.0, 0.0008685856682021618
83.0, 0.002628969432991233
84.0, 0.0056627873287774634
85.0, 0.00937511195065064
86.0, 0.01635305037193932
87.0, 0.024369756444221416
88.0, 0.03386933004656077
89.0, 0.04652471633968153
90.0, 0.05987087531320496
91.0, 0.07375088425482369
92.0, 0.08803292605568366
93.0, 0.09601966862894458
94.0, 0.09999161558354673
95.0, 0.10233441572553519
96.0, 0.1072583928890349
97.0, 0.10815335205949012
98.0, 0.10927180513840844
99.0, 0.11142430555557037
100.0, 0.10993291186264054
101.0, 0.1116892692200203
102.0, 0.11600626948635752
103.0, 0.12274749816051046
104.0, 0.13652175058174418
105.0, 0.15523116914568183
106.0, 0.17822389661930624
107.0, 0.20203790945188038
108.0, 0.23155309994918813
109.0, 0.2577043843560623
110.0, 0.2708691893092054
111.0, 0.2544767812536288
112.0, 0.22159150357078633
113.0, 0.17693633617967747
114.0, 0.13649541231856052
115.0, 0.10269734360114892
116.0, 0.07475661447867211
117.0, 0.05332021874690164
118.0, 0.03815205572706444
119.0, 0.027832533581524415
120.0, 0.021079459697228686
121.0, 0.01502074619807284
122.0, 0.011433037942283503
123.0, 0.011069658550152272
124.0, 0.014534761716533031
125.0, 0.02126604602458551
126.0, 0.02207334719072457
127.0, 0.019461112195336156
128.0, 0.016988971146151423
129.0, 0.019990930760853735
130.0, 0.021349391319189167
131.0, 0.019980485151643537
132.0, 0.02131105056933405
133.0, 0.019971322636342374
134.0, 0.021961993994298483
135.0, 0.034311379280211565
136.0, 0.046560484703856105
137.0, 0.06277371824555882
138.0, 0.08228159977791523
139.0, 0.10041852130810625
140.0, 0.11916769474567179
141.0, 0.13259651685238946
142.0, 0.13663172120161995
143.0, 0.12912230539567449
144.0, 0.11495153770860667
145.0, 0.0968902949132319
146.0, 0.08046694894495277
147.0, 0.07055735898252641
148.0, 0.0650511332360584
149.0, 0.06380599484310165
150.0, 0.06947770476421165
151.0, 0.07884364159562302
152.0, 0.09273589433619848
153.0, 0.11334783461703686
154.0, 0.13551748318772702
155.0, 0.16082138830909057
156.0, 0.1886747086187053
157.0, 0.21532455969543926
158.0, 0.23205809976121264
159.0, 0.24090208300963223
160.0, 0.2418509810056605
161.0, 0.22482276440717153
162.0, 0.204592875062065
163.0, 0.18246246858971935
164.0, 0.16048487489334357
165.0, 0.14045354941108082
166.0, 0.12286212013399618
167.0, 0.10815643848000453
168.0, 0.0987132971513561
169.0, 0.0899708228802164
170.0, 0.08451133286882052
171.0, 0.085634178143685
172.0, 0.08796472588792015
173.0, 0.0908346839985304
174.0, 0.09501170605773027
175.0, 0.10386313838503049
176.0, 0.11179076460755853
177.0, 0.12136787134958615
178.0, 0.13367158710125868
179.0, 0.14400960600926313
180.0, 0.15297735145006724
181.0, 0.1603998333827087
182.0, 0.16563033022805204
183.0, 0.17220769838980987
184.0, 0.17236644309445787
185.0, 0.1655738755764227
186.0, 0.15509291986198678
187.0, 0.14022137505546353
188.0, 0.12313252175939844
189.0, 0.10477351545273075
190.0, 0.08708735641778757
191.0, 0.07091243425963835
192.0, 0.05682020451881908
193.0, 0.0464131326140881
194.0, 0.03763583917230717
195.0, 0.03138029329273698
196.0, 0.02742827725805629
197.0, 0.02229869775928107
198.0, 0.022391909522423342
199.0, 0.023785628632262863
200.0, 0.023904291656180764
201.0, 0.025762166790921352
202.0, 0.026720217888558287
203.0, 0.02782568564064032
204.0, 0.03178386942055171
205.0, 0.03181017321681441
206.0, 0.03196812794446909
207.0, 0.03287413855735096
208.0, 0.031300071946528216
209.0, 0.029080116702039294
210.0, 0.027032065355228875
211.0, 0.025817469793309802
212.0, 0.024324130014323094
213.0, 0.02379706659260821
214.0, 0.024560021320850146
215.0, 0.027542539756505148
216.0, 0.03410062284985013
217.0, 0.04165387675544984
218.0, 0.04979364206952379
219.0, 0.06010075984785173
220.0, 0.06924769418452938
221.0, 0.07771702945578919
222.0, 0.0857626341670656
223.0, 0.08309351747332143
224.0, 0.07552777917570444
225.0, 0.06436505125709369
226.0, 0.051394824390779456
227.0, 0.040664508718183764
228.0, 0.0336049244885101
229.0, 0.03018281438459138
230.0, 0.02761178754374454
231.0, 0.02497703549418749
232.0, 0.022370607439327055
233.0, 0.019852635323344178
234.0, 0.016568885383867134
235.0, 0.012695147764043424
236.0, 0.007916550397799193
237.0, 0.0015035318102835909
238.0, 0.001616474276454442
239.0, 0.003815174879261087
240.0, 0.007000520051733896
241.0, 0.00913911627811208
242.0, 0.0092931038697811
243.0, 0.008456715044584198
244.0, 0.007018897820685244
245.0, 0.005334411023404262
246.0, 0.0025797125599598012
247.0, 0.001821269178637651
248.0, 0.00726980709156576
249.0, 0.01233144532332583
250.0, 0.01925209116933023
251.0, 0.027835475168462978
252.0, 0.03698227216634473
253.0, 0.044648145957695756
254.0, 0.04861117175835076
255.0, 0.047869556456424094
256.0, 0.0408372870973973
257.0, 0.03276175045241258
258.0, 0.02385609163377209
259.0, 0.014172633750755455
260.0, 0.009917087549181173
261.0, 0.005125713175172733
262.0, 0.0018690575998649296
263.0, 0.004765465404000434
264.0, 0.0071043966369340045
265.0, 0.008631358160372691
266.0, 0.009307555898594664
267.0, 0.009128780177542678
268.0, 0.010454272971371043
269.0, 0.010314120837844797
270.0, 0.007487507978895876
271.0, 0.005692807822470985
272.0, 0.006077610810325698
273.0, 0.007073750040588907
274.0, 0.007150159359388638
275.0, 0.004391610466581275
276.0, 0.0019097491301800344
277.0, 0.0007255024631721053
278.0, 0.003070919908118505
279.0, 0.007841619344067716
280.0, 0.012235956816541948
281.0, 0.016132587283878286
282.0, 0.022287514942621777
283.0, 0.023640339305231746
284.0, 0.023776315182758103
285.0, 0.024430195463837318
286.0, 0.02787004824365463
287.0, 0.028103922027326558
288.0, 0.02630044606037699
289.0, 0.02342943875663107
290.0, 0.022448063971678443
291.0, 0.018315594481425026
292.0, 0.012722867383133305
293.0, 0.010142929627761924
294.0, 0.006319381286209342
295.0, 0.0038186044226360084
296.0, 0.002768107938796099
297.0, 0.0011683775054623568
298.0, 0.001062529704041285
299.0, 0.001295681130937797
300.0, 0.0014317515991970021
301.0, 0.0022284925391033226
302.0, 0.003499615562140743
303.0, 0.004992898355092011
304.0, 0.006508351125451067
305.0, 0.00906255899925122
306.0, 0.011489733810354444
307.0, 0.014500939821810024
308.0, 0.019555214126488557
309.0, 0.02154632466413074
310.0, 0.023231616864401453
311.0, 0.024669819004902557
312.0, 0.024653258699190224
313.0, 0.025802178450379586
314.0, 0.025615532375776445
315.0, 0.023647530960654042
316.0, 0.022958432489517937
317.0, 0.021836050604935767
318.0, 0.02002195117714084
319.0, 0.01739517610662459
320.0, 0.017655467940105248
321.0, 0.016975314857936807
322.0, 0.015798209146721743
323.0, 0.014573553160586209
324.0, 0.012098848102149437
325.0, 0.011741605093010051
326.0, 0.011438815740040742
327.0, 0.006411981883299677
328.0, 0.0060049412423256055
329.0, 0.00637854294922988
330.0, 0.0066551266914837625
331.0, 0.005778583321405731
332.0, 0.005126406770109697
333.0, 0.005947711639410456
334.0, 0.008076120357723877
335.0, 0.006507485959650328
336.0, 0.007622411500169232
337.0, 0.008468478976899904
338.0, 0.007436442786657582
339.0, 0.006699980822715234
340.0, 0.007779301670395331
341.0, 0.008266477731114967
342.0, 0.005705041645746285
343.0, 0.006902036204865564
344.0, 0.008294232295266919
345.0, 0.009222894678034972
346.0, 0.008706227013958432
347.0, 0.008912751051875627
348.0, 0.009740958327799374
349.0, 0.010310393713957429
350.0, 0.008098977852340452
351.0, 0.007544913438611099
352.0, 0.0071876066500428035
353.0, 0.006739918064627999
354.0, 0.006378716185659279
355.0, 0.0060644292954474864
356.0, 0.006549400606811334
357.0, 0.00795668472505115
358.0, 0.008380846808644489
359.0, 0.01019206881233525
360.0, 0.012369560264787523
361.0, 0.014260372651507239
362.0, 0.014218081288499959
363.0, 0.01441179220507156
364.0, 0.015047688452339987
365.0, 0.016360940820699714
366.0, 0.016383994447661476
367.0, 0.01806600863632266
368.0, 0.019992336475647132
369.0, 0.019935343493525392
370.0, 0.023114445429787484
371.0, 0.02323213559056247
372.0, 0.02125765768584955
373.0, 0.020437511230818186
374.0, 0.022898304068364135
375.0, 0.022681610386339972
376.0, 0.019920295890881987
377.0, 0.01828367304124165
378.0, 0.01634519587505229
379.0, 0.014965163999434088
380.0, 0.014125645135909713
381.0, 0.012474317073095681
382.0, 0.01108182496391639
383.0, 0.01002471185960209
384.0, 0.009298086977267271
385.0, 0.008467732225984926
386.0, 0.008215908729886133
387.0, 0.00786982443669557
388.0, 0.007159831895767747
389.0, 0.008206525626437842
390.0, 0.00835074606800007
391.0, 0.008640369298428102
392.0, 0.009898198278500588
393.0, 0.011207361674660708
394.0, 0.013956540842178745
395.0, 0.017197503210661613
396.0, 0.019901899021994334
397.0, 0.020328576257906926
398.0, 0.023160444787739556
399.0, 0.026679998253345206
400.0, 0.028107557360215744
401.0, 0.03075654458304987
402.0, 0.036231940208189255
403.0, 0.041964824321409945
404.0, 0.042521878997802236
405.0, 0.04466970080411218
406.0, 0.04401059108464429
407.0, 0.04150337268865457
408.0, 0.041085895652558206
409.0, 0.03942993351572533
410.0, 0.03501711489161327
411.0, 0.028456158431263128
412.0, 0.022816450789587946
413.0, 0.02107999842509012
414.0, 0.01959125556387554
415.0, 0.017314476815581112
416.0, 0.01362460369737983
417.0, 0.011965835504658661
418.0, 0.012105723938221647
419.0, 0.013638681101540777
420.0, 0.01428240784164716
421.0, 0.01559410702312626
422.0, 0.01841805322004717
423.0, 0.023151220484181452
424.0, 0.029867438861877316
425.0, 0.032530065388394584
426.0, 0.03614438909016342
427.0, 0.042704972425516144
428.0, 0.04592925792746253
429.0, 0.047855085218647286
430.0, 0.05190474974796382
431.0, 0.0599767166402497
432.0, 0.06756277313171145
433.0, 0.07100725383929948
434.0, 0.07355429644491322
435.0, 0.07725638814729081
436.0, 0.075409310273473
437.0, 0.07826250653240249
438.0, 0.08317238860610661
439.0, 0.08796325252968347
440.0, 0.09003166257905316
441.0, 0.0947188831586152
442.0, 0.10135340821053943
443.0, 0.1093390533418163
444.0, 0.11415421826757394
445.0, 0.12232846053344228
446.0, 0.13061793842442318
447.0, 0.13543171041373647
448.0, 0.13620787526811573
449.0, 0.13815204351871513
450.0, 0.13995845320385306
451.0, 0.13991081286907592
452.0, 0.13869859096169154
453.0, 0.13200650605630668
454.0, 0.12317308027981134
455.0, 0.11675343558004217
456.0, 0.10877206782669016
457.0, 0.09794167077001463
458.0, 0.08583149901260669
459.0, 0.07472467701817496
460.0, 0.06601464370649046
461.0, 0.05699790849876111
462.0, 0.048503085663890104
463.0, 0.04205296172027437
464.0, 0.035514498666077164
465.0, 0.030641085315306352
466.0, 0.02643072958640333
467.0, 0.021135801399796164
468.0, 0.017885639569686817
469.0, 0.016181672801965346
470.0, 0.014381910236536306
471.0, 0.009828238931884756
472.0, 0.011914704833569927
473.0, 0.01119582280839042
474.0, 0.009188040195171412
475.0, 0.009533502029483082
476.0, 0.008256777715922323
477.0, 0.008889518786203568
478.0, 0.010347173260728548
479.0, 0.010413352328079373
480.0, 0.010628028147785032
481.0, 0.010492495885347595
482.0, 0.010849077716906625
483.0, 0.013167684116427823
484.0, 0.013705502479640632
485.0, 0.014873576892166413
486.0, 0.016910307462360122
487.0, 0.01995507002507835
488.0, 0.0208592286871055
489.0, 0.021742368274276523
490.0, 0.02344449622633516
491.0, 0.027075177697365116
492.0, 0.02833267248721317
493.0, 0.029943390748898315
494.0, 0.03147050611262406
495.0, 0.03205626864419109
496.0, 0.03370574268076002
497.0, 0.0352927809719375
498.0, 0.036690660340529924
499.0, 0.03779601787414067
500.0, 0.03894169130710276
501.0, 0.04061110255028638
502.0, 0.04235909477057522
503.0, 0.04361996404183517
504.0, 0.0460914018753475
505.0, 0.047853074877377826
506.0, 0.050130042001972595
507.0, 0.054321079803675516
508.0, 0.05900649610863
509.0, 0.062182443641941816
510.0, 0.06547692541509482
511.0, 0.0704758947383887
512.0, 0.07237375101613917
513.0, 0.07913555544523074
514.0, 0.086600104148207
515.0, 0.09133763671641218
516.0, 0.10142152657402148
517.0, 0.11106079447577538
518.0, 0.12012745571308332
519.0, 0.1289913672248113
520.0, 0.1469695127113598
521.0, 0.16142777763811267
522.0, 0.18146931811123235
523.0, 0.21205082053669327
524.0, 0.23987805528570985
525.0, 0.2761249381902802
526.0, 0.32239257138970223
527.0, 0.37950314874057584
528.0, 0.44578178585116757
529.0, 0.5313889000506967
530.0, 0.6234941736427879
531.0, 0.7169197476855946
532.0, 0.8150145942765135
533.0, 0.9076351116478419
534.0, 0.9716951168633051
535.0, 0.9959774961364056
536.0, 0.967650004139273
537.0, 0.8977979520174904
538.0, 0.8019495074792559
539.0, 0.6895123150856961
540.0, 0.5798663165675183
541.0, 0.4881587029764482
542.0, 0.4054626681864683
543.0, 0.33347720912311174
544.0, 0.28313756699360904
545.0, 0.2398562752601383
546.0, 0.2042631003769287
547.0, 0.17656060775809898
548.0, 0.1571307666499101
549.0, 0.1372645078186598
550.0, 0.12199117972386117
551.0, 0.11096375053152907
552.0, 0.10273577901375248
553.0, 0.09144076943305848
554.0, 0.08368455509285072
555.0, 0.078926150632304
556.0, 0.07593417228273053
557.0, 0.07196257592532951
558.0, 0.0667995970564591
559.0, 0.06148780243527952
560.0, 0.05716601364899617
561.0, 0.058524652650672526
562.0, 0.054012166253153276
563.0, 0.04919949949060525
564.0, 0.04805672517808699
565.0, 0.048782041967946874
566.0, 0.04505826133872475
567.0, 0.042237703139016904
568.0, 0.04246979722465685
569.0, 0.04044328603685448
570.0, 0.03640530007246985
571.0, 0.0326238493822826
572.0, 0.030247873699430012
573.0, 0.03065696523689001
574.0, 0.026209397944404713
575.0, 0.024027800357431402
576.0, 0.024041765706210423
577.0, 0.020289575802913296
578.0, 0.01873619271696985
579.0, 0.018956023477572116
580.0, 0.018819389030346932
581.0, 0.01396122106116107
582.0, 0.014867059005512573
583.0, 0.01302028705388449
584.0, 0.010234432899428597
585.0, 0.010184197507769976
586.0, 0.010604779181980231
587.0, 0.010838899655336442
588.0, 0.010494288391551717
589.0, 0.00921607678727325
590.0, 0.0071965784146592856
591.0, 0.006179522966871305
592.0, 0.005275428921704367
593.0, 0.003966464923882254
594.0, 0.0030990136786970624
595.0, 0.0021991694279654595
596.0, 0.0015396626725239203
597.0, 0.0011810364333069948
598.0, 0.0008070873382205695
599.0, 0.0015447307416272065
600.0, 0.0021331234252014377
601.0, 0.0023470596846592953
602.0, 0.002561527340767765
603.0, 0.0009836150112066213
604.0, 0.0005020186316662605
605.0, 0.0011791209605249379
606.0, 0.0022695949802686907
607.0, 0.0031759105510182997
608.0, 0.0020901295957875773
609.0, 0.0013243696671063154
610.0, 0.003789879800735159
611.0, 0.000979360241505719
612.0, 0.0007379017485677886
613.0, 0.001042088641574151
614.0, 0.0003987740066796964
615.0, 0.0003239773884692811
616.0, 0.0011779377581770428
617.0, 0.001732322242672282
618.0, 0.001656220199523589
619.0, 0.002402897194117195
620.0, 0.0012569229282504578
621.0, 0.0018491256209003865
622.0, 0.003404686952654355
623.0, 0.0005200480512089667
624.0, 0.0010224040334540425
625.0, 0.0021439262194834306
626.0, 0.00262828125540995
627.0, 0.0009933429514139467
628.0, 0.0019241685893661472
629.0, 0.0024136301157899644
630.0, 0.0026918804628087503
631.0, 0.003076173574743427
632.0, 0.0014400400004985147
633.0, 0.0009424451574707835
634.0, 0.0010304307604941615
635.0, 0.0013330989166448755
636.0, 0.0017023514318739075
637.0, 0.001550424839982157
638.0, 0.0022067976458135683
639.0, 0.003728247303343494
640.0, 0.004662873948692923
641.0, 0.007136607054627421
642.0, 0.007797693946837071
643.0, 0.007923693933402988
644.0, 0.01109783272179043
645.0, 0.011554907021274626
646.0, 0.01254064675976882
647.0, 0.013297684170043308
648.0, 0.01288374649749678
649.0, 0.013506049912818258
650.0, 0.013993023265438366
651.0, 0.015559431973465062
652.0, 0.018171753218950343
653.0, 0.01639394860797079
654.0, 0.017331658542973926
655.0, 0.017000812805865375
656.0, 0.015243196433910968
657.0, 0.015656880653061162
658.0, 0.017538336100561193
659.0, 0.01752005528905808
660.0, 0.01687885305168521
661.0, 0.018512187200481943
662.0, 0.015354198078721888
663.0, 0.01627206955912021
664.0, 0.018054918371605593
665.0, 0.017822285412629358
666.0, 0.019338739331472735
667.0, 0.021365403247486196
668.0, 0.02304565821589094
669.0, 0.024246919359400723
670.0, 0.026237143024235566
671.0, 0.026868224796530362
672.0, 0.028169790394102695
673.0, 0.02930057358830693
674.0, 0.027444240825145398
675.0, 0.026208533903144798
676.0, 0.025468102684726105
677.0, 0.023264093278662225
678.0, 0.01775241713615217
679.0, 0.01683197512124571
680.0, 0.014409323425044921
681.0, 0.012799053607454888
682.0, 0.012888693753705797
683.0, 0.01206191162056159
684.0, 0.010145409355073413
685.0, 0.0092031760517549
686.0, 0.008924264222905116
687.0, 0.007141247873982837
688.0, 0.009600289693042306
689.0, 0.010081320217336646
690.0, 0.01009159121670648
691.0, 0.011946168530241982
692.0, 0.007204929079935963
693.0, 0.010566460914272184
694.0, 0.013338318153463695
695.0, 0.011924196197577314
696.0, 0.016742699683283978
697.0, 0.01406603222227016
698.0, 0.014527646808896903
699.0, 0.018400655084220237
700.0, 0.01927202626766829
701.0, 0.021754507442715315
702.0, 0.023977499326223818
703.0, 0.027005832748688736
704.0, 0.032104657237153215
705.0, 0.03674687701250565
706.0, 0.03837346525327801
707.0, 0.03771792611669031
708.0, 0.035964212468479285
709.0, 0.03688236463144929
710.0, 0.032147193340762985
711.0, 0.029063043388824046
712.0, 0.027411679159052477
713.0, 0.023300692757570064
714.0, 0.02339534740240966
715.0, 0.021893997345960856
716.0, 0.01863241895855817
717.0, 0.014323452418461835
718.0, 0.015874302167791367
719.0, 0.015061021125758463
720.0, 0.013747837209377677
721.0, 0.01319980480688283
722.0, 0.015099517239551536
723.0, 0.014827613647436953
724.0, 0.014080553851322652
725.0, 0.01370039037053149
726.0, 0.014524778770028567
727.0, 0.012330933545166652
728.0, 0.012870864435574794
729.0, 0.014314399357945092
730.0, 0.014907643591508687
731.0, 0.011780786800395853
732.0, 0.010483179202949828
733.0, 0.009344904052753874
734.0, 0.008183095274245065
735.0, 0.007645080575377014
736.0, 0.008386223744569325
737.0, 0.00706898433889668
738.0, 0.006598909764754636
739.0, 0.009415329554132315
740.0, 0.006826661876694687
741.0, 0.005786888991294861
742.0, 0.006007504002260063
743.0, 0.0070013133579366225
744.0, 0.007566381158206475
745.0, 0.008910589379584246
746.0, 0.009536530361766953
747.0, 0.009961817486428926
748.0, 0.011089730205292136
749.0, 0.010490903064828128
750.0, 0.013638007060099003
751.0, 0.015306122692086924
752.0, 0.01404015634679491
753.0, 0.017128350438529824
754.0, 0.01861188082228208
755.0, 0.01753048049367664
756.0, 0.016765157565458787
757.0, 0.021403691131962607
758.0, 0.020217799740058943
759.0, 0.019727772092342586
760.0, 0.01884425473175464
761.0, 0.01718747308091981
762.0, 0.017640659448928453
763.0, 0.01827583475375993
764.0, 0.01672147134882276
765.0, 0.015100161222641054
766.0, 0.0188880371623036
767.0, 0.014528627004786323
768.0, 0.015617740376163963
769.0, 0.01728265577786299
770.0, 0.01531248828517092
771.0, 0.011888472093434844
772.0, 0.013202657777685846
773.0, 0.01188250373597434
774.0, 0.008951288510867947
775.0, 0.011745781472868248
776.0, 0.007394615636244614
777.0, 0.005890331972602914
778.0, 0.005994163522798648
779.0, 0.005897644147574542
780.0, 0.0042805385040923846
781.0, 0.002074928544271054
782.0, 0.0008044581034559651
783.0, 0.0006488659545982615
784.0, 0.0008614952577679593
785.0, 0.0012717708095118451
786.0, 0.002201007640117484
787.0, 0.002306379454092193
788.0, 0.0007279185787152976
789.0, 0.00039537201404223304
790.0, 0.0011898520045191983
791.0, 0.0013456062356475718
792.0, 0.0007768202424136649
793.0, 0.0005760925543937079
794.0, 0.0008668629513384206
795.0, 0.0005635380362168515
796.0, 0.0009198294268412849
797.0, 0.00270744166711055
798.0, 0.003412966353993337
799.0, 0.002409435204821994
800.0, 0.0012600812882418893
801.0, 0.0012337739442053336
802.0, 0.003953676494343562
803.0, 0.0038321628950789576
804.0, 0.0043133584872593975
805.0, 0.0042929101802279155
806.0, 0.0029180457379007173
807.0, 0.0006093033582855508
808.0, 0.0004906043731092095
809.0, 0.0005137762917059969
810.0, 0.00042738721580185755
811.0, 0.0006553822258069483
812.0, 0.0018622330694525579
813.0, 0.001075413295949974
814.0, 0.000945946900776922
815.0, 0.0022845176828575247
816.0, 0.0008713384683296329
817.0, 0.0007120098138666478
818.0, 0.0015782449360556736
819.0, 0.0020299949032761997
820.0, 0.00027847336305867855
821.0, 0.0006289489455303184
822.0, 0.0013071873110479255
823.0, 0.002267197641960421
824.0, 0.0029540380329112965
825.0, 0.001605917553607549
826.0, 0.0008413842245820112
827.0, 0.0008753903299738151
828.0, 0.0016753784027862886
829.0, 0.0030511613062134883
830.0, 0.003945411502600589
831.0, 0.00206524831836069
832.0, 0.0012656367204930629
833.0, 0.00212032974556031
834.0, 0.0027926794937733765
835.0, 0.0014260266490165852
836.0, 0.0011295345896948374
837.0, 0.0009578793425720944
838.0, 0.0002931976452302549
839.0, 0.0005594622677474335
840.0, 0.004685883348500907
841.0, 0.006285873541709016
842.0, 0.005624251886502676
843.0, 0.0053415665828960325
844.0, 0.005256888189945036
845.0, 0.004844038806575992
846.0, 0.004403006947084575
847.0, 0.004134015458559359
848.0, 0.0041764005860355944
849.0, 0.00483877425426861
850.0, 0.005490075544779003
851.0, 0.004375190628700411
852.0, 0.0007241310669847179
853.0, 0.002584802693651547
854.0, 0.002302051230135434
855.0, 0.0018596158928091404
856.0, 0.0019998755422403628
857.0, 0.0029570345651396155
858.0, 0.003497160674781283
859.0, 0.004320002258341773
860.0, 0.005404304444552583
861.0, 0.0064752488745102015
862.0, 0.006530471002849955
863.0, 0.005913349582003575
864.0, 0.005224196580916971
865.0, 0.0050736553542729745
866.0, 0.0058520658058224045
867.0, 0.005500289154330336
868.0, 0.0058827786350738355
869.0, 0.005765358109703404
870.0, 0.004965788496422461
871.0, 0.003986224687900876
872.0, 0.004378924907421491
873.0, 0.0047862687857367124
874.0, 0.004111144488698863
875.0, 0.002369251502975917
876.0, 0.002290996979345011
877.0, 0.003643640377559442
878.0, 0.0060053747264018935
879.0, 0.007302411696520671
880.0, 0.005628477554810552
881.0, 0.0034071344613770265
882.0, 0.004808332336873914
883.0, 0.005187688236712995
884.0, 0.0042148465846789055
885.0, 0.0039860219383417465
886.0, 0.004859698321443078
887.0, 0.004943194484170997
888.0, 0.004714235124863197
889.0, 0.004686792019341338
890.0, 0.005600614667552432
891.0, 0.00681987283479348
892.0, 0.00696519455695902
893.0, 0.006750038604530116
894.0, 0.006662518682002563
895.0, 0.0044536499050722815
896.0, 0.00508838109191296
897.0, 0.006811380462431347
898.0, 0.0076764268968954035
899.0, 0.005768477992760323
900.0, 0.006995381030668155
901.0, 0.007185425018798104
902.0, 0.008275502626371929
903.0, 0.01003879039874346
904.0, 0.010040289134185209
905.0, 0.00926284732305078
906.0, 0.009631810861862064
907.0, 0.010386181028588804
908.0, 0.010588852709513236
909.0, 0.008798437446730442
910.0, 0.00785483430381898
911.0, 0.00914921990154639
912.0, 0.010450444353441246
913.0, 0.009979075277242538
914.0, 0.012890640804184042
915.0, 0.011864131271324596
916.0, 0.009695236203637573
917.0, 0.009421014715812883
918.0, 0.013946562403853181
919.0, 0.013765855308810087
920.0, 0.016593215938085104
921.0, 0.017677253468521958
922.0, 0.0174879367227405
923.0, 0.02125679929010118
924.0, 0.02537034261528522
925.0, 0.027713158739624922
926.0, 0.030751477398121046
927.0, 0.035553904936800676
928.0, 0.04056408774141029
929.0, 0.050333085436908565
930.0, 0.06269369873618445
931.0, 0.07564591139963757
932.0, 0.08727423964315498
933.0, 0.09568139561287187
934.0, 0.09813727634047899
935.0, 0.09152450254245674
936.0, 0.0811272295093546
937.0, 0.07302067590593675
938.0, 0.05843890476320563
939.0, 0.047421537670142656
940.0, 0.04031858473783562
941.0, 0.03452081058698451
942.0, 0.026003938442361856
943.0, 0.01924655720116102
944.0, 0.01890633525481684
945.0, 0.01985967639036
946.0, 0.019336020468342676
947.0, 0.01605505401061488
948.0, 0.01391655426241801
949.0, 0.014020552687457059
950.0, 0.013478085911111033
951.0, 0.011965929466536119
952.0, 0.013066251995165508
953.0, 0.012531412674152375
954.0, 0.012994465511289537
955.0, 0.013727864922637334
956.0, 0.014117571754496653
957.0, 0.014251434376388997
958.0, 0.01476461236930524
959.0, 0.015593570313494785
960.0, 0.016357174175772017
961.0, 0.016969552764521067
962.0, 0.018741917015134613
963.0, 0.021380740410490262
964.0, 0.02252104340925643
965.0, 0.024705771791313395
966.0, 0.03054264688556703
967.0, 0.036294824363897596
968.0, 0.04369398782302129
969.0, 0.05202316182847399
970.0, 0.05965394005234476
971.0, 0.06450704502544166
972.0, 0.06353591537530143
973.0, 0.05819541044404102
974.0, 0.05303536389753414
975.0, 0.04716518659441235
976.0, 0.0376455592369969
977.0, 0.03143789403021643
978.0, 0.03078121370282641
979.0, 0.02879627588405362
980.0, 0.024996032622080513
981.0, 0.023024717440989738
982.0, 0.02612123498846741
983.0, 0.023863491902318897
984.0, 0.025006579959689645
985.0, 0.029027557564463513
986.0, 0.027319137954784852
987.0, 0.02729619952953467
988.0, 0.03286376463269238
989.0, 0.03464008581899693
990.0, 0.031280846727776056
991.0, 0.030393856895322837
992.0, 0.03576185363068345
993.0, 0.035692442965391265
994.0, 0.035263241567082965
995.0, 0.03642256022643143
996.0, 0.03655139482865164
997.0, 0.03653479862685765
998.0, 0.03290050827217329
999.0, 0.03142204645701314
1000.0, 0.03282145718631232
1001.0, 0.02926445468330621
1002.0, 0.03055933573923458
1003.0, 0.03308413746343815
1004.0, 0.035094247330467045
1005.0, 0.037092527752488634
1006.0, 0.04359201910447837
1007.0, 0.044857601873078023
1008.0, 0.04988892190491104
1009.0, 0.05798068735653391
1010.0, 0.06764792501468507
1011.0, 0.07717421506227982
1012.0, 0.09020630581467533
1013.0, 0.10334785746657439
1014.0, 0.11788177143373277
1015.0, 0.13414725882145953
1016.0, 0.15001347364109566
1017.0, 0.1602558620850691
1018.0, 0.16079488781077317
1019.0, 0.15677341948171597
1020.0, 0.15159078161540548
1021.0, 0.14342360809149846
1022.0, 0.13119950716214784
1023.0, 0.12125021418012726
1024.0, 0.1129654475942819
1025.0, 0.10732119886994597
1026.0, 0.1099123181163601
1027.0, 0.11021715276879203
1028.0, 0.1103602787265434
1029.0, 0.10554311016967628
1030.0, 0.09379403602767232
1031.0, 0.0787866045627778
1032.0, 0.06856869626268002
1033.0, 0.06200963640999479
1034.0, 0.055546426715063456
1035.0, 0.04852047388168895
1036.0, 0.04551352379736125
1037.0, 0.04776176901660732
1038.0, 0.04879826072702605
1039.0, 0.051762521959901116
1040.0, 0.05569879311799291
1041.0, 0.05286995731025629
1042.0, 0.053508378136729214
1043.0, 0.0523456565482361
1044.0, 0.05039042285622945
1045.0, 0.04820522689404838
1046.0, 0.04553829203957809
1047.0, 0.04091363524724975
1048.0, 0.041020577924162485
1049.0, 0.03837494052196188
1050.0, 0.033624526943827795
1051.0, 0.03580364194073567
1052.0, 0.033264246254868506
1053.0, 0.03075780874652222
1054.0, 0.028959259580959924
1055.0, 0.027954977074103535
1056.0, 0.027367218999990957
1057.0, 0.028015512445554773
1058.0, 0.0286455049164012
1059.0, 0.028474951899646963
1060.0, 0.028703478212503516
1061.0, 0.031430271769165394
1062.0, 0.0333724536482508
1063.0, 0.034003387777775215
1064.0, 0.03695922717360752
1065.0, 0.04002990351891249
1066.0, 0.039616279753574214
1067.0, 0.04454104555080152
1068.0, 0.04290480679428818
1069.0, 0.04184512985857017
1070.0, 0.04263745718936778
1071.0, 0.0442280927693737
1072.0, 0.04344648346543696
1073.0, 0.04065339811604819
1074.0, 0.039529893017847324
1075.0, 0.03810679744815169
1076.0, 0.03440035786104273
1077.0, 0.030928311037916083
1078.0, 0.032304169635219364
1079.0, 0.028659185286352376
1080.0, 0.025118796778432387
1081.0, 0.025382680959889985
1082.0, 0.02477958099756645
1083.0, 0.024229358831885296
1084.0, 0.02421988612233486
1085.0, 0.024413509059509085
1086.0, 0.024646148184837846
1087.0, 0.025124037181870548
1088.0, 0.026088910354845025
1089.0, 0.027678275859515093
1090.0, 0.029384916841281212
1091.0, 0.031055961592149628
1092.0, 0.0329606400569959
1093.0, 0.0374521114914103
1094.0, 0.043209253210893375
1095.0, 0.046353982532032906
1096.0, 0.048628925084308626
1097.0, 0.05414905944332008
1098.0, 0.056526857161065716
1099.0, 0.06055799814491158
1100.0, 0.059910113635054524
1101.0, 0.057963957239717374
1102.0, 0.0592606094958997
1103.0, 0.056802903536575855
1104.0, 0.05509287849136304
1105.0, 0.05044745435548572
1106.0, 0.04756060094149969
1107.0, 0.04778015693940242
1108.0, 0.0393668804030052
1109.0, 0.03769246569690848
1110.0, 0.036265784339213875
1111.0, 0.03277169932157077
1112.0, 0.028227257625986848
1113.0, 0.027846438674743467
1114.0, 0.02440643589866382
1115.0, 0.022564703371432317
1116.0, 0.019959054121781106
1117.0, 0.016673349707477112
1118.0, 0.014601399832420443
1119.0, 0.012210214171804
1120.0, 0.013572489455310649
1121.0, 0.015299292099758994
1122.0, 0.01550354377432381
1123.0, 0.013830903687671306
1124.0, 0.014761126900418609
1125.0, 0.010010309298065827
1126.0, 0.009979582010640902
1127.0, 0.009255523192927795
1128.0, 0.004412354105358658
1129.0, 0.004925197475686623
1130.0, 0.007111270976657869
1131.0, 0.006755013693091541
1132.0, 0.0051131317605441874
1133.0, 0.003447387162263609
1134.0, 0.0024858165334296686
1135.0, 0.005360612935324254
1136.0, 0.00289319161283514
1137.0, 0.0037468707369826453
1138.0, 0.005453057815624896
1139.0, 0.0009679315304812943
1140.0, 0.0009590451941538027
1141.0, 0.00044097224780015857
1142.0, 0.00046995922467549115
1143.0, 0.0009341348669680751
1144.0, 0.0016599761789642961
1145.0, 0.0033387251673583068
1146.0, 0.003075195236941716
1147.0, 0.0025229391046394586
1148.0, 0.0019971967854222616
1149.0, 0.0013573457211593207
1150.0, 5.4977427481827604e-05
1151.0, 0.001130828921827625
1152.0, 0.0010570876089724772
1153.0, 0.0007875629757363686
1154.0, 0.0012780233827819438
1155.0, 0.0027928606037942753
1156.0, 0.000504165044837044
1157.0, 0.00016112585358115297
1158.0, 0.00021338253918506747
1159.0, 0.0012120824974653226
1160.0, 0.0027799746263024484
1161.0, 0.0006652773606313713
1162.0, 0.0026504622671480248
1163.0, 0.0030897290948469834
1164.0, 0.0028048973259046134
1165.0, 0.0026054267849089487
1166.0, 0.0027426753388953605
1167.0, 0.004204285240805039
1168.0, 0.0016308808759067936
1169.0, 0.001852186346672652
1170.0, 0.0029148207975517007
1171.0, 0.0006967403409914137
1172.0, 0.00041435133348182205
1173.0, 0.0002374485469396986
1174.0, 0.00031121948571105444
1175.0, 0.0012708878083521648
1176.0, 0.002412950183628238
1177.0, 0.0007270488005636285
1178.0, 0.0022693801741320856
1179.0, 0.001544171147130648
1180.0, 0.0005429900616846228
1181.0, 0.0007446832559857353
1182.0, 0.0027122134460110174
1183.0, 0.004064473640293022
1184.0, 0.0028259334933286875
1185.0, 0.0015523949709577488
1186.0, 0.0013434451447937815
1187.0, 0.0020177586262305194
1188.0, 0.001291536667121478
1189.0, 0.0006190805990309721
1190.0, 0.0020017288743596627
1191.0, 0.003387662872638521
1192.0, 0.00357297066005149
1193.0, 0.0025928590099493234
1194.0, 0.0031557829253416347
1195.0, 0.0019173390978546793
1196.0, 0.0025642944717175482
1197.0, 0.003007949313845145
1198.0, 0.0019535828078182257
1199.0, 0.004888891828704006
1200.0, 0.002538320544185896
1201.0, 0.004546291966219617
1202.0, 0.005512382900263969
1203.0, 0.004574204892982582
1204.0, 0.005570873909692672
1205.0, 0.007006490682629059
1206.0, 0.005222361986625382
1207.0, 0.002334932179527118
1208.0, 0.0005264649763551945
1209.0, 0.0011583042176815566
1210.0, 0.0034166641582458923
1211.0, 0.002776795214019839
1212.0, 0.003407565054531986
1213.0, 0.004298353046383867
1214.0, 0.004653484789688716
1215.0, 0.0042886119608308145
1216.0, 0.004061059362134101
1217.0, 0.0037675821122956565
1218.0, 0.0022947995114489385
1219.0, 0.0020096352718693877
1220.0, 0.0037146609142456265
1221.0, 0.002659083570536242
1222.0, 0.0016209642377483162
1223.0, 0.0024970237852507183
1224.0, 0.004840904161692061
1225.0, 0.006125939513810293
1226.0, 0.003488734122298277
1227.0, 0.0004468175555185788
1228.0, 0.003728827977291911
1229.0, 0.005431658301232909
1230.0, 0.004171091956210316
1231.0, 0.0015686429104834426
1232.0, 0.0017764346598127996
1233.0, 0.00493021639759629
1234.0, 0.0056134661663062935
1235.0, 0.005674534058596002
1236.0, 0.005937719358756226
1237.0, 0.006287161501022413
1238.0, 0.005211394873907951
1239.0, 0.004812698360018328
1240.0, 0.0037337251404502684
1241.0, 0.0031003216699567247
1242.0, 0.0031958355085990368
1243.0, 0.0030583207017556525
1244.0, 0.002281032672904487
1245.0, 0.005022869137371986
1246.0, 0.004610495375538517
1247.0, 0.002655134510899881
1248.0, 0.002871398880683213
1249.0, 0.0074159611591306275
1250.0, 0.002440925607660251
1251.0, 0.0024418177992416457
1252.0, 0.002534555846653502
1253.0, 0.002670979348661666
1254.0, 0.005023981223515573
1255.0, 0.00344790029397057
1256.0, 0.0015834494076891888
1257.0, 0.0030575875410767885
1258.0, 0.0034771199040152354
1259.0, 0.0017697132963491757
1260.0, 0.0021687948001584767
1261.0, 0.0011955451726775618
1262.0, 0.0020939383266328666
1263.0, 0.0027023049744631053
1264.0, 0.0023888013978270286
1265.0, 0.0015202867115122034
1266.0, 0.0014630026276356903
1267.0, 0.002086377831007565
1268.0, 0.0013290278723604527
1269.0, 0.001263334357409004
1270.0, 0.0016426042805760166
1271.0, 0.0013391055868335429
1272.0, 0.002300334108248502
1273.0, 0.0024797274937695085
1274.0, 0.0021103969341624545
1275.0, 0.0012153025320037433
1276.0, 0.00027481189768096637
1277.0, 0.00013194851203285178
1278.0, 0.0009262290976797454
1279.0, 0.0007754856646483188
1280.0, 0.0011157435936396123
1281.0, 0.0015060262917767006
1282.0, 0.0018582229920905689
1283.0, 0.003278970656513755
1284.0, 0.0015575435577765667
1285.0, 0.0021079680998280894
1286.0, 0.00217223406931833
1287.0, 0.00158135795656864
1288.0, 0.0011398066738980226
1289.0, 0.0011691058047264336
1290.0, 0.0010875371730702584
1291.0, 0.000873900230627178
1292.0, 0.0013156117001642286
1293.0, 0.002321499179688476
1294.0, 0.003143542274797454
1295.0, 0.002793971040270574
1296.0, 0.002979065952363591
1297.0, 0.0023686077823625046
1298.0, 0.0019739837186356574
1299.0, 0.0016586930931976993
1300.0, 0.00042584912482329206
1301.0, 0.0002430816435444609
1302.0, 0.0005115651506971123
1303.0, 0.0010464114588300203
1304.0, 0.0020240120706242503
1305.0, 0.0024060747683777163
1306.0, 0.00020986037861914564
1307.0, 0.00032379113669424303
1308.0, 0.000699714192299315
1309.0, 0.0031912623296021163
1310.0, 0.003668334170382368
1311.0, 0.0011933466246491
1312.0, 0.0022345105842380203
1313.0, 0.0020764926466177694
1314.0, 0.0030836082678149628
1315.0, 0.0022749996628807384
1316.0, 0.0016725451202972514
1317.0, 0.002416991268530495
1318.0, 3.4016058205109285e-05
1319.0, 0.00023796202087740116
1320.0, 0.0006606375480129326
1321.0, 0.001696528929863663
1322.0, 0.003012567058392616
1323.0, 0.003472721591654497
1324.0, 0.0008287628327656954
1325.0, 0.004074135066473951
1326.0, 0.003730538636757745
1327.0, 0.0021024750520956402
1328.0, 0.0008651338209881509
1329.0, 0.000604424415258405
1330.0, 0.0006062367311337037
1331.0, 0.0012108772017266692
1332.0, 0.000735065789747247
1333.0, 0.001277348992117305
1334.0, 0.0016794960216429862
1335.0, 0.00016777151752394746
1336.0, 0.0010202030587410443
1337.0, 0.0017360875528035858
1338.0, 0.0011521590807556596
1339.0, 0.0004662526076127431
1340.0, 0.00019189080544521463
1341.0, 0.0003302142364064565
1342.0, 0.0015976283706720124
1343.0, 0.0011269567978888298
1344.0, 0.0005277431902689329
1345.0, 0.0009848973565884666
1346.0, 0.003031707336634477
1347.0, 0.005750197086837489
1348.0, 0.004129823829482635
1349.0, 0.0017280355146793395
1350.0, 0.007221930719268138
1351.0, 0.008401345132318851
1352.0, 0.005429708910219195
1353.0, 0.0063470834750471005
1354.0, 0.0029698781006069312
1355.0, 0.001225059296527619
1356.0, 0.0029172757596269416
1357.0, 0.003340601242951583
1358.0, 0.0021592068393446583
1359.0, 0.0025316307937401257
1360.0, 0.00544384502082674
1361.0, 0.005248049542887197
1362.0, 0.005989143893067835
1363.0, 0.007042596124867781
1364.0, 0.006637069765565279
1365.0, 0.003966768082835503
1366.0, 0.003726680929701545
1367.0, 0.00693704642324699
1368.0, 0.005187270349685457
1369.0, 0.002885294963406962
1370.0, 0.003114088051098608
1371.0, 0.00567728328131883
1372.0, 0.005424284922860289
1373.0, 0.005569758391425525
1374.0, 0.0037820449267794254
1375.0, 0.003047163169724191
1376.0, 0.003770653715698246
1377.0, 0.004261202922885682
1378.0, 0.0022161968536434824
1379.0, 0.007314245760054646
1380.0, 0.0051562595249198505
1381.0, 0.004246748750207647
1382.0, 0.006094768721484281
1383.0, 0.007898537347025877
1384.0, 0.007149767974541352
1385.0, 0.009018170710295663
1386.0, 0.008948521564490188
1387.0, 0.008070013713916647
1388.0, 0.0071362444753878445
1389.0, 0.006596757052896897
1390.0, 0.006646533448466198
1391.0, 0.0052936418998529656
1392.0, 0.005385797169142511
1393.0, 0.005657957010165367
1394.0, 0.005647870570959749
1395.0, 0.005279539111959706
1396.0, 0.0046972529258163176
1397.0, 0.004986621123239698
1398.0, 0.006370560668007206
1399.0, 0.006251246815261082
1400.0, 0.006570939081724724
1401.0, 0.007243342214603346
1402.0, 0.005339079431588111
1403.0, 0.004979925155342638
1404.0, 0.0021450543705593154
1405.0, 0.004551262335811176
1406.0, 0.005426315005641801
1407.0, 0.0033789345320637074
1408.0, 0.0036285554936922398
1409.0, 0.00863364549052719
1410.0, 0.007232354363369891
1411.0, 0.007389563001697197
1412.0, 0.006669007312769132
1413.0, 0.005893536489809014
1414.0, 0.0065924365851208365
1415.0, 0.004252767543966134
1416.0, 0.006461879982430637
1417.0, 0.004428405366520557
1418.0, 0.007019419388579189
1419.0, 0.00786759911948449
1420.0, 0.002929294677552198
1421.0, 0.0056034063902786965
1422.0, 0.003996957365650356
1423.0, 0.0038327316695746924
1424.0, 0.005206212580915878
1425.0, 0.005684545724616097
1426.0, 0.004981042742610078
1427.0, 0.005851131443503877
1428.0, 0.005420261911829596
1429.0, 0.003793250451424937
1430.0, 0.005220424534715553
1431.0, 0.005404976393240728
1432.0, 0.004580765452734751
1433.0, 0.006026526188794482
1434.0, 0.0044906622506758545
1435.0, 0.005431186364915001
1436.0, 0.006115057688881058
1437.0, 0.006918538050147034
1438.0, 0.007362341899152655
1439.0, 0.006982255917842182
1440.0, 0.006569813426567575
1441.0, 0.005302696560168509
1442.0, 0.007023262222592703
1443.0, 0.008899432196372601
1444.0, 0.008311537521066246
1445.0, 0.007187250073186914
1446.0, 0.01114183511216662
1447.0, 0.009760248889577635
1448.0, 0.01026612154261961
1449.0, 0.007662985941541753
1450.0, 0.009200764875917318
1451.0, 0.012085772230015676
1452.0, 0.008975791412937091
1453.0, 0.010082111807105065
1454.0, 0.01436311390794784
1455.0, 0.010327874348252958
1456.0, 0.01064178278605244
1457.0, 0.013084121000237836
1458.0, 0.011807733282915603
1459.0, 0.008728857325263474
1460.0, 0.010925467711201247
1461.0, 0.008428968092021193
1462.0, 0.008419887887315501
1463.0, 0.010217361821515307
1464.0, 0.00987996347451106
1465.0, 0.005734456675810106
1466.0, 0.011499497965965345
1467.0, 0.007467536053097842
1468.0, 0.005708028559568443
1469.0, 0.0065053325928838375
1470.0, 0.007926950214547063
1471.0, 0.008313366880253872
1472.0, 0.008174498800551632
1473.0, 0.007976282921834546
1474.0, 0.00798451697286441
1475.0, 0.006123793148632946
1476.0, 0.004351259959792368
1477.0, 0.004626754532094667
1478.0, 0.0063276504149908245
1479.0, 0.0026249762138766185
1480.0, 0.010119092630175172
1481.0, 0.005931010330498331
1482.0, 0.004684885129453836
1483.0, 0.0069053687936841196
1484.0, 0.006621012535731074
1485.0, 0.004576487467682239
1486.0, 0.0035819005049420967
1487.0, 0.004006105175377606
1488.0, 0.004331789194723632
1489.0, 0.0054624933559833085
1490.0, 0.005777725262503464
1491.0, 0.0032790285500759694
1492.0, 0.006185049460164676
1493.0, 0.004158519083936361
1494.0, 0.004472242874274417
1495.0, 0.005017427411934051
1496.0, 0.004388499655007703
1497.0, 0.0037680435658857922
1498.0, 0.006192035547486787
1499.0, 0.0013764913725201975
1500.0, 0.0007679214325392223
1501.0, 0.0007207773113856634
1502.0, 0.0005937718786239536
1503.0, 0.001339647294898742
1504.0, 0.0032564503691726978
1505.0, 0.0026424169694632803
1506.0, 0.002429018277669808
1507.0, 0.003288851779698632
1508.0, 0.002500468338424683
1509.0, 0.0014329828913029528
1510.0, 0.0020897546164551544
1511.0, 0.004590132184748163
1512.0, 0.0048375105450314294
1513.0, 0.006403924282074215
1514.0, 0.0023735482782753577
1515, 0.0
1516, 0.0
1517, 0.0
1518, 0.0
1519, 0.0
1520, 0.0
1521, 0.0
1522, 0.0
1523, 0.0
1524, 0.0
1525, 0.0
1526, 0.0
1527, 0.0
1528, 0.0
1529, 0.0
1530, 0.0
1531, 0.0
1532, 0.0
1533, 0.0
1534, 0.0
1535, 0.0
1536, 0.0
1537, 0.0
1538, 0.0
1539, 0.0
1540, 0.0
1541, 0.0
1542, 0.0
1543, 0.0
1544, 0.0
1545, 0.0
1546, 0.0
1547, 0.0
1548, 0.0
1549, 0.0
1550, 0.0
1551, 0.0
1552, 0.0
1553, 0.0
1554, 0.0
1555, 0.0
1556, 0.0
1557, 0.0
1558, 0.0
1559, 0.0
1560, 0.0
1561, 0.0
1562, 0.0
1563, 0.0
1564, 0.0
1565, 0.0
1566, 0.0
1567, 0.0
1568, 0.0
1569, 0.0
1570, 0.0
1571, 0.0
1572, 0.0
1573, 0.0
1574, 0.0
1575, 0.0
1576, 0.0
1577, 0.0
1578, 0.0
1579, 0.0
1580, 0.0
1581, 0.0
1582, 0.0
1583, 0.0
1584, 0.0
1585, 0.0
1586, 0.0
1587, 0.0
1588, 0.0
1589, 0.0
1590, 0.0
1591, 0.0
1592, 0.0
1593, 0.0
1594, 0.0
1595, 0.0
1596, 0.0
1597, 0.0
1598, 0.0
1599, 0.0
