30, 0.0
31, 0.0
32, 0.0
33, 0.0
34, 0.0
35, 0.0
36, 0.0
37, 0.0
38, 0.0
39, 0.0
40, 0.0
41, 0.0
42, 0.0
43, 0.0
44, 0.0
45, 0.0
46, 0.0
47, 0.0
48, 0.0
49, 0.0
50.0, 2.7599183231751848e-05
51.0, 0.0015408083721511116
52.0, 0.005153783500244385
53.0, 0.00151897922269483
54.0, 0.0031277284100086327
55.0, 0.007462215365160249
56.0, 0.008516208498176164
57.0, 0.007318098964945457
58.0, 0.006877800709076429
59.0, 0.008634388011264487
60.0, 0.008394133443862447
61.0, 0.007007684578664556
62.0, 0.0056211956865561885
63.0, 0.008232527616740036
64.0, 0.009184066000620349
65.0, 0.009922983731202747
66.0, 0.011178552518807157
67.0, 0.011943619310432049
68.0, 0.012125565682149012
69.0, 0.011894992891272016
70.0, 0.011865884480238113
71.0, 0.012089854318584137
72.0, 0.011519358137318442
73.0, 0.009302326943642554
74.0, 0.009895939362665284
75.0, 0.009722962188510499
76.0, 0.008781316375205104
77.0, 0.007890419260607523
78.0, 0.006769292399954895
79.0, 0.004986865544847395
80.0, 0.0020727277946962987
81.0, 0.004878435794700181
82.0, 0.004588093155672952
83.0, 0.0018286819630395916
84.0, 0.002384639084887915
85.0, 0.0016913911188264886
86.0, 0.0011741711740609285
87.0, 0.0018903163189434005
88.0, 0.0007479707261134404
89.0, 0.0013096927250940446
90.0, 0.0034992111561501747
91.0, 0.0059973242221571825
92.0, 0.010417983452645396
93.0, 0.015118146310682515
94.0, 0.01903246730450265
95.0, 0.028821503450214336
96.0, 0.03770779274887459
97.0, 0.046076980672941074
98.0, 0.05775716881578408
99.0, 0.06602121602009343
100.0, 0.07159130102711221
101.0, 0.0742932872370374
102.0, 0.08458719255263354
103.0, 0.09253015964169475
104.0, 0.09949516077941593
105.0, 0.11306230604999941
106.0, 0.1340084505057374
107.0, 0.16997420175966
108.0, 0.2282075717163183
109.0, 0.28371074488040143
110.0, 0.3429663826958653
111.0, 0.39839630174423807
112.0, 0.4221698073192895
113.0, 0.3922834986613208
114.0, 0.34195238273618533
115.0, 0.2831031612726235
116.0, 0.21727160121114095
117.0, 0.16111869106910276
118.0, 0.11562337194724773
119.0, 0.08608459992994184
120.0, 0.06405427365818471
121.0, 0.048652458647949405
122.0, 0.04013712585281417
123.0, 0.03126074222480864
124.0, 0.02615529718318087
125.0, 0.022949571830598245
126.0, 0.018464264998444595
127.0, 0.02264201856442092
128.0, 0.026309439404068716
129.0, 0.027032061427176617
130.0, 0.024161612662154157
131.0, 0.021227819022229744
132.0, 0.016747814758503867
133.0, 0.00809204947287416
134.0, 0.006230672266845862
135.0, 0.003888151190357099
136.0, 0.0004137254947469219
137.0, 0.0013129398661969472
138.0, 0.001525916688222157
139.0, 0.0012660411975644252
140.0, 0.0006077084729246695
141.0, 0.0012310628567839006
142.0, 0.0010958145714026555
143.0, 0.00030792165430626727
144.0, 0.00036082885220697664
145.0, 0.0010808662618826041
146.0, 0.0014035493076659782
147.0, 0.0005965178293964719
148.0, 0.004724751361938359
149.0, 0.010570953625800945
150.0, 0.02011792134930539
151.0, 0.040759323785129656
152.0, 0.045805875584120755
153.0, 0.05722658823240688
154.0, 0.08347892747350938
155.0, 0.11036540367281739
156.0, 0.14780553816774428
157.0, 0.19052821667732422
158.0, 0.23067389943568054
159.0, 0.2633384566752697
160.0, 0.2879892486804356
161.0, 0.3023328812935368
162.0, 0.2866956630421096
163.0, 0.26754699377646396
164.0, 0.24289248230198718
165.0, 0.2093299408319283
166.0, 0.18072932786516632
167.0, 0.15118609275875958
168.0, 0.12058083861944091
169.0, 0.09067305341237217
170.0, 0.07293877025295072
171.0, 0.05888625371994809
172.0, 0.04466928211209585
173.0, 0.04582929663043829
174.0, 0.04627647373919169
175.0, 0.04714279994147235
176.0, 0.05137682060701197
177.0, 0.056875039905381
178.0, 0.0638174506545503
179.0, 0.07279452030905278
180.0, 0.08975142216508966
181.0, 0.10514153631289419
182.0, 0.12186507025827018
183.0, 0.14338887145578152
184.0, 0.15765117481910498
185.0, 0.16628734637071138
186.0, 0.16822109378867214
187.0, 0.1568447943490343
188.0, 0.13491387111624312
189.0, 0.11109441311069074
190.0, 0.08937828598876033
191.0, 0.06238562263246722
192.0, 0.04461707772111962
193.0, 0.03273543837950201
194.0, 0.021601114912409104
195.0, 0.01477096706159798
196.0, 0.010230482456214848
197.0, 0.007347961148736839
198.0, 0.003759026948573348
199.0, 0.0057745828367042635
200.0, 0.008714797283597185
201.0, 0.008941971775323776
202.0, 0.014323892867492182
203.0, 0.019905385855694503
204.0, 0.025236749504060796
205.0, 0.029713248027890486
206.0, 0.03367212981818936
207.0, 0.03382065349555754
208.0, 0.02932332893631599
209.0, 0.02901797865838821
210.0, 0.023784293548832113
211.0, 0.017229059170468047
212.0, 0.013289356800410573
213.0, 0.012160781155949955
214.0, 0.01255098509943036
215.0, 0.015069399345264413
216.0, 0.02312748029002023
217.0, 0.03170521754615126
218.0, 0.04583639410941986
219.0, 0.06804786841941149
220.0, 0.09177389143311142
221.0, 0.1205530698260769
222.0, 0.1500237056960675
223.0, 0.17390978991050124
224.0, 0.1843042003356389
225.0, 0.1891227251468801
226.0, 0.18667907524494118
227.0, 0.16234687570446305
228.0, 0.14454983350195572
229.0, 0.12642674158698647
230.0, 0.10476043383044364
231.0, 0.09587432914066482
232.0, 0.08754031925076579
233.0, 0.07864551900827574
234.0, 0.0672848794077852
235.0, 0.0571581055009849
236.0, 0.045034812675616875
237.0, 0.0315463841942376
238.0, 0.022389443407911224
239.0, 0.013235733728239978
240.0, 0.006089765630720528
241.0, 0.0021393654538613056
242.0, 0.0010518014256457146
243.0, 0.0014626662726965885
244.0, 0.002372822149999559
245.0, 0.0023545325923077
246.0, 0.0038888458971699296
247.0, 0.008594505559770404
248.0, 0.01644752930387689
249.0, 0.02664297146307983
250.0, 0.0414293063297126
251.0, 0.05933457017454063
252.0, 0.07993787146881962
253.0, 0.10205405809950079
254.0, 0.12544640556367753
255.0, 0.14341181027872546
256.0, 0.14641562549538528
257.0, 0.14167819539527363
258.0, 0.12758689380478297
259.0, 0.10522833625187558
260.0, 0.0777503570352102
261.0, 0.057918209245266854
262.0, 0.040804769149491486
263.0, 0.025410255725070045
264.0, 0.01855052773157071
265.0, 0.0111460488231803
266.0, 0.005328330356738546
267.0, 0.003302707460556493
268.0, 0.0035520293639346536
269.0, 0.003587389158132106
270.0, 0.004209333518479441
271.0, 0.007760194677762122
272.0, 0.007631949647158013
273.0, 0.007669942995693495
274.0, 0.008419529308320014
275.0, 0.007762744155428183
276.0, 0.008080911702339133
277.0, 0.010501845792728476
278.0, 0.01587445978781827
279.0, 0.02356781976190654
280.0, 0.03462503226176461
281.0, 0.04606654149126567
282.0, 0.05353447096220992
283.0, 0.06042125291727991
284.0, 0.0647681559580778
285.0, 0.06583609357602468
286.0, 0.06132954737949393
287.0, 0.05794678870776233
288.0, 0.05235356008711811
289.0, 0.044013756225010484
290.0, 0.040558372376699826
291.0, 0.03422072994496647
292.0, 0.027037876276011646
293.0, 0.020488232920937096
294.0, 0.014408727354508035
295.0, 0.00921255651247926
296.0, 0.005041496842156013
297.0, 0.002298826776418798
298.0, 0.0014616728120139008
299.0, 0.0010548641714579962
300.0, 0.0009574309290298602
301.0, 0.0016190768709250028
302.0, 0.0021946566070026757
303.0, 0.0019184983296873992
304.0, 0.000611096530055322
305.0, 0.0002509508565718216
306.0, 0.0020602260436440143
307.0, 0.004502828206240227
308.0, 0.0064066043598275755
309.0, 0.010434016290980674
310.0, 0.014513710455456227
311.0, 0.0188709186927029
312.0, 0.024034928405658483
313.0, 0.030489522913762702
314.0, 0.035160648666169074
315.0, 0.03857215921348548
316.0, 0.044248124395530136
317.0, 0.04543943558355546
318.0, 0.045421808721063016
319.0, 0.04524439806630654
320.0, 0.045169501890461705
321.0, 0.04234227398638811
322.0, 0.03959208717249702
323.0, 0.03877456658351185
324.0, 0.034451246793334826
325.0, 0.03222290425390387
326.0, 0.03078475954742601
327.0, 0.02843630277752645
328.0, 0.02613341136729577
329.0, 0.025545944435768266
330.0, 0.02578539237994977
331.0, 0.02417561986721069
332.0, 0.02566750802676401
333.0, 0.02636979551542362
334.0, 0.025786595118429987
335.0, 0.025930065923176017
336.0, 0.027070573096013833
337.0, 0.02891812309052508
338.0, 0.03147481861412215
339.0, 0.036029303901463944
340.0, 0.03898028488676935
341.0, 0.0419786348377642
342.0, 0.04637158988324486
343.0, 0.050206821192060776
344.0, 0.054036169991547985
345.0, 0.05779115418687353
346.0, 0.061346822079976514
347.0, 0.05997093525740788
348.0, 0.060411763323227514
349.0, 0.06081062363856845
350.0, 0.05426716166015992
351.0, 0.05016181684764
352.0, 0.04462468764690998
353.0, 0.037553995195192126
354.0, 0.03273216640611389
355.0, 0.03059667897757338
356.0, 0.02827940058289462
357.0, 0.02519028941609604
358.0, 0.027504655580384795
359.0, 0.029219476512839734
360.0, 0.03058605517663529
361.0, 0.031738250712548995
362.0, 0.03199076577005566
363.0, 0.02827788069870849
364.0, 0.02337902021805554
365.0, 0.02039373576427082
366.0, 0.011770983569324293
367.0, 0.0065314717777197155
368.0, 0.0036494585663868796
369.0, 0.0005591036625902613
370.0, 0.0021210050975379756
371.0, 0.0023575395751016417
372.0, 0.0017578385823277828
373.0, 0.004219178059982041
374.0, 0.00436723056051948
375.0, 0.003738445307088522
376.0, 0.003077744902964212
377.0, 0.004433652842923152
378.0, 0.003086388038908462
379.0, 0.0024917485232641336
380.0, 0.003472561108806839
381.0, 0.0007918483425766395
382.0, 0.0004820875616373181
383.0, 0.001117239317560991
384.0, 0.0019340775559256412
385.0, 0.003792929470574192
386.0, 0.004463361303019352
387.0, 0.005774625499445766
388.0, 0.009432284103357677
389.0, 0.009151921282132665
390.0, 0.011477826957510522
391.0, 0.014843122358793742
392.0, 0.017054993099458172
393.0, 0.020137139442101153
394.0, 0.023860426267898173
395.0, 0.027769365520672384
396.0, 0.03100307735205184
397.0, 0.03663923218778178
398.0, 0.04136670873008551
399.0, 0.04530515833769341
400.0, 0.049985064395166284
401.0, 0.05674482186821344
402.0, 0.06268128721661172
403.0, 0.06797194059404858
404.0, 0.0758902162739779
405.0, 0.0763746799827571
406.0, 0.07751100493294438
407.0, 0.08061295041536651
408.0, 0.07850579698834514
409.0, 0.07251445159976695
410.0, 0.06675390830821785
411.0, 0.06220601930809884
412.0, 0.051244939118149486
413.0, 0.045247433985716116
414.0, 0.03980484242784377
415.0, 0.03266036965612977
416.0, 0.028250801170356814
417.0, 0.02580342092051729
418.0, 0.023001970683215127
419.0, 0.018277598599179146
420.0, 0.022640277559061988
421.0, 0.02331145270276224
422.0, 0.023978360648046235
423.0, 0.02829472504235127
424.0, 0.03307644635518399
425.0, 0.03814730249919776
426.0, 0.04565606635223415
427.0, 0.05848727022725151
428.0, 0.06600305590494417
429.0, 0.07840011316715431
430.0, 0.0935513081927644
431.0, 0.10745877391404318
432.0, 0.11992469165738187
433.0, 0.13435977693967055
434.0, 0.14658317781884175
435.0, 0.14762599936497608
436.0, 0.15812082892865092
437.0, 0.15921035587950697
438.0, 0.15273557061900633
439.0, 0.14791051068826835
440.0, 0.14756568705009654
441.0, 0.14192890587112586
442.0, 0.13357252651832086
443.0, 0.1341391494922527
444.0, 0.13058259921810358
445.0, 0.13021735918464308
446.0, 0.13302247107097606
447.0, 0.13422569819189045
448.0, 0.13194453469927517
449.0, 0.13299103092633166
450.0, 0.1363174973186246
451.0, 0.131377460458301
452.0, 0.13036384986898628
453.0, 0.1272631936489614
454.0, 0.12084916585103561
455.0, 0.11304367897708145
456.0, 0.10947109573649366
457.0, 0.10284359472342887
458.0, 0.09262246783368996
459.0, 0.08817702230628216
460.0, 0.08036786561627444
461.0, 0.07228810263190946
462.0, 0.06537779515927465
463.0, 0.061931334165197756
464.0, 0.053820602435280966
465.0, 0.047756494051359503
466.0, 0.0452549507144099
467.0, 0.03924182607120343
468.0, 0.03591974423894077
469.0, 0.03321081718721781
470.0, 0.03022284031029432
471.0, 0.02648299394500382
472.0, 0.02550804044750266
473.0, 0.023764804949629043
474.0, 0.02037878482533954
475.0, 0.02050581894146906
476.0, 0.019190199547578512
477.0, 0.0180342285297235
478.0, 0.017715939558403063
479.0, 0.017901591362082924
480.0, 0.01642231936451591
481.0, 0.016135247348666903
482.0, 0.017653287830162234
483.0, 0.014917112783982792
484.0, 0.01450654382082128
485.0, 0.01525480581598582
486.0, 0.016280383998987843
487.0, 0.014501562912253668
488.0, 0.01603798676989701
489.0, 0.01687680579957486
490.0, 0.015718873231119736
491.0, 0.016896334912993048
492.0, 0.017178435419627696
493.0, 0.01736914144904766
494.0, 0.01787187328732578
495.0, 0.01906704843699262
496.0, 0.017988232554753302
497.0, 0.018217377725613812
498.0, 0.02071091780130035
499.0, 0.0213634291337679
500.0, 0.020990318670559234
501.0, 0.022136939265057786
502.0, 0.02512381674367163
503.0, 0.025299583209504074
504.0, 0.0274218490288271
505.0, 0.02894745760753306
506.0, 0.029474806431797295
507.0, 0.03213386836652114
508.0, 0.036282357273430155
509.0, 0.039485320397775074
510.0, 0.04169189260387076
511.0, 0.046821577925424046
512.0, 0.049369833139295105
513.0, 0.05338306550002974
514.0, 0.059911999063249025
515.0, 0.06822425469686189
516.0, 0.07202205637388438
517.0, 0.08032274240672936
518.0, 0.09286832792441177
519.0, 0.09969771816049362
520.0, 0.11320332926608598
521.0, 0.12871919084397543
522.0, 0.1446134662365292
523.0, 0.15901424513665044
524.0, 0.1861378887013817
525.0, 0.21498631951043623
526.0, 0.24624347140115585
527.0, 0.28739996219592057
528.0, 0.33599148946267726
529.0, 0.3945080880610847
530.0, 0.4688915809746848
531.0, 0.5720790002433237
532.0, 0.6586257181818601
533.0, 0.7711137800531597
534.0, 0.887352678983429
535.0, 0.9575470165269474
536.0, 0.9888517858932516
537.0, 0.9877397780396712
538.0, 0.9384572248786432
539.0, 0.8156817446902046
540.0, 0.7088443048107957
541.0, 0.5954178484230688
542.0, 0.4846135028724323
543.0, 0.388745057352636
544.0, 0.32790328718374473
545.0, 0.2687778046243944
546.0, 0.22018560529913508
547.0, 0.1905316526091092
548.0, 0.16267543374459428
549.0, 0.13918607664831617
550.0, 0.12044541332918351
551.0, 0.10632638459434031
552.0, 0.08990388627437758
553.0, 0.08225045487176061
554.0, 0.07555682835925225
555.0, 0.06598563704824714
556.0, 0.060595248728972706
557.0, 0.055331637448184035
558.0, 0.05056359713841491
559.0, 0.04639406075273456
560.0, 0.04242751453836429
561.0, 0.038391968139581
562.0, 0.0358763027706923
563.0, 0.03488140242902176
564.0, 0.033248610626763715
565.0, 0.029562559808989215
566.0, 0.028389269584527917
567.0, 0.02857411014400766
568.0, 0.023724160861313695
569.0, 0.02432791605549159
570.0, 0.023454746990442674
571.0, 0.021048500066497743
572.0, 0.01911735294641231
573.0, 0.019738688246348182
574.0, 0.018327261465599206
575.0, 0.016679392518969417
576.0, 0.017949671831894116
577.0, 0.016523088947177023
578.0, 0.015489045339705928
579.0, 0.014980810146500462
580.0, 0.014975875583150812
581.0, 0.012675814318283019
582.0, 0.012605836562890585
583.0, 0.013048436998979684
584.0, 0.01280886047705036
585.0, 0.012584654247977625
586.0, 0.01364770934924854
587.0, 0.01364241938712186
588.0, 0.012021148784025895
589.0, 0.012711049895169033
590.0, 0.013575315392607734
591.0, 0.013392644634166662
592.0, 0.012505888422087264
593.0, 0.013695577857233231
594.0, 0.012059369931545853
595.0, 0.011987784678085155
596.0, 0.013122122845189488
597.0, 0.012548200202925155
598.0, 0.012293956377602916
599.0, 0.012298975710518517
600.0, 0.012092074733516079
601.0, 0.010968600685449734
602.0, 0.011170514798073222
603.0, 0.010799113721442846
604.0, 0.01048593792024985
605.0, 0.01085266527127946
606.0, 0.00992785211285519
607.0, 0.00883549193794053
608.0, 0.00841272152925116
609.0, 0.008847973598470832
610.0, 0.00708850230427349
611.0, 0.007461672874538584
612.0, 0.007320527571140786
613.0, 0.005957760334293738
614.0, 0.004848195708396971
615.0, 0.003949633258292256
616.0, 0.002841180954732426
617.0, 0.0018198424886621007
618.0, 0.0018773393891196569
619.0, 0.001737770251665094
620.0, 0.0013987322197607686
621.0, 0.0008535066304604397
622.0, 9.640941201491545e-05
623.0, 0.001452135608198719
624.0, 0.0023204023699891596
625.0, 0.002528037263146577
626.0, 0.0020871692719794457
627.0, 0.0028240620918824548
628.0, 0.0020965123058332533
629.0, 0.0019867333819412023
630.0, 0.0031468565241952033
631.0, 0.0025151788983540165
632.0, 0.0023224603228582906
633.0, 0.0025819580903126537
634.0, 0.0026732456435069997
635.0, 0.0006097141021306383
636.0, 0.000708135552785445
637.0, 0.0006405192907252714
638.0, 0.000436256826901247
639.0, 0.0007511079382333654
640.0, 0.0016882346913073246
641.0, 0.002419819119807582
642.0, 0.003013533247205123
643.0, 0.003590644835818808
644.0, 0.004481411128900343
645.0, 0.005051268806456835
646.0, 0.005374273180138702
647.0, 0.005766817295657764
648.0, 0.00795346519663582
649.0, 0.008063908217344009
650.0, 0.008629224415921528
651.0, 0.010089803017355261
652.0, 0.011531588283180039
653.0, 0.012440569193274022
654.0, 0.01393636411400251
655.0, 0.01546135770127972
656.0, 0.015939706705140718
657.0, 0.018377859842968823
658.0, 0.021061461934094198
659.0, 0.023105784691233613
660.0, 0.02414848159504097
661.0, 0.02854512538908445
662.0, 0.0311937633193179
663.0, 0.03500014797960735
664.0, 0.04028366263880665
665.0, 0.042797465954502636
666.0, 0.04758363170428102
667.0, 0.05490237510451652
668.0, 0.062454354865878345
669.0, 0.06537715204645671
670.0, 0.07331296386244128
671.0, 0.08019797586458338
672.0, 0.08468568596258501
673.0, 0.08620442509133641
674.0, 0.09358596164312465
675.0, 0.0910978561233268
676.0, 0.08834131099390044
677.0, 0.08869805119669984
678.0, 0.08146919678232997
679.0, 0.07358160903098952
680.0, 0.06698506177094372
681.0, 0.06049611072305157
682.0, 0.050114825127613886
683.0, 0.04429797454937193
684.0, 0.03840269381176111
685.0, 0.03245399344315635
686.0, 0.026975538223197416
687.0, 0.023619795982050183
688.0, 0.019421212031145538
689.0, 0.016466830561750224
690.0, 0.015472044895743364
691.0, 0.013717883560731252
692.0, 0.01164169175849708
693.0, 0.010234111453860807
694.0, 0.009492028825875421
695.0, 0.008814822303687447
696.0, 0.009302817196905457
697.0, 0.009756296786129996
698.0, 0.009983152932553314
699.0, 0.01000225448726598
700.0, 0.012580119428827296
701.0, 0.014518002648005027
702.0, 0.016608745761390313
703.0, 0.019343959513792957
704.0, 0.02310237262346767
705.0, 0.02483523159764829
706.0, 0.02782219091075976
707.0, 0.030580047126940017
708.0, 0.02895425181052187
709.0, 0.0315631434120329
710.0, 0.031625935035065104
711.0, 0.030446560963868777
712.0, 0.029375318096537643
713.0, 0.026988314695297496
714.0, 0.02470691396308503
715.0, 0.023987368489038683
716.0, 0.024536189761041504
717.0, 0.023481837222858064
718.0, 0.021580478647148054
719.0, 0.021760596320324975
720.0, 0.022961975435572893
721.0, 0.023150844641825746
722.0, 0.024239803706629596
723.0, 0.02630869759219781
724.0, 0.027818529235220105
725.0, 0.028447933231162986
726.0, 0.03192276486331205
727.0, 0.03269883458898815
728.0, 0.03483086142059951
729.0, 0.03739985152733987
730.0, 0.036471763585082334
731.0, 0.0341381648506595
732.0, 0.032930609242330225
733.0, 0.03167235535352381
734.0, 0.029365449677624913
735.0, 0.027744728437298975
736.0, 0.025253149200993058
737.0, 0.02294044001355643
738.0, 0.021570072431419052
739.0, 0.022232973714964847
740.0, 0.020295172936291437
741.0, 0.019680123284576554
742.0, 0.019565105608207765
743.0, 0.018611720118903118
744.0, 0.019580882103846786
745.0, 0.021617313482611523
746.0, 0.02242491173047973
747.0, 0.02208756400221614
748.0, 0.02524219431765521
749.0, 0.027573432885571084
750.0, 0.0286235671082902
751.0, 0.03023979844993025
752.0, 0.0349912645459888
753.0, 0.03434118213847602
754.0, 0.03639230520453164
755.0, 0.03835797718795797
756.0, 0.038565345347747956
757.0, 0.03703430522849844
758.0, 0.03775744912712434
759.0, 0.03574489421856262
760.0, 0.03245818211237754
761.0, 0.031942464667669444
762.0, 0.027662595143092727
763.0, 0.02436467824864079
764.0, 0.02239007289095672
765.0, 0.021297408439614765
766.0, 0.017752821918462624
767.0, 0.016108148542396054
768.0, 0.01507447802842795
769.0, 0.013730189362633732
770.0, 0.010998025594145736
771.0, 0.011084352824936724
772.0, 0.009120680493034461
773.0, 0.007261245857746414
774.0, 0.006814824804952078
775.0, 0.006352130499141584
776.0, 0.0050228739682136
777.0, 0.0043490960722264585
778.0, 0.003996513393367126
779.0, 0.0027761722694477956
780.0, 0.0023090617276951414
781.0, 0.0022433957191099227
782.0, 0.0015741451415474147
783.0, 0.00017462073841411003
784.0, 0.0009311369913203645
785.0, 0.0011649129497253983
786.0, 0.0008802865022306999
787.0, 0.0005319871681307776
788.0, 0.0008448213411665873
789.0, 0.0009508165080458522
790.0, 0.0005853357273634881
791.0, 0.0005771014526734551
792.0, 0.0011286538168340302
793.0, 0.0008727156318172775
794.0, 0.0010024566304613722
795.0, 0.0010680925120546325
796.0, 0.0008291062220970235
797.0, 0.00011780603663286192
798.0, 0.000538760269871277
799.0, 0.0010212409968443819
800.0, 0.0010152538747747989
801.0, 0.0006523597865999127
802.0, 0.0013977042343779919
803.0, 0.001408078722758545
804.0, 0.0014201787028954899
805.0, 0.001329878721651716
806.0, 0.0009350616152186495
807.0, 0.0005494885750384039
808.0, 0.00025190870297641955
809.0, 0.00020796535389722818
810.0, 0.00034387954506707476
811.0, 0.00029194544835098356
812.0, 0.0005398831546665726
813.0, 0.0004529916803380678
814.0, 0.00040207195024851333
815.0, 0.0006441091925962309
816.0, 0.0002713929439487406
817.0, 0.0002754576396116778
818.0, 0.00021939907001884232
819.0, 0.00017172230231952786
820.0, 0.0004812300183321293
821.0, 0.0004052655659510159
822.0, 0.0003876829553405832
823.0, 0.0005672174338518615
824.0, 0.0008060372673410537
825.0, 0.00012490568196356241
826.0, 0.0005176443315290978
827.0, 0.0007409618796197699
828.0, 0.0005880551276448613
829.0, 0.0001577385573966393
830.0, 0.0010066350242545442
831.0, 0.0007498615318924406
832.0, 0.0006378675978419204
833.0, 0.0009911667248234674
834.0, 0.0012536740701537404
835.0, 0.0006119072610516441
836.0, 0.0008268665950805267
837.0, 0.0008643097249336408
838.0, 0.0001127314785720813
839.0, 0.0009396957101713674
840.0, 0.001247509907280956
841.0, 0.0010779447245043419
842.0, 0.000981583709228755
843.0, 0.0017513868378195856
844.0, 0.0012384844132751673
845.0, 0.0012600154699225774
846.0, 0.0015155154335828262
847.0, 0.0017552960907162689
848.0, 0.001704267775567912
849.0, 0.0018264465396857386
850.0, 0.001429395432674069
851.0, 0.0012573574706445795
852.0, 0.0018526952850102367
853.0, 0.0016452771627911025
854.0, 0.0015371740788886698
855.0, 0.0019473927150016573
856.0, 0.0022586452669609678
857.0, 0.0013447784400943447
858.0, 0.0017893355094722404
859.0, 0.0018765309534703686
860.0, 0.0018708860383806628
861.0, 0.0019285944097848604
862.0, 0.002096548900128203
863.0, 0.0015310505197470659
864.0, 0.0010644864039615755
865.0, 0.0011502125702843352
866.0, 0.0018140489482744433
867.0, 0.0011198404968983998
868.0, 0.0018041735991810152
869.0, 0.0018765374287129215
870.0, 0.0016354224544120081
871.0, 0.0021361834835590373
872.0, 0.001870211338471324
873.0, 0.0011961820109709909
874.0, 0.0011789818637887948
875.0, 0.0017968206774625411
876.0, 0.0018399312630013854
877.0, 0.00117407029080905
878.0, 0.001233416844715481
879.0, 0.0015077719287416218
880.0, 0.0015441627911332908
881.0, 0.0012581953324809793
882.0, 0.00205198217356664
883.0, 0.001824399773753576
884.0, 0.0013129965390327202
885.0, 0.0016016979686951523
886.0, 0.0013655707324204782
887.0, 0.0012132339460153437
888.0, 0.0016164225399568606
889.0, 0.0019199581718153712
890.0, 0.0008204658783820041
891.0, 0.0013601845761936305
892.0, 0.0017706949240053223
893.0, 0.0018561476327967226
894.0, 0.001682459496828033
895.0, 0.001685483179387723
896.0, 0.0009847843027084831
897.0, 0.0008912211042481133
898.0, 0.0012227794832735575
899.0, 0.0015627250457936072
900.0, 0.0009764277593793418
901.0, 0.0014610235799431006
902.0, 0.0012161855841339331
903.0, 0.000905535959572849
904.0, 0.0014613736014635341
905.0, 0.0022051304257203136
906.0, 0.0015482683481465491
907.0, 0.0013938913865036014
908.0, 0.0016021511075421993
909.0, 0.001220309891015594
910.0, 0.0013057299622051069
911.0, 0.001310843078423428
912.0, 0.0013359185478655391
913.0, 0.0013609246538040032
914.0, 0.001254948304541472
915.0, 0.001437922369563407
916.0, 0.001189416575928913
917.0, 0.001467813268049659
918.0, 0.002023103543721967
919.0, 0.00030381351653926633
920.0, 0.0011716629089260177
921.0, 0.0020510665942169337
922.0, 0.0019705627601554554
923.0, 0.0010884499366513429
924.0, 0.0028359560829113637
925.0, 0.0020598268838133036
926.0, 0.002091395476530606
927.0, 0.0028230526156722406
928.0, 0.0034839151254373256
929.0, 0.003163851239149391
930.0, 0.003722487030393799
931.0, 0.0038932384348754293
932.0, 0.0038009618790978555
933.0, 0.004061224055201284
934.0, 0.005542135817500954
935.0, 0.004703633990574548
936.0, 0.0048172522793920106
937.0, 0.005544520068759074
938.0, 0.004678045043697668
939.0, 0.004425657305882391
940.0, 0.004917099213513315
941.0, 0.004845180724575422
942.0, 0.0039167336121707485
943.0, 0.002689727542127723
944.0, 0.002024408287331106
945.0, 0.0014895086181210514
946.0, 0.0011517753973044437
947.0, 0.001045325554126638
948.0, 0.0011719069472167871
949.0, 0.0011749984462856179
950.0, 0.0016703648264649801
951.0, 0.001873699284042969
952.0, 0.001515474784425963
953.0, 0.0013710633752187507
954.0, 0.0016708744180518275
955.0, 0.001364971884564438
956.0, 0.0013178694310414171
957.0, 0.00177385194384243
958.0, 0.000950888035174124
959.0, 0.0006954454995031061
960.0, 0.0006195506925014786
961.0, 0.000535223205064796
962.0, 0.00046500404312645356
963.0, 0.0011227459271735821
964.0, 0.0013546607271289913
965.0, 0.001317262495856775
966.0, 0.001491706807091256
967.0, 0.0020233474591337453
968.0, 0.0012834423071692368
969.0, 0.0021767139357166156
970.0, 0.0022966340947193392
971.0, 0.002035752708711963
972.0, 0.0023529855162960074
973.0, 0.003974031854316952
974.0, 0.002643605569740531
975.0, 0.0024475747930138457
976.0, 0.002964975557845966
977.0, 0.0028852952416586223
978.0, 0.0030255381101286925
979.0, 0.004395487475969877
980.0, 0.004911520641150211
981.0, 0.005704608371419144
982.0, 0.008171768880499699
983.0, 0.008240606167378
984.0, 0.009133866280179752
985.0, 0.011233959840811632
986.0, 0.013559214378442425
987.0, 0.014957294863953247
988.0, 0.017110267062219627
989.0, 0.017542906998496286
990.0, 0.016559514672409827
991.0, 0.015192481160640713
992.0, 0.014489876715351693
993.0, 0.012775640699210996
994.0, 0.011560447486297636
995.0, 0.010913324115341532
996.0, 0.010026000529530163
997.0, 0.008204459551173366
998.0, 0.008594079215985264
999.0, 0.00848573815373054
1000.0, 0.008187588881331483
1001.0, 0.008640534955503543
1002.0, 0.010393968520485485
1003.0, 0.00910181422610611
1004.0, 0.009636778793810027
1005.0, 0.010496329778978174
1006.0, 0.010937628374114683
1007.0, 0.010909182260385073
1008.0, 0.013647083373514632
1009.0, 0.016031047335825388
1010.0, 0.018361429934066833
1011.0, 0.021828916931746215
1012.0, 0.02707331397942643
1013.0, 0.029923786939455823
1014.0, 0.03597190156990475
1015.0, 0.0427399240085994
1016.0, 0.04802863183974347
1017.0, 0.05110116949224746
1018.0, 0.05821419402669671
1019.0, 0.05921725525316679
1020.0, 0.05933497609259968
1021.0, 0.05939905817594011
1022.0, 0.05866624333216626
1023.0, 0.05341937340853397
1024.0, 0.056186946589788615
1025.0, 0.058288942550460236
1026.0, 0.06070447522202854
1027.0, 0.06550412370307566
1028.0, 0.07356143701128463
1029.0, 0.06922922731832641
1030.0, 0.0663116453760357
1031.0, 0.0618330573042072
1032.0, 0.05302736280050792
1033.0, 0.041923629839783635
1034.0, 0.03866510216395962
1035.0, 0.033259922249991115
1036.0, 0.029078927129044887
1037.0, 0.02798764250173034
1038.0, 0.02760592656021918
1039.0, 0.02423884872674541
1040.0, 0.02529229514080845
1041.0, 0.026606900763076643
1042.0, 0.02587589325031972
1043.0, 0.023683156052367614
1044.0, 0.02499798772305502
1045.0, 0.02263346397156998
1046.0, 0.019912928557006954
1047.0, 0.018313515194016406
1048.0, 0.017504915288384236
1049.0, 0.01485563615097136
1050.0, 0.014148541375878483
1051.0, 0.013730305338933872
1052.0, 0.013088515832548648
1053.0, 0.0124332538572272
1054.0, 0.01263551949314621
1055.0, 0.011206027891762987
1056.0, 0.011027947199915105
1057.0, 0.011579470162707634
1058.0, 0.011340178281517982
1059.0, 0.01064214642595249
1060.0, 0.012089943799344714
1061.0, 0.01217617850436331
1062.0, 0.011887416683528282
1063.0, 0.012755559191832383
1064.0, 0.014671077384381333
1065.0, 0.013221062243762913
1066.0, 0.013052539579496897
1067.0, 0.013601022377683823
1068.0, 0.013614640435121035
1069.0, 0.011765194118370143
1070.0, 0.013327363153886529
1071.0, 0.013134339975825074
1072.0, 0.01258876424674717
1073.0, 0.012782415385735449
1074.0, 0.013956007065459918
1075.0, 0.011124847580848411
1076.0, 0.012186225830709397
1077.0, 0.01220048168215064
1078.0, 0.010947172373732897
1079.0, 0.01121073623540186
1080.0, 0.012213164462452132
1081.0, 0.01101984855763426
1082.0, 0.011096862083894626
1083.0, 0.012296670537289958
1084.0, 0.013194905855402145
1085.0, 0.0128004797878814
1086.0, 0.014396875592084232
1087.0, 0.016044782707432852
1088.0, 0.017419567172954863
1089.0, 0.019185793705890315
1090.0, 0.023772760362027058
1091.0, 0.023765382912512296
1092.0, 0.027964067424327835
1093.0, 0.03211459391800083
1094.0, 0.03442498191291457
1095.0, 0.03733791747953149
1096.0, 0.04277788866275328
1097.0, 0.046211480010016216
1098.0, 0.04898259299904699
1099.0, 0.05136283733769242
1100.0, 0.05272866990928939
1101.0, 0.050492518073575465
1102.0, 0.049723837026532956
1103.0, 0.04702276998916128
1104.0, 0.04233138929907672
1105.0, 0.03745103374527912
1106.0, 0.03711461164314317
1107.0, 0.03193479426958799
1108.0, 0.028132445624080765
1109.0, 0.025773279774619174
1110.0, 0.023779003281866586
1111.0, 0.020511309448376435
1112.0, 0.01927335149187529
1113.0, 0.017430732694002894
1114.0, 0.015699375038292142
1115.0, 0.014508884522958341
1116.0, 0.013838302563100723
1117.0, 0.011707276920706028
1118.0, 0.01142809356835878
1119.0, 0.01072381037402174
1120.0, 0.009516224126040251
1121.0, 0.00841871541953488
1122.0, 0.00790800929856519
1123.0, 0.006954862272052077
1124.0, 0.005893386297155423
1125.0, 0.005796862947082386
1126.0, 0.006260695503172295
1127.0, 0.004701389222640777
1128.0, 0.004407342529097171
1129.0, 0.0042257515012274986
1130.0, 0.003713455023141408
1131.0, 0.003335826136665652
1132.0, 0.0038535926925436243
1133.0, 0.003949550531927054
1134.0, 0.0036138652219956597
1135.0, 0.0038036233185737857
1136.0, 0.003531326636081794
1137.0, 0.00242327460832497
1138.0, 0.0028108951240892726
1139.0, 0.0016267339337450917
1140.0, 0.0016373449066968008
1141.0, 0.0020991041932483952
1142.0, 0.002182652512409275
1143.0, 0.0013542935068676218
1144.0, 0.0008560402852457444
1145.0, 0.0014503568207742564
1146.0, 0.0012125822403678552
1147.0, 0.001064348456309737
1148.0, 0.0020439651197162057
1149.0, 0.001623695092009244
1150.0, 0.0008727490674982402
1151.0, 0.0012646426256453262
1152.0, 0.0014094664988057789
1153.0, 0.0009738125061042703
1154.0, 0.0013436699761946217
1155.0, 0.001204061216503334
1156.0, 0.0009528479418950071
1157.0, 0.0012600126794834949
1158.0, 0.0015233670594781883
1159.0, 0.000961479451831759
1160.0, 0.000789559806641003
1161.0, 0.0011362357916548525
1162.0, 0.0009654804597623345
1163.0, 0.000648793009660146
1164.0, 0.0006977830210705406
1165.0, 0.0014372462550495805
1166.0, 0.00027814723118658443
1167.0, 0.0007227274994415417
1168.0, 0.00128595627490216
1169.0, 0.001115531503641798
1170.0, 0.0002227981002843125
1171.0, 0.0008941493718853451
1172.0, 0.000755922767983664
1173.0, 0.00048172509393518896
1174.0, 0.0005133194587991985
1175.0, 0.0007408138340745001
1176.0, 0.00038485614097754554
1177.0, 0.000699246023901782
1178.0, 0.001014528326377754
1179.0, 0.0011219198815125555
1180.0, 0.0012895836337088714
1181.0, 0.001570194338193164
1182.0, 0.00017912177227180008
1183.0, 0.000894822896841972
1184.0, 0.0014504399840462433
1185.0, 0.0011214240729120817
1186.0, 0.00044723123059717696
1187.0, 0.0010086370860088313
1188.0, 0.0003053793933467019
1189.0, 0.0005705064129851368
1190.0, 0.0007510419027058088
1191.0, 0.0005258452697695367
1192.0, 0.00015817372978620126
1193.0, 0.0007759308444157684
1194.0, 0.0006124269742568555
1195.0, 0.0004094618720080513
1196.0, 0.0006705704450960569
1197.0, 0.0009051564831114641
1198.0, 0.00012648619919841732
1199.0, 0.000531563006575976
1200.0, 0.0005323890490799735
1201.0, 0.00035330077668862
1202.0, 0.00032012873016306053
1203.0, 0.0006152494449147131
1204.0, 0.0010877461885957385
1205.0, 0.0008126434756480608
1206.0, 0.0008126234003282888
1207.0, 0.0009853247942540966
1208.0, 0.0008695301501530917
1209.0, 0.0003251375761742037
1210.0, 0.001443223415636573
1211.0, 0.00039310179866877833
1212.0, 0.0004286293974983137
1213.0, 0.0007582816971356572
1214.0, 0.0006939719215721109
1215.0, 0.00035610759996425865
1216.0, 0.0011021001429425453
1217.0, 0.0008619677704220051
1218.0, 0.0005820699700785724
1219.0, 0.0009503598325968515
1220.0, 0.001616614309788442
1221.0, 0.00029203699922463356
1222.0, 0.0010405507456354639
1223.0, 0.0010012624939120585
1224.0, 0.000618667208905419
1225.0, 0.0006123162954592943
1226.0, 0.0013661731960644362
1227.0, 0.001445338625386265
1228.0, 0.0006862559291907029
1229.0, 0.0006066811303793047
1230.0, 0.0007203676873585773
1231.0, 0.0007136394628294916
1232.0, 0.0007307512471085078
1233.0, 0.0011165930594357633
1234.0, 0.0010106050390679161
1235.0, 0.0006937739965040767
1236.0, 0.0005022909340718166
1237.0, 0.0004692177646260957
1238.0, 0.0001253386923980577
1239.0, 0.0002770671331802467
1240.0, 0.00013652866490572102
1241.0, 0.0001189032892074614
1242.0, 0.000400298715875225
1243.0, 0.0007610706736156342
1244.0, 0.00022981725884770342
1245.0, 0.0008046577863960031
1246.0, 0.0010699916689659184
1247.0, 0.0007485868310188152
1248.0, 0.0006312728164642311
1249.0, 0.0014724247331240306
1250.0, 0.0007006405747072359
1251.0, 0.0005263347047432445
1252.0, 0.0006620842594792203
1253.0, 0.0005214820024682041
1254.0, 0.0003854449882657924
1255.0, 0.0011130791833136747
1256.0, 0.0009379589605700403
1257.0, 0.0003755882783529784
1258.0, 0.0011343035152876764
1259.0, 0.0013617859231009606
1260.0, 0.00043680701985348213
1261.0, 0.0003735052361126223
1262.0, 0.0007414699608184695
1263.0, 0.0003528625129195083
1264.0, 0.0006022083527971415
1265.0, 0.001059724615724868
1266.0, 0.0009615833227291147
1267.0, 0.00011636278466119497
1268.0, 0.0008514151581183133
1269.0, 0.00040790991987005255
1270.0, 0.00030750529527114967
1271.0, 0.0005606197076430421
1272.0, 0.0006392426807233943
1273.0, 0.0004110976692649788
1274.0, 0.00014943959332899685
1275.0, 0.0010623479515970767
1276.0, 0.0008722699010322651
1277.0, 0.0001184785653394138
1278.0, 0.00036549602355862975
1279.0, 0.0012038731613645535
1280.0, 0.0006223781142136687
1281.0, 0.0011321807791430597
1282.0, 0.0008605248576539023
1283.0, 0.0002693904900581087
1284.0, 0.0007780389252000254
1285.0, 0.0007615287351253301
1286.0, 0.0004035989254957104
1287.0, 0.0003256564623912419
1288.0, 0.00025271815197911086
1289.0, 0.00014894286260865052
1290.0, 0.00030020538616807885
1291.0, 0.0013550210650481991
1292.0, 0.000489724644280585
1293.0, 0.0002899092186558824
1294.0, 0.0009151840291920315
1295.0, 0.0012504425431222816
1296.0, 0.00019056446580027216
1297.0, 0.000903331642963389
1298.0, 0.0010436860522240932
1299.0, 0.0007096395488196012
1300.0, 0.0008696452127446721
1301.0, 0.001216778287955285
1302.0, 0.0006037115838673299
1303.0, 0.0002002867998988211
1304.0, 0.0012891213210467801
1305.0, 0.0010399360724069025
1306.0, 0.0006347599325855162
1307.0, 0.0007580852669673967
1308.0, 0.0009616169435851278
1309.0, 0.00017420102138430467
1310.0, 0.0006134178933764924
1311.0, 0.0006052283994333223
1312.0, 0.0005030232492610567
1313.0, 0.0004408942739173161
1314.0, 0.00023527079385153048
1315.0, 0.0005318686548889319
1316.0, 0.0008693436333793873
1317.0, 0.0010149110828636986
1318.0, 0.0006089002172901969
1319.0, 0.0003795949953271453
1320.0, 0.0012462551686259322
1321.0, 0.00047320910604273204
1322.0, 0.00032352111009210184
1323.0, 0.0004905932383149759
1324.0, 0.0004043476270230796
1325.0, 0.0004209226297060643
1326.0, 0.0011971283069520252
1327.0, 0.001408999053847137
1328.0, 0.0006275019439870294
1329.0, 0.000301691885253384
1330.0, 0.0003335293456078262
1331.0, 0.00037570402659637005
1332.0, 0.00029347534933529405
1333.0, 0.0009462990178088487
1334.0, 0.000197787191337871
1335.0, 4.831963250650881e-05
1336.0, 0.0004526588994856569
1337.0, 0.000628981732461901
1338.0, 6.625384506686547e-05
1339.0, 3.505141137131707e-06
1340.0, 0.000827097256210054
1341.0, 0.0003977502690339713
1342.0, 0.000340386716652886
1343.0, 0.0008883380372969924
1344.0, 0.001333512279103915
1345.0, 0.0007564463285595338
1346.0, 0.0005429989981612007
1347.0, 0.0007166229301270158
1348.0, 0.000933879542044989
1349.0, 0.0010840447669687148
1350.0, 0.0010149203833814753
1351.0, 0.00043974564867905975
1352.0, 0.0009038196652036384
1353.0, 0.0010706904220625605
1354.0, 0.0007293058884649187
1355.0, 0.0008323422104067036
1356.0, 0.0015090479900102833
1357.0, 0.001487984050445823
1358.0, 0.0005012785344305564
1359.0, 0.0014469952804355363
1360.0, 0.0015065343070201041
1361.0, 0.0012713361358854412
1362.0, 0.001209060030314646
1363.0, 0.0010597894998220895
1364.0, 0.0008348582438278658
1365.0, 0.00025055710996253457
1366.0, 6.247187779598311e-05
1367.0, 0.00019157856249136712
1368.0, 0.0006221050519877423
1369.0, 0.0012260095700751504
1370.0, 0.001209833703251142
1371.0, 0.0006587616249576042
1372.0, 0.0003777169678906396
1373.0, 0.00030727486139052457
1374.0, 0.0006863951891230815
1375.0, 0.0014850337952515592
1376.0, 0.0018608010670467425
1377.0, 0.0005392618737327117
1378.0, 0.0004822889772045039
1379.0, 0.001302335150327927
1380.0, 0.0011933545899844534
1381.0, 0.00040002285299888565
1382.0, 0.0015852710775474306
1383.0, 0.0014360736791686206
1384.0, 0.0014469890908583847
1385.0, 0.0013891541262532165
1386.0, 0.0014205194490989226
1387.0, 0.001683330630332375
1388.0, 0.00207225392944897
1389.0, 0.0018432660568762226
1390.0, 0.0014428170188008826
1391.0, 0.0021125982631003152
1392.0, 0.0023339669811440846
1393.0, 0.0018739393933234155
1394.0, 0.001441401648671639
1395.0, 0.001875006543626956
1396.0, 0.0014639157535265884
1397.0, 0.001186782979885143
1398.0, 0.0014072427318319787
1399.0, 0.0015106554818727317
1400.0, 0.001250937209085121
1401.0, 0.0012736845140502804
1402.0, 0.0027494812231871253
1403.0, 0.0013580664383347366
1404.0, 0.0019030549837681604
1405.0, 0.002179232107691087
1406.0, 0.0016348463343183574
1407.0, 0.0013817224136973686
1408.0, 0.0017958169660641583
1409.0, 0.00089104427555621
1410.0, 0.0005547974134883173
1411.0, 0.0015564252362422746
1412.0, 0.0023590350444311556
1413.0, 0.001966771505194378
1414.0, 0.0015611523993654145
1415.0, 0.0020463598807121527
1416.0, 0.0008940629493666085
1417.0, 0.0011487749843998017
1418.0, 0.0016763092908927842
1419.0, 0.0014195757495421915
1420.0, 0.0006732128455750981
1421.0, 0.0017119774789304907
1422.0, 0.0015897627805419798
1423.0, 0.0010257883939202845
1424.0, 0.0015385500503536907
1425.0, 0.0014820251660525867
1426.0, 0.00036748443139967397
1427.0, 0.0011353271730241438
1428.0, 0.0015979078115202598
1429.0, 0.0004463915756274342
1430.0, 0.0014272179949781645
1431.0, 0.0015162344628569574
1432.0, 0.0006438624217545923
1433.0, 0.0010779521462624716
1434.0, 0.001760148611245481
1435.0, 0.0004946089910499442
1436.0, 0.00032096397686859384
1437.0, 0.0012936842609045656
1438.0, 0.0019175102991570866
1439.0, 0.0015481794783019074
1440.0, 0.0013952852062850368
1441.0, 0.0015883123526918212
1442.0, 0.001229296146313559
1443.0, 0.002082012866119343
1444.0, 0.00229655464899425
1445.0, 0.0015063561240480027
1446.0, 0.0009309441202951481
1447.0, 0.0020516498838616406
1448.0, 0.0018685417990160508
1449.0, 0.0010024138991535723
1450.0, 0.001579125312118871
1451.0, 0.0015079529127688303
1452.0, 0.0005104169193766592
1453.0, 0.0009335252559999292
1454.0, 0.0022409212322965343
1455.0, 0.0008617563571402349
1456.0, 0.0012748593355181768
1457.0, 0.0013847638298327995
1458.0, 0.0013065996686673392
1459.0, 0.0016838930080684713
1460.0, 0.0019428030832791738
1461.0, 0.001979309699393133
1462.0, 0.0010762308118278361
1463.0, 0.0017914580088297667
1464.0, 0.0017653806473458971
1465.0, 0.0011988914215904833
1466.0, 0.0017493713164178006
1467.0, 0.0026238982911693442
1468.0, 0.0009444491580392122
1469.0, 0.001657691772931132
1470.0, 0.002215779183818793
1471.0, 0.0016598693539368284
1472.0, 0.0010614499363215306
1473.0, 0.00179123142806203
1474.0, 0.0008117748005906831
1475.0, 0.0004398054672532393
1476.0, 0.001377217843108159
1477.0, 0.0012922961997203167
1478.0, 0.0009001676134134939
1479.0, 0.0013304377455033091
1480.0, 0.0020765414189225857
1481.0, 0.0001303544695576346
1482.0, 0.0007752746491578969
1483.0, 0.0018173068890502701
1484.0, 0.0012198924208003514
1485.0, 0.0008103320223819981
1486.0, 0.001859049475632762
1487.0, 0.001748219464005447
1488.0, 0.0015022282190075113
1489.0, 0.0015597440749307182
1490.0, 0.0010847500833299053
1491.0, 0.0005340231477525205
1492.0, 0.0007429444274771129
1493.0, 0.001516467319718991
1494.0, 0.0007457900800519356
1495.0, 0.0006660895292339588
1496.0, 0.0012957128875164788
1497.0, 0.0011288600375877608
1498.0, 0.0013305367149626236
1499.0, 0.0013653250648829173
1500.0, 0.00033876316228889896
1501.0, 0.0004043110505569992
1502.0, 0.0018797799307770187
1503.0, 0.0016154256510938685
1504.0, 0.0010105181394463494
1505.0, 0.0012029183308637646
1506.0, 0.0014233589053145256
1507.0, 0.0005778888300211513
1508.0, 0.0007609542841322053
1509.0, 0.0013501526476115617
1510.0, 0.0004759382610534598
1511.0, 0.0008159769611835555
1512.0, 0.0012545823732694192
1513.0, 0.0009595727322140298
1514.0, 0.0006439088790189036
1515.0, 0.0017705825071596332
1516.0, 0.0010139831765355071
1517.0, 0.00026292736757698473
1518.0, 0.0010454953840185093
1519.0, 0.00125303173316125
1520.0, 0.00040272795702974215
1521, 0.0
1522, 0.0
1523, 0.0
1524, 0.0
1525, 0.0
1526, 0.0
1527, 0.0
1528, 0.0
1529, 0.0
1530, 0.0
1531, 0.0
1532, 0.0
1533, 0.0
1534, 0.0
1535, 0.0
1536, 0.0
1537, 0.0
1538, 0.0
1539, 0.0
1540, 0.0
1541, 0.0
1542, 0.0
1543, 0.0
1544, 0.0
1545, 0.0
1546, 0.0
1547, 0.0
1548, 0.0
1549, 0.0
1550, 0.0
1551, 0.0
1552, 0.0
1553, 0.0
1554, 0.0
1555, 0.0
1556, 0.0
1557, 0.0
1558, 0.0
1559, 0.0
1560, 0.0
1561, 0.0
1562, 0.0
1563, 0.0
1564, 0.0
1565, 0.0
1566, 0.0
1567, 0.0
1568, 0.0
1569, 0.0
1570, 0.0
1571, 0.0
1572, 0.0
1573, 0.0
1574, 0.0
1575, 0.0
1576, 0.0
1577, 0.0
1578, 0.0
1579, 0.0
1580, 0.0
1581, 0.0
1582, 0.0
1583, 0.0
1584, 0.0
1585, 0.0
1586, 0.0
1587, 0.0
1588, 0.0
1589, 0.0
1590, 0.0
1591, 0.0
1592, 0.0
1593, 0.0
1594, 0.0
1595, 0.0
1596, 0.0
1597, 0.0
1598, 0.0
1599, 0.0
