30, 0.0
31, 0.0
32, 0.0
33, 0.0
34, 0.0
35, 0.0
36, 0.0
37, 0.0
38, 0.0
39, 0.0
40, 0.0
41, 0.0
42, 0.0
43, 0.0
44, 0.0
45, 0.0
46, 0.0
47, 0.0
48, 0.0
49, 0.0
50, 0.0
51, 0.0
52, 0.0
53, 0.0
54, 0.0
55, 0.0
56, 0.0
57, 0.0
58, 0.0
59, 0.0
60, 0.0
61, 0.0
62, 0.0
63, 0.0
64, 0.0
65, 0.0
66, 0.0
67, 0.0
68, 0.0
69, 0.0
70, 0.0
71, 0.0
72, 0.0
73, 0.0
74, 0.0
75, 0.0
76, 0.0
77, 0.0
78, 0.0
79, 0.0
80, 0.0
81, 0.0
82, 0.0
83, 0.0
84, 0.0
85, 0.0
86, 0.0
87, 0.0
88, 0.0
89, 0.0
90, 0.0
91, 0.0
92, 0.0
93, 0.0
94, 0.0
95, 0.0
96, 0.0
97, 0.0
98, 0.0
99, 0.0
100, 0.0
101, 0.0
102, 0.0
103, 0.0
104, 0.0
105, 0.0
106, 0.0
107, 0.0
108, 0.0
109, 0.0
110, 0.0
111, 0.0
112, 0.0
113, 0.0
114, 0.0
115, 0.0
116.0, 0.01189255088827159
117.0, 0.06474833261392444
118.0, 0.10534126173536655
119.0, 0.12664784274175753
120.0, 0.12724358732262908
121.0, 0.134701144420809
122.0, 0.15603000119229254
123.0, 0.17063151037876675
124.0, 0.14854197258718038
125.0, 0.1609995969399823
126.0, 0.1452999222112033
127.0, 0.09730425939453105
128.0, 0.05944130547347861
129.0, 0.03529866275269632
130.0, 0.020053598612298103
131.0, 0.011920197444251351
132.0, 0.005933521102816512
133.0, 0.005184110003776952
134.0, 0.008374228306561026
135.0, 0.010377643505385826
136.0, 0.018638349739512602
137.0, 0.028016954525739796
138.0, 0.036267508084521075
139.0, 0.038958111510340385
140.0, 0.0352226173337691
141.0, 0.026577769615258803
142.0, 0.015043652568801285
143.0, 0.009760899954104342
144.0, 0.0052675728939350665
145.0, 0.0005705902689366106
146.0, 0.0002821868788167771
147.0, 0.0012474343865803662
148.0, 0.0025595182827714996
149.0, 0.0032784167499381447
150.0, 0.003702108055996764
151.0, 0.004458257929771293
152.0, 0.0051861890457194516
153.0, 0.0036440404023076454
154.0, 0.0037360731020758876
155.0, 0.0032917526297799914
156.0, 0.000992784730346767
157.0, 0.002393464971259649
158.0, 0.0017038552657633644
159.0, 0.0018253173287600582
160.0, 0.010254276061701584
161.0, 0.016054476526750006
162.0, 0.02790982752244559
163.0, 0.048776166481999984
164.0, 0.08184979512989378
165.0, 0.10792092131784356
166.0, 0.11772773673745858
167.0, 0.09683684881826451
168.0, 0.06309504602201293
169.0, 0.037841577079842745
170.0, 0.02191442855697319
171.0, 0.010334278048788753
172.0, 0.00562969900455828
173.0, 0.0031384830214894375
174.0, 0.0008556912905031674
175.0, 0.0008725666399464528
176.0, 0.0014145862966119611
177.0, 0.0025513529779829
178.0, 0.004556112940555647
179.0, 0.008144328582499303
180.0, 0.01194909441725339
181.0, 0.01567540320671517
182.0, 0.019095727319215456
183.0, 0.015948123444247644
184.0, 0.012057135843809347
185.0, 0.011737614206135168
186.0, 0.013303032981800023
187.0, 0.016088460725432248
188.0, 0.021135743500037902
189.0, 0.031916478774349985
190.0, 0.03834862204193508
191.0, 0.04144623358304271
192.0, 0.04089018958761173
193.0, 0.03068026168025026
194.0, 0.02199933266507353
195.0, 0.015160074060178491
196.0, 0.010895625320490826
197.0, 0.008577496968479611
198.0, 0.007257592884955928
199.0, 0.006649206226567394
200.0, 0.006128491914008151
201.0, 0.00942476002249066
202.0, 0.014539644712094976
203.0, 0.020973672437895066
204.0, 0.03108983803236723
205.0, 0.046034043755444995
206.0, 0.0659074043638136
207.0, 0.09192683362576771
208.0, 0.14015501981767822
209.0, 0.19711253424909758
210.0, 0.25394113540084745
211.0, 0.2800387449829109
212.0, 0.2554595087455885
213.0, 0.20638856980174497
214.0, 0.14281642434170574
215.0, 0.1001696406899985
216.0, 0.06919768426297607
217.0, 0.04795039524167557
218.0, 0.035989727282565345
219.0, 0.026685450218084758
220.0, 0.020425814871821046
221.0, 0.01690342918927671
222.0, 0.015059610752965255
223.0, 0.01419754192371649
224.0, 0.014291033213017027
225.0, 0.015265456492340197
226.0, 0.013947291515891889
227.0, 0.015241285964338774
228.0, 0.017493450678620976
229.0, 0.018914861576180855
230.0, 0.022652895511286356
231.0, 0.026895506383630162
232.0, 0.03147843201789155
233.0, 0.03647540658722711
234.0, 0.04533847400635723
235.0, 0.056874896396195466
236.0, 0.07145641303503722
237.0, 0.09790236299909615
238.0, 0.1367817782571657
239.0, 0.18958425312341318
240.0, 0.2602667305325299
241.0, 0.36878149827375517
242.0, 0.5181179197015764
243.0, 0.7001151316485869
244.0, 0.8985152654531714
245.0, 0.9731257239927468
246.0, 0.9365639073356539
247.0, 0.795783437351297
248.0, 0.6112011938752935
249.0, 0.45085077197433215
250.0, 0.32203822136193816
251.0, 0.2335573111044003
252.0, 0.1783884215571273
253.0, 0.13628329512330395
254.0, 0.10494795084451237
255.0, 0.0825464698698035
256.0, 0.0686845931445779
257.0, 0.05758717978427788
258.0, 0.04834599389386547
259.0, 0.04097080885315391
260.0, 0.03586358463420251
261.0, 0.030565201991914495
262.0, 0.024261090228781555
263.0, 0.022656299943844622
264.0, 0.020607838610450204
265.0, 0.018461977188993572
266.0, 0.016577231869817962
267.0, 0.015974829393317735
268.0, 0.015570819624669868
269.0, 0.01538332646325539
270.0, 0.01568521645374615
271.0, 0.015139648335107054
272.0, 0.01613394046051423
273.0, 0.018930941128226353
274.0, 0.02124732414451275
275.0, 0.026209149057746958
276.0, 0.032732120555399515
277.0, 0.04020021168713506
278.0, 0.03948354198026307
279.0, 0.035815841573164274
280.0, 0.02984584621128652
281.0, 0.02209514877019324
282.0, 0.017145158697815934
283.0, 0.012210854285118998
284.0, 0.007822668014360223
285.0, 0.006434487718801835
286.0, 0.006394217933571363
287.0, 0.005220579988228466
288.0, 0.002890507784974617
289.0, 0.004554978814964572
290.0, 0.003944097830699522
291.0, 0.0030380153457031673
292.0, 0.002953187729486299
293.0, 0.0020788818930603855
294.0, 0.0013408344821033977
295.0, 0.0009294117089162797
296.0, 0.001139600663841878
297.0, 0.0013600630742005774
298.0, 0.0016555826030870285
299.0, 0.0018577058923021838
300.0, 0.001477709674695244
301.0, 0.00207773929672049
302.0, 0.002475316704092663
303.0, 0.002473380456902548
304.0, 0.0025512075119688295
305.0, 0.0038728215782980503
306.0, 0.005132623846731055
307.0, 0.005824408905307532
308.0, 0.00903804280925098
309.0, 0.012125875453250418
310.0, 0.014898866576010195
311.0, 0.017130534805121042
312.0, 0.018644458352317143
313.0, 0.01806423645572762
314.0, 0.01605195905911175
315.0, 0.013833147923735993
316.0, 0.009556151079746214
317.0, 0.006806357669886573
318.0, 0.005619901686491671
319.0, 0.004152786570511097
320.0, 0.002863198653286938
321.0, 0.0022233773389741954
322.0, 0.00215770411037044
323.0, 0.0004751435558152759
324.0, 0.00024611776538560246
325.0, 0.0005766759744971914
326.0, 0.000948723727219967
327.0, 0.0003240174024475483
328.0, 0.001014562321763162
329.0, 0.001563572513544526
330.0, 0.0002992651193129216
331.0, 0.0009984731433876506
332.0, 0.0010722391210783396
333.0, 0.0009533389053386972
334.0, 0.0017957764932431672
335.0, 0.0027196273530182315
336.0, 0.002128200039011251
337.0, 0.0010222099634875999
338.0, 0.004032784824196939
339.0, 0.0040222117952947055
340.0, 0.004742115820765371
341.0, 0.007140347202315931
342.0, 0.00986955480362205
343.0, 0.013259663266969637
344.0, 0.019027165394856237
345.0, 0.027986175316786384
346.0, 0.035282143235734864
347.0, 0.04286723977958675
348.0, 0.04654683227095801
349.0, 0.042287339288778314
350.0, 0.03428046317472512
351.0, 0.026096359763679407
352.0, 0.01855684330652188
353.0, 0.012872099653636795
354.0, 0.010292113733265338
355.0, 0.0068201403751905285
356.0, 0.003680003324091858
357.0, 0.004760191989023255
358.0, 0.0030094752937722823
359.0, 0.002096984922835167
360.0, 0.0022426762798439517
361.0, 0.0016981666422931478
362.0, 0.0008134754966380236
363.0, 0.00047209802395574543
364.0, 0.0007494850653499815
365.0, 0.00014849186539431426
366.0, 0.0003639340930843722
367.0, 0.0006654564795410025
368.0, 0.0006833056239794572
369.0, 0.00015765944824983446
370.0, 9.817437721410129e-05
371.0, 0.00030386696131845796
372.0, 0.0006380359294512693
373.0, 0.0006883454007501783
374.0, 0.0007491232927336382
375.0, 0.0006151338323943338
376.0, 3.3483166766171894e-05
377.0, 0.000718637159346545
378.0, 0.0008045907212543811
379.0, 0.0008350487703641409
380.0, 0.0018683138390777334
381.0, 0.0015779111458584384
382.0, 0.0017943568050619871
383.0, 0.002495173652996183
384.0, 0.003196806558364963
385.0, 0.0037724269021730153
386.0, 0.004212195788653505
387.0, 0.004599672806135423
388.0, 0.005243784033443497
389.0, 0.005444196797730146
390.0, 0.006039254555538182
391.0, 0.006969108014311872
392.0, 0.006678492122641572
393.0, 0.007352288874897153
394.0, 0.006918510399617832
395.0, 0.0051353649167587626
396.0, 0.006897022362851753
397.0, 0.00718284409152633
398.0, 0.007178838077980747
399.0, 0.0075410615952554395
400.0, 0.008988723728594354
401.0, 0.00899709527703962
402.0, 0.009895625219831693
403.0, 0.013266606598972615
404.0, 0.015189336482597062
405.0, 0.01727317774076733
406.0, 0.019218347122241797
407.0, 0.020737047176957093
408.0, 0.01783720605134161
409.0, 0.017744928776873115
410.0, 0.018460161114016042
411.0, 0.017458940110163166
412.0, 0.0197183295229711
413.0, 0.02205731958235918
414.0, 0.024767479650339604
415.0, 0.028559458342255838
416.0, 0.03505439470867802
417.0, 0.043121515840088165
418.0, 0.0525725776327659
419.0, 0.06333300699384492
420.0, 0.07666649816296707
421.0, 0.09332967629788669
422.0, 0.1122964026662702
423.0, 0.13095734088467811
424.0, 0.13667226559465837
425.0, 0.1348781204635022
426.0, 0.12549588260799605
427.0, 0.1051947883958831
428.0, 0.08527375932483246
429.0, 0.0668578099146801
430.0, 0.05098861127935395
431.0, 0.04078458420303363
432.0, 0.03480020416157728
433.0, 0.031362197299381625
434.0, 0.030547611012051983
435.0, 0.03457540302557776
436.0, 0.04327521009368092
437.0, 0.0570769167777668
438.0, 0.07667579555787644
439.0, 0.10478423835206158
440.0, 0.12879501001183316
441.0, 0.1428539479889098
442.0, 0.14354650349903542
443.0, 0.12338832275765438
444.0, 0.10016872286335352
445.0, 0.07746289402609002
446.0, 0.05731730367461275
447.0, 0.04424960039543885
448.0, 0.0344463009477899
449.0, 0.026988702400491605
450.0, 0.02148862056003025
451.0, 0.017540244243690405
452.0, 0.015139062144731026
453.0, 0.013346882341719954
454.0, 0.011977068566112567
455.0, 0.013746209912332975
456.0, 0.01334455667070007
457.0, 0.01346194486924549
458.0, 0.01521139522377722
459.0, 0.014320528374899576
460.0, 0.015373528519960083
461.0, 0.0163533684645803
462.0, 0.016095511243560515
463.0, 0.014657081216757108
464.0, 0.013307947135074247
465.0, 0.011514863072388212
466.0, 0.009076626758956761
467.0, 0.007976446582655197
468.0, 0.0075796948057384695
469.0, 0.0066904571319635385
470.0, 0.004800090253217602
471.0, 0.005878329356202083
472.0, 0.005922474805666938
473.0, 0.005718168974518946
474.0, 0.005755906754382872
475.0, 0.005978536886908633
476.0, 0.005348211163186998
477.0, 0.006029283116003805
478.0, 0.009102969890900195
479.0, 0.009369529920511419
480.0, 0.009437639379845068
481.0, 0.008736675333993783
482.0, 0.006923782174463033
483.0, 0.0045495136296267264
484.0, 0.0031168745128430974
485.0, 0.0020327870605171957
486.0, 0.0010197681462678168
487.0, 0.0011006977500310634
488.0, 0.0005744754912119679
489.0, 0.000388401699032303
490.0, 0.001036405892793489
491.0, 0.001672610759497066
492.0, 0.0010456503118544695
493.0, 0.0006137431740684857
494.0, 0.0010067833547682864
495.0, 0.0003142289225213652
496.0, 0.0007225332085050568
497.0, 0.0009057885703648455
498.0, 0.00034838981620313297
499.0, 0.000568254629145634
500.0, 0.0008201186611664194
501.0, 0.0006632288376108258
502.0, 3.511004604318228e-05
503.0, 0.0001260026607589222
504.0, 0.00045245760733409065
505.0, 0.0005605944827916002
506.0, 0.0004331443033441074
507.0, 0.0012300614019443634
508.0, 0.0008545910587056894
509.0, 0.0006406692969842843
510.0, 0.0009153263735733966
511.0, 0.0007249740831351787
512.0, 0.0011832643479935965
513.0, 0.0014473058327025329
514.0, 0.0014031352406606303
515.0, 0.0017834943925822918
516.0, 0.0022661596672958854
517.0, 0.00204536959825414
518.0, 0.001596300278889269
519.0, 0.003599248660603087
520.0, 0.0030715369025369624
521.0, 0.0022322738189492863
522.0, 0.0018973856928751476
523.0, 0.0030734138188524265
524.0, 0.0024209278163699888
525.0, 0.0020808875786376027
526.0, 0.00213193800222413
527.0, 0.0017765405889873154
528.0, 0.0013740948798081735
529.0, 0.0015578657013384668
530.0, 0.002047019123404252
531.0, 0.0020709345512432598
532.0, 0.0033452137467056583
533.0, 0.003008977912075459
534.0, 0.001820936202044638
535.0, 0.00153300736000808
536.0, 0.0022845497150685216
537.0, 0.0017159371634958077
538.0, 0.000853809391909569
539.0, 0.0012706696640210195
540.0, 0.0024395642364715446
541.0, 0.0020675847056474054
542.0, 0.0014114730019586105
543.0, 0.0018614725507571114
544.0, 0.0012203017743680623
545.0, 0.0021256728626525595
546.0, 0.0028824615001380094
547.0, 0.0021903054194928146
548.0, 0.002896664816133146
549.0, 0.0027122599521916526
550.0, 0.0020747816535296158
551.0, 0.0014562432148887538
552.0, 0.002967496067230543
553.0, 0.0034205884030576407
554.0, 0.003572832280315038
555.0, 0.003868688255950472
556.0, 0.004870098115842908
557.0, 0.003603765372866851
558.0, 0.0036169803484617487
559.0, 0.005235790740630379
560.0, 0.004287889618630706
561.0, 0.006601278203718136
562.0, 0.0076667713711822206
563.0, 0.007034404590867425
564.0, 0.006797623856515217
565.0, 0.006962341221015161
566.0, 0.006523540193188299
567.0, 0.006326127995648441
568.0, 0.008583084388659458
569.0, 0.007129277177026457
570.0, 0.006602565064326701
571.0, 0.007351722861005822
572.0, 0.009231246579303451
573.0, 0.008938245052510847
574.0, 0.009642756404466251
575.0, 0.01046855843420009
576.0, 0.010367772865397076
577.0, 0.011344798439207679
578.0, 0.012987826437401982
579.0, 0.014762339902260778
580.0, 0.016333249655866255
581.0, 0.018775541164917493
582.0, 0.01956453041869648
583.0, 0.02050365970895929
584.0, 0.022513447484824107
585.0, 0.02549813496816999
586.0, 0.025712057230645225
587.0, 0.02669078263440333
588.0, 0.0288717933381404
589.0, 0.029190294257178395
590.0, 0.03171477904699942
591.0, 0.034501425244459726
592.0, 0.037229651305579474
593.0, 0.040118868086263235
594.0, 0.04631399120781533
595.0, 0.05193465595827293
596.0, 0.05762523649301269
597.0, 0.06511661517343266
598.0, 0.07641380436888634
599.0, 0.08895574455461605
600.0, 0.10519812300447294
601.0, 0.1276067594723864
602.0, 0.15329706405341517
603.0, 0.1920704463578227
604.0, 0.2464314433493076
605.0, 0.3183420299708641
606.0, 0.41167809430687674
607.0, 0.5379301229627182
608.0, 0.6611877573563697
609.0, 0.760309605947766
610.0, 0.8061261532538995
611.0, 0.7661366778592938
612.0, 0.6823350818556434
613.0, 0.5741737227154147
614.0, 0.46660400261723434
615.0, 0.36651352926092523
616.0, 0.29163213420404205
617.0, 0.23917790042335013
618.0, 0.20107051692791636
619.0, 0.1689650958358152
620.0, 0.1519455016125206
621.0, 0.14369063082531414
622.0, 0.138248995405968
623.0, 0.152080254257814
624.0, 0.170331948325328
625.0, 0.1936298130622248
626.0, 0.22180273921029814
627.0, 0.25129183136622174
628.0, 0.24756392663768645
629.0, 0.23029022442329036
630.0, 0.20552508137738762
631.0, 0.17167867187090532
632.0, 0.13816034456328133
633.0, 0.11325961229516895
634.0, 0.0951959103358109
635.0, 0.07796715607555069
636.0, 0.07164990645082457
637.0, 0.06303540140842896
638.0, 0.05441626197754401
639.0, 0.04904771572696025
640.0, 0.04792618643685601
641.0, 0.04514134182253893
642.0, 0.042811070046172156
643.0, 0.042024656377332485
644.0, 0.04114962606134251
645.0, 0.03935052756339473
646.0, 0.03952181730825182
647.0, 0.04036862208581782
648.0, 0.03448330340521204
649.0, 0.035562879946934606
650.0, 0.03472721353710226
651.0, 0.03214091926460824
652.0, 0.030437854710801175
653.0, 0.030614185304277824
654.0, 0.026983525699287775
655.0, 0.02372961192391884
656.0, 0.024523447302891545
657.0, 0.02117688807576901
658.0, 0.01829672994276678
659.0, 0.016285153714955883
660.0, 0.014902364663153686
661.0, 0.011879971939459201
662.0, 0.011162507301695048
663.0, 0.010194029997168858
664.0, 0.008795060137349433
665.0, 0.008042793216862017
666.0, 0.007864541299122344
667.0, 0.006354889247514566
668.0, 0.005209961389255122
669.0, 0.006594240020130849
670.0, 0.005834359138667657
671.0, 0.004967835612504277
672.0, 0.004777056069475957
673.0, 0.005197116798749848
674.0, 0.0022632060617754184
675.0, 0.0028338327608047015
676.0, 0.003025028695787962
677.0, 0.0021625466750533192
678.0, 0.001784981373432632
679.0, 0.0015898735932928865
680.0, 0.001117529526647528
681.0, 0.0009115247373198258
682.0, 0.0017649230638621654
683.0, 0.0013816379292514729
684.0, 0.0008664850532987845
685.0, 0.0005840549758075259
686.0, 0.0007468298888025976
687.0, 0.0010482184374444674
688.0, 0.0005152260779080632
689.0, 0.0004440293004805865
690.0, 0.0008993758126280774
691.0, 0.0008210638973656104
692.0, 0.0004575494859791595
693.0, 0.00035944547853742443
694.0, 0.000431255101885757
695.0, 0.00045437784307749546
696.0, 0.0009493664662876126
697.0, 0.0012420605084572758
698.0, 0.0009366512867167317
699.0, 0.00018082508223057545
700.0, 0.0016656958860578983
701.0, 0.000817863614116011
702.0, 0.00036783489317232233
703.0, 0.0009188446722575043
704.0, 0.001968400192501655
705.0, 0.0009262777759514252
706.0, 0.0008101877702048098
707.0, 0.0011898912294205015
708.0, 0.0012643355210593447
709.0, 0.001707149860311309
710.0, 0.0025157592737034043
711.0, 0.0023940525504408247
712.0, 0.0013621434093285712
713.0, 0.0028349857190147843
714.0, 0.0014584522089123048
715.0, 0.0010917638268922152
716.0, 0.0017795197347738434
717.0, 0.0020163817548303786
718.0, 0.0012974864667522896
719.0, 0.0013613675570709443
720.0, 0.0014961882175879835
721.0, 0.0011675546803222273
722.0, 0.0018526231409378494
723.0, 0.0009732152686562749
724.0, 0.00026595662300997176
725.0, 0.0003057553510530463
726.0, 0.0008668325744495288
727.0, 0.0004953807983364713
728.0, 0.0006214176944580827
729.0, 0.001155333781342269
730.0, 0.001761176685693543
731.0, 0.002628039008049576
732.0, 0.001717499478828775
733.0, 0.0012599231653748254
734.0, 0.0020134562273422846
735.0, 0.0016767098607898445
736.0, 0.0015845698479114525
737.0, 0.0020504022107444204
738.0, 0.002309024313708593
739.0, 0.0009400610921975934
740.0, 0.002305062279137001
741.0, 0.0017903428150219049
742.0, 0.0009175548091374363
743.0, 0.0009880604693880525
744.0, 0.002409518226229897
745.0, 0.0022700664990847447
746.0, 0.001979250935151416
747.0, 0.002121669424262403
748.0, 0.003083560577224693
749.0, 0.0028882598841224695
750.0, 0.003678113248867746
751.0, 0.0042541844443704496
752.0, 0.003579979714523688
753.0, 0.003967703608258587
754.0, 0.003407239769150251
755.0, 0.0026171074106732897
756.0, 0.0023575606594512326
757.0, 0.004008531924112587
758.0, 0.0030552884447740607
759.0, 0.0038998492360216956
760.0, 0.005941575902078925
761.0, 0.007719553726557669
762.0, 0.004657718834584334
763.0, 0.005470579790259887
764.0, 0.0068628271724287164
765.0, 0.007346193468314607
766.0, 0.006774934023711186
767.0, 0.008835162434316623
768.0, 0.010362986557642296
769.0, 0.012530885446246306
770.0, 0.0168415678134648
771.0, 0.01661462004577737
772.0, 0.01798351716590917
773.0, 0.020281374248049384
774.0, 0.02188340631276517
775.0, 0.01829520216075173
776.0, 0.017673568961386808
777.0, 0.016167442325526908
778.0, 0.013523194911494979
779.0, 0.010307249616881663
780.0, 0.011309009104383826
781.0, 0.008550310666844004
782.0, 0.007590142385692647
783.0, 0.00902321364431545
784.0, 0.006124074950482498
785.0, 0.005219176340587323
786.0, 0.00703284762311953
787.0, 0.008204264701597352
788.0, 0.005215824882403397
789.0, 0.006833554114442421
790.0, 0.006833570091476215
791.0, 0.006540614186596074
792.0, 0.006646766979937039
793.0, 0.007477045947648596
794.0, 0.005082889648225029
795.0, 0.005729253360990581
796.0, 0.007145154644938384
797.0, 0.006341198800048563
798.0, 0.0047463756596428704
799.0, 0.005478724833017916
800.0, 0.0052022976451390895
801.0, 0.0038481544266688573
802.0, 0.004428478623258554
803.0, 0.003634330170341039
804.0, 0.002611960204985688
805.0, 0.002871638173062568
806.0, 0.004948703925529148
807.0, 0.002928448419094919
808.0, 0.0023507573362583026
809.0, 0.0022776791625435306
810.0, 0.002020729114339268
811.0, 0.0007700202076955084
812.0, 0.0030649059907423273
813.0, 0.002905575539956732
814.0, 0.0023642573535028175
815.0, 0.0031362262705848555
816.0, 0.0055312743018926264
817.0, 0.003807918914468385
818.0, 0.0037048406470144226
819.0, 0.004688372512263886
820.0, 0.004153929711887862
821.0, 0.004098146109534483
822.0, 0.005492684019150109
823.0, 0.004824246184942834
824.0, 0.0024071649012262107
825.0, 0.005840239453530991
826.0, 0.00521402168337985
827.0, 0.004435289130516345
828.0, 0.004863770044483721
829.0, 0.006967830513459441
830.0, 0.005422885164580636
831.0, 0.007130032807014599
832.0, 0.0073513618531734475
833.0, 0.00568636909842108
834.0, 0.005037195207172632
835.0, 0.007052787355547153
836.0, 0.006908303638911028
837.0, 0.007363376296780503
838.0, 0.009860398897966624
839.0, 0.010112199034822666
840.0, 0.007993678206235377
841.0, 0.01004849693753999
842.0, 0.01275586999900396
843.0, 0.00958321419728687
844.0, 0.012144268573347229
845.0, 0.015383294040483905
846.0, 0.014687231973892502
847.0, 0.011580150477511708
848.0, 0.016654576311580682
849.0, 0.013911525485096917
850.0, 0.014402380425122107
851.0, 0.016425577765791493
852.0, 0.01724429567237506
853.0, 0.014422279397896703
854.0, 0.01835295568245621
855.0, 0.02017460536727315
856.0, 0.020707088520522905
857.0, 0.024771870000371798
858.0, 0.02846274019453893
859.0, 0.02754977543941146
860.0, 0.0276796484298002
861.0, 0.03004693564933132
862.0, 0.029225876340131622
863.0, 0.024470241299209015
864.0, 0.024162568536227506
865.0, 0.022921820408964944
866.0, 0.01688098200807711
867.0, 0.01855358691974239
868.0, 0.01857116554629104
869.0, 0.015241455299749995
870.0, 0.012510555100127364
871.0, 0.016690170509850142
872.0, 0.013195981647246908
873.0, 0.01389460058761246
874.0, 0.015088827883039103
875.0, 0.015010352313456132
876.0, 0.013752146282982854
877.0, 0.016730925119123375
878.0, 0.015851454656313716
879.0, 0.014817360307791926
880.0, 0.016462736917590867
881.0, 0.017264427868344864
882.0, 0.013844569737555233
883.0, 0.014168039871151398
884.0, 0.016148727736097136
885.0, 0.015268560438268946
886.0, 0.015234585373597108
887.0, 0.017418879008319784
888.0, 0.017284643479120773
889.0, 0.015879538191758535
890.0, 0.01884322740657354
891.0, 0.021444279439346434
892.0, 0.02145666984466146
893.0, 0.022062243002559857
894.0, 0.02421390418136821
895.0, 0.024141795291636473
896.0, 0.02855925927106417
897.0, 0.031709401371502056
898.0, 0.03251354372791898
899.0, 0.03206530998989407
900.0, 0.04015515997040066
901.0, 0.03872439252130021
902.0, 0.03802407236574288
903.0, 0.039543295473170516
904.0, 0.04155322392769722
905.0, 0.03538058773046593
906.0, 0.035549815331034906
907.0, 0.034286103989468485
908.0, 0.03021600142085573
909.0, 0.026828724193025504
910.0, 0.026953554016059113
911.0, 0.02338493918228097
912.0, 0.020969243031983317
913.0, 0.021139492262419148
914.0, 0.019020875946603732
915.0, 0.01590648286398291
916.0, 0.014884038083504242
917.0, 0.01362032992399044
918.0, 0.010967684243341918
919.0, 0.012499095503817748
920.0, 0.010916607299624412
921.0, 0.007842360219548167
922.0, 0.006259490863980896
923.0, 0.008379343073868045
924.0, 0.006130596021969768
925.0, 0.0057952283064060285
926.0, 0.006297278056445606
927.0, 0.006348031853215089
928.0, 0.004618302419122771
929.0, 0.005762242424692513
930.0, 0.005580867782394108
931.0, 0.0054319542853890936
932.0, 0.00584133477209328
933.0, 0.006693086039352859
934.0, 0.004478526979581293
935.0, 0.0048272076119410525
936.0, 0.005215709756777057
937.0, 0.0042202214070693
938.0, 0.0021173913557843383
939.0, 0.003555771955852976
940.0, 0.003435689377370958
941.0, 0.003446152916605244
942.0, 0.004925499226548823
943.0, 0.007209372029641158
944.0, 0.005359322632204931
945.0, 0.006343633596015409
946.0, 0.007214533325522475
947.0, 0.005490270951882649
948.0, 0.007561040031895489
949.0, 0.009479376083364613
950.0, 0.008701290286167696
951.0, 0.007485116510794829
952.0, 0.008587080505704153
953.0, 0.008384586476120072
954.0, 0.006845432692262577
955.0, 0.007204058799745513
956.0, 0.007609938778217446
957.0, 0.004810706915439472
958.0, 0.0054530305924213925
959.0, 0.005844027405080556
960.0, 0.005533964867853411
961.0, 0.005250052126112632
962.0, 0.006340334038152714
963.0, 0.005943132353685713
964.0, 0.006288801757964832
965.0, 0.00857447699052937
966.0, 0.011386450669552265
967.0, 0.011090420398919389
968.0, 0.018160505950679525
969.0, 0.0218123461081304
970.0, 0.025862058329336645
971.0, 0.032247700800443695
972.0, 0.0409957571057743
973.0, 0.04189273178893769
974.0, 0.04192399285152383
975.0, 0.039092739507886054
976.0, 0.033179127463065346
977.0, 0.02664900291327662
978.0, 0.02366975617074199
979.0, 0.019582635217638058
980.0, 0.01579698982276154
981.0, 0.013428852415247836
982.0, 0.01277926511463854
983.0, 0.01019376325931525
984.0, 0.009553783211307206
985.0, 0.009968228333390474
986.0, 0.010396284261328482
987.0, 0.01010226243925632
988.0, 0.009668179241229832
989.0, 0.006899124175908817
990.0, 0.00565939161163131
991.0, 0.0072542728290078805
992.0, 0.005562080183255884
993.0, 0.004669825500125361
994.0, 0.0069887406854661945
995.0, 0.008111429960220578
996.0, 0.006404087268898897
997.0, 0.009641265381602218
998.0, 0.014379267694881247
999.0, 0.018012412136204175
1000.0, 0.02143968678853598
1001.0, 0.02484584190900601
1002.0, 0.025027144320436175
1003.0, 0.027856514333796094
1004.0, 0.026831142780955178
1005.0, 0.021644912988342424
1006.0, 0.014991661574754919
1007.0, 0.016024550277398998
1008.0, 0.014593557017133175
1009.0, 0.011967679604559984
1010.0, 0.010488605033372936
1011.0, 0.010582920163973976
1012.0, 0.006737014150176013
1013.0, 0.007438261031208691
1014.0, 0.008664838826243757
1015.0, 0.00802244573733927
1016.0, 0.005942144523231881
1017.0, 0.01010294290749599
1018.0, 0.010447503390765889
1019.0, 0.011665670039919501
1020.0, 0.014414132654073805
1021.0, 0.017637733982974132
1022.0, 0.017092895777757335
1023.0, 0.019327077312786854
1024.0, 0.022083184203372287
1025.0, 0.022582579646845728
1026.0, 0.02114754859255482
1027.0, 0.024996654245212725
1028.0, 0.02284350361008358
1029.0, 0.02061439733696373
1030.0, 0.018957985372754213
1031.0, 0.017055065700097613
1032.0, 0.01201494740245715
1033.0, 0.011812276676796607
1034.0, 0.010538863513163672
1035.0, 0.007838745245751198
1036.0, 0.004882140875354093
1037.0, 0.004735096326213215
1038.0, 0.0026441309099826324
1039.0, 0.0029273751379774947
1040.0, 0.0032989704963231436
1041.0, 0.002516167151704949
1042.0, 0.0008987456787453744
1043.0, 0.0025751188627437787
1044.0, 0.0021717356095503804
1045.0, 0.0014435028635169352
1046.0, 0.0011365958571694817
1047.0, 0.0009501767339521868
1048.0, 0.0007053895968531479
1049.0, 0.0008744498787191631
1050.0, 0.0013339086362996577
1051.0, 0.001586921131113491
1052.0, 0.0010467512311547506
1053.0, 0.0026437241346878373
1054.0, 0.0023297922583649477
1055.0, 0.001362680356438401
1056.0, 0.0011288265970249782
1057.0, 0.0026672553037165835
1058.0, 0.002624851791652976
1059.0, 0.0013394163671090623
1060.0, 0.0004958288577675774
1061.0, 0.0003465942263824184
1062.0, 0.0007098035425528016
1063.0, 0.002082366211224521
1064.0, 0.001850725479547572
1065.0, 0.002311936763622876
1066.0, 0.00325780776126679
1067.0, 0.0035970074367507954
1068.0, 0.0010851744038315727
1069.0, 0.006683130989402311
1070.0, 0.006443298301415381
1071.0, 0.005296529624637354
1072.0, 0.007762119653870127
1073.0, 0.010773405922836864
1074.0, 0.009051667247361497
1075.0, 0.012381101286050567
1076.0, 0.01588991937134708
1077.0, 0.016482620980018674
1078.0, 0.015364811917125803
1079.0, 0.02190304950111146
1080.0, 0.022804364928285293
1081.0, 0.02350499196270171
1082.0, 0.02590512277730795
1083.0, 0.028043207187098643
1084.0, 0.02285886555563358
1085.0, 0.0236975783324
1086.0, 0.0239401340431127
1087.0, 0.022500697623744428
1088.0, 0.021618988423536236
1089.0, 0.02574827574315892
1090.0, 0.023503626167663723
1091.0, 0.02475090859156892
1092.0, 0.028056647906626646
1093.0, 0.029497649596356517
1094.0, 0.029737717016984282
1095.0, 0.03583956512012853
1096.0, 0.03845427956436906
1097.0, 0.04054987615790811
1098.0, 0.0461499050573525
1099.0, 0.057253096139748785
1100.0, 0.0580079056722984
1101.0, 0.06439643998879921
1102.0, 0.07216166778054157
1103.0, 0.07838273304555071
1104.0, 0.08342756323999725
1105.0, 0.09109031834949062
1106.0, 0.09302635258453687
1107.0, 0.09311488961876482
1108.0, 0.09325938720870056
1109.0, 0.09336119412150896
1110.0, 0.08648536975503233
1111.0, 0.08069523269481378
1112.0, 0.07414985865206472
1113.0, 0.06605437899066478
1114.0, 0.05767317301883629
1115.0, 0.05731745797131766
1116.0, 0.04992334338224011
1117.0, 0.044521667194951334
1118.0, 0.04113851009567167
1119.0, 0.0380832660960549
1120.0, 0.0329403215892457
1121.0, 0.03360579166575941
1122.0, 0.031005993507625673
1123.0, 0.026380559413290035
1124.0, 0.022608009418653263
1125.0, 0.022929324562053766
1126.0, 0.018468199803543493
1127.0, 0.01809529694555616
1128.0, 0.018196099750505287
1129.0, 0.016835912561432867
1130.0, 0.014014735378339093
1131.0, 0.015745378590280846
1132.0, 0.013858144956155432
1133.0, 0.011135159713245354
1134.0, 0.009835675523224001
1135.0, 0.009740677114205414
1136.0, 0.00573813490768647
1137.0, 0.008292700531803214
1138.0, 0.006923459923452761
1139.0, 0.004041054247585664
1140.0, 0.0024472148861800695
1141.0, 0.004197092116103346
1142.0, 0.0039038548164655506
1143.0, 0.0013054940242761826
1144.0, 0.0014886347843742545
1145.0, 0.00218278505915937
1146.0, 0.00018836411099510195
1147.0, 0.0009117082188874973
1148.0, 0.0015703822895543414
1149.0, 0.0017432264438741677
1150.0, 0.0014116499481015676
1151.0, 0.0008205421415093011
1152.0, 0.0005079203169183286
1153.0, 0.00015523918614424766
1154.0, 0.0015125002695906048
1155.0, 0.0017474257453984816
1156.0, 0.0017644635242150203
1157.0, 0.004143682884682911
1158.0, 0.0037304189670382404
1159.0, 0.0031793118021695974
1160.0, 0.005213370377972744
1161.0, 0.006117990318455169
1162.0, 0.0038225518195144376
1163.0, 0.004597386438022896
1164.0, 0.007503956800210751
1165.0, 0.007509238204377443
1166.0, 0.008606541778572736
1167.0, 0.011420730491221215
1168.0, 0.012900634537236142
1169.0, 0.01289094421995755
1170.0, 0.017346474783577422
1171.0, 0.019801167331177413
1172.0, 0.020026845869614042
1173.0, 0.020589940509837902
1174.0, 0.025661633095199077
1175.0, 0.021342769165983894
1176.0, 0.02175534182792666
1177.0, 0.02160885629101465
1178.0, 0.018448833467782814
1179.0, 0.015549849751689397
1180.0, 0.015964434141943703
1181.0, 0.01404200925297971
1182.0, 0.01203340532715067
1183.0, 0.011349160727284514
1184.0, 0.011590173909586178
1185.0, 0.006871868315682118
1186.0, 0.008059510648300877
1187.0, 0.009007743581433785
1188.0, 0.006512391934097541
1189.0, 0.003185304494838094
1190.0, 0.007391921554679286
1191.0, 0.003719302483766661
1192.0, 0.0012453612762793039
1193.0, 0.002617001652282045
1194.0, 0.0037480833202073165
1195.0, 0.0009097782255800004
1196.0, 0.002620012364646756
1197.0, 0.002144707503302236
1198.0, 0.001233931222903427
1199.0, 0.0016808504737094992
1200.0, 0.0027810680220468563
1201.0, 0.0014179559004174592
1202.0, 0.002300536529928362
1203.0, 0.003233128551364287
1204.0, 0.002778165519203553
1205.0, 0.002250945929618267
1206.0, 0.0025942660194038583
1207.0, 0.00040851722505995695
1208.0, 0.001806796482473002
1209.0, 0.002756737286742887
1210.0, 0.001973004758110509
1211.0, 0.0006218697201485057
1212.0, 0.0015146900330714696
1213.0, 0.003404564729125429
1214.0, 0.0012142555793196934
1215.0, 0.0018375590968829267
1216.0, 0.003627071944500307
1217.0, 0.00346068865033232
1218.0, 0.00035306940894011475
1219.0, 0.00371412923259286
1220.0, 0.0024320217783700302
1221.0, 0.0010443383044018769
1222.0, 0.0016009165258838009
1223.0, 0.00327449202209317
1224.0, 0.0008885296852829856
1225.0, 0.0013944918997764
1226.0, 0.002046665270317697
1227.0, 0.0018597000323445293
1228.0, 0.0013940284363494378
1229.0, 0.00266649593206568
1230.0, 0.0021719604037305465
1231.0, 0.0014030204628486408
1232.0, 0.002750200580866259
1233.0, 0.0033252521373116307
1234.0, 0.0016428605407290027
1235.0, 0.006406207824745921
1236.0, 0.008576496127214448
1237.0, 0.007091811528962194
1238.0, 0.007318457595165486
1239.0, 0.008880456361246278
1240.0, 0.007426642866135127
1241.0, 0.005549142026483635
1242.0, 0.00786724783596513
1243.0, 0.006684637598127271
1244.0, 0.005454540964112974
1245.0, 0.0069145167000516225
1246.0, 0.009241840441508746
1247.0, 0.0057353965275363655
1248.0, 0.008430561687971318
1249.0, 0.008662955594502628
1250.0, 0.006795131398739115
1251.0, 0.006414977727742737
1252.0, 0.009602180518072769
1253.0, 0.006589118644671606
1254.0, 0.005166721889371683
1255.0, 0.006865001258211706
1256.0, 0.008002218105433818
1257.0, 0.0044465185584274
1258.0, 0.007147839612241007
1259.0, 0.006586809612713659
1260.0, 0.005655050833820756
1261.0, 0.00691570087698675
1262.0, 0.008834116853919858
1263.0, 0.006522449887433641
1264.0, 0.00914464825243554
1265.0, 0.009321414148260355
1266.0, 0.00835095512113027
1267.0, 0.009412796731841823
1268.0, 0.012291632933700778
1269.0, 0.010259305026493073
1270.0, 0.009621075399605198
1271.0, 0.013104407359656907
1272.0, 0.014135540985570197
1273.0, 0.013431824930451912
1274.0, 0.0140231392981718
1275.0, 0.015708073544667068
1276.0, 0.010343773167287436
1277.0, 0.01068128798029591
1278.0, 0.010839334736319206
1279.0, 0.008306458384559363
1280.0, 0.0048122586034856545
1281.0, 0.007318676842205412
1282.0, 0.007147512062594148
1283.0, 0.005813622708616129
1284.0, 0.006505890485530468
1285.0, 0.007029428873372541
1286.0, 0.002525694287551489
1287.0, 0.005739945424139216
1288.0, 0.005666031388133127
1289.0, 0.00414055597999175
1290.0, 0.004798917881079268
1291.0, 0.007224558039056397
1292.0, 0.006451760197463879
1293.0, 0.007775488064375477
1294.0, 0.01231478168785297
1295.0, 0.011555958264157689
1296.0, 0.00886827742440033
1297.0, 0.008614464379906582
1298.0, 0.010841896008522728
1299.0, 0.00422009881177947
1300.0, 0.007325360522264519
1301.0, 0.008333442241305012
1302.0, 0.006094087905692366
1303.0, 0.004715711621273804
1304.0, 0.010221711797577231
1305.0, 0.007631269036844905
1306.0, 0.007608368590610502
1307.0, 0.010093487299635048
1308.0, 0.011180110682725017
1309.0, 0.010133008554476606
1310.0, 0.017277664421190903
1311.0, 0.014202959479935145
1312.0, 0.011170554989300446
1313.0, 0.012263160088337348
1314.0, 0.014015605609779467
1315.0, 0.01231813092898783
1316.0, 0.012042352952600463
1317.0, 0.015578040032477118
1318.0, 0.01380097876169313
1319.0, 0.013203052309165785
1320.0, 0.014808971411261989
1321.0, 0.015632555099061085
1322.0, 0.011804648729736696
1323.0, 0.013329333819054616
1324.0, 0.013645209564483129
1325.0, 0.011192019606188538
1326.0, 0.008864740867673167
1327.0, 0.009178425609110882
1328.0, 0.004832256302676907
1329.0, 0.0056525073019135785
1330.0, 0.0056708207526568735
1331.0, 0.004210276147827109
1332.0, 0.0025572114602913343
1333.0, 0.0023606677616775365
1334.0, 0.0029460555977773107
1335.0, 0.0014012416951287284
1336.0, 0.0006030636119391551
1337.0, 0.000670478286734468
1338.0, 0.0007460246836965895
1339.0, 0.0003338529260974231
1340.0, 0.0018246218216640482
1341.0, 0.0006490658996977207
1342.0, 0.0003879991006081958
1343.0, 0.0010355151008647242
1344.0, 0.0014813134732829384
1345.0, 0.0008550275770814101
1346.0, 0.000677886149596107
1347.0, 0.0013762376446298055
1348.0, 0.0007918349942060517
1349.0, 0.002124260098576155
1350.0, 0.0031738072587304714
1351.0, 0.0010630112113629816
1352.0, 0.000195346627812124
1353.0, 0.001211974771652668
1354.0, 0.002184504817622007
1355.0, 0.0024145866045558934
1356.0, 0.0016937836401042935
1357.0, 0.00078803979161659
1358.0, 0.0020462190343405393
1359.0, 0.0016422022473749213
1360.0, 0.0006257482881967627
1361.0, 0.0006161642627874785
1362.0, 0.0014179871555370816
1363.0, 0.002024913512065136
1364.0, 0.001668223738647215
1365.0, 0.0018265829054683793
1366.0, 0.0020415217497907604
1367.0, 0.002040304854179688
1368.0, 0.001646059320446518
1369.0, 0.001131730304689228
1370.0, 0.0013051900780066319
1371.0, 0.0010275452372731765
1372.0, 0.003442922739867221
1373.0, 0.002837047875563576
1374.0, 0.0017122803172019683
1375.0, 0.002767551819122893
1376.0, 0.005013926161305518
1377.0, 0.0013542290578909787
1378.0, 0.0029547312199539534
1379.0, 0.00510194968426444
1380.0, 0.004497881044618878
1381.0, 0.002922520506725336
1382.0, 0.005071050066329802
1383.0, 0.0034306254556907864
1384.0, 0.002829729475492215
1385.0, 0.0050023640532016935
1386.0, 0.0049901487355381875
1387.0, 0.00286853381300263
1388.0, 0.0027467735555159667
1389.0, 0.005825178534258807
1390.0, 0.002560143053737766
1391.0, 0.0029731025128421533
1392.0, 0.003888629252404944
1393.0, 0.003385878919877714
1394.0, 0.0018817307006090685
1395.0, 0.00212319614811484
1396.0, 0.0025720441652172764
1397.0, 0.0011986480953206902
1398.0, 0.0008345339992110783
1399.0, 0.0009546076485198385
1400.0, 0.0007221247604123996
1401.0, 0.0011873843210883823
1402.0, 0.0034547672391137003
1403.0, 0.0021261400145697533
1404.0, 0.0019327242439679954
1405.0, 0.0019736022693442185
1406.0, 0.0013555190907963467
1407.0, 0.0010928955450330295
1408.0, 0.0037007211128578816
1409.0, 0.002820764740508693
1410.0, 0.002271317685344401
1411.0, 0.0029864323050588994
1412.0, 0.004000255411053671
1413.0, 0.003441946428132469
1414.0, 0.0003185260205441705
1415.0, 0.005114471032492376
1416.0, 0.005145239364712153
1417.0, 0.003683643551889625
1418.0, 0.004200744761837099
1419.0, 0.006355811124912181
1420.0, 0.0040438059855479975
1421.0, 0.006263967015099238
1422.0, 0.005406399233669032
1423.0, 0.003948128399948092
1424.0, 0.005097854770819261
1425.0, 0.007404751356416144
1426.0, 0.0056436209018533405
1427.0, 0.00561617426629432
1428.0, 0.01039560702993145
1429.0, 0.00969429397324106
1430.0, 0.008703794395632482
1431.0, 0.009639272510777711
1432.0, 0.010814768739557975
1433.0, 0.010018727752968882
1434.0, 0.014659667426881996
1435.0, 0.017590844778099565
1436.0, 0.018284428552823095
1437.0, 0.02182824204945855
1438.0, 0.027774962451693284
1439.0, 0.026268224531079146
1440.0, 0.03133969260261806
1441.0, 0.03912219175428311
1442.0, 0.0372448222183761
1443.0, 0.03787999771471726
1444.0, 0.04255717792439798
1445.0, 0.04211322522148459
1446.0, 0.03832147091042304
1447.0, 0.04696871833161579
1448.0, 0.049525980709786505
1449.0, 0.046666528870602554
1450.0, 0.047321522649805096
1451.0, 0.05326691129913628
1452.0, 0.05026263447198016
1453.0, 0.05122522308360637
1454.0, 0.057518092170108955
1455.0, 0.05360696304017747
1456.0, 0.0504637910033265
1457.0, 0.05261475741244142
1458.0, 0.05309053209027469
1459.0, 0.04551789877835785
1460.0, 0.049766017822881134
1461.0, 0.04669581324607898
1462.0, 0.04083641825524204
1463.0, 0.039291029332639865
1464.0, 0.04153092906742122
1465.0, 0.035693231651414074
1466.0, 0.03216447840484175
1467.0, 0.031242718606648474
1468.0, 0.028159543386887625
1469.0, 0.026046582529442006
1470.0, 0.0257947897487815
1471.0, 0.024601213451164686
1472.0, 0.018380410092398675
1473.0, 0.021703703835786008
1474.0, 0.018877152380722125
1475.0, 0.017205187622132592
1476.0, 0.017206392931282618
1477.0, 0.017339228071707298
1478.0, 0.0171353108887841
1479.0, 0.013840464829672043
1480.0, 0.01801664617562255
1481.0, 0.016462302840535983
1482.0, 0.014390671462492592
1483.0, 0.014850649375616568
1484.0, 0.01603975566100986
1485.0, 0.012963733938500999
1486.0, 0.012743718974763923
1487.0, 0.012169437480614205
1488.0, 0.010332293915015504
1489.0, 0.009305690589966697
1490.0, 0.009144168050388913
1491.0, 0.007615342121969303
1492.0, 0.004727679617272752
1493.0, 0.005627849129244201
1494.0, 0.0037254865895156018
1495.0, 0.0017380808759604979
1496.0, 0.0025556724197626658
1497.0, 0.0043647511154044725
1498.0, 0.0009985561712836934
1499.0, 0.0019034488605552847
1500.0, 0.0016089131898388137
1501.0, 0.0006978230473713549
1502.0, 0.00043393810890107585
1503.0, 0.0004383277881141184
1504, 0.0
1505, 0.0
1506, 0.0
1507, 0.0
1508, 0.0
1509, 0.0
1510, 0.0
1511, 0.0
1512, 0.0
1513, 0.0
1514, 0.0
1515, 0.0
1516, 0.0
1517, 0.0
1518, 0.0
1519, 0.0
1520, 0.0
1521, 0.0
1522, 0.0
1523, 0.0
1524, 0.0
1525, 0.0
1526, 0.0
1527, 0.0
1528, 0.0
1529, 0.0
1530, 0.0
1531, 0.0
1532, 0.0
1533, 0.0
1534, 0.0
1535, 0.0
1536, 0.0
1537, 0.0
1538, 0.0
1539, 0.0
1540, 0.0
1541, 0.0
1542, 0.0
1543, 0.0
1544, 0.0
1545, 0.0
1546, 0.0
1547, 0.0
1548, 0.0
1549, 0.0
1550, 0.0
1551, 0.0
1552, 0.0
1553, 0.0
1554, 0.0
1555, 0.0
1556, 0.0
1557, 0.0
1558, 0.0
1559, 0.0
1560, 0.0
1561, 0.0
1562, 0.0
1563, 0.0
1564, 0.0
1565, 0.0
1566, 0.0
1567, 0.0
1568, 0.0
1569, 0.0
1570, 0.0
1571, 0.0
1572, 0.0
1573, 0.0
1574, 0.0
1575, 0.0
1576, 0.0
1577, 0.0
1578, 0.0
1579, 0.0
1580, 0.0
1581, 0.0
1582, 0.0
1583, 0.0
1584, 0.0
1585, 0.0
1586, 0.0
1587, 0.0
1588, 0.0
1589, 0.0
1590, 0.0
1591, 0.0
1592, 0.0
1593, 0.0
1594, 0.0
1595, 0.0
1596, 0.0
1597, 0.0
1598, 0.0
1599, 0.0
