30, 0.0
31, 0.0
32, 0.0
33, 0.0
34, 0.0
35, 0.0
36, 0.0
37, 0.0
38, 0.0
39, 0.0
40, 0.0
41, 0.0
42, 0.0
43, 0.0
44, 0.0
45, 0.0
46, 0.0
47, 0.0
48, 0.0
49, 0.0
50, 0.0
51, 0.0
52, 0.0
53, 0.0
54, 0.0
55, 0.0
56, 0.0
57, 0.0
58, 0.0
59, 0.0
60, 0.0
61, 0.0
62, 0.0
63, 0.0
64, 0.0
65, 0.0
66, 0.0
67, 0.0
68, 0.0
69, 0.0
70, 0.0
71, 0.0
72, 0.0
73, 0.0
74, 0.0
75, 0.0
76, 0.0
77, 0.0
78, 0.0
79, 0.0
80, 0.0
81, 0.0
82, 0.0
83, 0.0
84, 0.0
85, 0.0
86, 0.0
87, 0.0
88, 0.0
89, 0.0
90, 0.0
91, 0.0
92, 0.0
93, 0.0
94, 0.0
95, 0.0
96, 0.0
97, 0.0
98, 0.0
99, 0.0
100, 0.0
101, 0.0
102, 0.0
103, 0.0
104, 0.0
105, 0.0
106, 0.0
107, 0.0
108, 0.0
109, 0.0
110, 0.0
111.0, 0.015089170078413434
112.0, 0.024436070133546105
113.0, 0.019222121416137807
114.0, 0.025647233887548894
115.0, 0.024902621305168765
116.0, 0.02280216501522307
117.0, 0.03142631471385251
118.0, 0.03085640873651663
119.0, 0.030395728797840763
120.0, 0.03341035558424571
121.0, 0.05513121090675193
122.0, 0.08510377731509988
123.0, 0.12020650754546702
124.0, 0.15780142352303114
125.0, 0.1644240907107869
126.0, 0.1729787887975086
127.0, 0.19021412737543342
128.0, 0.22908902867401096
129.0, 0.24044310345170422
130.0, 0.2252809425068868
131.0, 0.1780120432241003
132.0, 0.12191598130439774
133.0, 0.08101346361449581
134.0, 0.055336501492435894
135.0, 0.041645519478052555
136.0, 0.03912234674821639
137.0, 0.041592258523129394
138.0, 0.04681753446553947
139.0, 0.046867381576112005
140.0, 0.04126039525545212
141.0, 0.031545756952644805
142.0, 0.020024238972133016
143.0, 0.012610918277303238
144.0, 0.007033150060237883
145.0, 0.002907300148288966
146.0, 0.0014320793847483228
147.0, 0.0008881087207613538
148.0, 0.0011427913686065062
149.0, 0.0022622847547967167
150.0, 0.0023176533336791375
151.0, 0.0023837665138798417
152.0, 0.002470271077485265
153.0, 0.001993864197496996
154.0, 0.00140169840750033
155.0, 0.0009973794630486349
156.0, 0.0009829034107852416
157.0, 0.0021206854297016933
158.0, 0.006007513724310577
159.0, 0.01370406480399452
160.0, 0.02865789340650014
161.0, 0.041130339347522055
162.0, 0.06768581754878157
163.0, 0.11494229262471116
164.0, 0.20051787732161225
165.0, 0.26176352178522794
166.0, 0.28097748469225914
167.0, 0.22780304545812302
168.0, 0.14907936653032708
169.0, 0.08917520291456166
170.0, 0.05114677298024496
171.0, 0.03099684938095712
172.0, 0.01836075771797467
173.0, 0.010001202013007795
174.0, 0.004837290528349931
175.0, 0.002278026616625962
176.0, 0.0009480516640759805
177.0, 0.000543896339895831
178.0, 0.0007027230569774426
179.0, 0.0024584874463476876
180.0, 0.0032212355037724277
181.0, 0.0028243310381707385
182.0, 0.004276709034676132
183.0, 0.00412337026994146
184.0, 0.003980897699647772
185.0, 0.005088808686633042
186.0, 0.008146929550694387
187.0, 0.012700189062234789
188.0, 0.019286792712010323
189.0, 0.02990071677387527
190.0, 0.038225430474099646
191.0, 0.041522923925897334
192.0, 0.03860906260004665
193.0, 0.02827113467603267
194.0, 0.018737016973791164
195.0, 0.01097120324930744
196.0, 0.006373642535516682
197.0, 0.0026201267060321047
198.0, 0.0010705044363721078
199.0, 0.0011752356666129532
200.0, 0.0008246269676705012
201.0, 0.0013986551865093604
202.0, 0.0023334204737816256
203.0, 0.003453064720897183
204.0, 0.004913812194757014
205.0, 0.007354480223290157
206.0, 0.010304812483099507
207.0, 0.0132892634320214
208.0, 0.020056262836214457
209.0, 0.027954530246671144
210.0, 0.03596416371605477
211.0, 0.04106184489687958
212.0, 0.03657411141165218
213.0, 0.028196144229078304
214.0, 0.018154437805873447
215.0, 0.012260933632972645
216.0, 0.007679421619046596
217.0, 0.0039475952737326285
218.0, 0.0006463633365805773
219.0, 0.00017776272157549053
220.0, 0.0007926591657198169
221.0, 0.0019598747716160253
222.0, 0.0023822021388264034
223.0, 0.002603729476191192
224.0, 0.0024310881458149214
225.0, 0.0018394882431097596
226.0, 0.0027369988707140877
227.0, 0.0024049181496853217
228.0, 0.0018400186815648875
229.0, 0.002190170122877344
230.0, 0.001884592893060512
231.0, 0.0014025000285881992
232.0, 0.0008178042124406385
233.0, 0.00021542918141518545
234.0, 0.0019183597609260697
235.0, 0.0038238664494317956
236.0, 0.005455255606059712
237.0, 0.010040023162069475
238.0, 0.015152037776580344
239.0, 0.022341590556849155
240.0, 0.03347872029880796
241.0, 0.052354931664525116
242.0, 0.07667993681707631
243.0, 0.10615056402578783
244.0, 0.14125745724079375
245.0, 0.15584807043686683
246.0, 0.15129902315448832
247.0, 0.12877980604958542
248.0, 0.10014332265255274
249.0, 0.07463902901243481
250.0, 0.05443541115683869
251.0, 0.04164980617492264
252.0, 0.031698033950980815
253.0, 0.025187833154423994
254.0, 0.021066688051565977
255.0, 0.017821312291362006
256.0, 0.014380557235694353
257.0, 0.012274000792650373
258.0, 0.011216082948542355
259.0, 0.0087267524169461
260.0, 0.0074254501537019445
261.0, 0.006534782045388674
262.0, 0.005705169823421793
263.0, 0.0039814515716375225
264.0, 0.0029638879114451283
265.0, 0.002111419118442109
266.0, 0.0008659808440304775
267.0, 0.002571965418764405
268.0, 0.0032707950998316472
269.0, 0.0033373344837773723
270.0, 0.004345906102728502
271.0, 0.004984018977345244
272.0, 0.006330968220223187
273.0, 0.008812297410252197
274.0, 0.013543888482154702
275.0, 0.019399248571989557
276.0, 0.02625996597392911
277.0, 0.03399651055360313
278.0, 0.03274245418924512
279.0, 0.02869112505332186
280.0, 0.0226601140048048
281.0, 0.015447113122933462
282.0, 0.01071033446731963
283.0, 0.007285355346468216
284.0, 0.004658993855953932
285.0, 0.0017082032294268752
286.0, 0.0009989687530344874
287.0, 0.001213015996120412
288.0, 0.0017451395276428666
289.0, 0.00041512447929172795
290.0, 0.0006230090638074243
291.0, 0.0012190648600560964
292.0, 0.0015512538966896661
293.0, 0.0010691983692389265
294.0, 0.0005325527000056154
295.0, 0.00018174348113984883
296.0, 0.00035724874204863516
297.0, 0.0006785859142627438
298.0, 0.0010636822764650024
299.0, 0.0014841630440054015
300.0, 0.0018865491675107654
301.0, 0.00399207127657841
302.0, 0.006383823385256621
303.0, 0.008787557327046645
304.0, 0.011497586989430313
305.0, 0.017014795903118347
306.0, 0.023206449213170326
307.0, 0.02929561433488106
308.0, 0.040226315017504406
309.0, 0.0548460339455896
310.0, 0.06837906008525538
311.0, 0.07595817613458515
312.0, 0.07934793548176723
313.0, 0.07456877158164385
314.0, 0.06399600576934678
315.0, 0.05185848811448254
316.0, 0.04095163394053585
317.0, 0.030946976531596393
318.0, 0.022274197701307227
319.0, 0.01691544890352849
320.0, 0.012093969691203108
321.0, 0.00882253361645961
322.0, 0.007364157792974811
323.0, 0.006691943717678279
324.0, 0.005488410473043367
325.0, 0.004526614564266402
326.0, 0.004270049189799244
327.0, 0.0037266893813125345
328.0, 0.0038068780757962994
329.0, 0.004295300396822499
330.0, 0.004992003616133654
331.0, 0.006020177272408891
332.0, 0.0069553736500919654
333.0, 0.007948143234514118
334.0, 0.009362759662180557
335.0, 0.010891466789907819
336.0, 0.012182356478043862
337.0, 0.013955621012507538
338.0, 0.019143866655120446
339.0, 0.024588862993998536
340.0, 0.033022230728046706
341.0, 0.04606177120916996
342.0, 0.069059329046561
343.0, 0.0986315742114391
344.0, 0.14110267108576027
345.0, 0.20007127988550552
346.0, 0.2644551427306923
347.0, 0.3127660861831581
348.0, 0.330953851153552
349.0, 0.3040851359389894
350.0, 0.24078015895566912
351.0, 0.18323146198087284
352.0, 0.1332236943779058
353.0, 0.0931087108150413
354.0, 0.07030098863901596
355.0, 0.05204593662937319
356.0, 0.03819940414549605
357.0, 0.03168183370858489
358.0, 0.023684667092959612
359.0, 0.018191810676327663
360.0, 0.015503094586129477
361.0, 0.014049202863739497
362.0, 0.011099286904797704
363.0, 0.009112719952969243
364.0, 0.008551178926772351
365.0, 0.007129620415195787
366.0, 0.006544123420660484
367.0, 0.005953824516370462
368.0, 0.004982643636392121
369.0, 0.0041682880218328455
370.0, 0.0029229192110870415
371.0, 0.002258001443971481
372.0, 0.002932147590490659
373.0, 0.0010472465393144357
374.0, 0.0008368991395853195
375.0, 0.001215385160136645
376.0, 0.000972942806891998
377.0, 0.0011487044119999992
378.0, 0.0006911150152672707
379.0, 7.570311711653137e-05
380.0, 0.00017420345097884357
381.0, 0.0004916384844557095
382.0, 0.0004052734195480804
383.0, 0.00026011153078018954
384.0, 0.001071380696157692
385.0, 0.0012365103128221533
386.0, 0.000804858752027209
387.0, 7.183207305918461e-05
388.0, 6.885518629084032e-05
389.0, 0.0006721111684808074
390.0, 0.0013380985505132756
391.0, 0.0016775991417352439
392.0, 0.0003621128788038417
393.0, 0.0006460353303152229
394.0, 0.0011990921796057703
395.0, 0.001517335560250516
396.0, 0.001540330476200764
397.0, 0.0014757678275712212
398.0, 0.001525847733190088
399.0, 0.0018229378460740556
400.0, 0.0026755003026414153
401.0, 0.0030198457230294897
402.0, 0.003974972067334454
403.0, 0.00631680892084446
404.0, 0.008420572697399615
405.0, 0.010514016748284944
406.0, 0.012089816049260951
407.0, 0.012647736459373674
408.0, 0.008880440835662513
409.0, 0.007438356335329705
410.0, 0.006732083522377566
411.0, 0.00475086836046232
412.0, 0.00459301563032348
413.0, 0.005743252371237842
414.0, 0.007126563598153767
415.0, 0.007085173595147917
416.0, 0.009804894210392802
417.0, 0.01176540144340618
418.0, 0.013675315507706644
419.0, 0.017517388345063906
420.0, 0.021595262116388226
421.0, 0.027039344363692017
422.0, 0.03354190721092874
423.0, 0.040077283132165124
424.0, 0.041525229672873074
425.0, 0.04226642284509092
426.0, 0.04123656350777087
427.0, 0.03289487879304492
428.0, 0.02561781926100355
429.0, 0.019918228682745627
430.0, 0.015676007982037197
431.0, 0.012093124955025914
432.0, 0.009365549814042685
433.0, 0.006733322938951455
434.0, 0.0044253229447897115
435.0, 0.0043456118863717886
436.0, 0.004083800074632116
437.0, 0.003802690241961792
438.0, 0.0038362042769893674
439.0, 0.005725037806000574
440.0, 0.007210703143266653
441.0, 0.008337780874003609
442.0, 0.00891675690497684
443.0, 0.007665940044621367
444.0, 0.005788955786460839
445.0, 0.00446477848633984
446.0, 0.003956356337249313
447.0, 0.002542507536425459
448.0, 0.0019033059372714843
449.0, 0.0015245729221594157
450.0, 0.0012168973782052
451.0, 0.0013009298736063374
452.0, 0.001384750366437098
453.0, 0.0014684574307455912
454.0, 0.001644692341383095
455.0, 0.002871420565570477
456.0, 0.004601098328300122
457.0, 0.0061210487212814595
458.0, 0.007209828166647546
459.0, 0.009899961596014034
460.0, 0.010864181262402805
461.0, 0.011291936715709801
462.0, 0.011760623369622388
463.0, 0.011035543393938394
464.0, 0.010200665915184273
465.0, 0.009124877685954986
466.0, 0.007748987310456877
467.0, 0.006477868654951325
468.0, 0.0072652764636430825
469.0, 0.008418607076054789
470.0, 0.00903139138046604
471.0, 0.011291675561388062
472.0, 0.014409373419626623
473.0, 0.019561642106130303
474.0, 0.027713296497082027
475.0, 0.04144317858320554
476.0, 0.06039264272170001
477.0, 0.08611515612000907
478.0, 0.11888351839072626
479.0, 0.14470230205412463
480.0, 0.14940657422166997
481.0, 0.1369773401950175
482.0, 0.11000512197675369
483.0, 0.07691326236615323
484.0, 0.05375184295604411
485.0, 0.037687466606702816
486.0, 0.027125602986512558
487.0, 0.021408984408116907
488.0, 0.015399214108777263
489.0, 0.010417978905403658
490.0, 0.007308734690463413
491.0, 0.006595729366068982
492.0, 0.0045714299990012915
493.0, 0.0032374459728765352
494.0, 0.0033593285778872406
495.0, 0.001175364599756916
496.0, 0.00150676272818875
497.0, 0.0020513052338299413
498.0, 0.0017153111279833292
499.0, 0.0012072891053662147
500.0, 0.0012335430514982212
501.0, 0.0010331981612435623
502.0, 0.0003572661193427261
503.0, 7.826637350605414e-05
504.0, 0.00034754267434406003
505.0, 0.0005545844245733537
506.0, 0.0005081232310133635
507.0, 0.0006411254331484176
508.0, 0.0008191464997150531
509.0, 0.0007663025188806228
510.0, 0.0005111396122838438
511.0, 0.0007964802614349854
512.0, 0.00047383577226885057
513.0, 0.0004780209759743532
514.0, 0.0008292856948471549
515.0, 0.00022096900672131643
516.0, 0.00016121383748098392
517.0, 0.0002581573054889397
518.0, 0.00035123714537492657
519.0, 0.00023163237710727876
520.0, 0.00022273651587259225
521.0, 0.000523136978447988
522.0, 0.0009382704727324363
523.0, 0.0007052064409914081
524.0, 0.00035152648695901733
525.0, 0.0007382962752775286
526.0, 0.0014689791381277538
527.0, 0.0011107580946978452
528.0, 0.00037874221604647894
529.0, 0.0005158706472734156
530.0, 0.0010917789238007757
531.0, 0.000844756017248423
532.0, 0.0002861481717631965
533.0, 0.0007625798780033903
534.0, 0.0014234986810694214
535.0, 0.0006026912790659412
536.0, 0.00039827998782404313
537.0, 0.0002973284926050967
538.0, 0.00033543235336407594
539.0, 0.0006032552422543106
540.0, 0.0016168699994545213
541.0, 0.0016485068386455296
542.0, 0.0013338130361149935
543.0, 0.0013948626512329918
544.0, 0.0006115813393238194
545.0, 0.0009832709569446408
546.0, 0.0016803689737846673
547.0, 0.001983737003145091
548.0, 0.0015211578054129718
549.0, 0.0016130250605310963
550.0, 0.0021812970542063347
551.0, 0.0030258446933335375
552.0, 0.0024731790028513457
553.0, 0.0029354267574951
554.0, 0.003906782193258672
555.0, 0.0049754970046092355
556.0, 0.0049682822827283426
557.0, 0.006502739672160982
558.0, 0.008937788010653334
559.0, 0.012098341908516294
560.0, 0.016192658603702902
561.0, 0.022666888011296103
562.0, 0.027611349378647752
563.0, 0.02946790615717726
564.0, 0.026397139616834975
565.0, 0.02412680429093642
566.0, 0.01994294669786114
567.0, 0.015216566844337859
568.0, 0.013914310985360933
569.0, 0.012892161421128211
570.0, 0.011865835422928026
571.0, 0.01123743876629937
572.0, 0.011665217437259952
573.0, 0.01149492204227622
574.0, 0.011791065883487403
575.0, 0.012265603364983868
576.0, 0.012574583272419965
577.0, 0.013688314552303365
578.0, 0.01451260197824177
579.0, 0.015222747904109456
580.0, 0.01608317032925215
581.0, 0.01891266283216691
582.0, 0.020092318359105646
583.0, 0.021215312735928638
584.0, 0.02303219630069893
585.0, 0.02503844356267289
586.0, 0.025785576487460254
587.0, 0.027691580625171117
588.0, 0.031031787279399512
589.0, 0.033605077162726774
590.0, 0.03543601314678713
591.0, 0.03880505175107476
592.0, 0.04329722775039519
593.0, 0.04668830931873387
594.0, 0.05261150773546495
595.0, 0.0592030206606752
596.0, 0.06689887944192044
597.0, 0.07672375800424927
598.0, 0.09093124105543733
599.0, 0.1069952022505328
600.0, 0.12768015877235306
601.0, 0.15578749653465168
602.0, 0.19016473386485286
603.0, 0.24184961944823272
604.0, 0.3117616165165582
605.0, 0.4014037296400367
606.0, 0.5208188436274724
607.0, 0.6781033710453603
608.0, 0.8280160620976627
609.0, 0.9443247943483436
610.0, 0.9921968542379875
611.0, 0.9359850818622324
612.0, 0.8295652245852055
613.0, 0.6972445192275609
614.0, 0.5692811272482045
615.0, 0.44701405621405005
616.0, 0.3525193981841518
617.0, 0.28275974936399967
618.0, 0.22839405766448886
619.0, 0.186423007903089
620.0, 0.15790068884428346
621.0, 0.13753864464337442
622.0, 0.1202191021132327
623.0, 0.11215945046372229
624.0, 0.10726037581542262
625.0, 0.10595743964764366
626.0, 0.10822694481287608
627.0, 0.11226365214225588
628.0, 0.10741900771788025
629.0, 0.10025717122421403
630.0, 0.09193869601899408
631.0, 0.07899571471255872
632.0, 0.0676365733808769
633.0, 0.06003436043547772
634.0, 0.05409117983235287
635.0, 0.045180493174406706
636.0, 0.042792899918518305
637.0, 0.03963938626034023
638.0, 0.03600553378312249
639.0, 0.03270608772237021
640.0, 0.03199318209045126
641.0, 0.02968850489003389
642.0, 0.02798536507097412
643.0, 0.027877084883108083
644.0, 0.026696768711281602
645.0, 0.025020879385875484
646.0, 0.024155590076212558
647.0, 0.02378677579467322
648.0, 0.021460799934832412
649.0, 0.02096233375162957
650.0, 0.020558894079547727
651.0, 0.0198253917812235
652.0, 0.018497161890003905
653.0, 0.018147017160315203
654.0, 0.016262755072952686
655.0, 0.014268196414368352
656.0, 0.013435225534610594
657.0, 0.010886502166046506
658.0, 0.010490116882709238
659.0, 0.01070422138158303
660.0, 0.010547432066025254
661.0, 0.009015999021146033
662.0, 0.008223961581485879
663.0, 0.0074892604451871755
664.0, 0.0066960058649055245
665.0, 0.005968909824860846
666.0, 0.005557448920465443
667.0, 0.0050345747953842584
668.0, 0.004576058064370751
669.0, 0.004426801768472817
670.0, 0.00393791657031776
671.0, 0.0034475813333465187
672.0, 0.003572398898675448
673.0, 0.004305393713306174
674.0, 0.0028490838154863487
675.0, 0.0028365645588869256
676.0, 0.003001482301886201
677.0, 0.002776666118901069
678.0, 0.0016650724166866078
679.0, 0.0022176050484709366
680.0, 0.002360367957223306
681.0, 0.002019260902097521
682.0, 0.0014558688534920417
683.0, 0.0021634175046333247
684.0, 0.0017043822176656556
685.0, 0.001544558540439779
686.0, 0.0023275872602177717
687.0, 0.0010072808880660354
688.0, 0.0020382088455441
689.0, 0.0018600433578597772
690.0, 0.0003984324993449133
691.0, 0.0008679480429520022
692.0, 0.00036103408915631903
693.0, 0.0005114269443006888
694.0, 0.0009460676001002969
695.0, 0.0008988390652725336
696.0, 0.0008897450402790431
697.0, 0.0004149629732485318
698.0, 0.0006547164366994427
699.0, 0.0018849447033091045
700.0, 0.0007361241361908805
701.0, 0.00025113541970069416
702.0, 0.0004632040389339416
703.0, 0.0009513725110429955
704.0, 0.0006174359629762098
705.0, 0.0006732401184599805
706.0, 0.00044611835624368425
707.0, 0.00033478756261661575
708.0, 0.0008214095838577336
709.0, 0.0008874091704986709
710.0, 0.0005535860845737177
711.0, 0.0004282840612605118
712.0, 0.0006421628670524158
713.0, 0.0002520440094801129
714.0, 0.00035680631816453333
715.0, 0.0002635735358636798
716.0, 8.743357096647763e-05
717.0, 0.0003264579959516759
718.0, 9.84132898164022e-05
719.0, 0.0005664432793855934
720.0, 0.0010465914773675187
721.0, 0.000960193705006954
722.0, 0.0008575473160407665
723.0, 0.000633329164970233
724.0, 0.0007425622042390452
725.0, 0.0009916272358759443
726.0, 0.00028013933548181637
727.0, 0.0009362113287369478
728.0, 0.0008705027346691844
729.0, 0.0006623331260470651
730.0, 0.0013077851889581468
731.0, 0.0012733932904304298
732.0, 0.0008932831961197939
733.0, 0.0006144498101770259
734.0, 0.0006664685915900275
735.0, 0.0009584282722863076
736.0, 0.0010060198474297107
737.0, 0.0010215598228796618
738.0, 0.000954647642467186
739.0, 0.0006475452524554435
740.0, 0.0002733391603332437
741.0, 0.0004218289916970407
742.0, 0.0004686143969468016
743.0, 0.00015641319582231149
744.0, 0.0011496905377192772
745.0, 0.0007641057788785595
746.0, 0.0007608132982307241
747.0, 0.0012933708726930576
748.0, 0.0015285814029089232
749.0, 0.001556645902750431
750.0, 0.001999568973546381
751.0, 0.002353326524090475
752.0, 0.002165117255134886
753.0, 0.002030651406828775
754.0, 0.0021711541806651523
755.0, 0.0018936485947068336
756.0, 0.0012467107671805177
757.0, 0.0010924522303874607
758.0, 0.00041990070024440805
759.0, 0.0006696700392236994
760.0, 0.0013082289394249712
761.0, 0.0015820924293282273
762.0, 0.0015245362131071128
763.0, 0.0014967148457509804
764.0, 0.0015202286132774132
765.0, 0.001544915160874862
766.0, 0.0013791345786558311
767.0, 0.0017854229592923216
768.0, 0.0017253204509107142
769.0, 0.0017397504009687376
770.0, 0.0025470208824968166
771.0, 0.002664066265761882
772.0, 0.0032819447515222804
773.0, 0.004116060172790574
774.0, 0.004640785226501523
775.0, 0.003509402180156928
776.0, 0.003971283243940767
777.0, 0.003206725884803548
778.0, 0.001975432693716069
779.0, 0.0016039512520586575
780.0, 0.0007648047781400537
781.0, 0.00041218094279155023
782.0, 0.0007585860720334865
783.0, 0.0014452172442435767
784.0, 0.0009567099516746875
785.0, 0.0007851826036234409
786.0, 0.000563704253810133
787.0, 0.00032883897286552975
788.0, 0.00023808018124289114
789.0, 0.0014281384414002248
790.0, 0.0012142718178308094
791.0, 0.0008798551262839007
792.0, 0.0010387301264461188
793.0, 0.0018390625957271638
794.0, 0.001064827075068562
795.0, 0.0013084526581607855
796.0, 0.001474245439807855
797.0, 0.00032636305601842214
798.0, 0.0003246427544877452
799.0, 0.0005078555517156868
800.0, 0.0008525475408438354
801.0, 0.0010899361716202487
802.0, 0.0005630938278504283
803.0, 0.00036655679079637124
804.0, 0.00042315554795762934
805.0, 0.000570849647034216
806.0, 0.0006122818037001235
807.0, 0.0001049836101620444
808.0, 0.00037835561133696703
809.0, 0.0004627651791096989
810.0, 0.00040637028502984237
811.0, 0.0008807406219623498
812.0, 0.000495082472051616
813.0, 0.0005469303392900898
814.0, 0.0007870583738254706
815.0, 0.000952091064854923
816.0, 0.0007768357590988181
817.0, 0.000632446987748206
818.0, 0.0004482944700356597
819.0, 0.00026539721780762687
820.0, 0.00016911182741891314
821.0, 0.0003019837223576595
822.0, 0.0005392801534811662
823.0, 0.0007802758937658946
824.0, 0.00087589615579355
825.0, 0.0004927211217975045
826.0, 0.0005570988431685835
827.0, 0.00040686741260426173
828.0, 0.0005444094214061981
829.0, 0.0014306405227575468
830.0, 0.0011015025495532697
831.0, 0.001407962639685295
832.0, 0.001099725545980322
833.0, 0.0003169141605849717
834.0, 0.00037139433550686024
835.0, 9.82676741871741e-05
836.0, 0.00010015907366006237
837.0, 0.0006353719066646863
838.0, 0.0016920418017310804
839.0, 0.0023541136525923934
840.0, 0.0012624539014801667
841.0, 0.001293446216539085
842.0, 0.0018722147171379626
843.0, 0.001412896486776524
844.0, 0.002666647548151262
845.0, 0.003943400856546243
846.0, 0.004158070052139594
847.0, 0.0035843326650330876
848.0, 0.004464734231224364
849.0, 0.004695331473052242
850.0, 0.004483686691647081
851.0, 0.005001916925088665
852.0, 0.006701883687253666
853.0, 0.005653641168818809
854.0, 0.006423691725192414
855.0, 0.006962525928326123
856.0, 0.0071079168396108216
857.0, 0.007472308297687011
858.0, 0.010560070856501473
859.0, 0.010610540227443233
860.0, 0.009950599513671103
861.0, 0.009776037638366309
862.0, 0.009954835789111344
863.0, 0.007565429819600566
864.0, 0.008653781801018003
865.0, 0.008855151948214207
866.0, 0.004944762094008468
867.0, 0.005913924894997166
868.0, 0.004818689882106426
869.0, 0.00382938829436535
870.0, 0.003796406767949059
871.0, 0.005063628286959378
872.0, 0.003915073864919621
873.0, 0.005226821122218127
874.0, 0.0062135289348410954
875.0, 0.005836805674310483
876.0, 0.00494690951001228
877.0, 0.004574871069087789
878.0, 0.004826752134783973
879.0, 0.00508105753075297
880.0, 0.004885256410568835
881.0, 0.0045633650901001155
882.0, 0.004466007851366713
883.0, 0.004403726467804961
884.0, 0.004507311245442057
885.0, 0.004967390736286384
886.0, 0.005557811186420309
887.0, 0.006055433806485353
888.0, 0.005780824322495516
889.0, 0.00534742458110511
890.0, 0.006531430157319011
891.0, 0.007444006452600581
892.0, 0.007336464306309663
893.0, 0.007763826666986235
894.0, 0.009046403999131177
895.0, 0.008866719571957232
896.0, 0.010198992467142318
897.0, 0.012444573949469986
898.0, 0.013502175542644466
899.0, 0.01257583154439019
900.0, 0.017084340109046036
901.0, 0.01633295471839902
902.0, 0.01685206158816602
903.0, 0.018915939705489774
904.0, 0.02063623161397892
905.0, 0.01946716232752884
906.0, 0.020584468877742946
907.0, 0.021459022836585222
908.0, 0.021552162089425182
909.0, 0.02180882128018119
910.0, 0.02505124517728944
911.0, 0.02480163653634466
912.0, 0.025584508628052994
913.0, 0.028740514409489194
914.0, 0.02973049972497184
915.0, 0.031161924920565885
916.0, 0.03230056465436031
917.0, 0.03169252595765084
918.0, 0.029041466128215964
919.0, 0.02860471109086197
920.0, 0.02495332104373805
921.0, 0.020886196340381632
922.0, 0.01822718696902966
923.0, 0.017964277438321984
924.0, 0.015424496906592028
925.0, 0.013793509230865426
926.0, 0.013359056037050095
927.0, 0.013097743500631023
928.0, 0.011477018859579108
929.0, 0.013681790085170913
930.0, 0.013929159575194647
931.0, 0.013490956484388125
932.0, 0.013932235084748995
933.0, 0.017351393535201227
934.0, 0.016336893067117397
935.0, 0.017451443084790314
936.0, 0.019889708476275435
937.0, 0.02250410958040457
938.0, 0.02359638878196704
939.0, 0.029104590681553962
940.0, 0.03226960136446277
941.0, 0.036664559545481916
942.0, 0.044336568414841966
943.0, 0.05160677855898362
944.0, 0.058617598158132465
945.0, 0.06728492193372722
946.0, 0.07518006253957772
947.0, 0.08003458589141925
948.0, 0.08288803267461169
949.0, 0.08104940150200636
950.0, 0.07647246927868406
951.0, 0.07011790024093226
952.0, 0.06280832932247234
953.0, 0.05484222594206223
954.0, 0.0482171638147615
955.0, 0.04257265142203512
956.0, 0.03727994253701301
957.0, 0.03184112155230376
958.0, 0.03030488332744945
959.0, 0.03043056101228829
960.0, 0.029256581932634557
961.0, 0.027973352064703007
962.0, 0.0300335075189225
963.0, 0.031472689110872
964.0, 0.03311068774617061
965.0, 0.03728566320276552
966.0, 0.04326851099076938
967.0, 0.04778740076506791
968.0, 0.06592953242533992
969.0, 0.0780410931951278
970.0, 0.09294616029892681
971.0, 0.11203289427106625
972.0, 0.1284922778695309
973.0, 0.13552930523758
974.0, 0.13229348545276226
975.0, 0.12228675776149124
976.0, 0.10826670182840285
977.0, 0.09175747447134014
978.0, 0.08036373743913194
979.0, 0.06704419138255475
980.0, 0.056244689821300785
981.0, 0.04968704305986173
982.0, 0.04365781390065966
983.0, 0.0379833126331956
984.0, 0.03522313295283335
985.0, 0.03318103389622558
986.0, 0.03035227180993599
987.0, 0.027279107581823628
988.0, 0.024951797959718025
989.0, 0.023303003480773722
990.0, 0.022052286731771484
991.0, 0.021294973184928307
992.0, 0.02222355593253064
993.0, 0.020070160310267777
994.0, 0.020311636263060723
995.0, 0.020881981859905828
996.0, 0.020590646323597517
997.0, 0.022801217333232537
998.0, 0.026406722903767412
999.0, 0.029197468810298447
1000.0, 0.03245305742640586
1001.0, 0.037543288498515286
1002.0, 0.04519289072727927
1003.0, 0.04888943735111735
1004.0, 0.05536054196152298
1005.0, 0.06389525136073515
1006.0, 0.07418463398114142
1007.0, 0.0902944529963192
1008.0, 0.09823997088034926
1009.0, 0.09625350236790152
1010.0, 0.08710351984575604
1011.0, 0.07374568898224651
1012.0, 0.05692178692523661
1013.0, 0.04600395341428295
1014.0, 0.03755893679577884
1015.0, 0.030066110653756906
1016.0, 0.02390748941522809
1017.0, 0.024504250243031638
1018.0, 0.022480180080275143
1019.0, 0.01980612383370075
1020.0, 0.019737781905035612
1021.0, 0.022440510328618653
1022.0, 0.02012349107792688
1023.0, 0.021121136131154624
1024.0, 0.022584924704565176
1025.0, 0.022935679454244774
1026.0, 0.022151168130520555
1027.0, 0.023329950701055625
1028.0, 0.022357520136187106
1029.0, 0.0199225601825842
1030.0, 0.018271429314356095
1031.0, 0.01786267877992195
1032.0, 0.015603629103491178
1033.0, 0.013997121596677847
1034.0, 0.01162473872438345
1035.0, 0.008801672376653033
1036.0, 0.006762596870651536
1037.0, 0.008064335175839873
1038.0, 0.004578434462901306
1039.0, 0.0050416733616793245
1040.0, 0.0053834562915130914
1041.0, 0.003842205686189
1042.0, 0.002025506691815917
1043.0, 0.0025857178346418395
1044.0, 0.0022761484871278714
1045.0, 0.0018600830975621832
1046.0, 0.0018382717931010341
1047.0, 0.0023757702190974257
1048.0, 0.0015455723309894024
1049.0, 0.0015866529125165636
1050.0, 0.0017571494994946273
1051.0, 0.001777384848714281
1052.0, 0.00172050894131656
1053.0, 0.001968806938419152
1054.0, 0.0019806278622277905
1055.0, 0.002126679865699466
1056.0, 0.00227345227633185
1057.0, 0.002103483536399386
1058.0, 0.0021207563106761425
1059.0, 0.002121378150728582
1060.0, 0.0026182848866311815
1061.0, 0.0031547050631663635
1062.0, 0.0031292955779199877
1063.0, 0.0032505447636959114
1064.0, 0.0014987049632353639
1065.0, 0.0019386194657752434
1066.0, 0.003171562147435268
1067.0, 0.0032277031346253106
1068.0, 0.003023935625448349
1069.0, 0.004623847776737398
1070.0, 0.003869154481931374
1071.0, 0.003551038293563646
1072.0, 0.005568502405874901
1073.0, 0.007297069594744714
1074.0, 0.005780648372740643
1075.0, 0.00829957757888039
1076.0, 0.01130185403521909
1077.0, 0.012534742501905975
1078.0, 0.012919506828604568
1079.0, 0.015197203224156035
1080.0, 0.014139728170781607
1081.0, 0.013711129953926116
1082.0, 0.015029645390249298
1083.0, 0.016306502892995556
1084.0, 0.014425420437563159
1085.0, 0.013925076432437806
1086.0, 0.013717875570431099
1087.0, 0.012846604923931542
1088.0, 0.01095743996674354
1089.0, 0.012479981729797154
1090.0, 0.012024136008064812
1091.0, 0.013284950228504516
1092.0, 0.01544546679279148
1093.0, 0.016454572950240626
1094.0, 0.015019493765911192
1095.0, 0.018501521369863216
1096.0, 0.020462676400391136
1097.0, 0.021544329467833197
1098.0, 0.023479521849784857
1099.0, 0.0279040412871711
1100.0, 0.028453201456016663
1101.0, 0.030793454177806604
1102.0, 0.03409776472830303
1103.0, 0.036999382758371516
1104.0, 0.03811847344711741
1105.0, 0.04303868359791902
1106.0, 0.04426549738862792
1107.0, 0.04332050401656319
1108.0, 0.042465903527507586
1109.0, 0.043399280183134006
1110.0, 0.037454709997056294
1111.0, 0.03731450223578364
1112.0, 0.03456068633159896
1113.0, 0.029699446178128062
1114.0, 0.025812042376424933
1115.0, 0.024517840084314846
1116.0, 0.02122092867998881
1117.0, 0.018843424738618813
1118.0, 0.017394971574436393
1119.0, 0.016117635256358773
1120.0, 0.013643019554980401
1121.0, 0.014414558081797238
1122.0, 0.013815063701218724
1123.0, 0.012528022006513949
1124.0, 0.011216568468942313
1125.0, 0.010238110294622946
1126.0, 0.008191271998601675
1127.0, 0.008179022884197239
1128.0, 0.007355153551665999
1129.0, 0.005455083431613911
1130.0, 0.0038287690499031763
1131.0, 0.006341185745283916
1132.0, 0.00508909101244405
1133.0, 0.004183946150163193
1134.0, 0.003973818144088111
1135.0, 0.0036896914851683683
1136.0, 0.0016421676665208695
1137.0, 0.0019972166313660627
1138.0, 0.002659654212171793
1139.0, 0.0020669159125501937
1140.0, 0.0007078501424907256
1141.0, 0.0007259845515568396
1142.0, 0.0009187697309363019
1143.0, 0.0012118329757912884
1144.0, 0.0012138434760230281
1145.0, 0.0010295360343355305
1146.0, 0.0010078452523337653
1147.0, 0.0016915454315419955
1148.0, 0.0012816775731206598
1149.0, 0.0007221560745820837
1150.0, 0.0002720643383311201
1151.0, 8.03941054847896e-05
1152.0, 0.00025433472751916145
1153.0, 0.00028156768922789376
1154.0, 0.00038927337264433253
1155.0, 0.0004012052785576953
1156.0, 0.0006029040133673452
1157.0, 0.0014193581234904747
1158.0, 0.001899842990644499
1159.0, 0.0019263074816604697
1160.0, 0.002416902414946725
1161.0, 0.003448074616768255
1162.0, 0.004483176185198357
1163.0, 0.004023685062293097
1164.0, 0.005416855155841203
1165.0, 0.005976754676312601
1166.0, 0.00700340794971637
1167.0, 0.008608400133642726
1168.0, 0.009654913253949717
1169.0, 0.011305259728252899
1170.0, 0.015017563772663521
1171.0, 0.016808873502267438
1172.0, 0.017662922268092587
1173.0, 0.019541141330300327
1174.0, 0.021436061228396867
1175.0, 0.019585595339881592
1176.0, 0.01900652416234137
1177.0, 0.018852743878754782
1178.0, 0.017754063501750322
1179.0, 0.014768075087155795
1180.0, 0.015700885018514632
1181.0, 0.01313204869364791
1182.0, 0.010872555881109964
1183.0, 0.009975542661922328
1184.0, 0.00969954354219785
1185.0, 0.007190569595756954
1186.0, 0.007450332057752529
1187.0, 0.005897119212278964
1188.0, 0.004790269635759118
1189.0, 0.00552287967785662
1190.0, 0.007162998811980633
1191.0, 0.004529062889128924
1192.0, 0.0020760550431332676
1193.0, 0.0019822884035283176
1194.0, 0.0021298527713988625
1195.0, 0.000461171652371126
1196.0, 0.0021970768405157166
1197.0, 0.002169051650201846
1198.0, 0.0017504060607318596
1199.0, 0.0015657035985467702
1200.0, 0.0014177359922630667
1201.0, 0.00039999342513370387
1202.0, 0.0002428444571585597
1203.0, 0.00013663433084866425
1204.0, 0.00047523540605216456
1205.0, 0.0006803254308504355
1206.0, 0.00034882567380741365
1207.0, 0.0007240927616045102
1208.0, 0.00027922692054418194
1209.0, 0.00040051909035691255
1210.0, 0.00038289194018588645
1211.0, 0.00011955636653590638
1212.0, 0.00031738755714900524
1213.0, 0.002875920228934921
1214.0, 0.0019354025361705048
1215.0, 0.0020225949581442154
1216.0, 0.0026931389593883607
1217.0, 0.002622757613437782
1218.0, 0.0016261346009274324
1219.0, 0.000827735328369334
1220.0, 0.00028366504268635256
1221.0, 0.00018408617015283995
1222.0, 0.0005599620175002437
1223.0, 0.0011276538392869134
1224.0, 0.0004590819152885102
1225.0, 0.0008669621923091601
1226.0, 0.0008238859914591736
1227.0, 0.0007959047243893347
1228.0, 0.0009665505114860258
1229.0, 0.0007478035771707301
1230.0, 0.0012591769685478748
1231.0, 0.000991304174061638
1232.0, 0.0021774897302504165
1233.0, 0.0026810030383221457
1234.0, 0.0009306477035609921
1235.0, 0.00205906208364608
1236.0, 0.0035430391212060023
1237.0, 0.0019741533019183868
1238.0, 0.002071977404992368
1239.0, 0.0037103447562798026
1240.0, 0.003205747126792988
1241.0, 0.002307800451811869
1242.0, 0.003495532150743802
1243.0, 0.0028165226928510423
1244.0, 0.0020876367139233383
1245.0, 0.0027858376689687036
1246.0, 0.004051476734120144
1247.0, 0.0021202202467574126
1248.0, 0.0033048510835679496
1249.0, 0.003691987328489544
1250.0, 0.0028738420654275355
1251.0, 0.001966710582964796
1252.0, 0.0021826169343880856
1253.0, 0.00074865671123129
1254.0, 0.001473207656875644
1255.0, 0.002921156085784355
1256.0, 0.00306077884790919
1257.0, 0.0010722797345343988
1258.0, 0.003045865213221293
1259.0, 0.004198816554969419
1260.0, 0.00395708538845094
1261.0, 0.004797295749060981
1262.0, 0.006023102914471426
1263.0, 0.003600220868627705
1264.0, 0.002264067796690856
1265.0, 0.005441473169700613
1266.0, 0.0047877296630983845
1267.0, 0.003875755001365362
1268.0, 0.005171346898934492
1269.0, 0.0034249736826311612
1270.0, 0.0034337556216096268
1271.0, 0.005037602593159938
1272.0, 0.0059483049603309465
1273.0, 0.005478761701761982
1274.0, 0.0045956991385823764
1275.0, 0.006563133160474025
1276.0, 0.0037396543152755863
1277.0, 0.0044203364754710735
1278.0, 0.004330905706976964
1279.0, 0.0028075448387244674
1280.0, 0.00189629259907923
1281.0, 0.002712435693745589
1282.0, 0.0028402127611717484
1283.0, 0.0012022347328226588
1284.0, 0.0010350193991016704
1285.0, 0.0019777878418975998
1286.0, 0.0009210995307545639
1287.0, 0.002527828443969571
1288.0, 0.002187705680836811
1289.0, 0.0010298339371643856
1290.0, 0.0011854629970253904
1291.0, 0.0028283399518021137
1292.0, 0.003644820751261718
1293.0, 0.003402599546579669
1294.0, 0.004437741049909446
1295.0, 0.0029171767398243026
1296.0, 0.0020211983425694217
1297.0, 0.003466027026830736
1298.0, 0.0036883667177815146
1299.0, 0.0009280686422852959
1300.0, 0.0024450820765792186
1301.0, 0.00327431508070211
1302.0, 0.002432305906644187
1303.0, 0.0013992595039891416
1304.0, 0.0032886239457425867
1305.0, 0.0011486616175821248
1306.0, 0.002184261215661757
1307.0, 0.004185722830643074
1308.0, 0.00494726993194134
1309.0, 0.004190602507598141
1310.0, 0.005858535443638469
1311.0, 0.007013585832235583
1312.0, 0.0051401352155650785
1313.0, 0.00479429989807211
1314.0, 0.00609533940857871
1315.0, 0.0066675375426677955
1316.0, 0.0042318686470929215
1317.0, 0.006617416969517311
1318.0, 0.006621182682830618
1319.0, 0.005717959591696326
1320.0, 0.005941276962107283
1321.0, 0.007361546231281586
1322.0, 0.003901097347574453
1323.0, 0.004492117764224989
1324.0, 0.004735951025144208
1325.0, 0.0034196758988535893
1326.0, 0.0024778878912805977
1327.0, 0.003795039570710694
1328.0, 0.0030010584633946872
1329.0, 0.001807734887188998
1330.0, 0.002124367529190682
1331.0, 0.0014510857816198855
1332.0, 0.0005972184441761555
1333.0, 0.0014755247691373573
1334.0, 0.0017851198767126232
1335.0, 0.0019404211699764631
1336.0, 0.0011246667780072017
1337.0, 0.00037166318224840484
1338.0, 0.0005853722601500382
1339.0, 0.0017204341943402239
1340.0, 0.0013371725610961342
1341.0, 0.00035486547032137765
1342.0, 0.0002767456253475251
1343.0, 0.0006300955401790542
1344.0, 0.0007236470974114168
1345.0, 0.00035014979145332005
1346.0, 0.0008901261765914695
1347.0, 0.001467690039250286
1348.0, 0.0008387809743796283
1349.0, 0.0008503313060674317
1350.0, 0.0012478632243428643
1351.0, 0.0010262820897409466
1352.0, 0.0008498873264348157
1353.0, 0.0020351149582508387
1354.0, 0.0014146106701591224
1355.0, 0.0009711003432051126
1356.0, 0.000770586073925418
1357.0, 0.00045015704864176175
1358.0, 0.001298314215873206
1359.0, 0.0005434439588357667
1360.0, 0.0004133119580158898
1361.0, 0.0003560726408125011
1362.0, 0.00036884397207896826
1363.0, 0.0005593258097907405
1364.0, 0.0007126837404209924
1365.0, 0.0005093801545023534
1366.0, 0.0013757164836288916
1367.0, 0.000992985424176659
1368.0, 0.0003802011105371086
1369.0, 0.0008046755054540386
1370.0, 0.001683849954327413
1371.0, 0.00024535229992798816
1372.0, 0.001174110460844526
1373.0, 0.0011707138285540343
1374.0, 0.0007066418053836723
1375.0, 0.0008138237448788758
1376.0, 0.0015706742703145437
1377.0, 0.0013146212910827846
1378.0, 0.0012311299063137834
1379.0, 0.003085367959466994
1380.0, 0.003607581223249668
1381.0, 0.001971123243605811
1382.0, 0.0010579393868571682
1383.0, 0.00372863482351303
1384.0, 0.0018083642098182563
1385.0, 0.003357145070955271
1386.0, 0.0037669571252808426
1387.0, 0.0022041831925517794
1388.0, 0.001570648551911832
1389.0, 0.002139918396344325
1390.0, 0.0007222002465926838
1391.0, 0.0010865037915305205
1392.0, 0.0027082224068193865
1393.0, 0.0031987861384721486
1394.0, 0.0015229104635038832
1395.0, 0.0019395317186325918
1396.0, 0.0018759261672737439
1397.0, 0.001029283001112959
1398.0, 0.0014917936159751033
1399.0, 0.00213095150600538
1400.0, 0.0016316848421382806
1401.0, 0.0007860508963387036
1402.0, 0.00198622855192155
1403.0, 0.0017253102752228856
1404.0, 0.0020306955345417927
1405.0, 0.002678040250930167
1406.0, 0.0024364064642654823
1407.0, 0.0005165244245007985
1408.0, 0.001568165867598708
1409.0, 0.0018886065014679107
1410.0, 0.0009627408231519187
1411.0, 0.0020883263100902115
1412.0, 0.0038786220789098036
1413.0, 0.002647169469268424
1414.0, 0.00028154232810002704
1415.0, 0.004563051056726943
1416.0, 0.002856082626699669
1417.0, 0.0023663708467440365
1418.0, 0.003875378485869608
1419.0, 0.004412091217380298
1420.0, 0.0015329466180014828
1421.0, 0.0025263555670717204
1422.0, 0.003660173542115208
1423.0, 0.0037025701819955003
1424.0, 0.0040616599798581135
1425.0, 0.004968483169221558
1426.0, 0.004903260966663616
1427.0, 0.005499162287543962
1428.0, 0.006247458144351212
1429.0, 0.005126867381890934
1430.0, 0.005196471929427638
1431.0, 0.006280868631818356
1432.0, 0.006165940782808405
1433.0, 0.004924785592582252
1434.0, 0.008341249948637176
1435.0, 0.00956994271951801
1436.0, 0.009145563749795974
1437.0, 0.010173347846076104
1438.0, 0.012761674831066447
1439.0, 0.012039085080761616
1440.0, 0.013824453575969302
1441.0, 0.019178766538668963
1442.0, 0.01757593744922192
1443.0, 0.01663392391398667
1444.0, 0.018942050550563444
1445.0, 0.020261819251480906
1446.0, 0.01950043610914183
1447.0, 0.023654952502763945
1448.0, 0.023759676020578553
1449.0, 0.0219069154233822
1450.0, 0.02259653200342033
1451.0, 0.02581420084593534
1452.0, 0.023521327475076733
1453.0, 0.0208241028325189
1454.0, 0.024212102839218073
1455.0, 0.024240586376161506
1456.0, 0.022311629723021382
1457.0, 0.021608189686509825
1458.0, 0.02269921179622049
1459.0, 0.018922921739200196
1460.0, 0.021123576950882232
1461.0, 0.020325191272161973
1462.0, 0.018343864703924392
1463.0, 0.01783394914745273
1464.0, 0.018506555372618846
1465.0, 0.015847276660654996
1466.0, 0.01352529211514098
1467.0, 0.01323132786921232
1468.0, 0.011797650974736862
1469.0, 0.011023201422157618
1470.0, 0.01111640903240754
1471.0, 0.010508133714620225
1472.0, 0.008889711301789803
1473.0, 0.010899991857917669
1474.0, 0.010036819123283722
1475.0, 0.009481057262606113
1476.0, 0.009142160617671136
1477.0, 0.008334470879776576
1478.0, 0.007417041852925373
1479.0, 0.005746888213774115
1480.0, 0.009186092142927321
1481.0, 0.007694140263344541
1482.0, 0.006752962284271237
1483.0, 0.0077267526171793674
1484.0, 0.008151573496903665
1485.0, 0.006598433566706579
1486.0, 0.005087494074326079
1487.0, 0.005135562370011627
1488.0, 0.0048395900260276474
1489.0, 0.0038959345061350646
1490.0, 0.0031613562900152845
1491.0, 0.003447232854105298
1492.0, 0.0027513880400869
1493.0, 0.0035864119822272894
1494.0, 0.0022080649206371915
1495.0, 0.0006942370314583695
1496.0, 0.0006215264884906842
1497.0, 0.002112219946192922
1498.0, 0.0034767074636136795
1499.0, 0.0009689199056612671
1500.0, 0.0012276721529713
1501.0, 0.0007631479978486483
1502.0, 0.0002764347812603045
1503.0, 8.620884457677123e-05
1504, 0.0
1505, 0.0
1506, 0.0
1507, 0.0
1508, 0.0
1509, 0.0
1510, 0.0
1511, 0.0
1512, 0.0
1513, 0.0
1514, 0.0
1515, 0.0
1516, 0.0
1517, 0.0
1518, 0.0
1519, 0.0
1520, 0.0
1521, 0.0
1522, 0.0
1523, 0.0
1524, 0.0
1525, 0.0
1526, 0.0
1527, 0.0
1528, 0.0
1529, 0.0
1530, 0.0
1531, 0.0
1532, 0.0
1533, 0.0
1534, 0.0
1535, 0.0
1536, 0.0
1537, 0.0
1538, 0.0
1539, 0.0
1540, 0.0
1541, 0.0
1542, 0.0
1543, 0.0
1544, 0.0
1545, 0.0
1546, 0.0
1547, 0.0
1548, 0.0
1549, 0.0
1550, 0.0
1551, 0.0
1552, 0.0
1553, 0.0
1554, 0.0
1555, 0.0
1556, 0.0
1557, 0.0
1558, 0.0
1559, 0.0
1560, 0.0
1561, 0.0
1562, 0.0
1563, 0.0
1564, 0.0
1565, 0.0
1566, 0.0
1567, 0.0
1568, 0.0
1569, 0.0
1570, 0.0
1571, 0.0
1572, 0.0
1573, 0.0
1574, 0.0
1575, 0.0
1576, 0.0
1577, 0.0
1578, 0.0
1579, 0.0
1580, 0.0
1581, 0.0
1582, 0.0
1583, 0.0
1584, 0.0
1585, 0.0
1586, 0.0
1587, 0.0
1588, 0.0
1589, 0.0
1590, 0.0
1591, 0.0
1592, 0.0
1593, 0.0
1594, 0.0
1595, 0.0
1596, 0.0
1597, 0.0
1598, 0.0
1599, 0.0
