30, 0.0
31, 0.0
32, 0.0
33, 0.0
34, 0.0
35, 0.0
36, 0.0
37, 0.0
38, 0.0
39, 0.0
40, 0.0
41, 0.0
42, 0.0
43, 0.0
44, 0.0
45, 0.0
46, 0.0
47, 0.0
48, 0.0
49, 0.0
50, 0.0
51, 0.0
52, 0.0
53, 0.0
54, 0.0
55, 0.0
56, 0.0
57, 0.0
58, 0.0
59, 0.0
60, 0.0
61, 0.0
62, 0.0
63, 0.0
64, 0.0
65, 0.0
66, 0.0
67, 0.0
68, 0.0
69, 0.0
70, 0.0
71, 0.0
72, 0.0
73, 0.0
74, 0.0
75, 0.0
76, 0.0
77, 0.0
78, 0.0
79, 0.0
80, 0.0
81, 0.0
82, 0.0
83, 0.0
84, 0.0
85, 0.0
86, 0.0
87, 0.0
88, 0.0
89, 0.0
90, 0.0
91, 0.0
92, 0.0
93, 0.0
94, 0.0
95, 0.0
96.0, 1.1330263454069516e-05
97.0, 0.00042093417832793606
98.0, 0.0009023474383105702
99.0, 0.0006775089522099425
100.0, 0.0031590492385870548
101.0, 0.003954454991206488
102.0, 0.003255887691915343
103.0, 0.004253969807393725
104.0, 0.0031078429228922275
105.0, 0.001875116762549434
106.0, 0.0010349994366507338
107.0, 0.0007076040684887054
108.0, 0.0003735876687826307
109.0, 0.0012761386667071227
110.0, 0.0012811158345897875
111.0, 0.0006219848991387636
112.0, 0.002405452909470044
113.0, 0.0034089301175341696
114.0, 0.005358356396413632
115.0, 0.009226855142030336
116.0, 0.013740079930968738
117.0, 0.013129804718081815
118.0, 0.009271812484441666
119.0, 0.007005904498568264
120.0, 0.00754235281613669
121.0, 0.004640564689654326
122.0, 0.003906557369433349
123.0, 0.007307436760048502
124.0, 0.014262470187890716
125.0, 0.02295326313466084
126.0, 0.033619378075568807
127.0, 0.04872761410332362
128.0, 0.06494276818059833
129.0, 0.07815137751984756
130.0, 0.09098378034940535
131.0, 0.11308530796617211
132.0, 0.12288398123744267
133.0, 0.10720730729110291
134.0, 0.08368464524584235
135.0, 0.06474794489209651
136.0, 0.05255712540061926
137.0, 0.04616578340292443
138.0, 0.04221924276335481
139.0, 0.043813365933815365
140.0, 0.045649157953212616
141.0, 0.04658463137872665
142.0, 0.048730244674348035
143.0, 0.05172904286387061
144.0, 0.05861465042628886
145.0, 0.0647450655537391
146.0, 0.06834997915247139
147.0, 0.07510706771479222
148.0, 0.07752932222235046
149.0, 0.07867913469682276
150.0, 0.07650168913697905
151.0, 0.06720293900546845
152.0, 0.061013083886697954
153.0, 0.05563416047470161
154.0, 0.05190878644003522
155.0, 0.050014956692444434
156.0, 0.045347023834130654
157.0, 0.044064536580046186
158.0, 0.043864670575090484
159.0, 0.044138334104613826
160.0, 0.04776236841153061
161.0, 0.05223520445300771
162.0, 0.054582927704627256
163.0, 0.053528548984590744
164.0, 0.04896423985698635
165.0, 0.04538695763342368
166.0, 0.04306115504525043
167.0, 0.04066019092922889
168.0, 0.03848091637749084
169.0, 0.039411164934618534
170.0, 0.039914263219011786
171.0, 0.03851472397577502
172.0, 0.036632922338820775
173.0, 0.03701394908358377
174.0, 0.041377679425483246
175.0, 0.044302692848745016
176.0, 0.042082225028451894
177.0, 0.035753704853680277
178.0, 0.031193326620434468
179.0, 0.02647066949369739
180.0, 0.024016541324801997
181.0, 0.02327661514579395
182.0, 0.02260923647897935
183.0, 0.025405756332499408
184.0, 0.029337408105738774
185.0, 0.03328617324414208
186.0, 0.037602481674407544
187.0, 0.043279599745116866
188.0, 0.04947135756643898
189.0, 0.05445770362842946
190.0, 0.06025624201391381
191.0, 0.06812312899450923
192.0, 0.06690189850262816
193.0, 0.06718465610840015
194.0, 0.06118104425924907
195.0, 0.047826682342124886
196.0, 0.04292604356731479
197.0, 0.03824810784078972
198.0, 0.03325363817540478
199.0, 0.02894071406059723
200.0, 0.02594280729716374
201.0, 0.02499116842940727
202.0, 0.022274642068559544
203.0, 0.02075181165232374
204.0, 0.020923145655826498
205.0, 0.01872637433341673
206.0, 0.018434790135216664
207.0, 0.01818413225897156
208.0, 0.016463743128882657
209.0, 0.01355102363104144
210.0, 0.012497622835395824
211.0, 0.013870250568412323
212.0, 0.014023209030356296
213.0, 0.013655158587585425
214.0, 0.016186228776727676
215.0, 0.012217935926363865
216.0, 0.011938722628381668
217.0, 0.012299930393727936
218.0, 0.009994952867777029
219.0, 0.013891396480592582
220.0, 0.012432301420152088
221.0, 0.010481197488109672
222.0, 0.01127711004094976
223.0, 0.013035719951500426
224.0, 0.011489483883915014
225.0, 0.01100288995119122
226.0, 0.011180435788741139
227.0, 0.010362448013937237
228.0, 0.008653148359305094
229.0, 0.008699207750888043
230.0, 0.010019182620886014
231.0, 0.010938496563533599
232.0, 0.01014261849956097
233.0, 0.00753754566923825
234.0, 0.005019897082321773
235.0, 0.0057142211218898014
236.0, 0.008090113559364407
237.0, 0.008059644426414068
238.0, 0.004699606244482198
239.0, 0.0030664022228409026
240.0, 0.0010252196091085062
241.0, 0.0012928098271771822
242.0, 0.001076162709606155
243.0, 0.0006947194176708112
244.0, 0.0022503350838657013
245.0, 0.0036261067708176914
246.0, 0.0010184540629194403
247.0, 0.0024789760549286
248.0, 0.002810912374621694
249.0, 0.0020846747290479972
250.0, 0.0006466190811757676
251.0, 0.0011474124113687648
252.0, 0.0002948835631131909
253.0, 0.001043721397007856
254.0, 0.0009000444370841741
255.0, 0.0031416989907058503
256.0, 0.003286174715034106
257.0, 0.0037618475097696215
258.0, 0.004917261306050582
259.0, 0.0068053257743191835
260.0, 0.008196924637716953
261.0, 0.007050505917486173
262.0, 0.0055252970441416445
263.0, 0.004451985942179957
264.0, 0.004926242414330258
265.0, 0.007097549957084766
266.0, 0.008851215591490299
267.0, 0.00943396223795357
268.0, 0.009633283513991278
269.0, 0.010246616767889828
270.0, 0.011695786124044942
271.0, 0.014863695831559262
272.0, 0.01370635009989965
273.0, 0.01343806959240276
274.0, 0.01615577155958535
275.0, 0.01835882587195519
276.0, 0.021494343070210125
277.0, 0.02395402066331539
278.0, 0.026594045462834646
279.0, 0.03055766907846021
280.0, 0.035813134893583856
281.0, 0.04366319356675093
282.0, 0.04688880179458703
283.0, 0.047537768374144945
284.0, 0.047379642051197955
285.0, 0.0419948924042878
286.0, 0.035909901264445314
287.0, 0.02823724881441108
288.0, 0.021098545823943424
289.0, 0.016953027315446897
290.0, 0.015311497014009624
291.0, 0.01645415368474659
292.0, 0.020501528196732288
293.0, 0.022990965122979764
294.0, 0.02138798982458162
295.0, 0.021615760145675726
296.0, 0.022528747723819346
297.0, 0.025307328654229643
298.0, 0.027147330869659335
299.0, 0.02547054227743215
300.0, 0.025196844016161967
301.0, 0.02074332093867727
302.0, 0.017540745704383357
303.0, 0.01476283676629863
304.0, 0.009433821838692813
305.0, 0.0066498826291233985
306.0, 0.0065168178939861
307.0, 0.005688169106850751
308.0, 0.0045610549708444345
309.0, 0.005387145854614841
310.0, 0.0007340446408968176
311.0, 0.0013592904362734238
312.0, 0.002125290561169304
313.0, 0.0007494561646462337
314.0, 0.001332302764499037
315.0, 0.0012631003974244476
316.0, 0.0003976207769087437
317.0, 0.0009673418343784935
318.0, 0.0006827175622243543
319.0, 0.002355587506078748
320.0, 0.0030458040771914646
321.0, 0.0022903442872604174
322.0, 0.000813377908282463
323.0, 0.002959366956545605
324.0, 0.0020476348055628087
325.0, 0.0004013631732311727
326.0, 0.0014147935990428196
327.0, 0.0024081680044042405
328.0, 0.00266675479683669
329.0, 0.003560284899311429
330.0, 0.005964532442512635
331.0, 0.0049246256883144525
332.0, 0.003402639890901272
333.0, 0.003440211991974387
334.0, 0.0025598451867483987
335.0, 0.00182336448223332
336.0, 0.0014568024757372758
337.0, 0.002906701522337974
338.0, 0.004178391598679088
339.0, 0.002787358856130916
340.0, 0.002629901589777177
341.0, 0.00264558929974896
342.0, 0.0025523661253201053
343.0, 0.0018585474315646854
344.0, 0.0007477965848878102
345.0, 0.0025188302799550428
346.0, 0.0028547228683489744
347.0, 0.003377130567688189
348.0, 0.0037376364156825334
349.0, 0.0026047565440030485
350.0, 0.003964763688309422
351.0, 0.0038027957218938653
352.0, 0.004176269328300364
353.0, 0.004731294076451789
354.0, 0.004355032485772168
355.0, 0.005922542584139444
356.0, 0.004750029385337602
357.0, 0.007763861986120024
358.0, 0.010594132033720548
359.0, 0.007961903754981684
360.0, 0.006586177466963848
361.0, 0.008250718433800529
362.0, 0.009133628342811203
363.0, 0.01052247740681622
364.0, 0.013874417501043618
365.0, 0.01552834697653739
366.0, 0.015773418155564645
367.0, 0.017050860946374008
368.0, 0.01917632822066931
369.0, 0.02165539146450007
370.0, 0.025387617089126905
371.0, 0.029354173761731422
372.0, 0.03302894795820955
373.0, 0.036061064874047415
374.0, 0.038926994723617964
375.0, 0.042766466499318694
376.0, 0.048323127918281354
377.0, 0.05206971719574331
378.0, 0.05726484099463103
379.0, 0.06461118118691221
380.0, 0.07075939563174265
381.0, 0.07046693757934837
382.0, 0.07217882097860263
383.0, 0.07699396587311702
384.0, 0.07956238564000333
385.0, 0.07725608509696348
386.0, 0.0796251601002752
387.0, 0.08024077723664012
388.0, 0.07754426799074411
389.0, 0.0752252449637474
390.0, 0.07468591597316906
391.0, 0.07226623418351052
392.0, 0.07153692551831733
393.0, 0.06962724528829849
394.0, 0.07244335111118261
395.0, 0.07773160097097592
396.0, 0.07361909144187362
397.0, 0.0728889890397712
398.0, 0.07200952984876322
399.0, 0.06918313851160328
400.0, 0.06439123438499453
401.0, 0.05810960823265529
402.0, 0.05062169690509815
403.0, 0.043500743357104556
404.0, 0.040940535679876794
405.0, 0.037298901115309896
406.0, 0.02972693170115209
407.0, 0.024830120598155925
408.0, 0.020946441469024534
409.0, 0.018642511097227466
410.0, 0.017401919357003436
411.0, 0.0159022061688286
412.0, 0.01343858779573295
413.0, 0.01184474260510277
414.0, 0.010475528129907544
415.0, 0.00935312570275036
416.0, 0.00814972641977992
417.0, 0.006831826024298504
418.0, 0.006518885045273763
419.0, 0.005845892642939823
420.0, 0.004980291854995472
421.0, 0.0037236485023980324
422.0, 0.0027287017255839974
423.0, 0.0029574080731435697
424.0, 0.0012163465831422447
425.0, 0.0027728059977072607
426.0, 0.0026247578121813687
427.0, 0.00120530659946163
428.0, 0.0026217099085641907
429.0, 0.0018019895481489463
430.0, 0.001937658494295596
431.0, 0.002190952402784764
432.0, 0.0023164772271209214
433.0, 0.001940081358753385
434.0, 0.00035705036331676744
435.0, 0.0025839998261069207
436.0, 0.00180493988779414
437.0, 0.00027134775567368705
438.0, 0.00019988334231097298
439.0, 0.00032173049395423596
440.0, 0.001896929527102745
441.0, 0.0007922354530113204
442.0, 0.0007290392455939249
443.0, 0.0016171010547384843
444.0, 0.00046684934573380614
445.0, 0.0008637639139894534
446.0, 0.0003703254880617813
447.0, 1.9831144443686914e-05
448.0, 0.00018415352173373314
449.0, 0.0003922825828951507
450.0, 0.00018047279481064432
451.0, 0.0013013992288802353
452.0, 0.0030374892999406366
453.0, 0.004272528759374224
454.0, 0.005228650774372662
455.0, 0.006065850812715043
456.0, 0.006357410283420837
457.0, 0.006491327903601153
458.0, 0.00813116044895201
459.0, 0.007516898599852325
460.0, 0.007114161676146132
461.0, 0.009963131981348216
462.0, 0.009429297598016676
463.0, 0.010365207135480949
464.0, 0.01169387583417656
465.0, 0.012727215813649372
466.0, 0.012233341919475282
467.0, 0.01034656637658161
468.0, 0.012984317404441715
469.0, 0.013257262230052674
470.0, 0.014348638260042169
471.0, 0.015283118413900247
472.0, 0.014742318671842591
473.0, 0.015496566200396938
474.0, 0.017318471225172848
475.0, 0.019960173176548107
476.0, 0.021684337002709265
477.0, 0.02246474660875758
478.0, 0.022975465917190394
479.0, 0.022861488355106447
480.0, 0.024540528297595277
481.0, 0.02293936507049704
482.0, 0.021419542640819477
483.0, 0.021682119111373452
484.0, 0.02144455063991909
485.0, 0.019892921762305525
486.0, 0.018305748690542478
487.0, 0.018988291109966162
488.0, 0.02029258206658966
489.0, 0.018480398928190648
490.0, 0.012891059790089206
491.0, 0.01188412589001633
492.0, 0.012422285479827176
493.0, 0.011935000420301042
494.0, 0.011193399161871884
495.0, 0.010711793090714045
496.0, 0.009193648210503067
497.0, 0.007750497758988572
498.0, 0.008207776925665856
499.0, 0.008231334359298185
500.0, 0.006324778870928596
501.0, 0.004463481666366442
502.0, 0.006262402337925528
503.0, 0.006623902847508087
504.0, 0.005956383886369671
505.0, 0.005631915932801683
506.0, 0.005851823143913564
507.0, 0.005742700956924684
508.0, 0.0042699202429008175
509.0, 0.004102868707208046
510.0, 0.004460671514387313
511.0, 0.0033141937388919567
512.0, 0.001643624107555856
513.0, 0.0011522514832058512
514.0, 0.00016116886149000216
515.0, 0.002008021645281811
516.0, 0.0024157574952879844
517.0, 0.0008507499631119357
518.0, 0.0010284038327713079
519.0, 0.0015914299172809629
520.0, 0.001210672224913109
521.0, 0.0007853450779480351
522.0, 0.0007841627144153577
523.0, 0.000613315411797646
524.0, 8.148742595028328e-05
525.0, 0.0007028569367522747
526.0, 0.00025257244168883943
527.0, 0.0008196598148256552
528.0, 0.000506927618178067
529.0, 0.001756183159224408
530.0, 0.003257925094162826
531.0, 0.0023222092174933102
532.0, 0.004063678440720788
533.0, 0.0024372655663368755
534.0, 0.0026656499751857017
535.0, 0.004774938463152651
536.0, 0.006739645228785917
537.0, 0.009309210023048228
538.0, 0.012880378961344573
539.0, 0.015372590332614497
540.0, 0.020857821049868587
541.0, 0.026899852121940557
542.0, 0.03165817621717478
543.0, 0.03647121703317264
544.0, 0.04137177646003565
545.0, 0.04182093444270294
546.0, 0.04525958252881815
547.0, 0.04657146251932702
548.0, 0.0435127059525396
549.0, 0.040588637900342193
550.0, 0.0345802715407433
551.0, 0.029967391706451085
552.0, 0.024041590742522243
553.0, 0.01903473528283747
554.0, 0.015274263281844924
555.0, 0.011723017051520518
556.0, 0.01136305605256076
557.0, 0.009723034784750121
558.0, 0.010425224543467417
559.0, 0.010914799999778508
560.0, 0.010037905023127836
561.0, 0.009871058875226733
562.0, 0.010901709792439896
563.0, 0.010570781492348138
564.0, 0.012911512106193816
565.0, 0.013853261690842411
566.0, 0.013240150442289527
567.0, 0.012746910438922137
568.0, 0.012056456002079467
569.0, 0.015111406158932037
570.0, 0.014251762103666998
571.0, 0.013900386382944654
572.0, 0.014942801354237308
573.0, 0.016594092752582206
574.0, 0.017442179916236006
575.0, 0.014041698775624775
576.0, 0.017012469003697447
577.0, 0.017340853389925272
578.0, 0.016191970164112605
579.0, 0.016553364530635873
580.0, 0.01808933880073839
581.0, 0.016847178246866115
582.0, 0.01781523843430672
583.0, 0.01842387122172444
584.0, 0.018759078686150735
585.0, 0.01799685649517038
586.0, 0.01733073405370652
587.0, 0.01990776807224951
588.0, 0.02574022956290013
589.0, 0.025762641328389357
590.0, 0.024549118776624353
591.0, 0.025588824369306148
592.0, 0.026894885345982243
593.0, 0.026648164683925456
594.0, 0.028335141078252798
595.0, 0.030497938967303143
596.0, 0.031100031120583575
597.0, 0.031863664260592756
598.0, 0.031881248824788926
599.0, 0.03088744356292755
600.0, 0.030932665853956223
601.0, 0.029792379195854573
602.0, 0.026957846988951904
603.0, 0.026077111024625878
604.0, 0.02579069006227943
605.0, 0.025549529416299673
606.0, 0.02613214461093954
607.0, 0.024613503127468524
608.0, 0.025039846739006492
609.0, 0.02093842779003805
610.0, 0.019871012293191548
611.0, 0.02052614019152021
612.0, 0.018597910643570928
613.0, 0.018659289139824144
614.0, 0.017219285927983028
615.0, 0.01744647557607458
616.0, 0.017228521555396902
617.0, 0.017147237844376172
618.0, 0.017320467372522904
619.0, 0.015693551554672624
620.0, 0.01196895300430838
621.0, 0.012669086747702115
622.0, 0.013493755542342742
623.0, 0.011289999111435804
624.0, 0.009026058164190644
625.0, 0.009065817262208226
626.0, 0.008393246820054578
627.0, 0.006411348595234757
628.0, 0.007150436007142335
629.0, 0.005269605188016307
630.0, 0.002952327108563351
631.0, 0.0020416619291347775
632.0, 0.002249825099793489
633.0, 0.0030777898187140675
634.0, 0.0007780155306179973
635.0, 0.0006139825024499659
636.0, 0.0016636099589208459
637.0, 0.0014062197287013365
638.0, 0.0010967886654930066
639.0, 0.0016639788078993752
640.0, 0.00031765357659304153
641.0, 0.0003276891995131444
642.0, 0.00012385575289967175
643.0, 0.0012924443575317657
644.0, 0.0009431866276760005
645.0, 0.0009720557703989548
646.0, 0.0013614863370205856
647.0, 0.0007500423223797034
648.0, 0.0013534742708266746
649.0, 0.0007940948481009637
650.0, 0.0010223067739723267
651.0, 0.0014546302810411343
652.0, 0.0030780429950430233
653.0, 0.0022495754113592004
654.0, 0.0013177947494047743
655.0, 0.0015150060501096794
656.0, 0.002163849036647078
657.0, 0.0006533798096348222
658.0, 0.0005712469218796353
659.0, 0.0022392544573131964
660.0, 0.0013131456151431334
661.0, 0.00019006367390765735
662.0, 9.258750458009265e-05
663.0, 0.00018574947803238394
664.0, 0.0009280951419401697
665.0, 0.000984728180099437
666.0, 0.0002608280679558897
667.0, 0.0008922849909886781
668.0, 0.0019189175042123986
669.0, 0.0005320519653185706
670.0, 0.0002746939464844345
671.0, 0.0011814707421142516
672.0, 0.0009346484414626611
673.0, 0.00027471919835592065
674.0, 0.00018162980197600155
675.0, 0.0017083170426932203
676.0, 0.0011041295839189908
677.0, 0.00032882408002285685
678.0, 0.0017936401381061114
679.0, 0.003047298817790402
680.0, 0.001739288757121216
681.0, 0.000401125650402627
682.0, 0.0025863798667153637
683.0, 0.0019160969168039942
684.0, 0.00274007860017393
685.0, 0.0028255471128256567
686.0, 0.0015429107869059516
687.0, 0.001089100673876278
688.0, 0.002173785480742031
689.0, 0.003414961033662551
690.0, 0.0027062140028905803
691.0, 0.0017209121957049614
692.0, 0.001941966515761226
693.0, 0.002132744916247838
694.0, 0.00215031847737754
695.0, 0.0023919724215142606
696.0, 0.0018164623891615019
697.0, 0.003863137562190848
698.0, 0.0033078289100270945
699.0, 0.0020657889159434555
700.0, 0.0023985857179002514
701.0, 0.0036099457567074136
702.0, 0.004180913410171276
703.0, 0.0039006027751962522
704.0, 0.003353399713416937
705.0, 0.0009905515636650015
706.0, 0.0027546046745254944
707.0, 0.004629577003828538
708.0, 0.004248846707662462
709.0, 0.004228757265816636
710.0, 0.003764319521795408
711.0, 0.003169139811475729
712.0, 0.002230664156993332
713.0, 0.0028308762636682643
714.0, 0.003998589936413597
715.0, 0.0038240538826050594
716.0, 0.003404764058852018
717.0, 0.003942249033608261
718.0, 0.004092891404992288
719.0, 0.0036353486325259947
720.0, 0.004693426607072681
721.0, 0.004585639798841125
722.0, 0.005074586463334633
723.0, 0.0053911060870330315
724.0, 0.004281185328222599
725.0, 0.0033662852040086746
726.0, 0.0033247514443669373
727.0, 0.001997018248106195
728.0, 0.0026719790477206487
729.0, 0.00420630659878387
730.0, 0.0035693930036824846
731.0, 0.001785823763188714
732.0, 0.001331211693278214
733.0, 0.0017262402841458544
734.0, 0.002223437192656806
735.0, 0.0032268219633129276
736.0, 0.003405928661280418
737.0, 0.003513924487759351
738.0, 0.003271206381676877
739.0, 0.0011469250289864357
740.0, 0.0013157054477331309
741.0, 0.006747303468197572
742.0, 0.005574287404391981
743.0, 0.004897311670709767
744.0, 0.0060068820131320595
745.0, 0.004818777738818688
746.0, 0.0035410925746594416
747.0, 0.0034881264575846167
748.0, 0.0022090229361735247
749.0, 0.002669410048818982
750.0, 0.005405707636877988
751.0, 0.005569365440041225
752.0, 0.005571519810774936
753.0, 0.0068330795632563345
754.0, 0.007530989231015361
755.0, 0.006978140015211773
756.0, 0.006061144994792621
757.0, 0.005185995184347929
758.0, 0.007858161190766991
759.0, 0.009476146771097869
760.0, 0.0073852815930981345
761.0, 0.005509226817595816
762.0, 0.006425100532142524
763.0, 0.008115673262436975
764.0, 0.008552845476344797
765.0, 0.009374411103484488
766.0, 0.008368568313369365
767.0, 0.007784605622755404
768.0, 0.00520790345774746
769.0, 0.005568033933585568
770.0, 0.0070259018700050465
771.0, 0.007747190980577602
772.0, 0.010418428827870335
773.0, 0.011150550620508539
774.0, 0.009845406204990144
775.0, 0.007648060206121684
776.0, 0.007268348586055409
777.0, 0.0056331354027789006
778.0, 0.006467358531873844
779.0, 0.008625264660092356
780.0, 0.008294012662899858
781.0, 0.009932870630944545
782.0, 0.009084848663467768
783.0, 0.006916631330812832
784.0, 0.006180169684386799
785.0, 0.009283705623374763
786.0, 0.009524314972978835
787.0, 0.007900660813498168
788.0, 0.008708412633160037
789.0, 0.008752246400680092
790.0, 0.008410125756447331
791.0, 0.008302753556879766
792.0, 0.0064542078275605114
793.0, 0.005620833479502083
794.0, 0.006618958249746098
795.0, 0.007154008618031531
796.0, 0.006004035309663173
797.0, 0.004193235480290036
798.0, 0.002908175833766101
799.0, 0.001432274166607668
800.0, 0.0008031517768365705
801.0, 0.0025562226434724627
802.0, 0.0023246383875997942
803.0, 0.0009596923535641207
804.0, 0.0003575922473869022
805.0, 0.0011581575461746937
806.0, 0.0006112784840480687
807.0, 0.0006745390642816061
808.0, 0.0019270952845739878
809.0, 0.0004681559708308554
810.0, 0.0008403570786540031
811.0, 0.00020627821126641984
812.0, 0.0002673396235822321
813.0, 0.0003586873226910271
814.0, 0.0003713314914163963
815.0, 0.0020360152655356616
816.0, 0.0019841999637759374
817.0, 0.0008605545623605592
818.0, 0.00045173741966706034
819.0, 0.0006933829396841859
820.0, 0.0023770310660910267
821.0, 0.0030260906595606448
822.0, 0.0007625349224314876
823.0, 0.0002247810216877678
824.0, 0.0006479083933913262
825.0, 0.0018681418758504543
826.0, 0.00021108421136338304
827.0, 0.0008297086037568551
828.0, 0.0002672686077600535
829.0, 0.0005831044191149105
830.0, 0.0006981177255321275
831.0, 0.002301054302926985
832.0, 0.0035857005998956564
833.0, 0.0034543370840835336
834.0, 0.0027877242324149203
835.0, 0.004002047511621938
836.0, 0.00782187580508056
837.0, 0.008749652841461114
838.0, 0.00890395613976406
839.0, 0.01038359878775248
840.0, 0.011482374138568162
841.0, 0.013298642040882611
842.0, 0.014483734037299974
843.0, 0.017924425694798057
844.0, 0.02087209640633495
845.0, 0.025794865294440993
846.0, 0.03153021041895378
847.0, 0.03544876468036734
848.0, 0.04149542528759548
849.0, 0.05026670390826973
850.0, 0.05601538968084582
851.0, 0.06469461855992373
852.0, 0.0750847694549187
853.0, 0.09058078337540901
854.0, 0.10794566272610975
855.0, 0.1260018667338
856.0, 0.14907539732604927
857.0, 0.17627041703295682
858.0, 0.2070696032270002
859.0, 0.2445751079305765
860.0, 0.28433703516137027
861.0, 0.3312037241859856
862.0, 0.383282345438008
863.0, 0.44920179497375495
864.0, 0.5250547003237139
865.0, 0.6015374794817451
866.0, 0.686274889855984
867.0, 0.7726401772939628
868.0, 0.8416255606534387
869.0, 0.9071478486528188
870.0, 0.9643132076797453
871.0, 0.9963385540764135
872.0, 0.9938030781920488
873.0, 0.9609914537093422
874.0, 0.9057453871183808
875.0, 0.8289799760151353
876.0, 0.7326449617813138
877.0, 0.624766068975233
878.0, 0.5195698226947155
879.0, 0.43179362013805983
880.0, 0.3542567935326369
881.0, 0.29724444712302645
882.0, 0.2521526059668658
883.0, 0.2106777372807752
884.0, 0.18056878847959648
885.0, 0.15717863136729432
886.0, 0.13442194906970165
887.0, 0.11735409982057239
888.0, 0.10317352967031344
889.0, 0.08818316361969822
890.0, 0.07678630988127341
891.0, 0.06580678795167938
892.0, 0.05861838682698776
893.0, 0.04939522302447266
894.0, 0.04418319742364531
895.0, 0.04469748770986029
896.0, 0.044806204422916975
897.0, 0.04258109764641889
898.0, 0.04229642598946062
899.0, 0.04392154243441386
900.0, 0.04833368070949774
901.0, 0.0519119127458729
902.0, 0.05649735144441549
903.0, 0.05924424429396675
904.0, 0.06386686804660488
905.0, 0.07250685604213489
906.0, 0.07876968722771063
907.0, 0.0798814299540505
908.0, 0.08204548446405036
909.0, 0.07738355789426711
910.0, 0.06950308680418588
911.0, 0.05872917241096797
912.0, 0.0493601083498844
913.0, 0.043270254778181076
914.0, 0.03508204790276199
915.0, 0.02613877474611642
916.0, 0.021700713096862178
917.0, 0.019879502225076614
918.0, 0.016149785784792092
919.0, 0.013493870484258373
920.0, 0.014862573292617401
921.0, 0.013437729590386752
922.0, 0.012296756408046427
923.0, 0.01152719442952601
924.0, 0.009788099794580434
925.0, 0.008347423661341478
926.0, 0.009460140378607488
927.0, 0.009400145304270382
928.0, 0.005391029836165508
929.0, 0.0034363108274182534
930.0, 0.004253996862313216
931.0, 0.006897460273348074
932.0, 0.005238811382784676
933.0, 0.004499618727575418
934.0, 0.004637048938955983
935.0, 0.0048153045748061
936.0, 0.005841640224457252
937.0, 0.006534818605082139
938.0, 0.00793176240096015
939.0, 0.010299116594151314
940.0, 0.0106258836537889
941.0, 0.015377242499960803
942.0, 0.01803161242139111
943.0, 0.01956177704397176
944.0, 0.0231488281987732
945.0, 0.028830548746313227
946.0, 0.0321137491534479
947.0, 0.03496903775370838
948.0, 0.03696205856580002
949.0, 0.036433112611845016
950.0, 0.03691262808093822
951.0, 0.03797183819009642
952.0, 0.04189603847932246
953.0, 0.047822510105475155
954.0, 0.05099977005298316
955.0, 0.050102363412095424
956.0, 0.048458792219054345
957.0, 0.046865537312824994
958.0, 0.04172348142494865
959.0, 0.036304560587844245
960.0, 0.030779262532441308
961.0, 0.022732888419810724
962.0, 0.020095628755640804
963.0, 0.018983978698812545
964.0, 0.016112339906489963
965.0, 0.01422745908342648
966.0, 0.009614360207289742
967.0, 0.010249974702579483
968.0, 0.011070442881590587
969.0, 0.008599258340964278
970.0, 0.007132057080276708
971.0, 0.007330164669073649
972.0, 0.006878527059884696
973.0, 0.005242751481976933
974.0, 0.003552169481477913
975.0, 0.005599665367376041
976.0, 0.004969059460498039
977.0, 0.0025755516131500044
978.0, 0.0027465085264355227
979.0, 0.002004548252337073
980.0, 0.0019479206529435182
981.0, 0.0020501185747262814
982.0, 0.0014856476227835113
983.0, 0.0008642535623993754
984.0, 0.001077242660780831
985.0, 0.0012938995056321599
986.0, 0.00019319423893508617
987.0, 0.0019474949818612188
988.0, 0.0024169980357846956
989.0, 0.0017914965568827015
990.0, 0.0008526848077144574
991.0, 0.002678926424910989
992.0, 0.0015729452327246497
993.0, 0.0019313881960854292
994.0, 0.0026829673654007466
995.0, 0.002682705522695012
996.0, 0.0009718367274107653
997.0, 0.0012021077421160817
998.0, 0.0019076930565231842
999.0, 0.0038862454957361656
1000.0, 0.00014362201409890644
1001.0, 0.0016847861590541875
1002.0, 0.0010877089557477283
1003.0, 0.0005495507737018834
1004.0, 0.0018259715229353305
1005.0, 0.0007397244959011565
1006.0, 0.0010608458467355657
1007.0, 0.0016380972021173181
1008.0, 0.00042889785000090817
1009.0, 0.0005941420488227883
1010.0, 0.0004227746016607944
1011.0, 0.0010584955077730664
1012.0, 0.0016366547383331867
1013.0, 0.003251012687397969
1014.0, 0.0022596561988995475
1015.0, 0.0030235643679337176
1016.0, 0.0006963058801717012
1017.0, 0.0009362830189521385
1018.0, 0.0016470265815567585
1019.0, 0.0019462860418298774
1020.0, 0.0008102351002086908
1021.0, 0.0013005753904222679
1022.0, 0.002390502890406472
1023.0, 0.00017158624477552845
1024.0, 0.0007148426007393244
1025.0, 0.0003051121007118801
1026.0, 0.0017095368518256324
1027.0, 0.00045938153598551576
1028.0, 0.002845765152400026
1029.0, 0.0015340883919156452
1030.0, 0.0035305912241349233
1031.0, 0.003388667859348026
1032.0, 0.004030450058987662
1033.0, 0.0026793746402852593
1034.0, 0.0012834919075728024
1035.0, 0.003042504539585723
1036.0, 0.003857008852051096
1037.0, 0.005097789282917103
1038.0, 0.003760698127860529
1039.0, 0.004921877060934667
1040.0, 0.0032141070002892885
1041.0, 0.004997892647091567
1042.0, 0.0059347215902665305
1043.0, 0.0068318086011478025
1044.0, 0.004826508245274195
1045.0, 0.003800064995041793
1046.0, 0.004860891118091026
1047.0, 0.005912666081475587
1048.0, 0.005043865090406609
1049.0, 0.002706685852707518
1050.0, 0.002834367212976814
1051.0, 0.005773665152694202
1052.0, 0.0055497020673984125
1053.0, 0.006175851381334193
1054.0, 0.0026840687848723207
1055.0, 0.0031691981033692917
1056.0, 0.004440308775858775
1057.0, 0.0026135590908152382
1058.0, 0.003951493800984843
1059.0, 0.004340172236460907
1060.0, 0.002617865016749073
1061.0, 0.0014813149520551704
1062.0, 0.002404450567551584
1063.0, 0.004354777653930038
1064.0, 0.004449707867309132
1065.0, 0.002919487761563033
1066.0, 0.002758245282486592
1067.0, 0.0040789295551274625
1068.0, 0.004589164101936558
1069.0, 0.0020989930189112215
1070.0, 0.0039027679883328436
1071.0, 0.0043785040272895995
1072.0, 0.003468606576743876
1073.0, 0.0035844428081106086
1074.0, 0.004647599749981667
1075.0, 0.0031619820889714897
1076.0, 0.00274832740481777
1077.0, 0.0026400663839521734
1078.0, 0.002093212572037686
1079.0, 0.0023209874847700237
1080.0, 0.0029302976417040516
1081.0, 0.004232695235212305
1082.0, 0.003299585671478993
1083.0, 0.003330380630331131
1084.0, 0.005552294933793044
1085.0, 0.003586949710504586
1086.0, 0.0038686846257992382
1087.0, 0.003995941326481773
1088.0, 0.005453145072587084
1089.0, 0.005265933936934549
1090.0, 0.005340176113916298
1091.0, 0.005080106011328326
1092.0, 0.004979136433728741
1093.0, 0.004297701573208551
1094.0, 0.0035519439106269247
1095.0, 0.0037131658142909147
1096.0, 0.003537738942614296
1097.0, 0.004702633163358779
1098.0, 0.005327788684860861
1099.0, 0.005529892947114175
1100.0, 0.004776923226944891
1101.0, 0.00469658754763338
1102.0, 0.006150270798895705
1103.0, 0.0046451445143261775
1104.0, 0.004671037331412702
1105.0, 0.004188915181256321
1106.0, 0.003975664441305361
1107.0, 0.002499630851698908
1108.0, 0.0026127054682235974
1109.0, 0.0025502321224201577
1110.0, 0.0013759420998375304
1111.0, 0.0018118070190421567
1112.0, 0.0032167210457401583
1113.0, 0.003273746118578124
1114.0, 0.0014583846292662574
1115.0, 0.0003821129892759806
1116.0, 0.0015612030266980888
1117.0, 0.0013443476693028415
1118.0, 0.0029612845849837444
1119.0, 0.0014059647821062003
1120.0, 0.0010012844295235969
1121.0, 0.0005265908547095817
1122.0, 0.00011125109524223572
1123.0, 0.001411418106419267
1124.0, 0.0003998637570522361
1125.0, 0.0008646032968741635
1126.0, 0.0025788280113450426
1127.0, 0.0019941687381143935
1128.0, 0.0007577050214710486
1129.0, 0.0005458699891702436
1130.0, 0.0017557709584427924
1131.0, 0.002059529303740808
1132.0, 0.0006062177511738897
1133.0, 0.0011876031920899594
1134.0, 0.0021416905521872798
1135.0, 0.0028775997327483414
1136.0, 0.001857653846702216
1137.0, 0.002139461774006204
1138.0, 0.00410988939381776
1139.0, 0.003644043042918263
1140.0, 0.005057982532552327
1141.0, 0.0033632723893706256
1142.0, 0.00294097302342769
1143.0, 0.003604896921573492
1144.0, 0.004230919904683478
1145.0, 0.0037303838275806684
1146.0, 0.004424334373046231
1147.0, 0.004524271182682031
1148.0, 0.003005275814816908
1149.0, 0.0037177045883791345
1150.0, 0.00470806643050922
1151.0, 0.004122136173916008
1152.0, 0.0050976351587210264
1153.0, 0.004960464815636775
1154.0, 0.004928219154001784
1155.0, 0.0036275539807969644
1156.0, 0.004880177052375846
1157.0, 0.007375327153386714
1158.0, 0.007473610702622078
1159.0, 0.004551607234302166
1160.0, 0.005766655722779968
1161.0, 0.006323574779975942
1162.0, 0.0056659611169537554
1163.0, 0.005880617927890533
1164.0, 0.007487996861866015
1165.0, 0.005457190267415642
1166.0, 0.004587537178501871
1167.0, 0.004692732808477697
1168.0, 0.004975275557171574
1169.0, 0.0038770280108593944
1170.0, 0.0034504198700795047
1171.0, 0.0053636444738088705
1172.0, 0.004708260527689405
1173.0, 0.0035931828532648263
1174.0, 0.003690753734985487
1175.0, 0.00648688772344835
1176.0, 0.007539266943922202
1177.0, 0.004932721462863842
1178.0, 0.005182612316188655
1179.0, 0.004862829388220682
1180.0, 0.003930130493529656
1181.0, 0.005302885154965372
1182.0, 0.00430695100153623
1183.0, 0.004139035014337042
1184.0, 0.003167583769003548
1185.0, 0.0022107307973830708
1186.0, 0.005054422095413394
1187.0, 0.005680213794689159
1188.0, 0.004821200219446248
1189.0, 0.004593867446199449
1190.0, 0.005102362681854463
1191.0, 0.006713391328070252
1192.0, 0.007958009001366883
1193.0, 0.007075162090064466
1194.0, 0.005734166207537484
1195.0, 0.004884522746124282
1196.0, 0.003938094267746903
1197.0, 0.0046563008380396936
1198.0, 0.0059263680831336
1199.0, 0.00463319325825482
1200.0, 0.0038235557412779043
1201.0, 0.0062290685746900784
1202.0, 0.0064707503462926134
1203.0, 0.0010645024800024628
1204.0, 0.0042948933974506645
1205.0, 0.003162175637719533
1206.0, 0.002169206971776937
1207.0, 0.0006568246078066062
1208.0, 0.0013344883134514566
1209.0, 0.004087840685870675
1210.0, 0.00581492554158983
1211.0, 0.004513818129519209
1212.0, 0.0042131675784760686
1213.0, 0.004154308618000118
1214.0, 0.005448561314767199
1215.0, 0.006793967071390711
1216.0, 0.0061486607741819
1217.0, 0.004870645030508792
1218.0, 0.0034822582084776815
1219.0, 0.0023039926171679785
1220.0, 0.002153073460928972
1221.0, 0.0029901159169944532
1222.0, 0.004077291012925366
1223.0, 0.005231674571805256
1224.0, 0.005335475856388062
1225.0, 0.0034058256849550015
1226.0, 0.0034054239822285727
1227.0, 0.0035059131163247825
1228.0, 0.0030579797789555495
1229.0, 0.003952443531116678
1230.0, 0.0029777165917434217
1231.0, 0.0028542600372793063
1232.0, 0.004920449892890062
1233.0, 0.0021063621655418676
1234.0, 0.0007962264140263116
1235.0, 0.002861724347954076
1236.0, 0.0006631159292948097
1237.0, 0.0007211946738020597
1238.0, 0.00040938734999337986
1239.0, 0.0018479325273574672
1240.0, 0.0029862297515642093
1241.0, 0.00035970332822545144
1242.0, 0.0028200525045218687
1243.0, 0.004275898165405469
1244.0, 0.0027042206826982354
1245.0, 0.0020786119584168994
1246.0, 0.003234321169104859
1247.0, 0.002761788066731326
1248.0, 0.00071991025789708
1249.0, 0.002291314610963759
1250.0, 0.003861579365277707
1251.0, 0.004213661793263799
1252.0, 0.004603580840881402
1253.0, 0.004061019215341182
1254.0, 0.0029062339051916645
1255.0, 0.0017522015638214896
1256.0, 0.00041468060054035606
1257.0, 0.0004586530490285015
1258.0, 0.0008562841359576788
1259.0, 0.00046063152543374976
1260.0, 0.00104405996422605
1261.0, 0.00024414922110243864
1262.0, 0.00012846123981705832
1263.0, 0.00017333502769951184
1264.0, 0.0005770756803733031
1265, 0.0
1266, 0.0
1267, 0.0
1268, 0.0
1269, 0.0
1270, 0.0
1271, 0.0
1272, 0.0
1273, 0.0
1274, 0.0
1275, 0.0
1276, 0.0
1277, 0.0
1278, 0.0
1279, 0.0
1280, 0.0
1281, 0.0
1282, 0.0
1283, 0.0
1284, 0.0
1285, 0.0
1286, 0.0
1287, 0.0
1288, 0.0
1289, 0.0
1290, 0.0
1291, 0.0
1292, 0.0
1293, 0.0
1294, 0.0
1295, 0.0
1296, 0.0
1297, 0.0
1298, 0.0
1299, 0.0
1300, 0.0
1301, 0.0
1302, 0.0
1303, 0.0
1304, 0.0
1305, 0.0
1306, 0.0
1307, 0.0
1308, 0.0
1309, 0.0
1310, 0.0
1311, 0.0
1312, 0.0
1313, 0.0
1314, 0.0
1315, 0.0
1316, 0.0
1317, 0.0
1318, 0.0
1319, 0.0
1320, 0.0
1321, 0.0
1322, 0.0
1323, 0.0
1324, 0.0
1325, 0.0
1326, 0.0
1327, 0.0
1328, 0.0
1329, 0.0
1330, 0.0
1331, 0.0
1332, 0.0
1333, 0.0
1334, 0.0
1335, 0.0
1336, 0.0
1337, 0.0
1338, 0.0
1339, 0.0
1340, 0.0
1341, 0.0
1342, 0.0
1343, 0.0
1344, 0.0
1345, 0.0
1346, 0.0
1347, 0.0
1348, 0.0
1349, 0.0
1350, 0.0
1351, 0.0
1352, 0.0
1353, 0.0
1354, 0.0
1355, 0.0
1356, 0.0
1357, 0.0
1358, 0.0
1359, 0.0
1360, 0.0
1361, 0.0
1362, 0.0
1363, 0.0
1364, 0.0
1365, 0.0
1366, 0.0
1367, 0.0
1368, 0.0
1369, 0.0
1370, 0.0
1371, 0.0
1372, 0.0
1373, 0.0
1374, 0.0
1375, 0.0
1376, 0.0
1377, 0.0
1378, 0.0
1379, 0.0
1380, 0.0
1381, 0.0
1382, 0.0
1383, 0.0
1384, 0.0
1385, 0.0
1386, 0.0
1387, 0.0
1388, 0.0
1389, 0.0
1390, 0.0
1391, 0.0
1392, 0.0
1393, 0.0
1394, 0.0
1395, 0.0
1396, 0.0
1397, 0.0
1398, 0.0
1399, 0.0
1400, 0.0
1401, 0.0
1402, 0.0
1403, 0.0
1404, 0.0
1405, 0.0
1406, 0.0
1407, 0.0
1408, 0.0
1409, 0.0
1410, 0.0
1411, 0.0
1412, 0.0
1413, 0.0
1414, 0.0
1415, 0.0
1416, 0.0
1417, 0.0
1418, 0.0
1419, 0.0
1420, 0.0
1421, 0.0
1422, 0.0
1423, 0.0
1424, 0.0
1425, 0.0
1426, 0.0
1427, 0.0
1428, 0.0
1429, 0.0
1430, 0.0
1431, 0.0
1432, 0.0
1433, 0.0
1434, 0.0
1435, 0.0
1436, 0.0
1437, 0.0
1438, 0.0
1439, 0.0
1440, 0.0
1441, 0.0
1442, 0.0
1443, 0.0
1444, 0.0
1445, 0.0
1446, 0.0
1447, 0.0
1448, 0.0
1449, 0.0
1450, 0.0
1451, 0.0
1452, 0.0
1453, 0.0
1454, 0.0
1455, 0.0
1456, 0.0
1457, 0.0
1458, 0.0
1459, 0.0
1460, 0.0
1461, 0.0
1462, 0.0
1463, 0.0
1464, 0.0
1465, 0.0
1466, 0.0
1467, 0.0
1468, 0.0
1469, 0.0
1470, 0.0
1471, 0.0
1472, 0.0
1473, 0.0
1474, 0.0
1475, 0.0
1476, 0.0
1477, 0.0
1478, 0.0
1479, 0.0
1480, 0.0
1481, 0.0
1482, 0.0
1483, 0.0
1484, 0.0
1485, 0.0
1486, 0.0
1487, 0.0
1488, 0.0
1489, 0.0
1490, 0.0
1491, 0.0
1492, 0.0
1493, 0.0
1494, 0.0
1495, 0.0
1496, 0.0
1497, 0.0
1498, 0.0
1499, 0.0
1500, 0.0
1501, 0.0
1502, 0.0
1503, 0.0
1504, 0.0
1505, 0.0
1506, 0.0
1507, 0.0
1508, 0.0
1509, 0.0
1510, 0.0
1511, 0.0
1512, 0.0
1513, 0.0
1514, 0.0
1515, 0.0
1516, 0.0
1517, 0.0
1518, 0.0
1519, 0.0
1520, 0.0
1521, 0.0
1522, 0.0
1523, 0.0
1524, 0.0
1525, 0.0
1526, 0.0
1527, 0.0
1528, 0.0
1529, 0.0
1530, 0.0
1531, 0.0
1532, 0.0
1533, 0.0
1534, 0.0
1535, 0.0
1536, 0.0
1537, 0.0
1538, 0.0
1539, 0.0
1540, 0.0
1541, 0.0
1542, 0.0
1543, 0.0
1544, 0.0
1545, 0.0
1546, 0.0
1547, 0.0
1548, 0.0
1549, 0.0
1550, 0.0
1551, 0.0
1552, 0.0
1553, 0.0
1554, 0.0
1555, 0.0
1556, 0.0
1557, 0.0
1558, 0.0
1559, 0.0
1560, 0.0
1561, 0.0
1562, 0.0
1563, 0.0
1564, 0.0
1565, 0.0
1566, 0.0
1567, 0.0
1568, 0.0
1569, 0.0
1570, 0.0
1571, 0.0
1572, 0.0
1573, 0.0
1574, 0.0
1575, 0.0
1576, 0.0
1577, 0.0
1578, 0.0
1579, 0.0
1580, 0.0
1581, 0.0
1582, 0.0
1583, 0.0
1584, 0.0
1585, 0.0
1586, 0.0
1587, 0.0
1588, 0.0
1589, 0.0
1590, 0.0
1591, 0.0
1592, 0.0
1593, 0.0
1594, 0.0
1595, 0.0
1596, 0.0
1597, 0.0
1598, 0.0
1599, 0.0
