30, 0.0
31, 0.0
32, 0.0
33, 0.0
34, 0.0
35, 0.0
36, 0.0
37, 0.0
38, 0.0
39, 0.0
40, 0.0
41, 0.0
42, 0.0
43, 0.0
44, 0.0
45, 0.0
46, 0.0
47, 0.0
48, 0.0
49, 0.0
50, 0.0
51, 0.0
52, 0.0
53, 0.0
54, 0.0
55, 0.0
56, 0.0
57, 0.0
58, 0.0
59, 0.0
60, 0.0
61, 0.0
62, 0.0
63, 0.0
64, 0.0
65, 0.0
66, 0.0
67, 0.0
68, 0.0
69, 0.0
70, 0.0
71, 0.0
72, 0.0
73, 0.0
74, 0.0
75, 0.0
76, 0.0
77, 0.0
78, 0.0
79, 0.0
80, 0.0
81, 0.0
82, 0.0
83, 0.0
84, 0.0
85, 0.0
86, 0.0
87, 0.0
88, 0.0
89, 0.0
90, 0.0
91, 0.0
92, 0.0
93, 0.0
94, 0.0
95, 0.0
96, 0.0
97, 0.0
98, 0.0
99, 0.0
100, 0.0
101, 0.0
102, 0.0
103, 0.0
104, 0.0
105, 0.0
106, 0.0
107, 0.0
108, 0.0
109, 0.0
110, 0.0
111, 0.0
112, 0.0
113, 0.0
114, 0.0
115, 0.0
116, 0.0
117, 0.0
118, 0.0
119, 0.0
120, 0.0
121, 0.0
122, 0.0
123, 0.0
124, 0.0
125, 0.0
126, 0.0
127, 0.0
128, 0.0
129, 0.0
130, 0.0
131, 0.0
132, 0.0
133, 0.0
134.0, 0.0005602395692114873
135.0, 0.00016675339715766305
136.0, 0.0015880056915901675
137.0, 0.005733401919777356
138.0, 0.011557259871690168
139.0, 0.015638766023721863
140.0, 0.02140306536889852
141.0, 0.028174688825854777
142.0, 0.03485265393561478
143.0, 0.04116881935555385
144.0, 0.05176850539773658
145.0, 0.06572303050205963
146.0, 0.07475141730412407
147.0, 0.0789954514614379
148.0, 0.08628034923175315
149.0, 0.09332709912846775
150.0, 0.09734302817531723
151.0, 0.09665636693420585
152.0, 0.09381612265735428
153.0, 0.08808281437450285
154.0, 0.08386170668538723
155.0, 0.08348289108663612
156.0, 0.0835840705763112
157.0, 0.08446738219963781
158.0, 0.08757822001219068
159.0, 0.09257302163707033
160.0, 0.09785444662981846
161.0, 0.10584585536274203
162.0, 0.11245379050998397
163.0, 0.11595600088141017
164.0, 0.11635318437346245
165.0, 0.11256779199084255
166.0, 0.10698354255036793
167.0, 0.10272784341278476
168.0, 0.10122137445803829
169.0, 0.10465421218154422
170.0, 0.11132725860842217
171.0, 0.11718822975092805
172.0, 0.11739104905046772
173.0, 0.10604183402876083
174.0, 0.08610923943693856
175.0, 0.0658020512315283
176.0, 0.04890397051519353
177.0, 0.03480606844776052
178.0, 0.028523200146366084
179.0, 0.024209498541006645
180.0, 0.019330261214018946
181.0, 0.01497765777682118
182.0, 0.011641636330305096
183.0, 0.007645170546254698
184.0, 0.004262645948829794
185.0, 0.0024253380597572716
186.0, 0.0010613864476621464
187.0, 0.0020627193133405477
188.0, 0.0021850200177997658
189.0, 0.0024942219668797564
190.0, 0.002077793414376084
191.0, 0.0018425122319209529
192.0, 0.00210374707699309
193.0, 0.0024111595976878115
194.0, 0.002465817461972782
195.0, 0.0037367452756082655
196.0, 0.0026559065714496398
197.0, 0.0009437374200135547
198.0, 0.0015701102214851774
199.0, 0.002751449716476264
200.0, 0.00045046748526156376
201.0, 0.0036374861586419755
202.0, 0.005354598350496725
203.0, 0.006775121458872711
204.0, 0.008168321619234517
205.0, 0.007221855041220079
206.0, 0.005034526324874829
207.0, 0.005577024063931993
208.0, 0.007521156115942742
209.0, 0.00844043265833932
210.0, 0.009645926278276871
211.0, 0.012653272776889777
212.0, 0.014647751444972882
213.0, 0.017371107854791068
214.0, 0.020298346157455016
215.0, 0.022802771184381447
216.0, 0.02489511555372508
217.0, 0.02804586646160607
218.0, 0.03104614723314916
219.0, 0.03441493534090977
220.0, 0.03921945632209296
221.0, 0.042085800726420854
222.0, 0.04745893631725044
223.0, 0.051397443869855716
224.0, 0.050961301144091004
225.0, 0.05228303671876601
226.0, 0.049118268817134714
227.0, 0.04372481284724791
228.0, 0.03822848461179855
229.0, 0.03272490670278836
230.0, 0.029029368547057455
231.0, 0.029084952355174047
232.0, 0.03010424104856221
233.0, 0.02868280343994201
234.0, 0.027493760589358148
235.0, 0.03050224584644793
236.0, 0.03155729064952228
237.0, 0.028889728946508684
238.0, 0.02989755008098154
239.0, 0.02848282780219
240.0, 0.0269571705250932
241.0, 0.026926340831914964
242.0, 0.028647977075625188
243.0, 0.02881845707447285
244.0, 0.029337588644092947
245.0, 0.03023780572274018
246.0, 0.03149275151735987
247.0, 0.033775155523464925
248.0, 0.03672742098510426
249.0, 0.040570100475871396
250.0, 0.04459102309153127
251.0, 0.04772781357273097
252.0, 0.05156714453786987
253.0, 0.05618106544712332
254.0, 0.058817748724984305
255.0, 0.05887764515906694
256.0, 0.06348091652346409
257.0, 0.06184899195892724
258.0, 0.059827917400067564
259.0, 0.059976005996469114
260.0, 0.06024071059311786
261.0, 0.060895386763119695
262.0, 0.06293725758927539
263.0, 0.06570376677650439
264.0, 0.06837395740596179
265.0, 0.07162506392019385
266.0, 0.07301629615231299
267.0, 0.07173985140422881
268.0, 0.0680563779320308
269.0, 0.06278903045123263
270.0, 0.05949079732388949
271.0, 0.05574565751830418
272.0, 0.05143400523988184
273.0, 0.04759995996835489
274.0, 0.044885873869409315
275.0, 0.04266105429397105
276.0, 0.0405712521281664
277.0, 0.03951646313337756
278.0, 0.04039188341816701
279.0, 0.039183332415760955
280.0, 0.03842042624441191
281.0, 0.037742913907951
282.0, 0.03570347909090836
283.0, 0.03341435156119438
284.0, 0.03312145625202861
285.0, 0.03178042379009535
286.0, 0.029122856200054646
287.0, 0.028001378965208452
288.0, 0.028747266412926593
289.0, 0.02923662179238284
290.0, 0.028647598061632678
291.0, 0.02829055239830937
292.0, 0.03050353947054228
293.0, 0.031152426934233476
294.0, 0.03032959695130912
295.0, 0.029715697670708186
296.0, 0.03064240728216883
297.0, 0.03232356771351406
298.0, 0.03511447296771421
299.0, 0.03540403125693785
300.0, 0.03303322902602024
301.0, 0.032847380891618504
302.0, 0.03249535393722707
303.0, 0.030583702689737598
304.0, 0.028619759505117276
305.0, 0.028045194863094966
306.0, 0.02708028210270914
307.0, 0.02608846371291248
308.0, 0.024371353514172602
309.0, 0.022318911416562764
310.0, 0.02120967985567404
311.0, 0.018962391852693095
312.0, 0.018516036630093113
313.0, 0.018990327214518758
314.0, 0.018692710212516284
315.0, 0.017522456620671055
316.0, 0.015882380704713546
317.0, 0.015495772998621501
318.0, 0.014507115454942978
319.0, 0.011108434135814155
320.0, 0.011193335918582131
321.0, 0.00987650259333501
322.0, 0.007724238972820217
323.0, 0.005805091719139029
324.0, 0.004022886958443801
325.0, 0.0020660708226366595
326.0, 0.0013286045654974075
327.0, 0.0006765243538920289
328.0, 0.0012652173579198
329.0, 0.0019624306111095113
330.0, 0.0021499352565210943
331.0, 0.0019472279626625711
332.0, 0.0015122119931240295
333.0, 0.0012745673506716845
334.0, 0.002251141303194047
335.0, 0.003316639979013153
336.0, 0.00288118493936453
337.0, 0.001456261118720371
338.0, 0.001988891131858301
339.0, 0.0009643512772938913
340.0, 0.00046430832752470015
341.0, 0.00033783975757872544
342.0, 0.0007906448315638859
343.0, 0.003330693278254851
344.0, 0.0038138141612602825
345.0, 0.0031566309603868253
346.0, 0.0036604936479580604
347.0, 0.005968376368208728
348.0, 0.005924491551214557
349.0, 0.005743132965766615
350.0, 0.006699877639987317
351.0, 0.008201893418581768
352.0, 0.008404191851760934
353.0, 0.0068050525135504875
354.0, 0.006965044888228058
355.0, 0.00718533797467511
356.0, 0.006482228970723462
357.0, 0.007577409562796633
358.0, 0.007225840652841371
359.0, 0.006845188264308211
360.0, 0.00716936722088287
361.0, 0.007869511462406359
362.0, 0.00817575348012831
363.0, 0.009240688886911366
364.0, 0.010751738919470014
365.0, 0.011971103191585843
366.0, 0.01226862529735827
367.0, 0.01327680607848832
368.0, 0.015801890696210557
369.0, 0.017410023608404886
370.0, 0.017675274804220247
371.0, 0.019184260031797847
372.0, 0.02165644098820848
373.0, 0.024332299380887042
374.0, 0.02654867364902698
375.0, 0.02801442334758581
376.0, 0.02902572935763261
377.0, 0.03253332378969626
378.0, 0.03316238214320456
379.0, 0.031286216948435926
380.0, 0.029814292627928254
381.0, 0.03021288178543806
382.0, 0.029525932072918943
383.0, 0.027520947558908403
384.0, 0.02677364911669919
385.0, 0.02870705944644026
386.0, 0.029501804848860235
387.0, 0.029807479475171574
388.0, 0.03160966708774781
389.0, 0.03394859885885585
390.0, 0.03461312216422222
391.0, 0.034301039178326984
392.0, 0.03579409968022611
393.0, 0.03727401857011096
394.0, 0.03789588454208421
395.0, 0.03850594474294447
396.0, 0.03981611373492812
397.0, 0.039924391842363426
398.0, 0.04126851235648002
399.0, 0.04443849120137539
400.0, 0.0470068529784905
401.0, 0.05008924037317715
402.0, 0.050635590031884406
403.0, 0.05071098158875759
404.0, 0.0512449879699478
405.0, 0.04886751791931576
406.0, 0.046156890861923296
407.0, 0.042523094313678136
408.0, 0.03706027467685811
409.0, 0.03128765985215171
410.0, 0.028716433608313
411.0, 0.02406799072550016
412.0, 0.0209366779895654
413.0, 0.01916483119061729
414.0, 0.0170973289525135
415.0, 0.015949691239896844
416.0, 0.013966977345129035
417.0, 0.013447873233435648
418.0, 0.013432564921102997
419.0, 0.012231606179202777
420.0, 0.011615635561125857
421.0, 0.01405429799971782
422.0, 0.015381523982325505
423.0, 0.015262834713985075
424.0, 0.015567123619780953
425.0, 0.01642859363320656
426.0, 0.017900457466989372
427.0, 0.018947337986261158
428.0, 0.01949699934361459
429.0, 0.020010691954805173
430.0, 0.020508358229537626
431.0, 0.022282414234791725
432.0, 0.023239658475245256
433.0, 0.0235460616069502
434.0, 0.02453801354227319
435.0, 0.025237697882085137
436.0, 0.026259666041365048
437.0, 0.027105571219844152
438.0, 0.02708017946780342
439.0, 0.025950734402830737
440.0, 0.024167897291681627
441.0, 0.021932445880419094
442.0, 0.02210970591943094
443.0, 0.022408578478862927
444.0, 0.019457569514777492
445.0, 0.017499546834008853
446.0, 0.015956950974295295
447.0, 0.015920401903686432
448.0, 0.016239235166717547
449.0, 0.014891654644343865
450.0, 0.012657790406161037
451.0, 0.011317341260290796
452.0, 0.008908325223165946
453.0, 0.007025149744615751
454.0, 0.007836270111048121
455.0, 0.007514401018329629
456.0, 0.005093383160426407
457.0, 0.0032829934058867497
458.0, 0.00410261303137542
459.0, 0.006556563550116678
460.0, 0.005712090259236377
461.0, 0.005727714655267952
462.0, 0.0036669293285373442
463.0, 0.0015698021043877156
464.0, 0.0022015288970674064
465.0, 0.0018147031313997316
466.0, 0.0010328094607278094
467.0, 0.0024445997889744786
468.0, 0.002163635699840899
469.0, 0.0017182587662711462
470.0, 0.0014316481943168005
471.0, 0.0005915175101906397
472.0, 0.0011070839708461403
473.0, 0.0017830805049795207
474.0, 0.0015246326386424134
475.0, 0.0016882269939811013
476.0, 0.0005709918075045577
477.0, 0.00011942721660414804
478.0, 0.0003252029973874984
479.0, 0.0009369029137872964
480.0, 0.0020824041942574777
481.0, 0.0019288378770274165
482.0, 0.0005655387172417761
483.0, 0.00019783603429573065
484.0, 0.001533459326628917
485.0, 0.0035112788665633285
486.0, 0.005057713085666366
487.0, 0.0038229628111995763
488.0, 0.0029824323359203186
489.0, 0.004311247408121914
490.0, 0.005615539743803319
491.0, 0.004421327149649678
492.0, 0.0063074372421524465
493.0, 0.007776540232632078
494.0, 0.007629465242858617
495.0, 0.008176343614916837
496.0, 0.008636942693639899
497.0, 0.010333270481098484
498.0, 0.01252782737654724
499.0, 0.014913295003345603
500.0, 0.01686739561394974
501.0, 0.015466188496330238
502.0, 0.015944114858503257
503.0, 0.01594393057030138
504.0, 0.015810994303019004
505.0, 0.01672335114717502
506.0, 0.01776028671721627
507.0, 0.018083068916693687
508.0, 0.020754768931845104
509.0, 0.023467701358520988
510.0, 0.024124222459266008
511.0, 0.02430861355498411
512.0, 0.02597474383579416
513.0, 0.02810186733756384
514.0, 0.030203788319937523
515.0, 0.03156024009332797
516.0, 0.0319723518880209
517.0, 0.036056330608075
518.0, 0.04056814792629359
519.0, 0.043293096554646596
520.0, 0.044509108103569395
521.0, 0.044735342089246594
522.0, 0.041804096754468764
523.0, 0.03723751440145466
524.0, 0.031256897401580296
525.0, 0.02510799689543495
526.0, 0.020271632500285894
527.0, 0.016606503724381876
528.0, 0.014058492304567093
529.0, 0.0132933500379482
530.0, 0.012184724892706302
531.0, 0.010869078516621158
532.0, 0.011840207189563526
533.0, 0.011660886286889275
534.0, 0.01139253449613856
535.0, 0.012300640779381034
536.0, 0.01402547364949636
537.0, 0.015312076858397417
538.0, 0.015418204168479126
539.0, 0.017632066296234313
540.0, 0.018831663191063257
541.0, 0.01943563952197468
542.0, 0.020712402951515975
543.0, 0.02153551635252203
544.0, 0.02471599404268234
545.0, 0.0252065844278998
546.0, 0.024701924863445943
547.0, 0.02447813206509426
548.0, 0.02288977514020282
549.0, 0.021999012365774714
550.0, 0.017469273609405814
551.0, 0.01512580193675459
552.0, 0.013977949745712042
553.0, 0.010171678082956121
554.0, 0.008706871774500358
555.0, 0.007466604263084872
556.0, 0.007932807088140252
557.0, 0.007412357719139732
558.0, 0.005655270969865801
559.0, 0.00675652965268955
560.0, 0.006469223255163907
561.0, 0.00487892948061675
562.0, 0.003627495109532192
563.0, 0.0031071257609427347
564.0, 0.0027428878476893036
565.0, 0.002160038986032512
566.0, 0.0021158751071414586
567.0, 0.002844601963349006
568.0, 0.0031671282204711404
569.0, 0.0028303605532188515
570.0, 0.003676697661595082
571.0, 0.004290728329723521
572.0, 0.00357236161600286
573.0, 0.002208928229673421
574.0, 0.0016752381118698939
575.0, 0.002738808774853183
576.0, 0.003860764939372008
577.0, 0.0027839998719228955
578.0, 0.001856117997612508
579.0, 0.0015658218908222883
580.0, 0.0014744868411495627
581.0, 0.0016855085365122613
582.0, 0.0023016943315178275
583.0, 0.0024914129561861747
584.0, 0.002866054345215314
585.0, 0.0033353158250311247
586.0, 0.003300878104416109
587.0, 0.0037901077155331033
588.0, 0.004352865066832748
589.0, 0.003574630177274345
590.0, 0.002251035194652878
591.0, 0.0019411488202960747
592.0, 0.0028966798956753456
593.0, 0.0016508415380042582
594.0, 0.0016480565950482556
595.0, 0.002113259070194785
596.0, 0.002094138053563556
597.0, 0.001762513456949948
598.0, 0.0016817718114782716
599.0, 0.0026865090392884437
600.0, 0.0034490575883366955
601.0, 0.0036922467483473816
602.0, 0.003791544324179731
603.0, 0.004102796705472145
604.0, 0.00469094393677057
605.0, 0.0034658880360544063
606.0, 0.003484369066199762
607.0, 0.004428847385766672
608.0, 0.004170250638927751
609.0, 0.0032440951169689764
610.0, 0.0041348343472859045
611.0, 0.004520132387203958
612.0, 0.003376729878898753
613.0, 0.0019023170770816856
614.0, 0.0019288162072857234
615.0, 0.0020165989973016845
616.0, 0.0008815688834238486
617.0, 0.0001541785653808466
618.0, 0.0002323566064073586
619.0, 0.00010809819221737125
620.0, 0.0023259113998402078
621.0, 0.000648158228136242
622.0, 0.00021792613935327183
623.0, 0.0013428338533174814
624.0, 0.0007447761330607962
625.0, 0.0004719447809946496
626.0, 0.0006517910470568348
627.0, 0.00014884128793661846
628.0, 0.0010855937249240255
629.0, 0.001325103258976646
630.0, 0.0002847917248430186
631.0, 0.0006420577057937355
632.0, 0.0017177229132014765
633.0, 0.0007355855404346356
634.0, 0.00044689458057721486
635.0, 0.0013311313455104487
636.0, 0.0009922829069792805
637.0, 0.0009637826890381161
638.0, 0.001315447431448584
639.0, 0.0010376052478229994
640.0, 0.0013258404500298476
641.0, 0.0022892109437410643
642.0, 0.002801911232712912
643.0, 0.001919235721179324
644.0, 0.003503689423215914
645.0, 0.004085034526128152
646.0, 0.004255868794177049
647.0, 0.003976475551570389
648.0, 0.0029301252149942117
649.0, 0.0027070556569399194
650.0, 0.004178920666381644
651.0, 0.0036811713144453222
652.0, 0.003921005283559197
653.0, 0.006051408752860928
654.0, 0.007368268273934012
655.0, 0.005112425837301585
656.0, 0.004947094170571898
657.0, 0.0043669983235142
658.0, 0.004109413027095117
659.0, 0.00447252618976742
660.0, 0.0041640002147766446
661.0, 0.0031219602347589857
662.0, 0.0020451031376864126
663.0, 0.001999396608874539
664.0, 0.003027284572572838
665.0, 0.0033899379828326542
666.0, 0.0020103163257395914
667.0, 0.0035879334192848215
668.0, 0.003983641922542259
669.0, 0.0020156442464885765
670.0, 0.0020003498666775798
671.0, 0.00356684705979765
672.0, 0.0019899738285266235
673.0, 0.0012713233318682906
674.0, 0.0030661767519272612
675.0, 0.0035769427730628135
676.0, 0.003951238565395436
677.0, 0.004326305749530762
678.0, 0.002570641217047507
679.0, 0.003794244498298274
680.0, 0.005174759678936015
681.0, 0.004759070856205224
682.0, 0.004181830507586668
683.0, 0.004907057410165775
684.0, 0.0060580640897813474
685.0, 0.00617063303462537
686.0, 0.004819830912565622
687.0, 0.008396829658113154
688.0, 0.013419328307854517
689.0, 0.01720795663135759
690.0, 0.023540744983691433
691.0, 0.027516777018645886
692.0, 0.03239436377149217
693.0, 0.035310469990981336
694.0, 0.03772676928259417
695.0, 0.041626899343645295
696.0, 0.046309727494110525
697.0, 0.05357751767123817
698.0, 0.061406265505835195
699.0, 0.07128502981048643
700.0, 0.08436904380896576
701.0, 0.09822426078414924
702.0, 0.10821123591457588
703.0, 0.11280326889410297
704.0, 0.10130899339595122
705.0, 0.0783904914036464
706.0, 0.05279193573464825
707.0, 0.03225304869507751
708.0, 0.020314563681608465
709.0, 0.015377381451381407
710.0, 0.010419111187748723
711.0, 0.008681327048567566
712.0, 0.006845965528239817
713.0, 0.004162253950384913
714.0, 0.00352198742875294
715.0, 0.0018109200728921378
716.0, 0.0007472512197398849
717.0, 0.00019155286645598443
718.0, 0.0008648901053482773
719.0, 0.0021615616980687484
720.0, 0.002297271845922696
721.0, 0.000920046842755387
722.0, 0.0014169994997423848
723.0, 0.0019468972714286412
724.0, 0.00280265023121098
725.0, 0.003408151890933334
726.0, 0.002836461100798771
727.0, 0.002025170608471299
728.0, 0.002499928162562703
729.0, 0.001053263558343189
730.0, 0.0003423223290109793
731.0, 0.0006340753438071592
732.0, 0.00046293646393992706
733.0, 0.0001752158757135731
734.0, 0.0016758657138486524
735.0, 0.0022196157758880048
736.0, 0.003513667155604656
737.0, 0.005472591490173745
738.0, 0.0074184195892203755
739.0, 0.008659689664349499
740.0, 0.00560901223129582
741.0, 0.0036686657325565603
742.0, 0.0034642671328730056
743.0, 0.002712229568003286
744.0, 0.002153239681982339
745.0, 0.0033770079529157225
746.0, 0.002957813249604738
747.0, 0.004810225493127412
748.0, 0.004382843143496807
749.0, 0.002322749719279842
750.0, 0.0015632170640846824
751.0, 0.0021118501375984567
752.0, 0.000838214432327422
753.0, 0.0007163087993952924
754.0, 0.0003465988631971075
755.0, 0.000419755305976315
756.0, 0.0010939877542060575
757.0, 0.0011156614453315275
758.0, 0.00023671039901336277
759.0, 0.0011489227727964327
760.0, 0.0007510377275390638
761.0, 0.0005224750459752256
762.0, 0.0019504827545858466
763.0, 0.003610505315629209
764.0, 0.0038314203739816055
765.0, 0.003201130157388988
766.0, 0.0017677328337305526
767.0, 0.0012887198090592987
768.0, 0.00163290565000205
769.0, 0.0017479251348140586
770.0, 0.0019123854913616009
771.0, 0.0031558109102165295
772.0, 0.0009594957874331193
773.0, 0.00016850226683301093
774.0, 0.0001856728570191074
775.0, 0.0010315677137173469
776.0, 0.0011941577145355173
777.0, 0.0002168816392233419
778.0, 0.0005311530655608113
779.0, 0.0013894902296639703
780.0, 0.0006990561603497234
781.0, 0.0013896293963793402
782.0, 0.002150776622869995
783.0, 0.0012103446769605862
784.0, 0.0009257297730820352
785.0, 0.002931216909826674
786.0, 0.0021987538718468104
787.0, 0.0006362634209285764
788.0, 0.0010825767419115903
789.0, 0.000870951870858195
790.0, 0.002629139338307651
791.0, 0.0002980688662333519
792.0, 0.00010372667464397197
793.0, 0.0012758823526619078
794.0, 0.0008598109428032463
795.0, 0.0007624949594971572
796.0, 0.001536162504527228
797.0, 7.239690458223678e-05
798.0, 0.0011969265600750211
799.0, 0.0013519456755795838
800.0, 0.000503918589693068
801.0, 0.00046154755514966086
802.0, 0.00031437386729275303
803.0, 0.0005552011807749984
804.0, 0.00010878577782346708
805.0, 0.0002251218716544532
806.0, 0.0005118924153931813
807.0, 0.0001172228175955628
808.0, 0.0003734797491347723
809.0, 0.0017135176317509121
810.0, 0.0014326065688064372
811.0, 0.0002631317538942376
812.0, 0.0005987848384073613
813.0, 0.002377554948703856
814.0, 0.0026291262583391746
815.0, 0.0025675830642789563
816.0, 0.0023728260996398703
817.0, 0.0014387277164457507
818.0, 0.004189690032438255
819.0, 0.0023532392096291665
820.0, 0.0023019106536454684
821.0, 0.003342777211165252
822.0, 0.004095143229542287
823.0, 0.004024336534322736
824.0, 0.0034974549537464977
825.0, 0.007935162740428771
826.0, 0.006474730362739479
827.0, 0.007294585092256888
828.0, 0.010945415659782276
829.0, 0.012809979565456936
830.0, 0.013262219343522017
831.0, 0.017707014328192893
832.0, 0.02169349049438264
833.0, 0.02569425322800938
834.0, 0.031193669419712893
835.0, 0.038045420272518136
836.0, 0.04669943695659185
837.0, 0.05689078518137344
838.0, 0.06689020497310695
839.0, 0.08234557121041891
840.0, 0.10117594898448196
841.0, 0.11904248740495463
842.0, 0.13772169827229377
843.0, 0.15661950987146597
844.0, 0.17416910715337547
845.0, 0.19417044979712944
846.0, 0.21495858730139336
847.0, 0.23983891514408084
848.0, 0.26219111485588403
849.0, 0.28897153828815825
850.0, 0.32086681576261844
851.0, 0.3552895737911569
852.0, 0.4002394384615967
853.0, 0.4294858195408876
854.0, 0.42461903947863827
855.0, 0.3953998002827792
856.0, 0.3565085426992213
857.0, 0.3212076446337551
858.0, 0.2968326257553899
859.0, 0.28460081085318184
860.0, 0.28341711287222887
861.0, 0.2946351602968053
862.0, 0.31522128472452354
863.0, 0.3511811091235764
864.0, 0.3961461080888381
865.0, 0.427517629845283
866.0, 0.4284182280223219
867.0, 0.3844890539964488
868.0, 0.3154254686990809
869.0, 0.24352409394803748
870.0, 0.1810263065904335
871.0, 0.13302308812339653
872.0, 0.10186930938565608
873.0, 0.08693284893901186
874.0, 0.07413422715315104
875.0, 0.06034694969968191
876.0, 0.053191916436723094
877.0, 0.04988392117655972
878.0, 0.04810671721414362
879.0, 0.047469215166183375
880.0, 0.04669602094916301
881.0, 0.04789061556417889
882.0, 0.048319329004527074
883.0, 0.04875838052099886
884.0, 0.051022947130741104
885.0, 0.05217793228177276
886.0, 0.049394288301660594
887.0, 0.0451469527202733
888.0, 0.04492509128092522
889.0, 0.038415937865064746
890.0, 0.03350187157559102
891.0, 0.029059155072045935
892.0, 0.02614633082613009
893.0, 0.02432789969734538
894.0, 0.021000966040296908
895.0, 0.017945829863063763
896.0, 0.0117193663661402
897.0, 0.0069243290553426835
898.0, 0.00659203831118799
899.0, 0.004887753528488959
900.0, 0.002318798752598818
901.0, 0.001879487668009707
902.0, 0.00036705548095064793
903.0, 0.0002585149966698277
904.0, 0.000501596362900467
905.0, 0.0010900595010899926
906.0, 0.0015203593331265246
907.0, 0.0016181931804778989
908.0, 0.002320046944300228
909.0, 0.004029750084539302
910.0, 0.004958512561784534
911.0, 0.007646419086970066
912.0, 0.008900734332896006
913.0, 0.008699880090302974
914.0, 0.009620997229560356
915.0, 0.011708699198595476
916.0, 0.01319794771245795
917.0, 0.015046862949093074
918.0, 0.017246956314484297
919.0, 0.02242073410825755
920.0, 0.026079204424966494
921.0, 0.028830400625809827
922.0, 0.03137219580317296
923.0, 0.03422203671529918
924.0, 0.03725387708811863
925.0, 0.036032755735647015
926.0, 0.03615221612156465
927.0, 0.036460403296466104
928.0, 0.03622864428067746
929.0, 0.03678159036511574
930.0, 0.03847709972935057
931.0, 0.040797151179759836
932.0, 0.04412240968449165
933.0, 0.0467487246844134
934.0, 0.05023505156122875
935.0, 0.05195461700600253
936.0, 0.056154477617745314
937.0, 0.060667013858284546
938.0, 0.06336775624151915
939.0, 0.06677809773235655
940.0, 0.06981672553233136
941.0, 0.07289641304969449
942.0, 0.07703703480391531
943.0, 0.082359617700462
944.0, 0.08901405466347341
945.0, 0.09557637320842972
946.0, 0.10148211958054781
947.0, 0.10894389418408258
948.0, 0.11887917292519264
949.0, 0.12738288656581923
950.0, 0.1292217513839221
951.0, 0.12063730685443652
952.0, 0.10447999972252807
953.0, 0.0831026317366338
954.0, 0.06287864477213734
955.0, 0.05196591260708903
956.0, 0.03594436333934088
957.0, 0.025857070883201484
958.0, 0.017752297249374913
959.0, 0.012441065498016763
960.0, 0.009625346544361995
961.0, 0.0069571220850323245
962.0, 0.003917562484602119
963.0, 0.002787135605330726
964.0, 0.0015754503891753247
965.0, 0.001459427954384663
966.0, 0.0002613763139303437
967.0, 0.0004840017618964887
968.0, 0.0003479205738761873
969.0, 0.0008783529167228988
970.0, 0.001374883120944398
971.0, 0.0009310067442908325
972.0, 0.0019092565926338732
973.0, 0.0013548431209089743
974.0, 0.002364772682698718
975.0, 0.00122755856252657
976.0, 0.0009519574470533326
977.0, 0.0018617274686187092
978.0, 0.0009817643242836813
979.0, 0.0006585265588933441
980.0, 0.00010193686656200495
981.0, 0.0006416556486994163
982.0, 0.0012574793537125932
983.0, 0.0036362078299402557
984.0, 0.0053042834026413585
985.0, 0.005783639571096316
986.0, 0.006432383151229059
987.0, 0.0065608980591879635
988.0, 0.006434403337838837
989.0, 0.00471674456536718
990.0, 0.00452334339718508
991.0, 0.005124090742006383
992.0, 0.003424307357116382
993.0, 0.001193625629716103
994.0, 0.0008719179309703743
995.0, 0.0010571899299330017
996.0, 0.0020768847143802106
997.0, 0.002144569851149466
998.0, 0.0033486156951451768
999.0, 0.0034340902279961063
1000.0, 0.0024436533922644397
1001.0, 0.0015242549578021512
1002.0, 0.0012812305680119213
1003.0, 0.002045432380018927
1004.0, 0.0032889064000390417
1005.0, 0.0017744062069372129
1006.0, 0.0011064081348212485
1007.0, 0.0010031345256921603
1008.0, 0.0017836759598199691
1009.0, 0.002074594123859532
1010.0, 0.002370721568790081
1011.0, 0.0031137838453834574
1012.0, 0.0012622456133972513
1013.0, 0.0034312213741991356
1014.0, 0.003207894926404235
1015.0, 0.00463365218156297
1016.0, 0.0031100559275951223
1017.0, 0.0017532453339839178
1018.0, 0.0020269123266566462
1019.0, 0.0007896302021763533
1020.0, 0.001391106866948068
1021.0, 0.00018951038443551662
1022.0, 0.0025499016839975303
1023.0, 0.0018676907334243024
1024.0, 0.00018954111356990396
1025.0, 0.0014886287191703436
1026.0, 0.002971589749933416
1027.0, 0.0025629407936824736
1028.0, 0.0023425289666411005
1029.0, 0.0027255663694758635
1030.0, 0.0025714573927381767
1031.0, 0.0015456266755481838
1032.0, 0.0015080895450579497
1033.0, 0.0019877382740798363
1034.0, 0.001746497415419079
1035.0, 0.0011511335583343457
1036.0, 0.0011521734716646776
1037.0, 0.0012468030067586413
1038.0, 0.0011282456356009676
1039.0, 0.0025944213644512673
1040.0, 0.002275539539260358
1041.0, 0.0016974165226421789
1042.0, 0.0026288042136425644
1043.0, 0.004063413703225712
1044.0, 0.005593815561320329
1045.0, 0.006796843011252241
1046.0, 0.0067064276011882746
1047.0, 0.007295712492230699
1048.0, 0.00801016689091592
1049.0, 0.008471842865533786
1050.0, 0.008159493513815185
1051.0, 0.008073833047185614
1052.0, 0.009471573749464158
1053.0, 0.011211686198488485
1054.0, 0.011918496502288402
1055.0, 0.013225423005836635
1056.0, 0.016541442250330652
1057.0, 0.017912388162870316
1058.0, 0.01815817694533335
1059.0, 0.018960013305109824
1060.0, 0.019159924964512038
1061.0, 0.020774212468013895
1062.0, 0.023305121943941826
1063.0, 0.02478722966792912
1064.0, 0.02737286880531912
1065.0, 0.03377146847759554
1066.0, 0.045208970675884974
1067.0, 0.06543330711943486
1068.0, 0.10030389227532656
1069.0, 0.15728588275221772
1070.0, 0.21773562068133198
1071.0, 0.2637827287047863
1072.0, 0.30185845654620125
1073.0, 0.3432991781633402
1074.0, 0.3834606354789411
1075.0, 0.43652838094378477
1076.0, 0.49456348080501217
1077.0, 0.5615022069129858
1078.0, 0.6497708775082436
1079.0, 0.7756431768556041
1080.0, 0.9228875572289075
1081.0, 0.989552337489493
1082.0, 0.8417519575273854
1083.0, 0.5755775709762361
1084.0, 0.3702733344694294
1085.0, 0.23930369490186681
1086.0, 0.16264350207071437
1087.0, 0.11666046827299748
1088.0, 0.08046900670018742
1089.0, 0.05456680225852371
1090.0, 0.04135899925999353
1091.0, 0.03336046040541961
1092.0, 0.02472860681117765
1093.0, 0.02245894097973334
1094.0, 0.021180539234752802
1095.0, 0.019043245656200237
1096.0, 0.01794699507889111
1097.0, 0.016943878638987723
1098.0, 0.015851804686600485
1099.0, 0.01459338932809459
1100.0, 0.01383558380513922
1101.0, 0.014607781608454164
1102.0, 0.01363797258367254
1103.0, 0.010636206466159927
1104.0, 0.010446290632971375
1105.0, 0.01084043511562512
1106.0, 0.009830216070727335
1107.0, 0.007255705265064803
1108.0, 0.007810977110430472
1109.0, 0.009701608080716873
1110.0, 0.007302245733233419
1111.0, 0.0068960783804050034
1112.0, 0.008177233030288377
1113.0, 0.007984942346951072
1114.0, 0.007680969725060246
1115.0, 0.006218786796630508
1116.0, 0.004357991494566287
1117.0, 0.004782821094547492
1118.0, 0.005571625149879372
1119.0, 0.004641645163803105
1120.0, 0.0035875398814421283
1121.0, 0.002717707209987126
1122.0, 0.0033474886733779706
1123.0, 0.003509965625605376
1124.0, 0.0020434278055123933
1125.0, 0.001252557003272453
1126.0, 0.0010541214141475362
1127.0, 0.0010570363275260633
1128.0, 0.000610464369926505
1129.0, 0.0007668332464399388
1130.0, 0.0019291924764989186
1131.0, 0.0013039415632761487
1132.0, 0.000396446324310549
1133.0, 0.0009359803940400346
1134.0, 0.0024904138410209425
1135.0, 0.0016953464180329031
1136.0, 0.0007266934198166303
1137.0, 0.000295386499816665
1138.0, 0.0003563548048871137
1139.0, 0.0008192300989336806
1140.0, 0.0008931740415637806
1141.0, 0.0014014208419750181
1142.0, 0.0006320755057282848
1143.0, 0.0008883393887329015
1144.0, 0.00047020995833416183
1145.0, 2.6848937631619073e-05
1146.0, 0.0006526652203679767
1147.0, 0.00029266179042511294
1148.0, 0.0006713039529277692
1149.0, 0.0004022038326174579
1150.0, 0.000926485009687048
1151.0, 0.0006964909630372934
1152.0, 0.00049814033420301
1153.0, 0.000741671341156055
1154.0, 0.0006930876195967039
1155.0, 0.0009171940657399073
1156.0, 0.0008733962720152203
1157.0, 0.00022570223605462123
1158.0, 7.767245529383281e-05
1159.0, 0.0004887756638854802
1160.0, 0.00035752338257598516
1161.0, 0.0002767871606759403
1162.0, 0.00045742952005628696
1163.0, 0.00030601852888424404
1164.0, 0.0006180662059142955
1165.0, 0.0005494852686739577
1166.0, 0.0005844687219249429
1167.0, 0.00031033440969313586
1168.0, 0.00037356382628839804
1169.0, 0.00043514996621201254
1170.0, 0.0014802106349814904
1171.0, 0.0009272521304184982
1172.0, 0.0001950260024204143
1173.0, 0.000843526751016742
1174.0, 0.0010698399645559906
1175.0, 0.001564468555568105
1176.0, 0.0025140468531418022
1177.0, 0.0033388710112739303
1178.0, 0.0010854251724790659
1179.0, 0.0004199858241827344
1180.0, 0.001453245459073754
1181.0, 0.0019977219444609843
1182.0, 0.0025638509909618485
1183.0, 0.002544621845484426
1184.0, 0.0020198689308691723
1185.0, 0.004269427766177019
1186.0, 0.002798510796164767
1187.0, 0.00430437355593142
1188.0, 0.003922894369305156
1189.0, 0.002809961216602309
1190.0, 0.002765305386264143
1191.0, 0.002714488826230845
1192.0, 0.002838797503640074
1193.0, 0.0033755791718531737
1194.0, 0.002782242092376256
1195.0, 0.003725467452778315
1196.0, 0.0013298737878227717
1197.0, 0.0025080298954488806
1198.0, 0.0027443601611789434
1199.0, 0.0016844172786410479
1200.0, 0.002952007457481526
1201.0, 0.004362889207438723
1202.0, 0.004451559291515833
1203.0, 0.004431261950776261
1204.0, 0.003935887008248379
1205.0, 0.003289338043106719
1206.0, 0.004018358156696211
1207.0, 0.005267976770511666
1208.0, 0.004810729748867156
1209.0, 0.0034188890310903495
1210.0, 0.004855911469187634
1211.0, 0.003933487479798188
1212.0, 0.003077831162705186
1213.0, 0.0027649505032209627
1214.0, 0.0020515703814508977
1215.0, 0.0022997922135131015
1216.0, 0.0025603169920755727
1217.0, 0.0022311976358322556
1218.0, 0.002697082663041792
1219.0, 0.0028991826554315213
1220.0, 0.0023155082030457915
1221.0, 0.0023601097524297283
1222.0, 0.0032470834258360535
1223.0, 0.00208912990644389
1224.0, 0.0011493942881231575
1225.0, 0.0010697067267515575
1226.0, 0.0002623420343515951
1227.0, 0.0011438650757866812
1228.0, 0.004043357255702271
1229.0, 0.002048591339249564
1230.0, 0.0026914445860739843
1231.0, 0.0032484508700590313
1232.0, 0.003517412139867974
1233.0, 0.003077780062368724
1234.0, 0.003895109393814367
1235.0, 0.0025507395337267787
1236.0, 0.0027636891744664393
1237.0, 0.004345044004181284
1238.0, 0.0041482941646715146
1239.0, 0.0040549050724243635
1240.0, 0.003961478189559552
1241.0, 0.002872765863969861
1242.0, 0.003339229538773147
1243.0, 0.002305230423032622
1244.0, 0.004027279925857234
1245.0, 0.002556835487970076
1246.0, 0.0017726425442006007
1247.0, 0.0020749021339938924
1248.0, 0.0036476322622502216
1249.0, 0.0035651038261041365
1250.0, 0.0028888087965409782
1251.0, 0.0034269644271261836
1252.0, 0.0017233909120459685
1253.0, 0.0025831470365739453
1254.0, 0.0028838088390530183
1255.0, 0.0032421127878132674
1256.0, 0.005573866224878731
1257.0, 0.0029882623820981103
1258.0, 0.003070898683845306
1259.0, 0.0015511104916053947
1260.0, 0.0030691661368482588
1261.0, 0.003468683350185269
1262.0, 0.0022702637288171505
1263.0, 0.002879714601583975
1264.0, 0.0018802681530827776
1265.0, 0.002827979111656648
1266.0, 0.0012252111581767036
1267.0, 0.0003364293741150359
1268.0, 0.0025011104509340912
1269.0, 0.0021098276857496414
1270.0, 0.003270265567569773
1271.0, 0.0023222282341854544
1272.0, 0.0021828004905558598
1273.0, 0.0026728656735805992
1274.0, 0.0033274409411327343
1275.0, 0.0036656549874196343
1276.0, 0.0024426102071595365
1277.0, 0.0009033762809231531
1278.0, 0.0003360082528537433
1279.0, 3.5364435876840076e-05
1280.0, 0.001030376581835052
1281.0, 0.0005492139398209248
1282, 0.0
1283, 0.0
1284, 0.0
1285, 0.0
1286, 0.0
1287, 0.0
1288, 0.0
1289, 0.0
1290, 0.0
1291, 0.0
1292, 0.0
1293, 0.0
1294, 0.0
1295, 0.0
1296, 0.0
1297, 0.0
1298, 0.0
1299, 0.0
1300, 0.0
1301, 0.0
1302, 0.0
1303, 0.0
1304, 0.0
1305, 0.0
1306, 0.0
1307, 0.0
1308, 0.0
1309, 0.0
1310, 0.0
1311, 0.0
1312, 0.0
1313, 0.0
1314, 0.0
1315, 0.0
1316, 0.0
1317, 0.0
1318, 0.0
1319, 0.0
1320, 0.0
1321, 0.0
1322, 0.0
1323, 0.0
1324, 0.0
1325, 0.0
1326, 0.0
1327, 0.0
1328, 0.0
1329, 0.0
1330, 0.0
1331, 0.0
1332, 0.0
1333, 0.0
1334, 0.0
1335, 0.0
1336, 0.0
1337, 0.0
1338, 0.0
1339, 0.0
1340, 0.0
1341, 0.0
1342, 0.0
1343, 0.0
1344, 0.0
1345, 0.0
1346, 0.0
1347, 0.0
1348, 0.0
1349, 0.0
1350, 0.0
1351, 0.0
1352, 0.0
1353, 0.0
1354, 0.0
1355, 0.0
1356, 0.0
1357, 0.0
1358, 0.0
1359, 0.0
1360, 0.0
1361, 0.0
1362, 0.0
1363, 0.0
1364, 0.0
1365, 0.0
1366, 0.0
1367, 0.0
1368, 0.0
1369, 0.0
1370, 0.0
1371, 0.0
1372, 0.0
1373, 0.0
1374, 0.0
1375, 0.0
1376, 0.0
1377, 0.0
1378, 0.0
1379, 0.0
1380, 0.0
1381, 0.0
1382, 0.0
1383, 0.0
1384, 0.0
1385, 0.0
1386, 0.0
1387, 0.0
1388, 0.0
1389, 0.0
1390, 0.0
1391, 0.0
1392, 0.0
1393, 0.0
1394, 0.0
1395, 0.0
1396, 0.0
1397, 0.0
1398, 0.0
1399, 0.0
1400, 0.0
1401, 0.0
1402, 0.0
1403, 0.0
1404, 0.0
1405, 0.0
1406, 0.0
1407, 0.0
1408, 0.0
1409, 0.0
1410, 0.0
1411, 0.0
1412, 0.0
1413, 0.0
1414, 0.0
1415, 0.0
1416, 0.0
1417, 0.0
1418, 0.0
1419, 0.0
1420, 0.0
1421, 0.0
1422, 0.0
1423, 0.0
1424, 0.0
1425, 0.0
1426, 0.0
1427, 0.0
1428, 0.0
1429, 0.0
1430, 0.0
1431, 0.0
1432, 0.0
1433, 0.0
1434, 0.0
1435, 0.0
1436, 0.0
1437, 0.0
1438, 0.0
1439, 0.0
1440, 0.0
1441, 0.0
1442, 0.0
1443, 0.0
1444, 0.0
1445, 0.0
1446, 0.0
1447, 0.0
1448, 0.0
1449, 0.0
1450, 0.0
1451, 0.0
1452, 0.0
1453, 0.0
1454, 0.0
1455, 0.0
1456, 0.0
1457, 0.0
1458, 0.0
1459, 0.0
1460, 0.0
1461, 0.0
1462, 0.0
1463, 0.0
1464, 0.0
1465, 0.0
1466, 0.0
1467, 0.0
1468, 0.0
1469, 0.0
1470, 0.0
1471, 0.0
1472, 0.0
1473, 0.0
1474, 0.0
1475, 0.0
1476, 0.0
1477, 0.0
1478, 0.0
1479, 0.0
1480, 0.0
1481, 0.0
1482, 0.0
1483, 0.0
1484, 0.0
1485, 0.0
1486, 0.0
1487, 0.0
1488, 0.0
1489, 0.0
1490, 0.0
1491, 0.0
1492, 0.0
1493, 0.0
1494, 0.0
1495, 0.0
1496, 0.0
1497, 0.0
1498, 0.0
1499, 0.0
1500, 0.0
1501, 0.0
1502, 0.0
1503, 0.0
1504, 0.0
1505, 0.0
1506, 0.0
1507, 0.0
1508, 0.0
1509, 0.0
1510, 0.0
1511, 0.0
1512, 0.0
1513, 0.0
1514, 0.0
1515, 0.0
1516, 0.0
1517, 0.0
1518, 0.0
1519, 0.0
1520, 0.0
1521, 0.0
1522, 0.0
1523, 0.0
1524, 0.0
1525, 0.0
1526, 0.0
1527, 0.0
1528, 0.0
1529, 0.0
1530, 0.0
1531, 0.0
1532, 0.0
1533, 0.0
1534, 0.0
1535, 0.0
1536, 0.0
1537, 0.0
1538, 0.0
1539, 0.0
1540, 0.0
1541, 0.0
1542, 0.0
1543, 0.0
1544, 0.0
1545, 0.0
1546, 0.0
1547, 0.0
1548, 0.0
1549, 0.0
1550, 0.0
1551, 0.0
1552, 0.0
1553, 0.0
1554, 0.0
1555, 0.0
1556, 0.0
1557, 0.0
1558, 0.0
1559, 0.0
1560, 0.0
1561, 0.0
1562, 0.0
1563, 0.0
1564, 0.0
1565, 0.0
1566, 0.0
1567, 0.0
1568, 0.0
1569, 0.0
1570, 0.0
1571, 0.0
1572, 0.0
1573, 0.0
1574, 0.0
1575, 0.0
1576, 0.0
1577, 0.0
1578, 0.0
1579, 0.0
1580, 0.0
1581, 0.0
1582, 0.0
1583, 0.0
1584, 0.0
1585, 0.0
1586, 0.0
1587, 0.0
1588, 0.0
1589, 0.0
1590, 0.0
1591, 0.0
1592, 0.0
1593, 0.0
1594, 0.0
1595, 0.0
1596, 0.0
1597, 0.0
1598, 0.0
1599, 0.0
