30, 0.0
31, 0.0
32, 0.0
33, 0.0
34, 0.0
35, 0.0
36, 0.0
37, 0.0
38, 0.0
39, 0.0
40, 0.0
41, 0.0
42, 0.0
43, 0.0
44, 0.0
45, 0.0
46, 0.0
47, 0.0
48, 0.0
49, 0.0
50, 0.0
51, 0.0
52, 0.0
53, 0.0
54, 0.0
55, 0.0
56, 0.0
57, 0.0
58, 0.0
59, 0.0
60, 0.0
61, 0.0
62, 0.0
63, 0.0
64, 0.0
65, 0.0
66, 0.0
67, 0.0
68, 0.0
69, 0.0
70, 0.0
71, 0.0
72, 0.0
73, 0.0
74, 0.0
75, 0.0
76, 0.0
77, 0.0
78, 0.0
79, 0.0
80, 0.0
81, 0.0
82, 0.0
83, 0.0
84, 0.0
85, 0.0
86, 0.0
87, 0.0
88, 0.0
89, 0.0
90, 0.0
91, 0.0
92, 0.0
93, 0.0
94, 0.0
95, 0.0
96, 0.0
97, 0.0
98, 0.0
99, 0.0
100, 0.0
101, 0.0
102, 0.0
103, 0.0
104, 0.0
105, 0.0
106, 0.0
107, 0.0
108, 0.0
109, 0.0
110, 0.0
111, 0.0
112, 0.0
113, 0.0
114, 0.0
115, 0.0
116, 0.0
117, 0.0
118, 0.0
119, 0.0
120, 0.0
121.0, 0.00014331857783815452
122.0, 0.0028268445267416765
123.0, 0.01454664025168852
124.0, 0.030642188658675233
125.0, 0.026814722608900263
126.0, 0.026456921958397397
127.0, 0.03243982388254182
128.0, 0.03677010691190184
129.0, 0.031797715165926284
130.0, 0.023440105441351722
131.0, 0.017422219493538428
132.0, 0.014268317376871729
133.0, 0.008724234174770522
134.0, 0.0007646884383915049
135.0, 0.001110000697708393
136.0, 0.0054210832384271905
137.0, 0.010250561197875213
138.0, 0.009619942913005247
139.0, 0.01804405798622307
140.0, 0.026333445618283723
141.0, 0.015450887824245781
142.0, 0.007602119596976842
143.0, 0.005578259598245171
144.0, 0.004595525315638449
145.0, 0.0011565284456114438
146.0, 0.0013720743937189815
147.0, 0.003527484206688151
148.0, 0.005487845015290531
149.0, 0.005768255497234822
150.0, 0.0025706303381828476
151.0, 0.003612019345270485
152.0, 0.006031079251794318
153.0, 0.00600933778813766
154.0, 0.0008978141803162045
155.0, 0.0009859622314753063
156.0, 0.0014114176804185957
157.0, 0.0011919506263835507
158.0, 0.004509271913209612
159.0, 0.0028956987872837776
160.0, 0.0016239473989700544
161.0, 0.004088052826556808
162.0, 0.003741839047550308
163.0, 0.004560992853949541
164.0, 0.004831162697308619
165.0, 0.007634919001355262
166.0, 0.010124157270648717
167.0, 0.003918497844607539
168.0, 0.0025770216556909174
169.0, 0.0011058793597076024
170.0, 0.0007482532834148198
171.0, 0.004674152869396458
172.0, 0.008122621325582917
173.0, 0.006921911063241988
174.0, 0.004922139212455157
175.0, 0.005187074634557172
176.0, 0.00322543942785762
177.0, 0.003985532872467695
178.0, 0.005801000819757157
179.0, 0.007164965175651651
180.0, 0.008676678055784523
181.0, 0.00952611420135805
182.0, 0.006792227657907252
183.0, 0.004247537426865785
184.0, 0.008431538475855196
185.0, 0.015161227159757599
186.0, 0.01944461519753867
187.0, 0.015816183009541882
188.0, 0.0069989391586773924
189.0, 0.018401643307461586
190.0, 0.021293884187650155
191.0, 0.022664542560214985
192.0, 0.027657121572729478
193.0, 0.02740559795434936
194.0, 0.029030482534965544
195.0, 0.03314680423919318
196.0, 0.03588690527506016
197.0, 0.033670214600248015
198.0, 0.03336177997058872
199.0, 0.03657989906816213
200.0, 0.041423263540224464
201.0, 0.04627778631577211
202.0, 0.05192340790313318
203.0, 0.05601850715271901
204.0, 0.05824874386212382
205.0, 0.05767440382372258
206.0, 0.053911097125768644
207.0, 0.0603839092752816
208.0, 0.06306855000489481
209.0, 0.059206040002264676
210.0, 0.05498943265775712
211.0, 0.05598627683927035
212.0, 0.055152544487796024
213.0, 0.05371763339365549
214.0, 0.053665575180189856
215.0, 0.05399102026853718
216.0, 0.050155033125852434
217.0, 0.042589814610525654
218.0, 0.037203566163609356
219.0, 0.03968195139055262
220.0, 0.03543384184474632
221.0, 0.0328257528736526
222.0, 0.03127439655886964
223.0, 0.029216015390815732
224.0, 0.03026565356729488
225.0, 0.030717404094925658
226.0, 0.030249986066003473
227.0, 0.028457412412076923
228.0, 0.024657470972434366
229.0, 0.02389867831062591
230.0, 0.01962625354171348
231.0, 0.01739569420642368
232.0, 0.02273303379553632
233.0, 0.026878750196798522
234.0, 0.022292751632952103
235.0, 0.021140442647762638
236.0, 0.025642097988159366
237.0, 0.024094109917252242
238.0, 0.020136650172937157
239.0, 0.020202716980161625
240.0, 0.023250193821806067
241.0, 0.025321703122902724
242.0, 0.024393691522845682
243.0, 0.023188341849789747
244.0, 0.022047313145561513
245.0, 0.02386924417075685
246.0, 0.03368819459266311
247.0, 0.03332079066447024
248.0, 0.03412945795043091
249.0, 0.0375840428466123
250.0, 0.039800706785537376
251.0, 0.0394293026445473
252.0, 0.03963490049533376
253.0, 0.041844501033365955
254.0, 0.04439990708094447
255.0, 0.04391844582927245
256.0, 0.04481374307318771
257.0, 0.04565662719830163
258.0, 0.04573867403322463
259.0, 0.042826316484475
260.0, 0.039182228050241734
261.0, 0.03742808825277207
262.0, 0.03231052490169763
263.0, 0.025543264791390973
264.0, 0.026319897988247763
265.0, 0.034164612928838704
266.0, 0.03505587305497725
267.0, 0.02984954754439925
268.0, 0.024510211851381917
269.0, 0.02140079755229539
270.0, 0.018130319116393522
271.0, 0.019430893042900077
272.0, 0.024099574482863314
273.0, 0.026292675138716495
274.0, 0.02551530268034938
275.0, 0.029402445554716123
276.0, 0.031448328453868024
277.0, 0.029608128135431545
278.0, 0.03665873916980824
279.0, 0.04252317374093324
280.0, 0.043330062375607985
281.0, 0.044672353221899656
282.0, 0.053737969017681
283.0, 0.06587073514025125
284.0, 0.06857138989517729
285.0, 0.06722472747590612
286.0, 0.06887105082026806
287.0, 0.0750218530253811
288.0, 0.07371882335361851
289.0, 0.07455059613824097
290.0, 0.07331083266559799
291.0, 0.06426728032553533
292.0, 0.05821197076031973
293.0, 0.04772218203069005
294.0, 0.03678102151481556
295.0, 0.030176347820258652
296.0, 0.027574179531909042
297.0, 0.019073739762779734
298.0, 0.0159457476180631
299.0, 0.017474267560944917
300.0, 0.01875857690972372
301.0, 0.01604141784407431
302.0, 0.008606949450551245
303.0, 0.005692444829966415
304.0, 0.0063426749581872955
305.0, 0.004959075726047243
306.0, 0.0029597235814399895
307.0, 0.007507027632210492
308.0, 0.0079634170645405
309.0, 0.005122574211894992
310.0, 0.00838689182014591
311.0, 0.002457880979918106
312.0, 0.006616697773201106
313.0, 0.005285070118830634
314.0, 0.0042505598253386985
315.0, 0.0018544417337017973
316.0, 0.0021609141082149868
317.0, 0.0024575001451582505
318.0, 0.00684645311945677
319.0, 0.0034937228909820324
320.0, 0.002089618488079186
321.0, 0.0014359142566877877
322.0, 0.000334209144480305
323.0, 0.0003203368433827263
324.0, 0.0032890443683548966
325.0, 0.0007200108161286136
326.0, 0.004524419101148644
327.0, 0.007645954602294343
328.0, 0.008511890492210145
329.0, 0.011636102009834842
330.0, 0.015138747383509538
331.0, 0.013934705761138541
332.0, 0.009374610611153779
333.0, 0.007173365350983298
334.0, 0.014928617911841096
335.0, 0.017979933911509757
336.0, 0.0207418194991706
337.0, 0.022872313796491434
338.0, 0.01958418157142123
339.0, 0.0108248383420727
340.0, 0.014945151387652176
341.0, 0.020205387486055
342.0, 0.019508416686568338
343.0, 0.01884210950595783
344.0, 0.018628835193410284
345.0, 0.014886847490200882
346.0, 0.01335498425731455
347.0, 0.015794030192921943
348.0, 0.01503777727653208
349.0, 0.018846580003851213
350.0, 0.01902603044817375
351.0, 0.01724569803893845
352.0, 0.018629283631095374
353.0, 0.022895244795112173
354.0, 0.01910005095843251
355.0, 0.022844184939741573
356.0, 0.02733434186460342
357.0, 0.019260219118920566
358.0, 0.012629801878424966
359.0, 0.011218963472213815
360.0, 0.011660593657400867
361.0, 0.013046583321970291
362.0, 0.014833745451471632
363.0, 0.006645751052595333
364.0, 0.004288652065657484
365.0, 0.009081255196916254
366.0, 0.012436535910153668
367.0, 0.0023024171700783904
368.0, 0.005586162881002207
369.0, 0.004321845280786428
370.0, 0.004551669681794299
371.0, 0.008567867030208802
372.0, 0.0013493652410756754
373.0, 0.0007310025211989071
374.0, 0.004210278245512292
375.0, 0.003704716904224157
376.0, 0.0012225255772735776
377.0, 0.000663992687097471
378.0, 0.002098329417667127
379.0, 0.0011017031671321181
380.0, 0.0011359065191841723
381.0, 0.0006404818816573265
382.0, 0.0019472978461661137
383.0, 0.00404242190964447
384.0, 0.0020348983681798016
385.0, 0.006829763641748383
386.0, 0.007313297103837401
387.0, 0.0020452945602656846
388.0, 0.0020994751376219685
389.0, 0.0074445069872294545
390.0, 0.008684724306314425
391.0, 0.0057605380958305205
392.0, 0.0062775790149237265
393.0, 0.009776961142999528
394.0, 0.012062852420581622
395.0, 0.014288435885174344
396.0, 0.018863653502723107
397.0, 0.014661987862685853
398.0, 0.01657029708436154
399.0, 0.014888447544136211
400.0, 0.011882392795067434
401.0, 0.0173058858682339
402.0, 0.00815384507824553
403.0, 0.011633517281339135
404.0, 0.016869385487343413
405.0, 0.01849121292555099
406.0, 0.023087125602415094
407.0, 0.02232778385716647
408.0, 0.024350723982051965
409.0, 0.02848256844598877
410.0, 0.03054006991499995
411.0, 0.029374418619555913
412.0, 0.03560322877511865
413.0, 0.03630947870673979
414.0, 0.034876954969775116
415.0, 0.035827320721002295
416.0, 0.03722659369795545
417.0, 0.03628714302087839
418.0, 0.03745286627115559
419.0, 0.04091974757494943
420.0, 0.046364616558589096
421.0, 0.05316546243955152
422.0, 0.04973756353414936
423.0, 0.053164451113170814
424.0, 0.055172744035835
425.0, 0.05562365977409849
426.0, 0.06455715531514634
427.0, 0.06301072398401186
428.0, 0.06548999958954556
429.0, 0.06960668507446842
430.0, 0.07091769741665062
431.0, 0.06985121556424322
432.0, 0.07445834082931478
433.0, 0.0813697570563708
434.0, 0.08108813096503693
435.0, 0.0781162204967705
436.0, 0.0845958003704841
437.0, 0.08335717931412406
438.0, 0.08123189424261648
439.0, 0.08656998034818156
440.0, 0.09296075972766034
441.0, 0.08961528697968414
442.0, 0.08488510788453707
443.0, 0.08516252577112787
444.0, 0.08889023101840669
445.0, 0.09319379862918092
446.0, 0.09539901855684765
447.0, 0.08798213091752638
448.0, 0.087201935621975
449.0, 0.0904047923417849
450.0, 0.0935407764930918
451.0, 0.09502174051743598
452.0, 0.09808412136708342
453.0, 0.1021413430038731
454.0, 0.10087903283294877
455.0, 0.09897139997661987
456.0, 0.10325867213690466
457.0, 0.10907049671986681
458.0, 0.11675241317719807
459.0, 0.12373168752601812
460.0, 0.13271723140053454
461.0, 0.14374024531025187
462.0, 0.14841658072155417
463.0, 0.15363635907234288
464.0, 0.1567179265120286
465.0, 0.1530456879161828
466.0, 0.14165379714385865
467.0, 0.12590705608158945
468.0, 0.09704065756256244
469.0, 0.08344454794793855
470.0, 0.07219938471649441
471.0, 0.055441363466108985
472.0, 0.04701594921814369
473.0, 0.04006505316196142
474.0, 0.03257124488220719
475.0, 0.028220180459488715
476.0, 0.025619321010912095
477.0, 0.018043533617120997
478.0, 0.008185905903419437
479.0, 0.00438398913380107
480.0, 0.0031702223430559377
481.0, 0.00211185216161875
482.0, 0.001176387779930017
483.0, 0.0008388560748485846
484.0, 0.000463542568214231
485.0, 0.002770556099078889
486.0, 0.0032293454189513226
487.0, 0.003061923402277548
488.0, 0.013086608184238376
489.0, 0.007907524499345571
490.0, 0.005725600870198178
491.0, 0.009535940281283094
492.0, 0.01298037388485646
493.0, 0.013567232226602258
494.0, 0.022472344915463384
495.0, 0.026107353269344206
496.0, 0.023645888030742364
497.0, 0.024023655643590058
498.0, 0.03212025398700446
499.0, 0.0338471735452387
500.0, 0.03210589353989636
501.0, 0.03206135825532721
502.0, 0.035370198902151394
503.0, 0.04015798534270668
504.0, 0.03887966153348781
505.0, 0.03455515695907629
506.0, 0.03529277920354052
507.0, 0.038836842679062476
508.0, 0.03941721048603318
509.0, 0.038773739898431234
510.0, 0.04495187696687916
511.0, 0.042525899152378935
512.0, 0.036801610870778684
513.0, 0.03209208044533702
514.0, 0.023395519280562403
515.0, 0.02740327198447899
516.0, 0.022821379673635022
517.0, 0.01865624427711854
518.0, 0.01775880541652429
519.0, 0.013433712634942025
520.0, 0.0069600692380026394
521.0, 0.011970390144496376
522.0, 0.014132779982854872
523.0, 0.014349741223956528
524.0, 0.018738139423666367
525.0, 0.021814909781415696
526.0, 0.01790157439509861
527.0, 0.023356729109812974
528.0, 0.026506969487937126
529.0, 0.021244674324958503
530.0, 0.016571556674945042
531.0, 0.012211961498375315
532.0, 0.008335320730347982
533.0, 0.00728023359333955
534.0, 0.0058381647984515235
535.0, 0.0008981869950741388
536.0, 0.0030758938946146095
537.0, 0.0024007021609126016
538.0, 0.0012473067861925868
539.0, 0.0037573106203321154
540.0, 0.002217429841056713
541.0, 0.0053568427997893785
542.0, 0.006682630593200131
543.0, 0.0024563343741116224
544.0, 0.0003319758385430076
545.0, 0.0015190012488656018
546.0, 0.009265321836083452
547.0, 0.014415799229084054
548.0, 0.012380338127775007
549.0, 0.020900283417367944
550.0, 0.03054816014078178
551.0, 0.032073096668115676
552.0, 0.03503467295675285
553.0, 0.04495436789278273
554.0, 0.04073974319511032
555.0, 0.03174486165808549
556.0, 0.023186971416474456
557.0, 0.011786866528974194
558.0, 0.0019780873909137956
559.0, 0.0014023564251404194
560.0, 0.0010616510482369453
561.0, 0.00044565202117886546
562.0, 0.00016786021853660454
563.0, 0.0009264323111151184
564.0, 0.0008233404372552674
565.0, 0.0006092174546647628
566.0, 0.0007693021272843706
567.0, 0.00039986114085167836
568.0, 0.0020133623775266908
569.0, 0.004979478991077782
570.0, 0.0030192399373452357
571.0, 0.002779671980388148
572.0, 0.008850703351919417
573.0, 0.015971638145158583
574.0, 0.01688585734998487
575.0, 0.027296164718921493
576.0, 0.02652874799816154
577.0, 0.03063118634004883
578.0, 0.04057526132539384
579.0, 0.05118430925291958
580.0, 0.07448919349243324
581.0, 0.0902230136982146
582.0, 0.10885220704601134
583.0, 0.12988363914914844
584.0, 0.15414325994495193
585.0, 0.18602438224781806
586.0, 0.22123484039855787
587.0, 0.2793262217764756
588.0, 0.3389815442394014
589.0, 0.39653376371402366
590.0, 0.46116226453270437
591.0, 0.53991149990477
592.0, 0.6465311907578255
593.0, 0.7799951872451234
594.0, 0.9208951899175235
595.0, 0.9993721755154323
596.0, 0.940311417742922
597.0, 0.7390919943839622
598.0, 0.5223261811733871
599.0, 0.3618290522495425
600.0, 0.26665457616547733
601.0, 0.2149518432284534
602.0, 0.18179951296751082
603.0, 0.1647310781319162
604.0, 0.15630338649364173
605.0, 0.14492601395314111
606.0, 0.13218707007142474
607.0, 0.12683751026603243
608.0, 0.1313487274928319
609.0, 0.11683784674854106
610.0, 0.10942711320388862
611.0, 0.11176522906351147
612.0, 0.11054199516323998
613.0, 0.09976276193519341
614.0, 0.09892869101632124
615.0, 0.09606487240274482
616.0, 0.09071943587511887
617.0, 0.08532998639338127
618.0, 0.08363484262995709
619.0, 0.08341007943734258
620.0, 0.07212574334735651
621.0, 0.07370597949685975
622.0, 0.06806716214992586
623.0, 0.06170316255364015
624.0, 0.05755758596959677
625.0, 0.04921501596708431
626.0, 0.050297010670627314
627.0, 0.04904891007449408
628.0, 0.0451550161477615
629.0, 0.04339454551984674
630.0, 0.044202859655311504
631.0, 0.04206154695878966
632.0, 0.0353716340959336
633.0, 0.031932093443907704
634.0, 0.029008918134340065
635.0, 0.02536438571769067
636.0, 0.02267088006710097
637.0, 0.02288493157872453
638.0, 0.02075196003922818
639.0, 0.022320974178510592
640.0, 0.023517888510474032
641.0, 0.01891931498162398
642.0, 0.013787860618488443
643.0, 0.017653055261443343
644.0, 0.008165712001436471
645.0, 0.011648349562148736
646.0, 0.0112556993715772
647.0, 0.00442100117490902
648.0, 0.002850332778107474
649.0, 0.01165816504176449
650.0, 0.009921381489870675
651.0, 0.011339305419213753
652.0, 0.011536331244437984
653.0, 0.007031158984658152
654.0, 0.00233919643659206
655.0, 0.002364681619895533
656.0, 0.0025479561926323524
657.0, 0.005626479554262254
658.0, 0.006364046373906654
659.0, 0.003945798573274265
660.0, 0.0010163077299314065
661.0, 0.0018547838600332235
662.0, 0.0037264614770294116
663.0, 0.004264035277580383
664.0, 0.003149933719992212
665.0, 0.001989340235838862
666.0, 0.001329812861685016
667.0, 0.008220771924085482
668.0, 0.004968879367988308
669.0, 0.006542271180684452
670.0, 0.007334191576043201
671.0, 0.0016348129516453513
672.0, 0.004516422517711665
673.0, 0.0005870324155526815
674.0, 0.00835475384578929
675.0, 0.005664617892240595
676.0, 0.0012212546616183078
677.0, 0.0012752602820849533
678.0, 0.003059026372999355
679.0, 0.00024769156012628506
680.0, 0.0006243246995285978
681.0, 0.003738675785221864
682.0, 0.0040110029794274
683.0, 0.0032170235243500736
684.0, 0.005672807714633934
685.0, 0.0020153577026809843
686.0, 0.0018668381709863878
687.0, 0.0005191819677520885
688.0, 0.0030688209574088058
689.0, 0.008301706232429304
690.0, 0.011412936892615846
691.0, 0.010180852846086655
692.0, 0.009037592216317078
693.0, 0.00433299649262422
694.0, 0.0020669346408261928
695.0, 0.0028459558597445115
696.0, 0.005414428110339563
697.0, 0.009650307825799778
698.0, 0.00823224462222931
699.0, 0.006880078991417825
700.0, 0.011325029971718695
701.0, 0.012543544454595578
702.0, 0.006974957107483513
703.0, 0.004096524834128748
704.0, 0.010783992186683695
705.0, 0.0074258368035186985
706.0, 0.001038657977559138
707.0, 0.0027725213485649265
708.0, 0.008295452658928787
709.0, 0.008085628454164728
710.0, 0.010023075696378435
711.0, 0.004000465238499344
712.0, 0.006838191350605596
713.0, 0.01292511783766629
714.0, 0.01638516413139071
715.0, 0.018698335317620298
716.0, 0.021230269850113653
717.0, 0.023542447249476756
718.0, 0.029883509751053725
719.0, 0.02972477043202582
720.0, 0.029952017167691684
721.0, 0.03440233220784716
722.0, 0.032889614253760316
723.0, 0.035617226712135554
724.0, 0.03812707729012988
725.0, 0.04105582415506008
726.0, 0.049011910287326876
727.0, 0.056177306773771946
728.0, 0.05451831690527357
729.0, 0.05633641012719204
730.0, 0.060716699747729475
731.0, 0.06119360549407823
732.0, 0.06101385959312122
733.0, 0.058759403387877156
734.0, 0.05520785764824095
735.0, 0.06086165603822822
736.0, 0.06023276686121792
737.0, 0.06261733260053762
738.0, 0.06126509652709649
739.0, 0.059895032560738824
740.0, 0.06046989439638268
741.0, 0.05764279695936267
742.0, 0.061497510777209184
743.0, 0.058130371249169574
744.0, 0.055999664523083525
745.0, 0.05373614410531078
746.0, 0.04940703662706747
747.0, 0.04659339076688606
748.0, 0.04896442397240197
749.0, 0.047855635772538575
750.0, 0.045887564507243364
751.0, 0.039182098841985646
752.0, 0.023884935183724497
753.0, 0.013254680651498044
754.0, 0.021437803805738245
755.0, 0.017841153301490782
756.0, 0.021366320049760447
757.0, 0.02245106897850854
758.0, 0.019609075388746556
759.0, 0.01826609989552573
760.0, 0.019372244899613103
761.0, 0.016929068809730944
762.0, 0.015020907030661253
763.0, 0.008091781896710873
764.0, 0.009507198221132275
765.0, 0.012075650836972688
766.0, 0.010498728649472312
767.0, 0.011704220620792724
768.0, 0.0030152151504241687
769.0, 0.005105170496559959
770.0, 0.0011763832279327385
771.0, 0.001638413209796735
772.0, 0.006355743074269206
773.0, 0.006040963713431411
774.0, 0.005997447879265759
775.0, 0.00596875306679244
776.0, 0.005329958986110823
777.0, 0.006665575526647272
778.0, 0.009289140990289739
779.0, 0.007943221872764618
780.0, 0.002012709191895447
781.0, 0.0010388768683269318
782.0, 0.00022929556481037077
783.0, 0.004509775106101467
784.0, 0.005949918433387866
785.0, 0.0012185925661269133
786.0, 0.006608209169348689
787.0, 0.0008676612908197173
788.0, 0.0011029364011684876
789.0, 0.000272391759193024
790.0, 0.0035869711337683215
791.0, 0.0035371248034550646
792.0, 0.00242466938311271
793.0, 0.0032881294108640506
794.0, 0.007877038009851298
795.0, 0.006078155694878062
796.0, 0.008244446388049421
797.0, 0.004810463317349047
798.0, 0.003813903089915776
799.0, 0.005476108208235395
800.0, 0.004448191937209757
801.0, 0.007771482770458051
802.0, 0.005904190608640095
803.0, 0.001094370589761326
804.0, 0.0029517391222564607
805.0, 0.0037565016485640707
806.0, 0.0020766551608230816
807.0, 0.0031905606812309695
808.0, 0.001660347306895139
809.0, 0.002419610713776503
810.0, 0.0011418103467456218
811.0, 0.0010528000532784004
812.0, 0.0003777531891617702
813.0, 0.004191080803227691
814.0, 0.006570172864071762
815.0, 0.004065523868303388
816.0, 0.004921752494450985
817.0, 0.0019133410517857196
818.0, 0.0015529937087932922
819.0, 0.0013026397197273398
820.0, 0.0016849894387411097
821.0, 0.00349660500338182
822.0, 0.006006069379847866
823.0, 0.004947804489152671
824.0, 0.006486023047948232
825.0, 0.0052447975599639145
826.0, 0.007974086692531846
827.0, 0.013156148526549035
828.0, 0.00823862265129276
829.0, 0.012955400440496426
830.0, 0.021810529034711604
831.0, 0.027309477016887244
832.0, 0.02675807186330207
833.0, 0.027206018953507615
834.0, 0.032828069705376973
835.0, 0.03939155366372656
836.0, 0.042548543512023126
837.0, 0.048604731599576144
838.0, 0.05199471895634385
839.0, 0.05219030029457375
840.0, 0.054046201646722934
841.0, 0.06054623328727939
842.0, 0.0668856200424789
843.0, 0.0633961455056633
844.0, 0.0585447949851511
845.0, 0.060140638387551286
846.0, 0.05401420215373337
847.0, 0.04712759980801535
848.0, 0.04581022675796814
849.0, 0.04402701648762584
850.0, 0.04333394711023786
851.0, 0.04060849178930665
852.0, 0.03693219977343375
853.0, 0.035516492720715144
854.0, 0.033637804820789284
855.0, 0.030119521922094057
856.0, 0.027544816248036015
857.0, 0.0258649585133329
858.0, 0.023201795138915477
859.0, 0.02157647791568022
860.0, 0.01721626577653982
861.0, 0.020467918663064067
862.0, 0.02774352007538021
863.0, 0.028679800002001047
864.0, 0.02576586604552844
865.0, 0.022237002154970792
866.0, 0.026587678952363386
867.0, 0.03515734951508268
868.0, 0.03717853884660352
869.0, 0.04129637908424601
870.0, 0.05351070550911863
871.0, 0.06119048709768482
872.0, 0.06692500969940617
873.0, 0.07321656458674228
874.0, 0.08666609854900402
875.0, 0.09861812100261491
876.0, 0.10628749225056512
877.0, 0.11172097479134249
878.0, 0.11655815847953634
879.0, 0.12284997788617259
880.0, 0.12778274730579633
881.0, 0.1288897651461778
882.0, 0.12289620983522159
883.0, 0.11682329479496802
884.0, 0.11294712541185509
885.0, 0.10634031423943104
886.0, 0.09632169246784657
887.0, 0.0899738915095595
888.0, 0.07716388659911265
889.0, 0.06390529145499219
890.0, 0.05590335103303582
891.0, 0.058668030995518955
892.0, 0.0569008614547143
893.0, 0.04001536406822974
894.0, 0.04644472432047426
895.0, 0.03939994913741933
896.0, 0.03272805205176343
897.0, 0.02481395231618994
898.0, 0.022462511133676664
899.0, 0.027359320353719335
900.0, 0.02865742682576856
901.0, 0.019676155320700116
902.0, 0.011688811072550064
903.0, 0.014620252633977471
904.0, 0.019216946768135748
905.0, 0.0178539732473801
906.0, 0.019251257528986446
907.0, 0.02177250230461421
908.0, 0.016500121727873407
909.0, 0.014436775920741827
910.0, 0.02062963117511717
911.0, 0.01399384485224693
912.0, 0.013802662700363464
913.0, 0.017116860814103664
914.0, 0.01344887325753966
915.0, 0.007732584920655746
916.0, 0.008769457054298125
917.0, 0.008505666556038438
918.0, 0.006666085617011286
919.0, 0.007729417534695241
920.0, 0.009198474032797608
921.0, 0.009386949014104232
922.0, 0.010234307567105652
923.0, 0.012301486515858715
924.0, 0.012523387613232536
925.0, 0.01193030720335441
926.0, 0.007477518223688564
927.0, 0.008471014692989652
928.0, 0.0020922099205066447
929.0, 0.0030005916458379603
930.0, 0.011348966777409899
931.0, 0.008579281093566978
932.0, 0.0025264534090628506
933.0, 0.002861328129440379
934.0, 0.006804405025974635
935.0, 0.007402214728055947
936.0, 0.0035721304520646134
937.0, 0.005232127737083053
938.0, 0.009365342933612285
939.0, 0.00811805163532485
940.0, 0.010595007876802696
941.0, 0.008883721292512138
942.0, 0.009852435707102397
943.0, 0.008774916471344629
944.0, 0.0074271818491234345
945.0, 0.010762606482016879
946.0, 0.016850070610028453
947.0, 0.01635351933379599
948.0, 0.005837309945097858
949.0, 0.007385496908953909
950.0, 0.013012118776553769
951.0, 0.010899337845398243
952.0, 0.01403302944041205
953.0, 0.017299707612537688
954.0, 0.014019682928228076
955.0, 0.011934484710664849
956.0, 0.016384340858550683
957.0, 0.016651321534015242
958.0, 0.013476042809014
959.0, 0.01396148723055498
960.0, 0.013706817047879282
961.0, 0.013402650005382393
962.0, 0.009988111718165917
963.0, 0.0052339260663104665
964.0, 0.010423348357535516
965.0, 0.01112129532341354
966.0, 0.01044382312290052
967.0, 0.003995216434651064
968.0, 0.005321238823598648
969.0, 0.0090560053056938
970.0, 0.007908069448746866
971.0, 0.0043269586150185635
972.0, 0.0037051651115330817
973.0, 0.00220561077328716
974.0, 0.005463621589440926
975.0, 0.001544441516846223
976.0, 0.0028786249960588524
977.0, 0.0017521180744205578
978.0, 0.0023225184850574313
979.0, 0.0038939724013771766
980.0, 0.0030449459807241883
981.0, 0.004557887085246877
982.0, 0.002762470726207447
983.0, 0.004419080137983443
984.0, 0.001928501556236121
985.0, 0.0010322835670638839
986.0, 0.0008826951187121085
987.0, 0.0033920928258733035
988.0, 0.0007733515774541809
989.0, 0.002835401066464702
990.0, 0.001133855211793964
991.0, 0.003357200001627125
992.0, 0.0009259176014485288
993.0, 0.0011169804023997893
994.0, 0.000630532007807875
995.0, 0.0022030806983032135
996.0, 0.0009545931464756744
997.0, 0.002362125279973711
998.0, 0.0014436516328746364
999.0, 0.002573233916872038
1000.0, 0.0011688244632751272
1001.0, 0.0014481628407360225
1002.0, 0.006791970200732478
1003.0, 0.009485162260695684
1004.0, 0.003804080482756255
1005.0, 0.00521370671508491
1006.0, 0.008143033732808674
1007.0, 0.0038162996327603875
1008.0, 0.0077459338076003095
1009.0, 0.007672841480839624
1010.0, 0.00930156964726381
1011.0, 0.010203847701038589
1012.0, 0.0074378532117653695
1013.0, 0.005275439346298067
1014.0, 0.007846528032551717
1015.0, 0.00899237721627494
1016.0, 0.0031396591395485857
1017.0, 0.0024474561878142947
1018.0, 0.0020197576424562584
1019.0, 0.002690474539299347
1020.0, 0.009199883494655269
1021.0, 0.008395755480694104
1022.0, 0.0031004682290026826
1023.0, 0.008336547962205504
1024.0, 0.004441424949229755
1025.0, 0.00687461746692315
1026.0, 0.006729646593175317
1027.0, 0.0009628726368159191
1028.0, 0.005647194706606189
1029.0, 0.008329274353081326
1030.0, 0.003518650519445294
1031.0, 0.004053155893031967
1032.0, 0.006257130867696683
1033.0, 0.010111239801977707
1034.0, 0.0051594074818384714
1035.0, 0.009752989982822055
1036.0, 0.0028331210212697044
1037.0, 0.0024212718567527096
1038.0, 0.007867387356865497
1039.0, 0.009260240920940882
1040.0, 0.008011156805745885
1041.0, 0.009631985341244704
1042.0, 0.007531030681094196
1043.0, 0.006034413614514242
1044.0, 0.005703370169077241
1045.0, 0.007098114398390366
1046.0, 0.00765757944598563
1047.0, 0.005862347530088564
1048.0, 0.004884154948645979
1049.0, 0.007943685965264779
1050.0, 0.011264204775489384
1051.0, 0.005520454197718889
1052.0, 0.004376596216514951
1053.0, 0.006901851311678968
1054.0, 0.008161755923234922
1055.0, 0.00222188396440546
1056.0, 0.003223323307139877
1057.0, 0.005549369966254492
1058.0, 0.004364826320691689
1059.0, 0.006311522651461928
1060.0, 0.005916852977616705
1061.0, 0.010921373652124968
1062.0, 0.010727742033255558
1063.0, 0.005699393112346994
1064.0, 0.008628120547736927
1065.0, 0.006220010136998433
1066.0, 0.004647008295979487
1067.0, 0.007078921687567419
1068.0, 0.006833509095289625
1069.0, 0.00757965980017694
1070.0, 0.008757507681181777
1071.0, 0.002324087034925147
1072.0, 0.006133387550888893
1073.0, 0.009364716118215854
1074.0, 0.006655242810600652
1075.0, 0.0029839423410234264
1076.0, 0.007296588185968862
1077.0, 0.011889054337493887
1078.0, 0.006239506615984446
1079.0, 0.003978381885315524
1080.0, 0.00705987694840579
1081.0, 0.011822366398039318
1082.0, 0.009052411153714385
1083.0, 0.005102626137897306
1084.0, 0.00869144735356664
1085.0, 0.016590679858357195
1086.0, 0.018283937174823586
1087.0, 0.01347479461406611
1088.0, 0.011279202079792548
1089.0, 0.009751364360876856
1090.0, 0.008605751628773113
1091.0, 0.01208850792912492
1092.0, 0.01459356270329608
1093.0, 0.0061379753425582035
1094.0, 0.004730191676567303
1095.0, 0.006651023071633451
1096.0, 0.005526243829117879
1097.0, 0.005802710158838149
1098.0, 0.005399738959111542
1099.0, 0.0036358239984535367
1100.0, 0.004514109192307692
1101.0, 0.005651682683684996
1102.0, 0.008713068299683642
1103.0, 0.005604863793219754
1104.0, 0.008820213766666392
1105.0, 0.004654296631902329
1106.0, 0.0008506063071255661
1107.0, 0.008581121216284524
1108.0, 0.0030121809002930907
1109.0, 0.0055743506192208496
1110.0, 0.00820610304024749
1111.0, 0.005711775496698194
1112.0, 0.0035057286997554
1113.0, 0.0008145726989056684
1114.0, 0.0049440320254990795
1115.0, 0.006418088688512565
1116.0, 0.004665341910008385
1117.0, 0.005425634112266485
1118.0, 0.0030605371636027406
1119.0, 0.004064211698257788
1120.0, 0.0028527682649128134
1121.0, 0.0006879449655322551
1122.0, 0.008009815185483509
1123.0, 0.010356692787558396
1124.0, 0.002838668380031789
1125.0, 0.002038320286973389
1126.0, 0.01031440709361973
1127.0, 0.01025286834178447
1128.0, 0.003424752179718527
1129.0, 0.002592207751765944
1130.0, 0.0014034034398039993
1131.0, 0.003035653249118815
1132.0, 0.002239343003700619
1133.0, 0.009356151353587616
1134.0, 0.01276948796862693
1135.0, 0.008144191542927184
1136.0, 0.007257672929048906
1137.0, 0.012339948596266703
1138.0, 0.012946135885868564
1139.0, 0.009252489441982361
1140.0, 0.008396088971677373
1141.0, 0.011201205069908172
1142.0, 0.003443651625072314
1143.0, 0.0007923805808349323
1144.0, 0.006564729411985855
1145.0, 0.006844774359495658
1146.0, 0.00568480370743178
1147.0, 0.006050280542732216
1148.0, 0.00460292902564196
1149.0, 0.004555985993468034
1150.0, 0.006095364178413615
1151.0, 0.0015261596155055914
1152.0, 0.009241121710081342
1153.0, 0.0024413408942219467
1154.0, 0.008495405559771458
1155.0, 0.01094109779034196
1156.0, 0.0102667108332887
1157.0, 0.010753442112870049
1158.0, 0.011228521456223172
1159.0, 0.009909358036484524
1160.0, 0.00859319939757174
1161.0, 0.01377382116035271
1162.0, 0.011651289097829552
1163.0, 0.01618332168713629
1164.0, 0.005564865426849254
1165.0, 0.009411728154812986
1166.0, 0.01332480990463864
1167.0, 0.011450569504089214
1168.0, 0.004776514634402633
1169.0, 0.006607640447160621
1170.0, 0.011323347472605548
1171.0, 0.006227298858240852
1172.0, 0.012323584581332536
1173.0, 0.010084255410379696
1174.0, 0.00784811691289232
1175.0, 0.008754098413206747
1176.0, 0.009647131097491712
1177.0, 0.009539234478742293
1178.0, 0.007551605801080898
1179.0, 0.007416425020852924
1180.0, 0.006012118843337274
1181.0, 0.0036342048379819766
1182.0, 0.005780915233208374
1183.0, 0.009985560510214521
1184.0, 0.013045814435639656
1185.0, 0.003515978462639089
1186.0, 0.0043672048579246345
1187.0, 0.009133246208241531
1188.0, 0.004098441096542008
1189.0, 0.005020959937652781
1190.0, 0.0016179245932368153
1191.0, 0.0023453702118221126
1192.0, 0.0008912074307195213
1193.0, 0.0005470422005673242
1194.0, 0.0018519051270443948
1195.0, 0.0010898407943650888
1196.0, 0.0005530661578472027
1197.0, 0.000681864150074677
1198.0, 0.0064375162726304945
1199.0, 0.010378823760774952
1200.0, 0.00681965877799663
1201.0, 0.0074685348811219954
1202.0, 0.009452318908265221
1203.0, 0.008464259434979287
1204.0, 0.008595976541286672
1205.0, 0.007559308313571442
1206.0, 0.000504622932964761
1207.0, 0.00014953363097476962
1208.0, 0.003039736593465235
1209.0, 0.014306847292022857
1210.0, 0.011092625529893756
1211.0, 0.00555687810688622
1212.0, 0.008006899189888388
1213.0, 0.008749341450433932
1214.0, 0.00945682422199147
1215.0, 0.00796707770147968
1216.0, 0.006237801785805216
1217.0, 0.009383995073240302
1218.0, 0.012019566068969919
1219.0, 0.009945125891040268
1220.0, 0.007396798726702286
1221.0, 0.005219513161952585
1222.0, 0.0035837755417330386
1223.0, 0.008539503773212938
1224.0, 0.007616895800378934
1225.0, 0.004261584376966996
1226.0, 0.00838930764458382
1227.0, 0.00990235786281903
1228.0, 0.005765266984275998
1229.0, 0.00263957896254221
1230.0, 0.0021693629600495956
1231.0, 0.0029733070439387304
1232.0, 0.0013721414049945569
1233.0, 0.005877021017935235
1234.0, 0.008010032423921861
1235.0, 0.0033758389766504943
1236.0, 0.009351432400141538
1237.0, 0.008853568241175783
1238.0, 0.00443648761807099
1239.0, 0.0041785306019732175
1240.0, 0.00196791894796347
1241.0, 0.007359195439384505
1242.0, 0.015272991804768123
1243.0, 0.006279869772874683
1244.0, 0.004954377755511493
1245.0, 0.009410815858364905
1246.0, 0.0014524865412998524
1247.0, 0.0022608094658616504
1248.0, 0.00121417536908157
1249.0, 0.0033418486499091115
1250.0, 0.005882486134791275
1251.0, 0.006342909403328253
1252.0, 0.0018483427629061465
1253.0, 0.0020793361556554393
1254.0, 0.006407041458475476
1255.0, 0.005503336714614898
1256.0, 0.003123685991289516
1257.0, 0.0041294060710923616
1258.0, 0.0016756199229927492
1259.0, 3.6240881822978325e-05
1260.0, 0.0003353525074396877
1261, 0.0
1262, 0.0
1263, 0.0
1264, 0.0
1265, 0.0
1266, 0.0
1267, 0.0
1268, 0.0
1269, 0.0
1270, 0.0
1271, 0.0
1272, 0.0
1273, 0.0
1274, 0.0
1275, 0.0
1276, 0.0
1277, 0.0
1278, 0.0
1279, 0.0
1280, 0.0
1281, 0.0
1282, 0.0
1283, 0.0
1284, 0.0
1285, 0.0
1286, 0.0
1287, 0.0
1288, 0.0
1289, 0.0
1290, 0.0
1291, 0.0
1292, 0.0
1293, 0.0
1294, 0.0
1295, 0.0
1296, 0.0
1297, 0.0
1298, 0.0
1299, 0.0
1300, 0.0
1301, 0.0
1302, 0.0
1303, 0.0
1304, 0.0
1305, 0.0
1306, 0.0
1307, 0.0
1308, 0.0
1309, 0.0
1310, 0.0
1311, 0.0
1312, 0.0
1313, 0.0
1314, 0.0
1315, 0.0
1316, 0.0
1317, 0.0
1318, 0.0
1319, 0.0
1320, 0.0
1321, 0.0
1322, 0.0
1323, 0.0
1324, 0.0
1325, 0.0
1326, 0.0
1327, 0.0
1328, 0.0
1329, 0.0
1330, 0.0
1331, 0.0
1332, 0.0
1333, 0.0
1334, 0.0
1335, 0.0
1336, 0.0
1337, 0.0
1338, 0.0
1339, 0.0
1340, 0.0
1341, 0.0
1342, 0.0
1343, 0.0
1344, 0.0
1345, 0.0
1346, 0.0
1347, 0.0
1348, 0.0
1349, 0.0
1350, 0.0
1351, 0.0
1352, 0.0
1353, 0.0
1354, 0.0
1355, 0.0
1356, 0.0
1357, 0.0
1358, 0.0
1359, 0.0
1360, 0.0
1361, 0.0
1362, 0.0
1363, 0.0
1364, 0.0
1365, 0.0
1366, 0.0
1367, 0.0
1368, 0.0
1369, 0.0
1370, 0.0
1371, 0.0
1372, 0.0
1373, 0.0
1374, 0.0
1375, 0.0
1376, 0.0
1377, 0.0
1378, 0.0
1379, 0.0
1380, 0.0
1381, 0.0
1382, 0.0
1383, 0.0
1384, 0.0
1385, 0.0
1386, 0.0
1387, 0.0
1388, 0.0
1389, 0.0
1390, 0.0
1391, 0.0
1392, 0.0
1393, 0.0
1394, 0.0
1395, 0.0
1396, 0.0
1397, 0.0
1398, 0.0
1399, 0.0
1400, 0.0
1401, 0.0
1402, 0.0
1403, 0.0
1404, 0.0
1405, 0.0
1406, 0.0
1407, 0.0
1408, 0.0
1409, 0.0
1410, 0.0
1411, 0.0
1412, 0.0
1413, 0.0
1414, 0.0
1415, 0.0
1416, 0.0
1417, 0.0
1418, 0.0
1419, 0.0
1420, 0.0
1421, 0.0
1422, 0.0
1423, 0.0
1424, 0.0
1425, 0.0
1426, 0.0
1427, 0.0
1428, 0.0
1429, 0.0
1430, 0.0
1431, 0.0
1432, 0.0
1433, 0.0
1434, 0.0
1435, 0.0
1436, 0.0
1437, 0.0
1438, 0.0
1439, 0.0
1440, 0.0
1441, 0.0
1442, 0.0
1443, 0.0
1444, 0.0
1445, 0.0
1446, 0.0
1447, 0.0
1448, 0.0
1449, 0.0
1450, 0.0
1451, 0.0
1452, 0.0
1453, 0.0
1454, 0.0
1455, 0.0
1456, 0.0
1457, 0.0
1458, 0.0
1459, 0.0
1460, 0.0
1461, 0.0
1462, 0.0
1463, 0.0
1464, 0.0
1465, 0.0
1466, 0.0
1467, 0.0
1468, 0.0
1469, 0.0
1470, 0.0
1471, 0.0
1472, 0.0
1473, 0.0
1474, 0.0
1475, 0.0
1476, 0.0
1477, 0.0
1478, 0.0
1479, 0.0
1480, 0.0
1481, 0.0
1482, 0.0
1483, 0.0
1484, 0.0
1485, 0.0
1486, 0.0
1487, 0.0
1488, 0.0
1489, 0.0
1490, 0.0
1491, 0.0
1492, 0.0
1493, 0.0
1494, 0.0
1495, 0.0
1496, 0.0
1497, 0.0
1498, 0.0
1499, 0.0
1500, 0.0
1501, 0.0
1502, 0.0
1503, 0.0
1504, 0.0
1505, 0.0
1506, 0.0
1507, 0.0
1508, 0.0
1509, 0.0
1510, 0.0
1511, 0.0
1512, 0.0
1513, 0.0
1514, 0.0
1515, 0.0
1516, 0.0
1517, 0.0
1518, 0.0
1519, 0.0
1520, 0.0
1521, 0.0
1522, 0.0
1523, 0.0
1524, 0.0
1525, 0.0
1526, 0.0
1527, 0.0
1528, 0.0
1529, 0.0
1530, 0.0
1531, 0.0
1532, 0.0
1533, 0.0
1534, 0.0
1535, 0.0
1536, 0.0
1537, 0.0
1538, 0.0
1539, 0.0
1540, 0.0
1541, 0.0
1542, 0.0
1543, 0.0
1544, 0.0
1545, 0.0
1546, 0.0
1547, 0.0
1548, 0.0
1549, 0.0
1550, 0.0
1551, 0.0
1552, 0.0
1553, 0.0
1554, 0.0
1555, 0.0
1556, 0.0
1557, 0.0
1558, 0.0
1559, 0.0
1560, 0.0
1561, 0.0
1562, 0.0
1563, 0.0
1564, 0.0
1565, 0.0
1566, 0.0
1567, 0.0
1568, 0.0
1569, 0.0
1570, 0.0
1571, 0.0
1572, 0.0
1573, 0.0
1574, 0.0
1575, 0.0
1576, 0.0
1577, 0.0
1578, 0.0
1579, 0.0
1580, 0.0
1581, 0.0
1582, 0.0
1583, 0.0
1584, 0.0
1585, 0.0
1586, 0.0
1587, 0.0
1588, 0.0
1589, 0.0
1590, 0.0
1591, 0.0
1592, 0.0
1593, 0.0
1594, 0.0
1595, 0.0
1596, 0.0
1597, 0.0
1598, 0.0
1599, 0.0
