30, 0.0
31, 0.0
32, 0.0
33, 0.0
34, 0.0
35, 0.0
36, 0.0
37, 0.0
38, 0.0
39, 0.0
40, 0.0
41, 0.0
42, 0.0
43, 0.0
44, 0.0
45, 0.0
46, 0.0
47, 0.0
48, 0.0
49, 0.0
50, 0.0
51, 0.0
52, 0.0
53, 0.0
54, 0.0
55, 0.0
56, 0.0
57, 0.0
58, 0.0
59, 0.0
60, 0.0
61, 0.0
62, 0.0
63, 0.0
64, 0.0
65, 0.0
66, 0.0
67, 0.0
68, 0.0
69, 0.0
70, 0.0
71, 0.0
72, 0.0
73, 0.0
74, 0.0
75, 0.0
76, 0.0
77, 0.0
78, 0.0
79, 0.0
80, 0.0
81, 0.0
82, 0.0
83, 0.0
84, 0.0
85, 0.0
86, 0.0
87, 0.0
88, 0.0
89, 0.0
90, 0.0
91, 0.0
92, 0.0
93, 0.0
94, 0.0
95, 0.0
96, 0.0
97, 0.0
98, 0.0
99, 0.0
100, 0.0
101, 0.0
102, 0.0
103, 0.0
104, 0.0
105, 0.0
106, 0.0
107, 0.0
108, 0.0
109, 0.0
110, 0.0
111, 0.0
112, 0.0
113, 0.0
114, 0.0
115, 0.0
116, 0.0
117, 0.0
118, 0.0
119, 0.0
120, 0.0
121, 0.0
122, 0.0
123, 0.0
124, 0.0
125, 0.0
126, 0.0
127, 0.0
128, 0.0
129, 0.0
130.0, 0.0004528065173157417
131.0, 0.001757724434652142
132.0, 0.0015278725171359994
133.0, 0.0022308717803953804
134.0, 0.003151337083033721
135.0, 0.001580356572484027
136.0, 0.0029094482345376487
137.0, 0.0029980832421381987
138.0, 0.00014799653018802267
139.0, 0.002292243013580746
140.0, 0.0019487925748710284
141.0, 0.001079807609753778
142.0, 0.003362200718364353
143.0, 0.0014571690019978148
144.0, 0.000481212836367874
145.0, 0.0015490686569881327
146.0, 0.003632403356835576
147.0, 0.00658335681624028
148.0, 0.008991535500388165
149.0, 0.009196120932903703
150.0, 0.006156253760626797
151.0, 0.006247944983552809
152.0, 0.008779000625331004
153.0, 0.007192602784699714
154.0, 0.011748542724759465
155.0, 0.015816814953297467
156.0, 0.01556881193268465
157.0, 0.015374941735353604
158.0, 0.01786695486094211
159.0, 0.020907397351032992
160.0, 0.01919315998226815
161.0, 0.019856894049724808
162.0, 0.02300629354144613
163.0, 0.028258088464665033
164.0, 0.026670573208412034
165.0, 0.02592757186166197
166.0, 0.02619129255087129
167.0, 0.027922246996668062
168.0, 0.029685801239852226
169.0, 0.028302444780113446
170.0, 0.024698660008887468
171.0, 0.025317069305728447
172.0, 0.02871261354342272
173.0, 0.03196737364739234
174.0, 0.03345486741743407
175.0, 0.030155008504981425
176.0, 0.030257225284885756
177.0, 0.031883719013562614
178.0, 0.03100812295784744
179.0, 0.03459157167982578
180.0, 0.036967512817165815
181.0, 0.03735690980923251
182.0, 0.042630736390979175
183.0, 0.04395441687508229
184.0, 0.043566304041149306
185.0, 0.043189912500288544
186.0, 0.04814427671097019
187.0, 0.05077864367597251
188.0, 0.05011908394265667
189.0, 0.04410542809314194
190.0, 0.048091095295448145
191.0, 0.0513373259731644
192.0, 0.049957499503478026
193.0, 0.052526399874912484
194.0, 0.05111960641537802
195.0, 0.04961957340855154
196.0, 0.053445596103591404
197.0, 0.05656064989929983
198.0, 0.05792311699729654
199.0, 0.05783460053332798
200.0, 0.05846240936559337
201.0, 0.062192114277738415
202.0, 0.06350159127711695
203.0, 0.05929350960062138
204.0, 0.059969144139323007
205.0, 0.05836445615294418
206.0, 0.05649298707302422
207.0, 0.05797926517284033
208.0, 0.06067629852261993
209.0, 0.06345213421914778
210.0, 0.06632410504662122
211.0, 0.07072897802308678
212.0, 0.07694560999364698
213.0, 0.08188592763630023
214.0, 0.08344909041038807
215.0, 0.09023632532473332
216.0, 0.0958548784534642
217.0, 0.10010729755611936
218.0, 0.1024888422750759
219.0, 0.1045194439014739
220.0, 0.10767627736007016
221.0, 0.11258516645595307
222.0, 0.1214988397473892
223.0, 0.12772460283937104
224.0, 0.12990563144662287
225.0, 0.1265890494717339
226.0, 0.12287761237182562
227.0, 0.11990649624516875
228.0, 0.11626490270550821
229.0, 0.10887997745379252
230.0, 0.10923123904602888
231.0, 0.10704885862865071
232.0, 0.10113073172390986
233.0, 0.09702233883235781
234.0, 0.086561815948277
235.0, 0.07974480737424813
236.0, 0.08299816833531463
237.0, 0.08259850740983765
238.0, 0.07607212423490968
239.0, 0.06892801195501512
240.0, 0.07097083329843892
241.0, 0.07086577084117386
242.0, 0.07315889277596838
243.0, 0.076309124234164
244.0, 0.0681498676482174
245.0, 0.06592072529204894
246.0, 0.06970698774427782
247.0, 0.07950280537762626
248.0, 0.06769074124179107
249.0, 0.07184942122328702
250.0, 0.08117395099767633
251.0, 0.08166875651660822
252.0, 0.08069391585871247
253.0, 0.08135071562752069
254.0, 0.08387830998832799
255.0, 0.0881194007403975
256.0, 0.08910135719255309
257.0, 0.09005317683007368
258.0, 0.09210022757944097
259.0, 0.09499573355152177
260.0, 0.09405317440519753
261.0, 0.09299659567762988
262.0, 0.09528153002621848
263.0, 0.0924913383200031
264.0, 0.09018716122672311
265.0, 0.08893315282123238
266.0, 0.08960852003975077
267.0, 0.08679829066838882
268.0, 0.08337424459932695
269.0, 0.08009278775022145
270.0, 0.07789803340122449
271.0, 0.07600998099894216
272.0, 0.07406884725253764
273.0, 0.0718908281721041
274.0, 0.07092612082124407
275.0, 0.06889825348672422
276.0, 0.06617491337126905
277.0, 0.06315625116475637
278.0, 0.06652311932054174
279.0, 0.06687681596717356
280.0, 0.06464341312196326
281.0, 0.06408644338867532
282.0, 0.06789503100984812
283.0, 0.06729105623657441
284.0, 0.06116048085088967
285.0, 0.06553201743274667
286.0, 0.07317073002065363
287.0, 0.07838789442138841
288.0, 0.07700654210580679
289.0, 0.08705481749260464
290.0, 0.08968370535920173
291.0, 0.09072146504300274
292.0, 0.09961550375971055
293.0, 0.09924714223359453
294.0, 0.10478960149146498
295.0, 0.11578157222765048
296.0, 0.12439861410105696
297.0, 0.12200116084432477
298.0, 0.12386431808614919
299.0, 0.13360881927235926
300.0, 0.13770884381304133
301.0, 0.15015492182292942
302.0, 0.1599913347853642
303.0, 0.15954842557472748
304.0, 0.16861872694267388
305.0, 0.18085970154256947
306.0, 0.19124195179130737
307.0, 0.19202298226602776
308.0, 0.20343706488156388
309.0, 0.2101536106754255
310.0, 0.21432718794798403
311.0, 0.22718190827026347
312.0, 0.23832159644456472
313.0, 0.2502877560808188
314.0, 0.2633431001954462
315.0, 0.2745723115141632
316.0, 0.2789940382922336
317.0, 0.2805165375437185
318.0, 0.2813076998275194
319.0, 0.2905023945174946
320.0, 0.2913822649968278
321.0, 0.291176245049742
322.0, 0.2974946085201731
323.0, 0.2920082219568079
324.0, 0.2876746574250656
325.0, 0.28266221321283386
326.0, 0.27165750483550355
327.0, 0.26899647014827754
328.0, 0.2606256915287649
329.0, 0.24738671895735456
330.0, 0.24176489739554086
331.0, 0.23414977894460526
332.0, 0.22531171209235132
333.0, 0.21519029067759898
334.0, 0.20131198614525678
335.0, 0.1901627891383298
336.0, 0.1807860565174117
337.0, 0.17273247150112406
338.0, 0.166299385569686
339.0, 0.15932021921531053
340.0, 0.15371507627779213
341.0, 0.15183812369572477
342.0, 0.14052505315123975
343.0, 0.14226631919874622
344.0, 0.14706923614794448
345.0, 0.13238128091627582
346.0, 0.1341499912435667
347.0, 0.1339199235249949
348.0, 0.12998751170822792
349.0, 0.12605506148962803
350.0, 0.1272177336576743
351.0, 0.12661198601796003
352.0, 0.1232072447163047
353.0, 0.12398680150076852
354.0, 0.12611130409699736
355.0, 0.12756262847489988
356.0, 0.12746074012602035
357.0, 0.12894708346488198
358.0, 0.13276656162789885
359.0, 0.1364812705442806
360.0, 0.13804331871242115
361.0, 0.14100403505060236
362.0, 0.14487558667309416
363.0, 0.14879230625917278
364.0, 0.1515459037726454
365.0, 0.15604330175597558
366.0, 0.15820557915646077
367.0, 0.1602218537952863
368.0, 0.16772039433219343
369.0, 0.16802956819078785
370.0, 0.168739411580268
371.0, 0.17099887118014598
372.0, 0.17457796817463928
373.0, 0.17649863256335077
374.0, 0.17964918329368454
375.0, 0.18440209625265236
376.0, 0.18799563847995882
377.0, 0.19206980000717275
378.0, 0.19722750691461452
379.0, 0.20366751349124218
380.0, 0.21001238621228172
381.0, 0.21700606723607715
382.0, 0.22480446104899826
383.0, 0.23339831503618994
384.0, 0.236323737521743
385.0, 0.24408773966610975
386.0, 0.2548580435477655
387.0, 0.26702723905003706
388.0, 0.2707640140697798
389.0, 0.27560102053700913
390.0, 0.28264072091212106
391.0, 0.2933564373191099
392.0, 0.3000356546109305
393.0, 0.30703521944803214
394.0, 0.3139716356859198
395.0, 0.31931990470461336
396.0, 0.3286395992077447
397.0, 0.3328236632345992
398.0, 0.3338242003162853
399.0, 0.3411904293976413
400.0, 0.3436434570860808
401.0, 0.34835712175999806
402.0, 0.355898071538975
403.0, 0.3620264368270913
404.0, 0.3701539671818077
405.0, 0.3770003288839652
406.0, 0.3819362571286452
407.0, 0.3876097892481763
408.0, 0.4000600809264599
409.0, 0.4107327550167156
410.0, 0.41721120538170664
411.0, 0.43247346292065114
412.0, 0.4366430329987478
413.0, 0.4436469520751867
414.0, 0.4602213389613787
415.0, 0.46214100329963526
416.0, 0.4643546309322733
417.0, 0.4724349872795323
418.0, 0.4902188472940646
419.0, 0.48629410655198746
420.0, 0.4854671126128817
421.0, 0.48432899768073934
422.0, 0.47956390690439654
423.0, 0.4681898551112729
424.0, 0.46429452009099376
425.0, 0.4608653889756625
426.0, 0.4489887069321321
427.0, 0.43309474415547106
428.0, 0.4206582148812164
429.0, 0.40755586698151264
430.0, 0.3868992198148039
431.0, 0.379911896124276
432.0, 0.3649407002516186
433.0, 0.34638785252284193
434.0, 0.33532940670323363
435.0, 0.321602688344465
436.0, 0.3047458707649729
437.0, 0.2870738641863582
438.0, 0.2739196259069372
439.0, 0.25926702235443294
440.0, 0.24442646074859
441.0, 0.22932242356811908
442.0, 0.21322392775698487
443.0, 0.20403390968097468
444.0, 0.19388723475511768
445.0, 0.18172261447356655
446.0, 0.16853943069321772
447.0, 0.1621266787058878
448.0, 0.15561189794339772
449.0, 0.14714532415397755
450.0, 0.13521447477566192
451.0, 0.13271277319091399
452.0, 0.12439528804240547
453.0, 0.11038001655064447
454.0, 0.10765636856141514
455.0, 0.10355668150229051
456.0, 0.10016403748457828
457.0, 0.09759428305831058
458.0, 0.09348211275227726
459.0, 0.09770000991228057
460.0, 0.0945837721625806
461.0, 0.08212155944326441
462.0, 0.07729254876109604
463.0, 0.07380365643157172
464.0, 0.0752889188393851
465.0, 0.08054705967923156
466.0, 0.07403819600603068
467.0, 0.0791056010819633
468.0, 0.08178376546722718
469.0, 0.0777404960006709
470.0, 0.07332859424333762
471.0, 0.07777142484750371
472.0, 0.08038779718544817
473.0, 0.07914318777287611
474.0, 0.08984773333698783
475.0, 0.09338104755408323
476.0, 0.09725935142183577
477.0, 0.10332385755117446
478.0, 0.10226356443467774
479.0, 0.10672606091824528
480.0, 0.10967225813857916
481.0, 0.10900924685418577
482.0, 0.11172840818508975
483.0, 0.11704649857225816
484.0, 0.11629825120064899
485.0, 0.10815463206875119
486.0, 0.11129308160892247
487.0, 0.11345617511796505
488.0, 0.11199216595371762
489.0, 0.10670223662819937
490.0, 0.10478733914455067
491.0, 0.10515840900031184
492.0, 0.10394558552538388
493.0, 0.09997002039227762
494.0, 0.09636719401399935
495.0, 0.08848888349793897
496.0, 0.08432263281778207
497.0, 0.08465018435747027
498.0, 0.07345653625122767
499.0, 0.07121460629000263
500.0, 0.06947210074053427
501.0, 0.06543528010898189
502.0, 0.061399821532049786
503.0, 0.05635514946594767
504.0, 0.051441665827803566
505.0, 0.04688101605458491
506.0, 0.04169553943940736
507.0, 0.03950263965839953
508.0, 0.03595996054863535
509.0, 0.030057577919334402
510.0, 0.023685875371763625
511.0, 0.021247693290008977
512.0, 0.02011722647468784
513.0, 0.01914786135720702
514.0, 0.01665133013869183
515.0, 0.014525953047701544
516.0, 0.012347673480496663
517.0, 0.00988058883081259
518.0, 0.006650427083555048
519.0, 0.004358044891419067
520.0, 0.0025100961817975907
521.0, 0.0017178750862097134
522.0, 0.004273423190426385
523.0, 0.00493089516030715
524.0, 0.006801239211121927
525.0, 0.009029836765117948
526.0, 0.007800538305646605
527.0, 0.008300700426447477
528.0, 0.005694520780219328
529.0, 0.003941776742857691
530.0, 0.013643367873999956
531.0, 0.013571835136230177
532.0, 0.00974738775352472
533.0, 0.007241633157256049
534.0, 0.01431013293324124
535.0, 0.013625685033772112
536.0, 0.011013102253250728
537.0, 0.009187729840715314
538.0, 0.01162833243686037
539.0, 0.01197385313225827
540.0, 0.010169067385595353
541.0, 0.007820196467138388
542.0, 0.0069427541653447455
543.0, 0.007071881159015356
544.0, 0.008173726424744385
545.0, 0.009201205796074639
546.0, 0.009130214477609935
547.0, 0.01065608138831258
548.0, 0.010933198916520724
549.0, 0.011457204256295268
550.0, 0.01318048695932102
551.0, 0.010454358428831599
552.0, 0.00721304220690862
553.0, 0.005146076920067926
554.0, 0.004995281371685289
555.0, 0.0030104562831372
556.0, 0.0030797463615409603
557.0, 0.0035060327476638346
558.0, 0.0038104598243248987
559.0, 0.006385553780960503
560.0, 0.008646539679463086
561.0, 0.010145894811286237
562.0, 0.011455143745319852
563.0, 0.01608992230915383
564.0, 0.02367710025725761
565.0, 0.0319454746350094
566.0, 0.040235589586068043
567.0, 0.04835141773098857
568.0, 0.05626436563650966
569.0, 0.06449179890875711
570.0, 0.07250015761646338
571.0, 0.07878785638898342
572.0, 0.08776970817802965
573.0, 0.09502751801319045
574.0, 0.10157343753892897
575.0, 0.10998729487926724
576.0, 0.11071090828028801
577.0, 0.11507075727505264
578.0, 0.12204343361234953
579.0, 0.12959463293001997
580.0, 0.12571882027845574
581.0, 0.1220705679074551
582.0, 0.12223468959548557
583.0, 0.12877382249764377
584.0, 0.13164462703545937
585.0, 0.12464115899611902
586.0, 0.11995512438821818
587.0, 0.12390846118807419
588.0, 0.1259218140649881
589.0, 0.1239787365414707
590.0, 0.12263119229734283
591.0, 0.12348376567971243
592.0, 0.12506667784174988
593.0, 0.12910899407283125
594.0, 0.1280325437890593
595.0, 0.12192532976229563
596.0, 0.11753342323609671
597.0, 0.11725831447470862
598.0, 0.1194716891260921
599.0, 0.12075548934161127
600.0, 0.11465204166882483
601.0, 0.12127095676470522
602.0, 0.12169749793740656
603.0, 0.11865974273534881
604.0, 0.11777767134025227
605.0, 0.1189028328286802
606.0, 0.11889158607696779
607.0, 0.11916232224907906
608.0, 0.12072594487424892
609.0, 0.11844603699746101
610.0, 0.1193289695826178
611.0, 0.12026787417264719
612.0, 0.11984447811110484
613.0, 0.1205533890616984
614.0, 0.11616953337297413
615.0, 0.11422723075079783
616.0, 0.11695492345482471
617.0, 0.12278180179652654
618.0, 0.11214727347603107
619.0, 0.11206237646169939
620.0, 0.1198389412990091
621.0, 0.11721916913700234
622.0, 0.11370808066008735
623.0, 0.11012305159915721
624.0, 0.11000197047025351
625.0, 0.11796126025159132
626.0, 0.11407326131919449
627.0, 0.1115014282557157
628.0, 0.11134903550088919
629.0, 0.11380483727879918
630.0, 0.11020648862429774
631.0, 0.1075682764546635
632.0, 0.1086246249478363
633.0, 0.11232290132616098
634.0, 0.1044471766148275
635.0, 0.10392939064678354
636.0, 0.10701212587697011
637.0, 0.10993318036387557
638.0, 0.10463154662591218
639.0, 0.1073474070106717
640.0, 0.11004957012992371
641.0, 0.1101592884816795
642.0, 0.10529253514124028
643.0, 0.10580088647797496
644.0, 0.10368836099667683
645.0, 0.10414740783481871
646.0, 0.11158688520284316
647.0, 0.10628621447340841
648.0, 0.10539043066467399
649.0, 0.10535738907698228
650.0, 0.10439122470013373
651.0, 0.1038011289236903
652.0, 0.10530266128715284
653.0, 0.10293977578125238
654.0, 0.09873869058417839
655.0, 0.10415465583979641
656.0, 0.10381100728365589
657.0, 0.10758069841712077
658.0, 0.10877717819208807
659.0, 0.09486549444190256
660.0, 0.09771821595624232
661.0, 0.09838703250161338
662.0, 0.09793965446449635
663.0, 0.09781610024126045
664.0, 0.09849811603321941
665.0, 0.09950383402701926
666.0, 0.09906209738972542
667.0, 0.09718728390826002
668.0, 0.09795897292661464
669.0, 0.09777780968339347
670.0, 0.09732472944620002
671.0, 0.0968724987808165
672.0, 0.09668602733723725
673.0, 0.09609064115668198
674.0, 0.09491519671623205
675.0, 0.09326261854543509
676.0, 0.09134311709245212
677.0, 0.09154402039801768
678.0, 0.08906215055351385
679.0, 0.08763918955282374
680.0, 0.08852095054671591
681.0, 0.08441636893103582
682.0, 0.07979284263719241
683.0, 0.08057774819869447
684.0, 0.08505071020179485
685.0, 0.08334105349538755
686.0, 0.07684735511515367
687.0, 0.08097174797733514
688.0, 0.08500235967216917
689.0, 0.07231997957273137
690.0, 0.0720354430986733
691.0, 0.07203608583388948
692.0, 0.07080049320058115
693.0, 0.06840506629701992
694.0, 0.07356662523129433
695.0, 0.06752889480619709
696.0, 0.06326393575294102
697.0, 0.0645851295862753
698.0, 0.0701911351024692
699.0, 0.06532351531803375
700.0, 0.06244441786602534
701.0, 0.06250201998714518
702.0, 0.06452295473266077
703.0, 0.053222550835846955
704.0, 0.05528719406634916
705.0, 0.058140301455824724
706.0, 0.0543245830665891
707.0, 0.052320210659762
708.0, 0.05115780168414752
709.0, 0.052745484885361425
710.0, 0.05413453226266023
711.0, 0.046033552402739514
712.0, 0.04679016061663809
713.0, 0.0474908600927132
714.0, 0.04599625611581376
715.0, 0.04129923293271471
716.0, 0.047054794066645894
717.0, 0.04271650950093964
718.0, 0.03805617345057131
719.0, 0.03709041079248205
720.0, 0.03167964784870927
721.0, 0.030970814912107774
722.0, 0.03356474603576347
723.0, 0.0359787793595179
724.0, 0.03187440731843057
725.0, 0.034384234247221875
726.0, 0.03377613987360944
727.0, 0.02918856695856428
728.0, 0.02169146006700247
729.0, 0.02668288559016739
730.0, 0.026294895191014456
731.0, 0.026229557758484325
732.0, 0.027215450736454688
733.0, 0.02397370025254919
734.0, 0.02228032255591873
735.0, 0.01947293403798536
736.0, 0.01791841596643717
737.0, 0.021107816785825104
738.0, 0.01848133949840973
739.0, 0.01652812352234527
740.0, 0.016024570949266192
741.0, 0.01671605339800554
742.0, 0.014775709580766221
743.0, 0.015386673300125019
744.0, 0.014581017702962943
745.0, 0.012732425802959113
746.0, 0.012413530459996727
747.0, 0.011479302788639798
748.0, 0.010445383927650709
749.0, 0.010034169620880027
750.0, 0.010468126644629119
751.0, 0.008528251949307413
752.0, 0.004855598712554075
753.0, 0.004048125457960825
754.0, 0.006453338640051154
755.0, 0.008858960491162176
756.0, 0.0036266430558041865
757.0, 0.004400545036377018
758.0, 0.006810953255264511
759.0, 0.004987983305009528
760.0, 0.001275115448843412
761.0, 0.0037634944143759863
762.0, 0.006650401532250336
763.0, 0.007505452169620836
764.0, 0.0067550196328297835
765.0, 0.003806556839479606
766.0, 0.0018793166115681295
767.0, 0.0009117161770043221
768.0, 0.0002667412430270741
769.0, 0.00046486691828630385
770.0, 0.0032472318106763374
771.0, 0.004821373628327295
772.0, 0.0038846861207012078
773.0, 0.003062962582088517
774.0, 0.0018076035253833237
775.0, 0.003051144531776862
776.0, 0.0047790239928843245
777.0, 0.0035230268611649595
778.0, 0.0007909705608293595
779.0, 0.0011213198281526612
780.0, 0.0032039697924035686
781.0, 0.005041766631610105
782.0, 0.001361987451971486
783.0, 0.0076929641620304915
784.0, 0.009404172122774173
785.0, 0.009219038127012016
786.0, 0.014871654298406246
787.0, 0.016028453822373778
788.0, 0.01207440493085165
789.0, 0.012405713258851293
790.0, 0.019529738553158777
791.0, 0.020568008348862233
792.0, 0.02006151545825775
793.0, 0.02189815377058749
794.0, 0.024624157064460098
795.0, 0.02521188941670299
796.0, 0.027925722683308587
797.0, 0.02817996547340751
798.0, 0.029630214707294763
799.0, 0.03354951738246071
800.0, 0.03689115618562666
801.0, 0.040977175454399696
802.0, 0.039416107348849656
803.0, 0.03536256859882025
804.0, 0.034643978790510364
805.0, 0.04452189670041717
806.0, 0.04228127856003609
807.0, 0.04025846340542376
808.0, 0.0432195076046416
809.0, 0.04653792635699835
810.0, 0.04985835739365699
811.0, 0.05480721110773234
812.0, 0.05750172435359197
813.0, 0.05389994074843814
814.0, 0.05153779133380065
815.0, 0.06308833555322747
816.0, 0.06981274821719619
817.0, 0.067550342419949
818.0, 0.06563463653046929
819.0, 0.07392146783583207
820.0, 0.08295922294919023
821.0, 0.08923816661763019
822.0, 0.09103329377820885
823.0, 0.09482082026644739
824.0, 0.09754414771542916
825.0, 0.10141649731611252
826.0, 0.10564373907279886
827.0, 0.10724793314322993
828.0, 0.11189818671669846
829.0, 0.11720685293296815
830.0, 0.12219431461555887
831.0, 0.1269114997414157
832.0, 0.13510285569932434
833.0, 0.14292656171319318
834.0, 0.15018314186131937
835.0, 0.1556238848155914
836.0, 0.15772715355857278
837.0, 0.16155079697923272
838.0, 0.17027409599219517
839.0, 0.18212143525348695
840.0, 0.19379121116981854
841.0, 0.19762751005994092
842.0, 0.2170881093733787
843.0, 0.22411641639304564
844.0, 0.2265919401308283
845.0, 0.2359494605553014
846.0, 0.25299191033381546
847.0, 0.2573011717048272
848.0, 0.2659541847810781
849.0, 0.28117869217630914
850.0, 0.29619881706169354
851.0, 0.3092017519093932
852.0, 0.326578131249427
853.0, 0.3443527732669964
854.0, 0.35978571693438877
855.0, 0.3733525367354588
856.0, 0.39346556854781467
857.0, 0.4192802022049844
858.0, 0.4426744766794563
859.0, 0.4548998140911437
860.0, 0.4746575551870684
861.0, 0.5070739568501217
862.0, 0.5309480190924436
863.0, 0.547429595654588
864.0, 0.579525344086381
865.0, 0.6074413799509147
866.0, 0.6372655835160436
867.0, 0.6684330002490319
868.0, 0.6976670365223353
869.0, 0.7112985188726374
870.0, 0.7431797103314887
871.0, 0.7769343380440483
872.0, 0.8056270354650412
873.0, 0.8260613418174246
874.0, 0.8692470602098257
875.0, 0.8790357345034338
876.0, 0.8891857861281254
877.0, 0.9114886556054241
878.0, 0.9405696110823573
879.0, 0.9438891955132181
880.0, 0.950323777892736
881.0, 0.9630976928921121
882.0, 0.9812248183838377
883.0, 0.9944488408726146
884.0, 0.9910875982378065
885.0, 0.993067312464551
886.0, 0.9983539840072182
887.0, 0.9989423425747255
888.0, 0.9821541294751269
889.0, 0.9821772249384083
890.0, 0.9814971301941172
891.0, 0.9685583661727308
892.0, 0.9331997957508708
893.0, 0.9191710503449328
894.0, 0.9013546630362921
895.0, 0.8726232923718201
896.0, 0.8378330577502361
897.0, 0.828102015718708
898.0, 0.7850010952775481
899.0, 0.7533186462642416
900.0, 0.7216317805938052
901.0, 0.6776595433074943
902.0, 0.6471463039836889
903.0, 0.6240232468082416
904.0, 0.5831908361272587
905.0, 0.5426037928094982
906.0, 0.5348865220942913
907.0, 0.4972718199493822
908.0, 0.45795826622273456
909.0, 0.4236644168379779
910.0, 0.3986314826266129
911.0, 0.3858063321635126
912.0, 0.3467057285832474
913.0, 0.32109249646648985
914.0, 0.2967784037678996
915.0, 0.26817729565022813
916.0, 0.2489292366420832
917.0, 0.23589063386981016
918.0, 0.21695534643084577
919.0, 0.19549131749641227
920.0, 0.17555337024239262
921.0, 0.1520709661151585
922.0, 0.1431752701831323
923.0, 0.12868976902491566
924.0, 0.11131026749792866
925.0, 0.10070543273161728
926.0, 0.0904730468896408
927.0, 0.07609291796668657
928.0, 0.06238372558095288
929.0, 0.05091886965058586
930.0, 0.04118609313319507
931.0, 0.029673458652258854
932.0, 0.025968947804415565
933.0, 0.020520610531957032
934.0, 0.010237578176279313
935.0, 0.0012644417001148557
936.0, 0.0004910865548422768
937.0, 0.006305763485555465
938.0, 0.010208781503798855
939.0, 0.008773015312731162
940.0, 0.014086649869426076
941.0, 0.023861352695495407
942.0, 0.020807343691106775
943.0, 0.016532692591601728
944.0, 0.021724507707833844
945.0, 0.015064130976264984
946.0, 0.019408941012476044
947.0, 0.017528833702267804
948.0, 0.010694140672907583
949.0, 0.006110602803833763
950.0, 0.011481072432995168
951.0, 0.00686753090304819
952.0, 0.004892158548546344
953.0, 0.007718041937147771
954.0, 0.012251857568868006
955.0, 0.021124329469827095
956.0, 0.030339811666315136
957.0, 0.04237430263397638
958.0, 0.05460391616625819
959.0, 0.05952185735127605
960.0, 0.07939983783752019
961.0, 0.09152703761912269
962.0, 0.10131653417365273
963.0, 0.11289576791993977
964.0, 0.12875050474669794
965.0, 0.1472237586586786
966.0, 0.1612825443212309
967.0, 0.1751309896665277
968.0, 0.19225494207394747
969.0, 0.21408886118477513
970.0, 0.22020693052076773
971.0, 0.23973072850825103
972.0, 0.2573202069350845
973.0, 0.263567622035453
974.0, 0.28017510240205196
975.0, 0.28971573276719026
976.0, 0.2993439741508551
977.0, 0.30735234896730584
978.0, 0.31287329852584805
979.0, 0.3244484431529959
980.0, 0.3203072568794741
981.0, 0.3175561088286862
982.0, 0.32119666059639657
983.0, 0.3290687750391246
984.0, 0.3118089292226581
985.0, 0.3165338152659978
986.0, 0.31340606279398436
987.0, 0.30505695046407966
988.0, 0.3021566793452429
989.0, 0.30170491653272985
990.0, 0.2982738979110979
991.0, 0.29657658522356534
992.0, 0.2935222972102485
993.0, 0.2852091301069073
994.0, 0.2910223452881962
995.0, 0.28477346386677177
996.0, 0.2773379338948795
997.0, 0.2689861176670182
998.0, 0.25728144686202786
999.0, 0.2662360135682445
1000.0, 0.26005957213610054
1001.0, 0.25318093045264967
1002.0, 0.24776680272161575
1003.0, 0.24030917876152136
1004.0, 0.2358372328266808
1005.0, 0.23314881157250467
1006.0, 0.23047985010714117
1007.0, 0.2281892059916985
1008.0, 0.22770536795879776
1009.0, 0.2272232495041324
1010.0, 0.22783966181900106
1011.0, 0.22923183518244838
1012.0, 0.23065067478434614
1013.0, 0.23134501288724638
1014.0, 0.23808898975890014
1015.0, 0.23847918317594857
1016.0, 0.24075662895593508
1017.0, 0.24872287941697446
1018.0, 0.2625955661323136
1019.0, 0.26306214383143617
1020.0, 0.27729303877517253
1021.0, 0.2894853489992007
1022.0, 0.3001760317353591
1023.0, 0.31861809309547695
1024.0, 0.31504467129896596
1025.0, 0.3263716893438008
1026.0, 0.3399597870168466
1027.0, 0.35276487221484576
1028.0, 0.3671879711561416
1029.0, 0.3820415950783446
1030.0, 0.40333420495994826
1031.0, 0.41224151122032016
1032.0, 0.4140209561069999
1033.0, 0.4263219419779457
1034.0, 0.4411909851382037
1035.0, 0.4433901972774004
1036.0, 0.44929617843244113
1037.0, 0.4591710790061119
1038.0, 0.4657178741656282
1039.0, 0.46889828035776276
1040.0, 0.48053882224778266
1041.0, 0.47866151845795973
1042.0, 0.4743880493639669
1043.0, 0.48685342832198897
1044.0, 0.4706869992861859
1045.0, 0.4724990914568863
1046.0, 0.4747691940053868
1047.0, 0.4697389424420221
1048.0, 0.4546543629113028
1049.0, 0.4371275651502691
1050.0, 0.4406841422622279
1051.0, 0.42636876649911826
1052.0, 0.4043756088499958
1053.0, 0.3933459400252722
1054.0, 0.3803169373744902
1055.0, 0.37239910415531047
1056.0, 0.358720941416813
1057.0, 0.3420520603819877
1058.0, 0.32677232594598543
1059.0, 0.31149344441644305
1060.0, 0.2970130770642375
1061.0, 0.28468826036651856
1062.0, 0.27031574430411126
1063.0, 0.2535288816996359
1064.0, 0.24726571348619913
1065.0, 0.2351673960125161
1066.0, 0.22473602417256472
1067.0, 0.21154462848522262
1068.0, 0.19745480611809227
1069.0, 0.19931804722947594
1070.0, 0.1895454654197419
1071.0, 0.1801844667190849
1072.0, 0.17823345587681377
1073.0, 0.18002739445885146
1074.0, 0.16789014367774427
1075.0, 0.16736201151617947
1076.0, 0.17237676721779888
1077.0, 0.17030415402184093
1078.0, 0.16132187337798656
1079.0, 0.15769327431274902
1080.0, 0.16860826388954414
1081.0, 0.17031233322983605
1082.0, 0.17193945891686882
1083.0, 0.17315489527028363
1084.0, 0.16912742021748947
1085.0, 0.1712735414867352
1086.0, 0.1738329428624432
1087.0, 0.16636621265360294
1088.0, 0.15835756727147526
1089.0, 0.16110871577451222
1090.0, 0.14902601138804025
1091.0, 0.14619728559799414
1092.0, 0.1386513157926476
1093.0, 0.12449487287991193
1094.0, 0.1077430764768394
1095.0, 0.10247436362768565
1096.0, 0.09767347168406602
1097.0, 0.08127727684274158
1098.0, 0.06662688177243133
1099.0, 0.06205872932390067
1100.0, 0.06049255070359705
1101.0, 0.03995145879545908
1102.0, 0.0361952573445062
1103.0, 0.028124140541093648
1104.0, 0.01572348089506197
1105.0, 0.023632374485776146
1106.0, 0.01103707417314886
1107.0, 0.0034173310158933023
1108.0, 0.0028413396412626593
1109.0, 0.006327525930794481
1110.0, 0.007938134795850125
1111.0, 0.004654853972824035
1112.0, 0.003650867184956142
1113.0, 0.007184001026903541
1114.0, 0.011441151637725662
1115.0, 0.012067039157235709
1116.0, 0.011511425181209655
1117.0, 0.010957804804072317
1118.0, 0.010104689628247558
1119.0, 0.010455590162568085
1120.0, 0.011669420243625888
1121.0, 0.008847289750670674
1122.0, 0.0038476938047735222
1123.0, 0.00500522944126192
1124.0, 0.007206044815337533
1125.0, 0.007082505531902729
1126.0, 0.0044415531338325934
1127.0, 0.0093429712044798
1128.0, 0.0082720885507719
1129.0, 0.008719756259515831
1130.0, 0.00903188977784164
1131.0, 0.004391860757161684
1132.0, 0.004293438157800657
1133.0, 0.0030216169801777844
1134.0, 0.0029831160720098643
1135.0, 0.003190351832875708
1136.0, 0.0034554266736529925
1137.0, 0.00875646860531194
1138.0, 0.013458638893118524
1139.0, 0.019398097264726268
1140.0, 0.02524671203652079
1141.0, 0.03188936438706535
1142.0, 0.043307550042668654
1143.0, 0.0425142433138014
1144.0, 0.05692365499411552
1145.0, 0.06852514659368135
1146.0, 0.07483743596290532
1147.0, 0.08391426704444381
1148.0, 0.10592547668764672
1149.0, 0.11273585858655838
1150.0, 0.12437842225624886
1151.0, 0.1399324045640525
1152.0, 0.15375895370272874
1153.0, 0.16302084919998577
1154.0, 0.19622754851017443
1155.0, 0.21844657092698183
1156.0, 0.237875290255988
1157.0, 0.2608386074491344
1158.0, 0.2864261056139191
1159.0, 0.30619399368612454
1160.0, 0.3364784206370165
1161.0, 0.36950931239367146
1162.0, 0.3968477358778549
1163.0, 0.41672305217510924
1164.0, 0.4671537492980722
1165.0, 0.4821128129507671
1166.0, 0.5084746670517206
1167.0, 0.5496002352402702
1168.0, 0.5945580103860206
1169.0, 0.6212533765407768
1170.0, 0.6506008643989096
1171.0, 0.6926528676168647
1172.0, 0.720451953548909
1173.0, 0.7416348903014578
1174.0, 0.7846182137285305
1175.0, 0.7811357321451096
1176.0, 0.8077184412428758
1177.0, 0.8235589012408899
1178.0, 0.8267258785598389
1179.0, 0.8276662271835412
1180.0, 0.8370081729573686
1181.0, 0.8192131736821686
1182.0, 0.8085683734076539
1183.0, 0.805706308618151
1184.0, 0.7993518132651267
1185.0, 0.7724493576238791
1186.0, 0.7753955694983761
1187.0, 0.7656012488097845
1188.0, 0.754878337209446
1189.0, 0.7415603558240395
1190.0, 0.7263564876012556
1191.0, 0.738943093433447
1192.0, 0.7265723538342364
1193.0, 0.7226898003441932
1194.0, 0.7205225432267913
1195.0, 0.7157814190336361
1196.0, 0.7129378666118307
1197.0, 0.7187815971244884
1198.0, 0.7182265349716074
1199.0, 0.7158830401928812
1200.0, 0.719030422284664
1201.0, 0.7273456055239677
1202.0, 0.7069185131319409
1203.0, 0.7092916904327153
1204.0, 0.7014690243123027
1205.0, 0.6885968328627123
1206.0, 0.6810202350504648
1207.0, 0.6868684912281086
1208.0, 0.6567623151348219
1209.0, 0.6487350164488264
1210.0, 0.6403063494612703
1211.0, 0.6307011772080235
1212.0, 0.6254205689982517
1213.0, 0.6201408183382863
1214.0, 0.6105776814125999
1215.0, 0.6101938922042848
1216.0, 0.6066346026656161
1217.0, 0.5965878135033007
1218.0, 0.5897717912540851
1219.0, 0.6047327066063835
1220.0, 0.6043471386148439
1221.0, 0.6096776563813912
1222.0, 0.6272484760920699
1223.0, 0.6479860114488237
1224.0, 0.6358051264609056
1225.0, 0.6655609592533507
1226.0, 0.6878978966950745
1227.0, 0.6952156737563745
1228.0, 0.700899447349238
1229.0, 0.7272636801933104
1230.0, 0.7523850672526399
1231.0, 0.7758854507526317
1232.0, 0.7952501461998928
1233.0, 0.8071258889641215
1234.0, 0.8147875572953371
1235.0, 0.8325607795576381
1236.0, 0.8683210894645228
1237.0, 0.8646343946560523
1238.0, 0.8760748490804295
1239.0, 0.903343515331035
1240.0, 0.9186779276656344
1241.0, 0.903736227328342
1242.0, 0.9117108619857998
1243.0, 0.9093417478845303
1244.0, 0.9063166297914717
1245.0, 0.9081465826921649
1246.0, 0.9090382109093279
1247.0, 0.8895130469128815
1248.0, 0.8828433023253042
1249.0, 0.8768025109128491
1250.0, 0.8600101560897108
1251.0, 0.8351765787486534
1252.0, 0.8332170455386694
1253.0, 0.7975473819373069
1254.0, 0.7764572390061942
1255.0, 0.7705939421203393
1256.0, 0.7561553887523845
1257.0, 0.713210906189008
1258.0, 0.6976629663756482
1259.0, 0.6914693128268355
1260.0, 0.6641206844986357
1261.0, 0.6302278304814152
1262.0, 0.6080380481543044
1263.0, 0.6070109315516553
1264.0, 0.5784601762411241
1265.0, 0.5603572346963694
1266.0, 0.5411801889787469
1267.0, 0.5245861289598241
1268.0, 0.514740500111862
1269.0, 0.5090133656149055
1270.0, 0.4876152286901812
1271.0, 0.47757801444837916
1272.0, 0.46774787260404926
1273.0, 0.456261993231669
1274.0, 0.44819084239460966
1275.0, 0.45523628827508045
1276.0, 0.44016084072295947
1277.0, 0.4287509159858198
1278.0, 0.43389484733407974
1279.0, 0.43947545369239127
1280.0, 0.42061086871569797
1281.0, 0.4251382555875674
1282.0, 0.4243295572303453
1283.0, 0.4208223338234769
1284.0, 0.42917591674194017
1285.0, 0.4412407024583219
1286.0, 0.4273558919423355
1287.0, 0.43435208976541956
1288.0, 0.44531728302820006
1289.0, 0.44946301655723825
1290.0, 0.4551414592308609
1291.0, 0.4692133274005375
1292.0, 0.486324101701696
1293.0, 0.47657897400733884
1294.0, 0.49134623250787823
1295.0, 0.5005904020775812
1296.0, 0.5018988695132308
1297.0, 0.5063192863064574
1298.0, 0.5277280097100472
1299.0, 0.5194759528691796
1300.0, 0.5268722490231632
1301.0, 0.5437267033538181
1302.0, 0.5517959589163447
1303.0, 0.5441477245603535
1304.0, 0.5711656074624181
1305.0, 0.5620312275395938
1306.0, 0.5550079816656747
1307.0, 0.5551705985892522
1308.0, 0.5646013050338238
1309.0, 0.5793006208145338
1310.0, 0.5695753695784292
1311.0, 0.5769282769080634
1312.0, 0.5738333086960535
1313.0, 0.5770616752865502
1314.0, 0.5867077883902903
1315.0, 0.5846911231048324
1316.0, 0.5679418850699393
1317.0, 0.5712266531252667
1318.0, 0.5669153803809261
1319.0, 0.5574209204191537
1320.0, 0.5499421275784203
1321.0, 0.5487658294836203
1322.0, 0.5385374112598095
1323.0, 0.5295424527579073
1324.0, 0.5214166470475843
1325.0, 0.511597004716259
1326.0, 0.5003484743100209
1327.0, 0.4916638360050622
1328.0, 0.4842000503145538
1329.0, 0.4687225537697812
1330.0, 0.45931218357396436
1331.0, 0.44653471666909156
1332.0, 0.42657981928762345
1333.0, 0.41187007676039117
1334.0, 0.4106545796726808
1335.0, 0.393426566518756
1336.0, 0.3815188578887411
1337.0, 0.3743068599864465
1338.0, 0.3618910684803968
1339.0, 0.3336779384286142
1340.0, 0.3332831437817173
1341.0, 0.3229876064550947
1342.0, 0.31019575501460445
1343.0, 0.2997233265277664
1344.0, 0.2912981857137385
1345.0, 0.278522185423773
1346.0, 0.2639129385454186
1347.0, 0.2560279735762241
1348.0, 0.24459857335269597
1349.0, 0.2368134446306704
1350.0, 0.2331878550703494
1351.0, 0.2174985428657388
1352.0, 0.20936394686959592
1353.0, 0.20438614201973207
1354.0, 0.1891530403949634
1355.0, 0.1772586677987759
1356.0, 0.17507588543370092
1357.0, 0.16678325955702944
1358.0, 0.15669983471018942
1359.0, 0.14777394782028339
1360.0, 0.14118330969753853
1361.0, 0.1303995105467668
1362.0, 0.11918374930266716
1363.0, 0.12408842261964884
1364.0, 0.10873811668035502
1365.0, 0.09817762497502408
1366.0, 0.09583937950118596
1367.0, 0.08893835134217383
1368.0, 0.07567788099611725
1369.0, 0.07152331857706935
1370.0, 0.07473327030264505
1371.0, 0.06351854600937461
1372.0, 0.05590362675951929
1373.0, 0.051340879550041935
1374.0, 0.045635350697306794
1375.0, 0.03752979244798942
1376.0, 0.04392111619260176
1377.0, 0.03390965262670195
1378.0, 0.03190154925976667
1379.0, 0.03141713476223464
1380.0, 0.028372257867506894
1381.0, 0.026160284626981486
1382.0, 0.030159213663535127
1383.0, 0.02384575950464448
1384.0, 0.01684464316604165
1385.0, 0.014607433092117636
1386.0, 0.014613674540129133
1387.0, 0.010529256101147983
1388.0, 0.003357008575467769
1389.0, 0.009083648384596058
1390.0, 0.005629557938538911
1391.0, 0.00549028038103393
1392.0, 0.009553342866145604
1393.0, 0.010330213989147905
1394.0, 0.0016233420823443707
1395.0, 0.0030464873547111464
1396.0, 0.005122776125306321
1397.0, 0.009115269881715673
1398.0, 0.008660075947541094
1399.0, 0.0019573060185592347
1400.0, 0.002034309423467664
1401.0, 0.007717159030837065
1402.0, 0.007060281531209953
1403.0, 0.0033085054735517445
1404.0, 0.0006885237485173565
1405.0, 0.0009551125359513464
1406.0, 0.0020063800197664614
1407.0, 0.003277269733183633
1408.0, 0.0059128748261494815
1409.0, 0.004434442425881913
1410.0, 0.0055394559382731
1411.0, 0.0072651967250801424
1412.0, 0.0011078162396530298
1413.0, 0.003231892741809385
1414.0, 0.003434741835701882
1415.0, 0.0028544995828846927
1416.0, 0.006265332385269922
1417.0, 0.009517896554487601
1418.0, 0.006382145188696217
1419.0, 0.004021259616294076
1420.0, 0.0027035953085102625
1421.0, 0.002244810239145474
1422.0, 0.0017426246541140348
1423.0, 0.0014748936110881945
1424.0, 0.0024470756383676226
1425.0, 0.005434545055711892
1426.0, 0.0018904245993334146
1427.0, 0.004500441364501511
1428.0, 0.003919803447329751
1429.0, 0.0026921000205164837
1430.0, 0.002968783304591215
1431.0, 0.0031497095337842907
1432.0, 0.007375197475248019
1433.0, 0.00518199390982409
1434.0, 0.007988440930577137
1435.0, 0.009724799291927289
1436.0, 0.007832378271994829
1437.0, 0.005990734349020388
1438.0, 0.012600449538576418
1439.0, 0.009357124232623127
1440.0, 0.008196774160472974
1441.0, 0.010655839242757016
1442.0, 0.011232350555476053
1443.0, 0.008611342001615355
1444.0, 0.012769272729963423
1445.0, 0.017704560152326812
1446.0, 0.010914124186919867
1447.0, 0.013675501639648271
1448.0, 0.018367361155802335
1449.0, 0.01781201241586569
1450.0, 0.014612629320588114
1451.0, 0.020136628740975174
1452.0, 0.016387732040389562
1453.0, 0.016256789731238445
1454.0, 0.021752998933985333
1455.0, 0.023150159885842927
1456.0, 0.015614313932965333
1457.0, 0.01734091498651467
1458.0, 0.020249298737720238
1459.0, 0.015454091819674588
1460.0, 0.01410299817321752
1461.0, 0.018267120090416304
1462.0, 0.021109960667264043
1463.0, 0.014031347065587526
1464.0, 0.016956417060015497
1465.0, 0.012971718016611528
1466.0, 0.006916363834551898
1467.0, 0.01022818275144392
1468.0, 0.012514555059327744
1469.0, 0.004228393134799833
1470.0, 0.010105668386597277
1471.0, 0.01070691558037552
1472.0, 0.005402657992407398
1473.0, 0.006185926482421361
1474.0, 0.008441113916153296
1475.0, 0.006495865853831599
1476.0, 0.0020634931019428834
1477.0, 0.008768456443594815
1478.0, 0.0031261079068425584
1479.0, 0.001559595270041583
1480.0, 0.003249187909529148
1481.0, 0.0034889768121164695
1482.0, 0.0010947787382484442
1483.0, 0.004187993518228143
1484.0, 0.008247422317447952
1485.0, 0.00784410597286237
1486.0, 0.008129428000004232
1487.0, 0.011115066035006702
1488.0, 0.011569431903716412
1489.0, 0.004274981685910865
1490.0, 0.009495280123349185
1491.0, 0.014816824467161758
1492.0, 0.008689039640444197
1493.0, 0.009344241224926464
1494.0, 0.01159600599477225
1495.0, 0.008264627703202963
1496.0, 0.00796152450134476
1497.0, 0.007886498539212765
1498.0, 0.00891953238487951
1499.0, 0.007956815560828895
1500.0, 0.0074380733863343325
1501.0, 0.006377603630616782
1502.0, 0.0042556545871270494
1503.0, 0.010005842094203804
1504.0, 0.011822164330381664
1505.0, 0.0048069640118386815
1506.0, 0.0037297802544278605
1507.0, 0.004488986545074377
1508.0, 0.003882557803804578
1509.0, 0.005569153936452994
1510.0, 0.008037491236290984
1511.0, 0.0032198215949388867
1512.0, 0.002064743056046487
1513.0, 0.004597580141011094
1514.0, 0.004449867345086976
1515.0, 0.0003210637792087847
1516.0, 0.0013011109699245702
1517.0, 0.00011179564092593248
1518, 0.0
1519, 0.0
1520, 0.0
1521, 0.0
1522, 0.0
1523, 0.0
1524, 0.0
1525, 0.0
1526, 0.0
1527, 0.0
1528, 0.0
1529, 0.0
1530, 0.0
1531, 0.0
1532, 0.0
1533, 0.0
1534, 0.0
1535, 0.0
1536, 0.0
1537, 0.0
1538, 0.0
1539, 0.0
1540, 0.0
1541, 0.0
1542, 0.0
1543, 0.0
1544, 0.0
1545, 0.0
1546, 0.0
1547, 0.0
1548, 0.0
1549, 0.0
1550, 0.0
1551, 0.0
1552, 0.0
1553, 0.0
1554, 0.0
1555, 0.0
1556, 0.0
1557, 0.0
1558, 0.0
1559, 0.0
1560, 0.0
1561, 0.0
1562, 0.0
1563, 0.0
1564, 0.0
1565, 0.0
1566, 0.0
1567, 0.0
1568, 0.0
1569, 0.0
1570, 0.0
1571, 0.0
1572, 0.0
1573, 0.0
1574, 0.0
1575, 0.0
1576, 0.0
1577, 0.0
1578, 0.0
1579, 0.0
1580, 0.0
1581, 0.0
1582, 0.0
1583, 0.0
1584, 0.0
1585, 0.0
1586, 0.0
1587, 0.0
1588, 0.0
1589, 0.0
1590, 0.0
1591, 0.0
1592, 0.0
1593, 0.0
1594, 0.0
1595, 0.0
1596, 0.0
1597, 0.0
1598, 0.0
1599, 0.0
