30, 0.0
31, 0.0
32, 0.0
33, 0.0
34, 0.0
35, 0.0
36, 0.0
37, 0.0
38, 0.0
39, 0.0
40, 0.0
41, 0.0
42, 0.0
43, 0.0
44, 0.0
45, 0.0
46, 0.0
47, 0.0
48, 0.0
49, 0.0
50, 0.0
51, 0.0
52, 0.0
53, 0.0
54, 0.0
55, 0.0
56, 0.0
57, 0.0
58, 0.0
59, 0.0
60, 0.0
61, 0.0
62, 0.0
63, 0.0
64, 0.0
65, 0.0
66, 0.0
67, 0.0
68, 0.0
69, 0.0
70, 0.0
71, 0.0
72, 0.0
73, 0.0
74, 0.0
75, 0.0
76, 0.0
77, 0.0
78, 0.0
79, 0.0
80, 0.0
81, 0.0
82, 0.0
83, 0.0
84, 0.0
85, 0.0
86, 0.0
87, 0.0
88, 0.0
89, 0.0
90, 0.0
91, 0.0
92, 0.0
93, 0.0
94, 0.0
95, 0.0
96, 0.0
97, 0.0
98, 0.0
99, 0.0
100, 0.0
101, 0.0
102, 0.0
103, 0.0
104, 0.0
105, 0.0
106, 0.0
107, 0.0
108, 0.0
109, 0.0
110, 0.0
111, 0.0
112, 0.0
113, 0.0
114, 0.0
115, 0.0
116, 0.0
117, 0.0
118, 0.0
119, 0.0
120, 0.0
121, 0.0
122, 0.0
123, 0.0
124, 0.0
125, 0.0
126, 0.0
127, 0.0
128, 0.0
129, 0.0
130, 0.0
131, 0.0
132, 0.0
133, 0.0
134, 0.0
135, 0.0
136, 0.0
137, 0.0
138, 0.0
139, 0.0
140, 0.0
141, 0.0
142, 0.0
143, 0.0
144, 0.0
145, 0.0
146, 0.0
147, 0.0
148, 0.0
149, 0.0
150, 0.0
151, 0.0
152, 0.0
153, 0.0
154, 0.0
155, 0.0
156, 0.0
157, 0.0
158, 0.0
159, 0.0
160, 0.0
161, 0.0
162, 0.0
163, 0.0
164, 0.0
165, 0.0
166, 0.0
167, 0.0
168, 0.0
169, 0.0
170, 0.0
171, 0.0
172, 0.0
173, 0.0
174, 0.0
175, 0.0
176, 0.0
177, 0.0
178, 0.0
179, 0.0
180, 0.0
181, 0.0
182, 0.0
183, 0.0
184, 0.0
185, 0.0
186, 0.0
187, 0.0
188, 0.0
189, 0.0
190, 0.0
191, 0.0
192, 0.0
193, 0.0
194, 0.0
195, 0.0
196, 0.0
197, 0.0
198, 0.0
199, 0.0
200, 0.0
201, 0.0
202, 0.0
203, 0.0
204, 0.0
205, 0.0
206, 0.0
207, 0.0
208, 0.0
209, 0.0
210.0, 0.0012231760773080275
211.0, 0.0014627332939425703
212.0, 0.0010025445986456116
213.0, 0.0005919014878966787
214.0, 0.0034612672278865903
215.0, 0.010166732845504964
216.0, 0.01858306096442644
217.0, 0.02873015158479817
218.0, 0.040224059514144796
219.0, 0.05275012183189602
220.0, 0.06650175771146483
221.0, 0.08287977919415648
222.0, 0.10243189648171118
223.0, 0.12408518581205993
224.0, 0.14688548482746222
225.0, 0.17088135935958446
226.0, 0.1974735849295478
227.0, 0.22816851115127534
228.0, 0.26211217024323985
229.0, 0.2963474541239149
230.0, 0.334816531600923
231.0, 0.3754935547259328
232.0, 0.41719390349544244
233.0, 0.4580141028562922
234.0, 0.4944972114994436
235.0, 0.5275922042072454
236.0, 0.5591778469258075
237.0, 0.5903089614515354
238.0, 0.6210513162474307
239.0, 0.6558889922915874
240.0, 0.6936442519874494
241.0, 0.734599435561993
242.0, 0.779145943538209
243.0, 0.8233491529534446
244.0, 0.8664434880971018
245.0, 0.9067835572943015
246.0, 0.9429379147694821
247.0, 0.9727833448245308
248.0, 0.9938515234447945
249.0, 0.9995476746429625
250.0, 0.9922348508708542
251.0, 0.9744034920107714
252.0, 0.9426252089655403
253.0, 0.8996741375615493
254.0, 0.8468292305745206
255.0, 0.7893767029502239
256.0, 0.7325703656477003
257.0, 0.679094779711579
258.0, 0.6289315177540465
259.0, 0.583978668323225
260.0, 0.5453090132954566
261.0, 0.511463195935838
262.0, 0.48314278428855145
263.0, 0.45810824126248323
264.0, 0.4352421021024471
265.0, 0.41410713553219186
266.0, 0.39178922524089516
267.0, 0.36555058327389245
268.0, 0.337815050102792
269.0, 0.30825109124380223
270.0, 0.2729460633547462
271.0, 0.23675603629250472
272.0, 0.20146241882130317
273.0, 0.16743363696644492
274.0, 0.13515184551292747
275.0, 0.10541581011231062
276.0, 0.08070120815893597
277.0, 0.059432148171316604
278.0, 0.04167899187730977
279.0, 0.028664414150418618
280.0, 0.017950721378102195
281.0, 0.010056788238882853
282.0, 0.004891381903931513
283.0, 0.0015186570524557369
284.0, 0.0015422757305038257
285.0, 0.0034275214434586086
286.0, 0.004363616091631778
287.0, 0.00452171185220543
288.0, 0.004121223245106978
289.0, 0.003983844563381205
290.0, 0.005568414103604886
291.0, 0.007557215232700535
292.0, 0.009014653935319136
293.0, 0.010064123131221058
294.0, 0.011644557272330889
295.0, 0.011158578620587964
296.0, 0.008766562746626023
297.0, 0.004908466214711234
298.0, 0.0014791849587343572
299.0, 0.009367909990202495
300.0, 0.020269727632197004
301.0, 0.03222148735026783
302.0, 0.043757371685836904
303.0, 0.05676922416836585
304.0, 0.07084712980132882
305.0, 0.08477655967692468
306.0, 0.09769764147264781
307.0, 0.10995880964952229
308.0, 0.12474731562859255
309.0, 0.14018724433664478
310.0, 0.16003526658546305
311.0, 0.18617250235292587
312.0, 0.21610682514266216
313.0, 0.25323491088506217
314.0, 0.29335373747778404
315.0, 0.334883162322078
316.0, 0.3753845274285603
317.0, 0.40888686847564604
318.0, 0.43263817522507414
319.0, 0.43971615856688295
320.0, 0.4305761362260924
321.0, 0.4108178602508197
322.0, 0.3893577224638954
323.0, 0.3672198481026896
324.0, 0.3482467931534625
325.0, 0.33486395384893203
326.0, 0.3273833386975581
327.0, 0.32475213385233304
328.0, 0.3266471559300815
329.0, 0.3323492501067162
330.0, 0.340731975839227
331.0, 0.3508396483251051
332.0, 0.3602258141108747
333.0, 0.3688540725873486
334.0, 0.37544886852976006
335.0, 0.37877374306561284
336.0, 0.37812774150346107
337.0, 0.3758621542080485
338.0, 0.3691280886963417
339.0, 0.35932296450272194
340.0, 0.35009151285494006
341.0, 0.3398371220585466
342.0, 0.3312943948089772
343.0, 0.32681476207176313
344.0, 0.3255284282873084
345.0, 0.3255852003502244
346.0, 0.3313030684748679
347.0, 0.3388271647707369
348.0, 0.3457592789280557
349.0, 0.3523886651898921
350.0, 0.3592321174813725
351.0, 0.3584724517299009
352.0, 0.34785126838281183
353.0, 0.3279507814950459
354.0, 0.29946097789461296
355.0, 0.2634451895655778
356.0, 0.22770621121778759
357.0, 0.19157838127869722
358.0, 0.15800999341755387
359.0, 0.12981435844212544
360.0, 0.10603160091081935
361.0, 0.08497235433383742
362.0, 0.06613941216464954
363.0, 0.05028489494934912
364.0, 0.03720158160773268
365.0, 0.023513000462695402
366.0, 0.013904446845803562
367.0, 0.006286327807108378
368.0, 0.0012707244890570197
369.0, 0.004693752749043002
370.0, 0.0080530264540107
371.0, 0.010300074656303216
372.0, 0.010368227411372513
373.0, 0.008493612161566922
374.0, 0.005664987008890288
375.0, 0.0027340554625634225
376.0, 0.002474745034402025
377.0, 0.009643254434583885
378.0, 0.01814404911504109
379.0, 0.027672464979238323
380.0, 0.038485583051898066
381.0, 0.049407725477257525
382.0, 0.062273084094537266
383.0, 0.07683590403454157
384.0, 0.09100337741867322
385.0, 0.10615396282466492
386.0, 0.12161556142913832
387.0, 0.137302631751966
388.0, 0.15294117386393402
389.0, 0.16784678291910549
390.0, 0.18128929319325834
391.0, 0.19410604206763277
392.0, 0.20626175707268787
393.0, 0.21663481295918086
394.0, 0.22431656679227793
395.0, 0.2323331447375416
396.0, 0.2403722662176548
397.0, 0.2455002272937893
398.0, 0.24813437021327384
399.0, 0.2516231444109798
400.0, 0.25377390462024463
401.0, 0.25363304828491084
402.0, 0.25324002343145424
403.0, 0.25319552038520604
404.0, 0.2522489908763604
405.0, 0.25264745078636874
406.0, 0.2530638061016727
407.0, 0.25332912611566144
408.0, 0.25423953224662876
409.0, 0.2564746288018112
410.0, 0.2583679711464694
411.0, 0.2619546491779317
412.0, 0.26628193312030146
413.0, 0.27088202185109606
414.0, 0.27684795159926007
415.0, 0.28349812799934465
416.0, 0.2907950501480768
417.0, 0.29896646454285386
418.0, 0.30766501297255233
419.0, 0.31618908990135103
420.0, 0.32468735489582307
421.0, 0.33350416174103076
422.0, 0.33919735138924184
423.0, 0.3404156395680301
424.0, 0.33787567092163284
425.0, 0.329232000532456
426.0, 0.3150183625209834
427.0, 0.2958494963653948
428.0, 0.27250530536182155
429.0, 0.24622294760240254
430.0, 0.21971014147425133
431.0, 0.1933283102610773
432.0, 0.16881183177469938
433.0, 0.14802833739513763
434.0, 0.1317337198319618
435.0, 0.11782502203030573
436.0, 0.10815230139664347
437.0, 0.10241487075168426
438.0, 0.09990163397307712
439.0, 0.10030921254208945
440.0, 0.10375483663555819
441.0, 0.11320502427537364
442.0, 0.12456801749241009
443.0, 0.13785213616497696
444.0, 0.15451495852153557
445.0, 0.17220027159445514
446.0, 0.1899615452497755
447.0, 0.20656949876749942
448.0, 0.22065983476338524
449.0, 0.23097166889581644
450.0, 0.23629002861914714
451.0, 0.23597900519741313
452.0, 0.23039006994614725
453.0, 0.22033036073251025
454.0, 0.20685259494192454
455.0, 0.19107768719328966
456.0, 0.17363601685839528
457.0, 0.15813765543737887
458.0, 0.14361572892625962
459.0, 0.13007974023165014
460.0, 0.12006962846389416
461.0, 0.11096286002862736
462.0, 0.1028988243963551
463.0, 0.09616625478100692
464.0, 0.09063101658166366
465.0, 0.08580674627733646
466.0, 0.08120525724505544
467.0, 0.07685944375710811
468.0, 0.07289284786166204
469.0, 0.0685052018813093
470.0, 0.06301885169580643
471.0, 0.058330217006748605
472.0, 0.05395106445672857
473.0, 0.049094139610529615
474.0, 0.04316715307518189
475.0, 0.03675149160643469
476.0, 0.03173429174570164
477.0, 0.027525685074058656
478.0, 0.024462477472160463
479.0, 0.022126416285694693
480.0, 0.020522588917773442
481.0, 0.020172336908380863
482.0, 0.018436013983627986
483.0, 0.017569263322515412
484.0, 0.017799839073843526
485.0, 0.018128467947202707
486.0, 0.01763152916307928
487.0, 0.017732382796269434
488.0, 0.01753265737839225
489.0, 0.016807728559703042
490.0, 0.0159950965498278
491.0, 0.01530079397598806
492.0, 0.013827654495842513
493.0, 0.012568546670069732
494.0, 0.010690742311830002
495.0, 0.007227203073124177
496.0, 0.002988898791708511
497.0, 0.0008374350296924398
498.0, 0.0031150760846680734
499.0, 0.0063876709535831255
500.0, 0.010159391738625049
501.0, 0.015164403899838492
502.0, 0.020267462190898613
503.0, 0.02320075622825197
504.0, 0.027043816058975014
505.0, 0.029287359073609305
506.0, 0.030291418091242087
507.0, 0.03160685983012398
508.0, 0.031247980705878742
509.0, 0.02883911999180018
510.0, 0.025538013342862848
511.0, 0.021207637714320503
512.0, 0.014891447452704059
513.0, 0.0060036961853904254
514.0, 0.004002610771015575
515.0, 0.016570761151041526
516.0, 0.030939983579216245
517.0, 0.04746857434732355
518.0, 0.06734381538671232
519.0, 0.08920364829919779
520.0, 0.11461152708331597
521.0, 0.14403981170991406
522.0, 0.17655680650085884
523.0, 0.21166135234593259
524.0, 0.24990645469227338
525.0, 0.29099289298476855
526.0, 0.3347351393472646
527.0, 0.3820739723561274
528.0, 0.42970679979047766
529.0, 0.4731229560397296
530.0, 0.5172168166680893
531.0, 0.5582762978738985
532.0, 0.5946708973512435
533.0, 0.624972904430234
534.0, 0.6480841966348728
535.0, 0.6645763038352601
536.0, 0.6704235448139801
537.0, 0.6688898996936204
538.0, 0.661342276137188
539.0, 0.647594635897256
540.0, 0.626608590066478
541.0, 0.599548010417789
542.0, 0.573991276573783
543.0, 0.5484093946672142
544.0, 0.5233013528205893
545.0, 0.5021178988569605
546.0, 0.4864152331836924
547.0, 0.47732584986854454
548.0, 0.4739667925880226
549.0, 0.4753900482861746
550.0, 0.4810060469263044
551.0, 0.49042270658304704
552.0, 0.5008209753301757
553.0, 0.5109009589124602
554.0, 0.5200212197843279
555.0, 0.5254953234053368
556.0, 0.5245127779405812
557.0, 0.5179581052154847
558.0, 0.5054352344600509
559.0, 0.4844779798100407
560.0, 0.4556753041338786
561.0, 0.4219553759016171
562.0, 0.38598313886059354
563.0, 0.34759345036981076
564.0, 0.31049708374521107
565.0, 0.27515250112617684
566.0, 0.2434527893104941
567.0, 0.21692496937856826
568.0, 0.19566285598752634
569.0, 0.1802273189599796
570.0, 0.1710769625363759
571.0, 0.1662526016704385
572.0, 0.16492496010946842
573.0, 0.16809498716878557
574.0, 0.17694480451865446
575.0, 0.18661256259210293
576.0, 0.19866403490235846
577.0, 0.21419665276351846
578.0, 0.23312870038033479
579.0, 0.2549467263597512
580.0, 0.2793311642350632
581.0, 0.3062728493021822
582.0, 0.3333965997374165
583.0, 0.36097255773523484
584.0, 0.38963144579418724
585.0, 0.4191019440558372
586.0, 0.45252225206188784
587.0, 0.4869825170827486
588.0, 0.5162364856354604
589.0, 0.5425670963700605
590.0, 0.5701651324719698
591.0, 0.5954323640165649
592.0, 0.6167207427751008
593.0, 0.6329878745806015
594.0, 0.6469555780086873
595.0, 0.6572988314289251
596.0, 0.6603423995936323
597.0, 0.6609113818792011
598.0, 0.6580014880075244
599.0, 0.6527812772363015
600.0, 0.6455698632961605
601.0, 0.6349782031140985
602.0, 0.6196423501202188
603.0, 0.6054622956685153
604.0, 0.5884758374518978
605.0, 0.5722290912531165
606.0, 0.553901856623715
607.0, 0.5328377070424426
608.0, 0.5158568832101385
609.0, 0.4934904736974215
610.0, 0.4710365187033215
611.0, 0.4486417846885936
612.0, 0.4248667452189136
613.0, 0.39958368179549614
614.0, 0.37380509594376327
615.0, 0.35016968671829424
616.0, 0.32681248965496384
617.0, 0.30500569391035615
618.0, 0.28461312583301124
619.0, 0.2642078126430061
620.0, 0.24501365947436918
621.0, 0.2281335257093785
622.0, 0.2120672731983947
623.0, 0.1974627039838064
624.0, 0.18452093940452596
625.0, 0.17257088517098865
626.0, 0.1627246221568422
627.0, 0.15339130647554655
628.0, 0.14511098062964514
629.0, 0.13954906088346059
630.0, 0.13637288477130766
631.0, 0.13329193147913523
632.0, 0.130371812702473
633.0, 0.1306870370697286
634.0, 0.12973134018220558
635.0, 0.1282756357796673
636.0, 0.1280149577420922
637.0, 0.12844269674805062
638.0, 0.1286566740932668
639.0, 0.12942215284447053
640.0, 0.12849325246114926
641.0, 0.12834917169234494
642.0, 0.13069768632297418
643.0, 0.13348352351564596
644.0, 0.1366299168901624
645.0, 0.1402089984517019
646.0, 0.14611819434395767
647.0, 0.15329813243591867
648.0, 0.16055457020916053
649.0, 0.16824316382178395
650.0, 0.1763189663798015
651.0, 0.18567496809708361
652.0, 0.19588017664765595
653.0, 0.20723630329525233
654.0, 0.2186436643150626
655.0, 0.22812273718058737
656.0, 0.23694906979797598
657.0, 0.24470727977497217
658.0, 0.2510950888320323
659.0, 0.25529401445801464
660.0, 0.2575177423876866
661.0, 0.2587253725996858
662.0, 0.2568587898631733
663.0, 0.25128886095394065
664.0, 0.244991175300407
665.0, 0.2362563941750452
666.0, 0.2243904029780158
667.0, 0.21170071401550186
668.0, 0.1985992515450412
669.0, 0.18342205937976114
670.0, 0.16870616019281906
671.0, 0.15221655323177077
672.0, 0.1342364463638934
673.0, 0.11836680156144853
674.0, 0.10406856285033758
675.0, 0.08928963568567673
676.0, 0.07407728070833389
677.0, 0.06104408112089181
678.0, 0.04948477730981197
679.0, 0.037034775530295695
680.0, 0.025855476338219312
681.0, 0.01671959221907038
682.0, 0.008579584195230751
683.0, 0.0007704683148206817
684.0, 0.006083900123841897
685.0, 0.011578916467358554
686.0, 0.016684707483144674
687.0, 0.021265851654200144
688.0, 0.02380179508230721
689.0, 0.025591974655241753
690.0, 0.025838136797866562
691.0, 0.024422972296271304
692.0, 0.023725189529107713
693.0, 0.02175595552969066
694.0, 0.02021901118669966
695.0, 0.01632660115064202
696.0, 0.011430794600408677
697.0, 0.00695822681892015
698.0, 0.0017023554070598325
699.0, 0.0021937234026603333
700.0, 0.008194782373454678
701.0, 0.013930529629808768
702.0, 0.018724302472907295
703.0, 0.02338305183583448
704.0, 0.028436817102932995
705.0, 0.03371427561931967
706.0, 0.03963229982036147
707.0, 0.04539755143137269
708.0, 0.051772509074378636
709.0, 0.05766860702871963
710.0, 0.062267453532210394
711.0, 0.06781761844736847
712.0, 0.07298681431163109
713.0, 0.07742883339989258
714.0, 0.08232358597681017
715.0, 0.08658761551390463
716.0, 0.08978622372296764
717.0, 0.09355482564811206
718.0, 0.09640317874971427
719.0, 0.09882030551742091
720.0, 0.10102940069126312
721.0, 0.10302291510910215
722.0, 0.10526186224827837
723.0, 0.10763768920343057
724.0, 0.10824130221583551
725.0, 0.10711178086082075
726.0, 0.10667520930455265
727.0, 0.10539377994412101
728.0, 0.1032508028199002
729.0, 0.10058959487146761
730.0, 0.09619550159585978
731.0, 0.09204809337650434
732.0, 0.08777761349266032
733.0, 0.08178041133728174
734.0, 0.07551292089550142
735.0, 0.07002817433261593
736.0, 0.06458152668821508
737.0, 0.05809880108631951
738.0, 0.0516104908451112
739.0, 0.046479920342865806
740.0, 0.04135860869384367
741.0, 0.03607354498254134
742.0, 0.03116542613153254
743.0, 0.02626413412017675
744.0, 0.02065804023423922
745.0, 0.015465741537543013
746.0, 0.010696456135337831
747.0, 0.00593049109464062
748.0, 0.0016472300071683746
749.0, 0.00172760646313762
750.0, 0.005506767864936207
751.0, 0.007395152197464535
752.0, 0.008822587188468994
753.0, 0.010205993642321144
754.0, 0.010618417121968503
755.0, 0.01015552738100984
756.0, 0.009872647066909001
757.0, 0.007571963678304335
758.0, 0.005155291202421329
759.0, 0.00228606953268665
760.0, 0.0007734356952861575
761.0, 0.0038457348563323444
762.0, 0.00848681807717187
763.0, 0.014358706734926296
764.0, 0.018740285030383507
765.0, 0.024245066325434314
766.0, 0.02948191214779497
767.0, 0.035236261621208985
768.0, 0.041374902307356694
769.0, 0.046369913403310835
770.0, 0.05233205270624575
771.0, 0.058696861797843
772.0, 0.06483477363780855
773.0, 0.07109469934709428
774.0, 0.07746845600482016
775.0, 0.08367156931879251
776.0, 0.08993344096999567
777.0, 0.0974454241794104
778.0, 0.10388296903651943
779.0, 0.11025508614143084
780.0, 0.11733272072677141
781.0, 0.12485608829979374
782.0, 0.13182512311314598
783.0, 0.13761774569896867
784.0, 0.14447897620777397
785.0, 0.15080286508846366
786.0, 0.15664864942501266
787.0, 0.16195231644385116
788.0, 0.1672329319038847
789.0, 0.17322402006650925
790.0, 0.17977263098739907
791.0, 0.18886282070089422
792.0, 0.1950072235839223
793.0, 0.20159857231906023
794.0, 0.20856526092261038
795.0, 0.2156117950461224
796.0, 0.22309670142420776
797.0, 0.22879158178252246
798.0, 0.2362983949036592
799.0, 0.24234329261082613
800.0, 0.24731712801781586
801.0, 0.2530701545660838
802.0, 0.2581811694590137
803.0, 0.26005278996953557
804.0, 0.2611720181541161
805.0, 0.26128118345180024
806.0, 0.26134520031853065
807.0, 0.2591006160686719
808.0, 0.25422015179420543
809.0, 0.24793597119868044
810.0, 0.2403911908385299
811.0, 0.23037816566270897
812.0, 0.2214653677111774
813.0, 0.21159620885032013
814.0, 0.20044652919068756
815.0, 0.18901937414033151
816.0, 0.1779042371507889
817.0, 0.1673314288698241
818.0, 0.15734997345920232
819.0, 0.1464752859153366
820.0, 0.13670533822365682
821.0, 0.12821218464170078
822.0, 0.1201943862225822
823.0, 0.1125797447289751
824.0, 0.10607621873695104
825.0, 0.10019230664215367
826.0, 0.0951711574470484
827.0, 0.09146512675348155
828.0, 0.08955700630327955
829.0, 0.0884959217406812
830.0, 0.08768032677485177
831.0, 0.08792513005823974
832.0, 0.09033384754104729
833.0, 0.09154186932492522
834.0, 0.09339970830707872
835.0, 0.09791040916018848
836.0, 0.1028021372382869
837.0, 0.107104519246423
838.0, 0.11228789359124851
839.0, 0.11816682656210047
840.0, 0.12515806951751038
841.0, 0.13208978195586532
842.0, 0.13969613878503911
843.0, 0.1475216396085551
844.0, 0.15532934104248286
845.0, 0.16348592583077998
846.0, 0.1718459629335063
847.0, 0.17879621899806256
848.0, 0.1879734469503403
849.0, 0.19476146360756116
850.0, 0.2008919494129717
851.0, 0.2076754885989519
852.0, 0.21369391960169642
853.0, 0.21746914743964058
854.0, 0.21872167009758695
855.0, 0.2177172613227462
856.0, 0.2148675532651231
857.0, 0.2091400294444683
858.0, 0.20148849142844122
859.0, 0.1925686264719133
860.0, 0.18172785673291547
861.0, 0.16899940415351158
862.0, 0.15671912729176776
863.0, 0.1449979672261567
864.0, 0.1341785675979906
865.0, 0.1235036443950376
866.0, 0.11368873682359107
867.0, 0.10527190721568835
868.0, 0.09670570813944672
869.0, 0.08901264619881764
870.0, 0.08302321869828534
871.0, 0.07585232413842644
872.0, 0.06847785156481793
873.0, 0.061570855089771157
874.0, 0.05410332643404154
875.0, 0.04552750433934118
876.0, 0.03806959085719043
877.0, 0.030435742740777448
878.0, 0.02426642969632232
879.0, 0.018257794962872373
880.0, 0.01316668564594784
881.0, 0.009478500192737112
882.0, 0.006350298763918108
883.0, 0.0040213307156988076
884.0, 0.003494899723726706
885.0, 0.003474547461542116
886.0, 0.004095041116130402
887.0, 0.00638676254271593
888.0, 0.009304258463537836
889.0, 0.012800520112757213
890.0, 0.01814598677293918
891.0, 0.022619211071319933
892.0, 0.029190362330335354
893.0, 0.035863143041416745
894.0, 0.04396293380813602
895.0, 0.053234637054837074
896.0, 0.0625071099640826
897.0, 0.07217275567857011
898.0, 0.08336241303702205
899.0, 0.09448682348161302
900.0, 0.10555017656729544
901.0, 0.11741963892397683
902.0, 0.1296342176655941
903.0, 0.14228036289849758
904.0, 0.15463081314615015
905.0, 0.16629207503549295
906.0, 0.17831074760474486
907.0, 0.1879474580585567
908.0, 0.19807424740077592
909.0, 0.207323855978833
910.0, 0.2152070550102431
911.0, 0.22055976763445231
912.0, 0.22388616354935076
913.0, 0.2265757282590895
914.0, 0.22661254058482214
915.0, 0.22382990233013178
916.0, 0.2206078043951724
917.0, 0.21429575766281572
918.0, 0.20586638620526557
919.0, 0.19673766044907662
920.0, 0.18665377211043663
921.0, 0.17540507140665829
922.0, 0.16411074066843287
923.0, 0.1532771439516162
924.0, 0.14079067786612984
925.0, 0.12940095425630638
926.0, 0.11816365950301999
927.0, 0.10665976524133361
928.0, 0.09589989597450017
929.0, 0.08622006575432432
930.0, 0.07655111374188824
931.0, 0.0668106793209204
932.0, 0.05742728103366371
933.0, 0.049847493837899076
934.0, 0.0429052968463863
935.0, 0.03549482181533724
936.0, 0.02876604285576984
937.0, 0.023780209605327545
938.0, 0.018646036412644014
939.0, 0.014015236471415858
940.0, 0.01043307972608772
941.0, 0.006913236857384147
942.0, 0.004131738915101248
943.0, 0.001597454242111755
944.0, 0.0009793754909309216
945.0, 0.0026778537812647144
946.0, 0.004209966204753438
947.0, 0.005508767615722779
948.0, 0.005883500611824922
949.0, 0.006496800236661537
950.0, 0.007119135536787462
951.0, 0.007257934337486026
952.0, 0.007094908760954286
953.0, 0.006985440196396148
954.0, 0.006886256027425037
955.0, 0.006272309376151016
956.0, 0.005601781907050637
957.0, 0.005002835180536197
958.0, 0.004523355282137101
959.0, 0.004092317190268235
960.0, 0.003329129190446691
961.0, 0.0022617730058099752
962.0, 0.0014676075760046664
963.0, 0.0002005799337780173
964.0, 0.0007641848768112417
965.0, 0.002501947672734806
966.0, 0.003739554923135158
967.0, 0.004873549253634534
968.0, 0.006476200748881876
969.0, 0.008043490822021285
970.0, 0.009106770450980337
971.0, 0.010857356722111956
972.0, 0.012428146603423026
973.0, 0.01397367313552654
974.0, 0.015552501955809204
975.0, 0.017368313124993817
976.0, 0.019342769077201633
977.0, 0.02137699994309698
978.0, 0.02337444138371578
979.0, 0.025208257390279206
980.0, 0.02802907065832986
981.0, 0.029825879094405226
982.0, 0.031580205738831905
983.0, 0.03387734894324214
984.0, 0.03595214363556742
985.0, 0.038031352906231
986.0, 0.04070029552879578
987.0, 0.04318172432528515
988.0, 0.04516838426840262
989.0, 0.04662018719702058
990.0, 0.04906315655773583
991.0, 0.05084985714256763
992.0, 0.051370838858799214
993.0, 0.051716606210888104
994.0, 0.05213316223401094
995.0, 0.05190664083381648
996.0, 0.051356067592264715
997.0, 0.05132917967058428
998.0, 0.05024153835954803
999.0, 0.049831594599221325
1000.0, 0.04997220029012083
1001.0, 0.04945331221599536
1002.0, 0.048727059454743135
1003.0, 0.048002161511727454
1004.0, 0.04675787176331655
1005.0, 0.04629927289756719
1006.0, 0.04627418198541663
1007.0, 0.04553139019941547
1008.0, 0.04451528715228029
1009.0, 0.04349813437099166
1010.0, 0.04230820278988309
1011.0, 0.04089308035437477
1012.0, 0.039367084289008474
1013.0, 0.037833368281657925
1014.0, 0.036311049953565995
1015.0, 0.0346321322258024
1016.0, 0.032860363361443025
1017.0, 0.03106546760900349
1018.0, 0.029198273877224352
1019.0, 0.027472167582980066
1020.0, 0.025801336740603625
1021.0, 0.024179099813923643
1022.0, 0.02262005465784051
1023.0, 0.020701337515506353
1024.0, 0.01917555878507549
1025.0, 0.017348061141686494
1026.0, 0.016227127901492385
1027.0, 0.015052274939255227
1028.0, 0.013813983059835794
1029.0, 0.012723146931713513
1030.0, 0.011507616947733541
1031.0, 0.010265433892627022
1032.0, 0.009565072648651404
1033.0, 0.009063043943825407
1034.0, 0.007846449941522867
1035.0, 0.007387511859184621
1036.0, 0.0074190710251329055
1037.0, 0.007190517162869287
1038.0, 0.00693759124555198
1039.0, 0.006712111339960115
1040.0, 0.006456676880151497
1041.0, 0.00719899331038166
1042.0, 0.007365357383487123
1043.0, 0.008266475936862049
1044.0, 0.00926914378346723
1045.0, 0.010222040271726263
1046.0, 0.01166011762310753
1047.0, 0.013579159639904022
1048.0, 0.015755854601001224
1049.0, 0.01813311504389149
1050.0, 0.02076865212232404
1051.0, 0.024248161378459462
1052.0, 0.02813751367789506
1053.0, 0.03273750064620247
1054.0, 0.03847546439038591
1055.0, 0.04464504986406648
1056.0, 0.0510712855626828
1057.0, 0.0586951540009644
1058.0, 0.06728646386922667
1059.0, 0.0758976335988004
1060.0, 0.08603718052429762
1061.0, 0.0971953236962825
1062.0, 0.10862733352144824
1063.0, 0.12113373154682315
1064.0, 0.1338824873115718
1065.0, 0.14649860474072746
1066.0, 0.15854208338035258
1067.0, 0.16934833546962783
1068.0, 0.17895383087292116
1069.0, 0.18729740532519
1070.0, 0.19368459596484128
1071.0, 0.19691695169843718
1072.0, 0.19743862230335069
1073.0, 0.19497125654694372
1074.0, 0.19046495396586963
1075.0, 0.1837595835227216
1076.0, 0.17476797152234358
1077.0, 0.1645585608938317
1078.0, 0.15416093721090526
1079.0, 0.14287266996091108
1080.0, 0.13137207523248956
1081.0, 0.12035377273579997
1082.0, 0.10984416243805656
1083.0, 0.09978844502346976
1084.0, 0.09048599400113258
1085.0, 0.08170527284744934
1086.0, 0.07345201556649204
1087.0, 0.06587743539026059
1088.0, 0.05893616839035139
1089.0, 0.05303706154579991
1090.0, 0.04757191589501981
1091.0, 0.042137576433420525
1092.0, 0.0371346920862057
1093.0, 0.03277024406746291
1094.0, 0.02870725328441268
1095.0, 0.024914712769409025
1096.0, 0.02140281502849884
1097.0, 0.01828503181357302
1098.0, 0.015735962527099422
1099.0, 0.013496942509120187
1100.0, 0.011449545088018731
1101.0, 0.009779416132442246
1102.0, 0.00781577197495083
1103.0, 0.0065839415231829556
1104.0, 0.005657767635894036
1105.0, 0.00476441105589827
1106.0, 0.004041662177745665
1107.0, 0.0034934236739455177
1108.0, 0.002981096019248717
1109.0, 0.0024358549843712684
1110.0, 0.0017159688399865573
1111.0, 0.0015141158875453266
1112.0, 0.0009853150675696578
1113.0, 0.0005326956530464103
1114.0, 0.0008243693868538237
1115.0, 0.0005576146220247521
1116.0, 2.0679923296755934e-05
1117.0, 0.00015458462478971094
1118.0, 0.00021609324360396468
1119.0, 0.0003458614470369373
1120.0, 0.00010147424829214582
1121.0, 0.0004511084679937145
1122.0, 0.00041777503915640187
1123.0, 0.00044047732329986067
1124.0, 0.0005479231195468082
1125.0, 0.0006037915154489268
1126.0, 0.0005252336289031032
1127.0, 0.0005226364091492514
1128.0, 0.0006913645232711418
1129.0, 0.0006993055000947337
1130.0, 0.00041418783476258886
1131.0, 0.0005858565725919873
1132.0, 0.0006313949416687827
1133.0, 0.0006557373203153444
1134.0, 0.00039728534395155115
1135.0, 0.00029769307489444223
1136.0, 0.00014653806291113882
1137.0, 0.0003705426012807594
1138.0, 0.000289529156652555
1139.0, 0.00023596357200779327
1140.0, 0.00046613274404090914
1141.0, 0.0004686888299695124
1142.0, 0.0006399326039713637
1143.0, 0.0005824421494717815
1144.0, 0.0006087936334871551
1145.0, 0.0008397378251510013
1146.0, 0.0010203706209201387
1147.0, 0.0011679152149376688
1148.0, 0.0012787174128798238
1149.0, 0.0013238739002156986
1150.0, 0.0014793822985198037
1151.0, 0.0016528906287692773
1152.0, 0.0015018726428363146
1153.0, 0.0017147921526324164
1154.0, 0.001832683535491192
1155.0, 0.001758905897460358
1156.0, 0.002176648092781243
1157.0, 0.0022313246105831095
1158.0, 0.0021334314669671666
1159.0, 0.0023314254178789886
1160.0, 0.002497085946176107
1161.0, 0.0024492298088062137
1162.0, 0.0026184210785616096
1163.0, 0.002696066328505445
1164.0, 0.0027086102457184722
1165.0, 0.00290716562195371
1166.0, 0.0030542642236756645
1167.0, 0.0029489591200199355
1168.0, 0.0027192128892739582
1169.0, 0.0036078427193660203
1170.0, 0.003829352593811085
1171.0, 0.0032050300335572115
1172.0, 0.0030776622427150756
1173.0, 0.0032832515428359425
1174.0, 0.003237250995638093
1175.0, 0.003012278775594617
1176.0, 0.0033124920226323823
1177.0, 0.0038113289100833747
1178.0, 0.00349907555772423
1179.0, 0.003180205637083813
1180.0, 0.0029894005096767883
1181.0, 0.003037859922809279
1182.0, 0.002917748762887503
1183.0, 0.00279742632539766
1184.0, 0.002923977267011856
1185.0, 0.002877898616791042
1186.0, 0.0028399332297659595
1187.0, 0.002479421245566544
1188.0, 0.0023960583041694994
1189.0, 0.002298005259647492
1190.0, 0.002163662998154339
1191.0, 0.00196250123519607
1192.0, 0.001965494458096212
1193.0, 0.0021381089015111276
1194.0, 0.0021376336382763752
1195.0, 0.0019102851520785618
1196.0, 0.0019334015910753486
1197.0, 0.002162002614269704
1198.0, 0.0018332346804460756
1199.0, 0.0026892819621479086
1200.0, 0.002044432907558037
1201.0, 0.001809046782718874
1202.0, 0.0016064592081843853
1203.0, 0.0015293626760512517
1204.0, 0.0013999071393096755
1205.0, 0.001378301310665416
1206.0, 0.0015058632523825002
1207.0, 0.001453791362479637
1208.0, 0.0012439973116253706
1209.0, 0.0013937982794428243
1210.0, 0.0018606095061374723
1211.0, 0.0014992415646004204
1212.0, 0.001302000872148829
1213.0, 0.0011631249418797788
1214.0, 0.0011623965562237541
1215.0, 0.001198660944491751
1216.0, 0.00117317721268593
1217.0, 0.0008912532638405547
1218.0, 0.0005230647570493209
1219.0, 0.0007104497941213664
1220.0, 0.0010060169253194348
1221.0, 0.0009311778545302605
1222.0, 0.0009791636930879131
1223.0, 0.0008364428802233627
1224.0, 0.0007752731249605096
1225.0, 0.0004978415807311147
1226.0, 0.0008350857923680121
1227.0, 0.0008098845433690813
1228.0, 0.0006937644139080161
1229.0, 0.0007147762699253936
1230.0, 0.0005905331232066612
1231.0, 0.0006111586362396567
1232.0, 0.0005760242925976482
1233.0, 0.00041416061062327265
1234.0, 0.000477377083373686
1235.0, 0.00046517177323967206
1236.0, 0.00024086456508548798
1237.0, 6.4497733972451e-05
1238.0, 0.0003050991914844379
1239.0, 0.00010264902414923361
1240.0, 0.00031848388477611885
1241.0, 0.00040134977634799794
1242.0, 0.0003621700022355547
1243.0, 0.0003051301480823894
1244.0, 0.00037464087340190704
1245.0, 0.0003380553887646211
1246.0, 0.00013726340508775912
1247.0, 0.00011244125899378824
1248.0, 0.00012747960203840345
1249.0, 3.1196094165012136e-05
1250.0, 0.0004660390441726147
1251.0, 0.0003179875958243761
1252.0, 0.00012106589953780187
1253.0, 0.00023604953815961206
1254.0, 0.00017978167939942618
1255.0, 0.00012909850271125358
1256.0, 0.000147481422829967
1257.0, 0.00021537217030564813
1258.0, 0.00035209331022400647
1259.0, 0.0004937953567005752
1260.0, 0.00047503218172674445
1261.0, 0.0003816722082756821
1262.0, 0.00037429039868497376
1263.0, 0.00019452783625652036
1264.0, 0.00025594272644125806
1265.0, 0.00019359398774265485
1266.0, 0.00038035412141206677
1267.0, 0.0001616964458678262
1268.0, 0.0003454874608816659
1269.0, 0.000497374861085209
1270.0, 0.0004052726831856772
1271.0, 0.0004235229194510233
1272.0, 0.000441600268151201
1273.0, 9.650746150200186e-05
1274.0, 4.1229313264792546e-05
1275.0, 0.00026545567238857684
1276.0, 0.000277534883742706
1277.0, 0.00027801570414924396
1278.0, 0.000206402075756802
1279.0, 0.00010493289269417413
1280.0, 0.00035915658883154387
1281.0, 4.5978404544412345e-05
1282.0, 2.7284216573227327e-05
1283.0, 2.6607128980686792e-05
1284.0, 6.250723882896487e-05
1285.0, 4.486665006631378e-05
1286.0, 0.00013221660302732363
1287.0, 4.037276083642614e-05
1288.0, 4.811320983485527e-05
1289.0, 1.2894052271207459e-05
1290.0, 5.038465364943826e-05
1291.0, 0.0001592742150003239
1292.0, 0.00019742040293313336
1293.0, 2.7410026197872234e-05
1294.0, 0.0001261169231357102
1295.0, 0.00014296646036457812
1296.0, 0.00013241814203958716
1297.0, 5.244224063741111e-05
1298.0, 0.00021207021788943704
1299.0, 9.297561274137161e-05
1300.0, 0.00012839820953386603
1301.0, 9.228711142229128e-05
1302.0, 2.303142506129178e-05
1303.0, 1.6953905322827615e-06
1304, 0.0
1305, 0.0
1306, 0.0
1307, 0.0
1308, 0.0
1309, 0.0
1310, 0.0
1311, 0.0
1312, 0.0
1313, 0.0
1314, 0.0
1315, 0.0
1316, 0.0
1317, 0.0
1318, 0.0
1319, 0.0
1320, 0.0
1321, 0.0
1322, 0.0
1323, 0.0
1324, 0.0
1325, 0.0
1326, 0.0
1327, 0.0
1328, 0.0
1329, 0.0
1330, 0.0
1331, 0.0
1332, 0.0
1333, 0.0
1334, 0.0
1335, 0.0
1336, 0.0
1337, 0.0
1338, 0.0
1339, 0.0
1340, 0.0
1341, 0.0
1342, 0.0
1343, 0.0
1344, 0.0
1345, 0.0
1346, 0.0
1347, 0.0
1348, 0.0
1349, 0.0
1350, 0.0
1351, 0.0
1352, 0.0
1353, 0.0
1354, 0.0
1355, 0.0
1356, 0.0
1357, 0.0
1358, 0.0
1359, 0.0
1360, 0.0
1361, 0.0
1362, 0.0
1363, 0.0
1364, 0.0
1365, 0.0
1366, 0.0
1367, 0.0
1368, 0.0
1369, 0.0
1370, 0.0
1371, 0.0
1372, 0.0
1373, 0.0
1374, 0.0
1375, 0.0
1376, 0.0
1377, 0.0
1378, 0.0
1379, 0.0
1380, 0.0
1381, 0.0
1382, 0.0
1383, 0.0
1384, 0.0
1385, 0.0
1386, 0.0
1387, 0.0
1388, 0.0
1389, 0.0
1390, 0.0
1391, 0.0
1392, 0.0
1393, 0.0
1394, 0.0
1395, 0.0
1396, 0.0
1397, 0.0
1398, 0.0
1399, 0.0
1400, 0.0
1401, 0.0
1402, 0.0
1403, 0.0
1404, 0.0
1405, 0.0
1406, 0.0
1407, 0.0
1408, 0.0
1409, 0.0
1410, 0.0
1411, 0.0
1412, 0.0
1413, 0.0
1414, 0.0
1415, 0.0
1416, 0.0
1417, 0.0
1418, 0.0
1419, 0.0
1420, 0.0
1421, 0.0
1422, 0.0
1423, 0.0
1424, 0.0
1425, 0.0
1426, 0.0
1427, 0.0
1428, 0.0
1429, 0.0
1430, 0.0
1431, 0.0
1432, 0.0
1433, 0.0
1434, 0.0
1435, 0.0
1436, 0.0
1437, 0.0
1438, 0.0
1439, 0.0
1440, 0.0
1441, 0.0
1442, 0.0
1443, 0.0
1444, 0.0
1445, 0.0
1446, 0.0
1447, 0.0
1448, 0.0
1449, 0.0
1450, 0.0
1451, 0.0
1452, 0.0
1453, 0.0
1454, 0.0
1455, 0.0
1456, 0.0
1457, 0.0
1458, 0.0
1459, 0.0
1460, 0.0
1461, 0.0
1462, 0.0
1463, 0.0
1464, 0.0
1465, 0.0
1466, 0.0
1467, 0.0
1468, 0.0
1469, 0.0
1470, 0.0
1471, 0.0
1472, 0.0
1473, 0.0
1474, 0.0
1475, 0.0
1476, 0.0
1477, 0.0
1478, 0.0
1479, 0.0
1480, 0.0
1481, 0.0
1482, 0.0
1483, 0.0
1484, 0.0
1485, 0.0
1486, 0.0
1487, 0.0
1488, 0.0
1489, 0.0
1490, 0.0
1491, 0.0
1492, 0.0
1493, 0.0
1494, 0.0
1495, 0.0
1496, 0.0
1497, 0.0
1498, 0.0
1499, 0.0
1500, 0.0
1501, 0.0
1502, 0.0
1503, 0.0
1504, 0.0
1505, 0.0
1506, 0.0
1507, 0.0
1508, 0.0
1509, 0.0
1510, 0.0
1511, 0.0
1512, 0.0
1513, 0.0
1514, 0.0
1515, 0.0
1516, 0.0
1517, 0.0
1518, 0.0
1519, 0.0
1520, 0.0
1521, 0.0
1522, 0.0
1523, 0.0
1524, 0.0
1525, 0.0
1526, 0.0
1527, 0.0
1528, 0.0
1529, 0.0
1530, 0.0
1531, 0.0
1532, 0.0
1533, 0.0
1534, 0.0
1535, 0.0
1536, 0.0
1537, 0.0
1538, 0.0
1539, 0.0
1540, 0.0
1541, 0.0
1542, 0.0
1543, 0.0
1544, 0.0
1545, 0.0
1546, 0.0
1547, 0.0
1548, 0.0
1549, 0.0
1550, 0.0
1551, 0.0
1552, 0.0
1553, 0.0
1554, 0.0
1555, 0.0
1556, 0.0
1557, 0.0
1558, 0.0
1559, 0.0
1560, 0.0
1561, 0.0
1562, 0.0
1563, 0.0
1564, 0.0
1565, 0.0
1566, 0.0
1567, 0.0
1568, 0.0
1569, 0.0
1570, 0.0
1571, 0.0
1572, 0.0
1573, 0.0
1574, 0.0
1575, 0.0
1576, 0.0
1577, 0.0
1578, 0.0
1579, 0.0
1580, 0.0
1581, 0.0
1582, 0.0
1583, 0.0
1584, 0.0
1585, 0.0
1586, 0.0
1587, 0.0
1588, 0.0
1589, 0.0
1590, 0.0
1591, 0.0
1592, 0.0
1593, 0.0
1594, 0.0
1595, 0.0
1596, 0.0
1597, 0.0
1598, 0.0
1599, 0.0
