30, 0.0
31, 0.0
32, 0.0
33, 0.0
34, 0.0
35, 0.0
36, 0.0
37, 0.0
38, 0.0
39, 0.0
40, 0.0
41, 0.0
42, 0.0
43, 0.0
44, 0.0
45, 0.0
46, 0.0
47, 0.0
48, 0.0
49, 0.0
50, 0.0
51, 0.0
52.0, 0.0006144721672933832
53.0, 0.001716053061562213
54.0, 0.0025002123307148244
55.0, 0.003444279951339347
56.0, 0.003692571390966068
57.0, 0.0024379229256463793
58.0, 0.0012688907304782794
59.0, 0.0007356359296408821
60.0, 0.0007617689650126204
61.0, 0.0008771361704429857
62.0, 0.0004712591681816702
63.0, 0.000559626395179987
64.0, 0.001972514754016078
65.0, 0.0029066249128837825
66.0, 0.004747794974607053
67.0, 0.0075097330211268245
68.0, 0.011038022849597085
69.0, 0.015665732387419213
70.0, 0.020959187784626764
71.0, 0.02679990381862088
72.0, 0.035385023397211605
73.0, 0.042323417238823186
74.0, 0.04776263178700091
75.0, 0.05284008647705257
76.0, 0.05957560615481222
77.0, 0.06463160268837814
78.0, 0.0658597569832027
79.0, 0.06875735533639016
80.0, 0.07202857838630058
81.0, 0.07459270929807646
82.0, 0.07275952086657166
83.0, 0.07138495900883968
84.0, 0.06963497904314506
85.0, 0.06708445994617192
86.0, 0.06403430741264905
87.0, 0.06119003676577427
88.0, 0.058627339412153895
89.0, 0.05661352380695696
90.0, 0.05306679644947019
91.0, 0.04945474248849022
92.0, 0.046268099648225265
93.0, 0.042936827555072506
94.0, 0.038652167291110415
95.0, 0.03395059804096805
96.0, 0.029762542444801872
97.0, 0.025842778323783865
98.0, 0.02241988817252492
99.0, 0.019585476366175553
100.0, 0.017380656526087217
101.0, 0.014814391693029436
102.0, 0.012430269498772009
103.0, 0.011052214590287218
104.0, 0.010612408838263815
105.0, 0.010611130210029079
106.0, 0.010849085472208229
107.0, 0.010231405582391601
108.0, 0.011729561299847214
109.0, 0.01506381269404263
110.0, 0.020476227553108677
111.0, 0.020497371970253548
112.0, 0.020102495597127387
113.0, 0.020008021475315302
114.0, 0.021448207072886846
115.0, 0.01763441777279158
116.0, 0.012876678035242027
117.0, 0.009647418856542822
118.0, 0.008081086617981986
119.0, 0.007652025902750381
120.0, 0.007672956370035175
121.0, 0.006197954696981091
122.0, 0.005381213204443871
123.0, 0.005415817583416029
124.0, 0.006421837234610401
125.0, 0.006364439934227933
126.0, 0.007718034915798222
127.0, 0.009083729470287212
128.0, 0.007902828946002699
129.0, 0.00977273995512654
130.0, 0.010831004402999011
131.0, 0.010367902450304669
132.0, 0.009980377338216401
133.0, 0.009786927832862275
134.0, 0.010396808152327975
135.0, 0.012647195918775908
136.0, 0.013085290939911799
137.0, 0.015498187968689521
138.0, 0.019459645245771682
139.0, 0.021334670315018532
140.0, 0.026787223763196037
141.0, 0.03301940637794467
142.0, 0.03862368055718673
143.0, 0.04267603706909808
144.0, 0.04411686695768997
145.0, 0.04301349930116953
146.0, 0.038906944767758925
147.0, 0.03419690197415396
148.0, 0.030648614761666367
149.0, 0.02875314578931948
150.0, 0.027417649624475814
151.0, 0.027639143917991063
152.0, 0.029184329347302338
153.0, 0.03212488112650463
154.0, 0.03548173857549266
155.0, 0.039613602663340006
156.0, 0.04473046851253044
157.0, 0.05180275215501593
158.0, 0.05718355972959043
159.0, 0.06228078633164299
160.0, 0.06783988656842854
161.0, 0.07210871899309675
162.0, 0.07564462243571761
163.0, 0.07870878637791069
164.0, 0.08176466002379754
165.0, 0.08505069912686522
166.0, 0.08685442400666672
167.0, 0.08704249606248483
168.0, 0.08980100950249734
169.0, 0.09103443807434543
170.0, 0.0926551906306548
171.0, 0.09663785952037589
172.0, 0.10287059737029774
173.0, 0.10790453851659468
174.0, 0.11238837969952264
175.0, 0.11975719256785301
176.0, 0.12294944759231709
177.0, 0.12715011101580995
178.0, 0.13435380001207972
179.0, 0.13683233078384266
180.0, 0.1388583303280827
181.0, 0.14058397981766646
182.0, 0.14216512361995895
183.0, 0.14761838820335962
184.0, 0.14931992856454127
185.0, 0.14733085923360248
186.0, 0.1483527637003664
187.0, 0.1448805532696669
188.0, 0.14061969330861832
189.0, 0.1375803334913653
190.0, 0.13739280026840867
191.0, 0.13692003510032646
192.0, 0.13687077452609028
193.0, 0.13883361735862343
194.0, 0.14107432371612122
195.0, 0.1454667048505345
196.0, 0.1518035505579795
197.0, 0.15517974228796447
198.0, 0.1595106894976015
199.0, 0.16307074556007528
200.0, 0.16450797997068356
201.0, 0.16484805196888833
202.0, 0.16368205272927736
203.0, 0.1623573448931676
204.0, 0.1640606561108541
205.0, 0.1627960680489528
206.0, 0.16019557228808395
207.0, 0.15713256804518347
208.0, 0.15836632962220412
209.0, 0.15813452309573778
210.0, 0.15728263926851657
211.0, 0.1563610675846095
212.0, 0.1554853724684694
213.0, 0.15409648571055018
214.0, 0.15264757497953552
215.0, 0.1522794119086582
216.0, 0.1543249132192772
217.0, 0.15703426725967404
218.0, 0.15991381590875298
219.0, 0.16214326960047173
220.0, 0.16383004825256894
221.0, 0.16702733106921852
222.0, 0.17348061288098893
223.0, 0.17780703750560028
224.0, 0.1802468738527117
225.0, 0.18133840476740667
226.0, 0.18198750154135196
227.0, 0.18292248931104918
228.0, 0.18244679081679027
229.0, 0.18069230468685904
230.0, 0.18130663241599174
231.0, 0.18005107100199202
232.0, 0.17707478035822333
233.0, 0.1722736517472891
234.0, 0.16907798038672667
235.0, 0.16581883051787444
236.0, 0.16244317289775906
237.0, 0.15885311745344458
238.0, 0.15980092697458237
239.0, 0.1607375494494232
240.0, 0.16191380516066736
241.0, 0.16824570575558886
242.0, 0.17550661841241602
243.0, 0.18418599125524918
244.0, 0.19458886923650642
245.0, 0.20522696773528745
246.0, 0.21313150215217685
247.0, 0.22115294982415742
248.0, 0.23289022247879024
249.0, 0.23749826169039864
250.0, 0.24256907477242506
251.0, 0.24700863808201604
252.0, 0.2447821021340844
253.0, 0.24287063261457556
254.0, 0.24081884948495624
255.0, 0.23821094849591248
256.0, 0.23217490982880798
257.0, 0.22383158871934164
258.0, 0.21457557027330473
259.0, 0.2053677124290496
260.0, 0.1943433822888453
261.0, 0.18322921068131404
262.0, 0.17192640817223664
263.0, 0.16012361543432763
264.0, 0.14950939244534647
265.0, 0.1380991254648315
266.0, 0.12640837271635283
267.0, 0.11867489575454365
268.0, 0.10954042968090921
269.0, 0.10022090798032554
270.0, 0.09131306849680709
271.0, 0.08449163458847714
272.0, 0.07818814590545481
273.0, 0.07186810205027779
274.0, 0.06497427958098605
275.0, 0.062030869957422095
276.0, 0.06029634415355539
277.0, 0.059063226616886386
278.0, 0.057097750676501344
279.0, 0.058244646655879875
280.0, 0.060340769973718456
281.0, 0.06313631710538883
282.0, 0.06777185770992199
283.0, 0.07001499168514547
284.0, 0.07349760671270231
285.0, 0.08007761078466274
286.0, 0.08963170284048057
287.0, 0.09579084254370133
288.0, 0.1003411127850908
289.0, 0.10498193753602288
290.0, 0.11203111798475436
291.0, 0.11326080587033804
292.0, 0.11025817893177006
293.0, 0.10728740607282765
294.0, 0.10164610798256402
295.0, 0.09802256020341318
296.0, 0.09682262471297265
297.0, 0.09531671239273704
298.0, 0.09880689729096012
299.0, 0.10452284154362469
300.0, 0.11152339393796457
301.0, 0.12186939037493577
302.0, 0.1333896246387019
303.0, 0.14724342419293598
304.0, 0.16474089744256362
305.0, 0.18461281330787338
306.0, 0.20722451127388317
307.0, 0.23583037809567559
308.0, 0.27725281343843733
309.0, 0.3239394207305424
310.0, 0.38185140716021776
311.0, 0.450742731726817
312.0, 0.5275936733357913
313.0, 0.6134771544655893
314.0, 0.6943917226661194
315.0, 0.7623828885951284
316.0, 0.788487627434487
317.0, 0.7877243541205561
318.0, 0.7558786456648928
319.0, 0.6887977393491802
320.0, 0.6179568448473646
321.0, 0.546700973509518
322.0, 0.47873663977062836
323.0, 0.41867640190489613
324.0, 0.37097596459038346
325.0, 0.33353208867562356
326.0, 0.3032671255293953
327.0, 0.2748511134844691
328.0, 0.2568219907219799
329.0, 0.24120605658612956
330.0, 0.22782883204782067
331.0, 0.2211750149667694
332.0, 0.21019490430210055
333.0, 0.2018599543249192
334.0, 0.19744975103062057
335.0, 0.18865019852336584
336.0, 0.18128346852151467
337.0, 0.17275445361146358
338.0, 0.1617232850344394
339.0, 0.15399956132416773
340.0, 0.14630816647051353
341.0, 0.13793738284911958
342.0, 0.12811043596528618
343.0, 0.12316757361898932
344.0, 0.1177407716496267
345.0, 0.11163743019446998
346.0, 0.10475326832526242
347.0, 0.10236890965264918
348.0, 0.10007577545957423
349.0, 0.09732891934807235
350.0, 0.09396306572964246
351.0, 0.08846978108408068
352.0, 0.08286455435810554
353.0, 0.07752571313501601
354.0, 0.07211757698997652
355.0, 0.06654131135252568
356.0, 0.06159288214830473
357.0, 0.0574116823114989
358.0, 0.05216251920072289
359.0, 0.04824814682928565
360.0, 0.04474892439063179
361.0, 0.04111554898477922
362.0, 0.036882078079100114
363.0, 0.03437241710123294
364.0, 0.03201246752388746
365.0, 0.028289614413607053
366.0, 0.025652904879298683
367.0, 0.02310854609383402
368.0, 0.02004747255456015
369.0, 0.015532258178153404
370.0, 0.012984659027759
371.0, 0.009719548281790245
372.0, 0.005970336324851881
373.0, 0.0027506470234154303
374.0, 0.002506204285154268
375.0, 0.002730492382180925
376.0, 0.0030951241429307973
377.0, 0.0038775689378531134
378.0, 0.0066707306012232254
379.0, 0.008798594593468751
380.0, 0.009577617760972438
381.0, 0.009100340550421747
382.0, 0.008955158369323302
383.0, 0.009017765100565008
384.0, 0.009201497765012558
385.0, 0.00908803045917595
386.0, 0.007386423271630149
387.0, 0.006232078189046418
388.0, 0.006640949794337566
389.0, 0.0046542433698952695
390.0, 0.0027003938496835975
391.0, 0.0011519404220686122
392.0, 0.0003309066281569135
393.0, 0.001147123811064975
394.0, 0.0033299192233232633
395.0, 0.0066379507757128
396.0, 0.010868826898285888
397.0, 0.011994060936752125
398.0, 0.016047015624688403
399.0, 0.021799409701021427
400.0, 0.027228286283965838
401.0, 0.03156300504371092
402.0, 0.03868334487608768
403.0, 0.04717292275013729
404.0, 0.05367608834329401
405.0, 0.06341380117214178
406.0, 0.07588976189112814
407.0, 0.0909031284258923
408.0, 0.10826963447614267
409.0, 0.13144518075950168
410.0, 0.15759245361211985
411.0, 0.1871602028835276
412.0, 0.22371027181087183
413.0, 0.26941047725875306
414.0, 0.3176061115915497
415.0, 0.36769085629908077
416.0, 0.4245118685142372
417.0, 0.48718409118763945
418.0, 0.5514241668483469
419.0, 0.6129739284684986
420.0, 0.653761492025251
421.0, 0.6681359050263648
422.0, 0.6682702600179781
423.0, 0.6563914613793784
424.0, 0.6134318217867184
425.0, 0.5516804970838673
426.0, 0.4856197036265011
427.0, 0.4218165592247348
428.0, 0.35453535420472665
429.0, 0.2982449031778681
430.0, 0.2507751612744149
431.0, 0.2111020890034141
432.0, 0.17748554882000106
433.0, 0.14519974487065632
434.0, 0.11817231838573475
435.0, 0.09914448520990829
436.0, 0.08016369356837748
437.0, 0.06593415330793827
438.0, 0.05421179294029286
439.0, 0.043210000484812626
440.0, 0.03345141430115791
441.0, 0.025336871627887128
442.0, 0.01883873436712069
443.0, 0.013970770618566644
444.0, 0.007398671117961223
445.0, 0.0029646938502005276
446.0, 0.0016088531339995336
447.0, 0.0044268687683452455
448.0, 0.00798994332074043
449.0, 0.010256703056916278
450.0, 0.011537766248701037
451.0, 0.012221304596631994
452.0, 0.011181335085815572
453.0, 0.012093916224868639
454.0, 0.012990942708193972
455.0, 0.011085033784837125
456.0, 0.010299097805770964
457.0, 0.00802080333727577
458.0, 0.004950908992200356
459.0, 0.0022299518734149723
460.0, 0.0016395769562851797
461.0, 0.005378150237304473
462.0, 0.010611062586400774
463.0, 0.012880043917184607
464.0, 0.0174138422890915
465.0, 0.02324536348642807
466.0, 0.02852755937554055
467.0, 0.03037516476909102
468.0, 0.03271486601393946
469.0, 0.034953060009786145
470.0, 0.036056466963274365
471.0, 0.03432736004181088
472.0, 0.035762057880885705
473.0, 0.03498971326698455
474.0, 0.033975144087656665
475.0, 0.03665616754575236
476.0, 0.03663762103558772
477.0, 0.038838867318067946
478.0, 0.04217322005835718
479.0, 0.044261506390598546
480.0, 0.04800761708284321
481.0, 0.05120262135591036
482.0, 0.0536560330956901
483.0, 0.05529133051101812
484.0, 0.05980632578154013
485.0, 0.06297096124422037
486.0, 0.06568604055461284
487.0, 0.06985680014909286
488.0, 0.07149433597082612
489.0, 0.0721779303120872
490.0, 0.07254700625991316
491.0, 0.07341836578774047
492.0, 0.07366043592635238
493.0, 0.07312598932476397
494.0, 0.07240194413831033
495.0, 0.07234411404181468
496.0, 0.07116631340779939
497.0, 0.06910515399502637
498.0, 0.06673183022647228
499.0, 0.06479262862324962
500.0, 0.06251904587182507
501.0, 0.059880411495207536
502.0, 0.057217650637845334
503.0, 0.05495010409990911
504.0, 0.05544814668473304
505.0, 0.054033292245671785
506.0, 0.052456080878684794
507.0, 0.0527600071297251
508.0, 0.051884621459627606
509.0, 0.05234116359389924
510.0, 0.05407191959237192
511.0, 0.05694756259077108
512.0, 0.056115893414271395
513.0, 0.05777050197257466
514.0, 0.0592026576353142
515.0, 0.05828870343221674
516.0, 0.0640468675491281
517.0, 0.06495150154572438
518.0, 0.06474147460597143
519.0, 0.0662428082741365
520.0, 0.06957991830262514
521.0, 0.07144229722397424
522.0, 0.07398670570130052
523.0, 0.07832039061586153
524.0, 0.0805661634970987
525.0, 0.08369761106883519
526.0, 0.08838686907259762
527.0, 0.09470173149760114
528.0, 0.09973515025154508
529.0, 0.10589357266608804
530.0, 0.11205657075692337
531.0, 0.11809796669568413
532.0, 0.12654360183453356
533.0, 0.13534997812259264
534.0, 0.14366996479967728
535.0, 0.151382888040279
536.0, 0.1594554835165596
537.0, 0.16529581168798066
538.0, 0.1706560795609999
539.0, 0.17552332467581194
540.0, 0.17791796014601927
541.0, 0.181709661883144
542.0, 0.182852571421513
543.0, 0.18214382536498902
544.0, 0.18454353783862223
545.0, 0.18580056860059807
546.0, 0.1836492615253542
547.0, 0.17964439695436712
548.0, 0.17807042694155656
549.0, 0.1774258612591524
550.0, 0.1738678265852427
551.0, 0.16806467505565093
552.0, 0.1618294707635167
553.0, 0.15233616632006794
554.0, 0.1434840557450105
555.0, 0.1359553228125494
556.0, 0.1303251478677368
557.0, 0.12362602640160847
558.0, 0.11749427639045056
559.0, 0.1112174452090792
560.0, 0.10419808833071445
561.0, 0.10204855274172904
562.0, 0.09758190384390583
563.0, 0.09405812705942598
564.0, 0.09387978457424773
565.0, 0.09716231015613566
566.0, 0.09663813397876737
567.0, 0.09925915653312327
568.0, 0.1076769587096403
569.0, 0.11383856160947317
570.0, 0.1173912358231879
571.0, 0.12147406983435409
572.0, 0.1271059296528579
573.0, 0.13349873815283975
574.0, 0.14233297236774384
575.0, 0.1503140097373392
576.0, 0.1571634829173941
577.0, 0.1646662454288748
578.0, 0.17751846857407422
579.0, 0.19290572677006157
580.0, 0.2083444054310358
581.0, 0.2195517597718371
582.0, 0.23756289486558357
583.0, 0.25574807725613774
584.0, 0.2737139921559035
585.0, 0.2917360916003663
586.0, 0.31756537096750226
587.0, 0.34381175505684297
588.0, 0.3713850266897651
589.0, 0.40108797948658365
590.0, 0.4242377382258542
591.0, 0.4516656828634247
592.0, 0.4830246404014957
593.0, 0.5183104497412434
594.0, 0.5601399682989536
595.0, 0.5992193596777337
596.0, 0.6366808027763634
597.0, 0.6736986598527593
598.0, 0.7138984244334113
599.0, 0.7512456124565016
600.0, 0.789784830310609
601.0, 0.8285616621461778
602.0, 0.8611294222403457
603.0, 0.8985010874674384
604.0, 0.9329008402875051
605.0, 0.9599138914427569
606.0, 0.9733202012411657
607.0, 0.9810937012279962
608.0, 0.99157656745452
609.0, 0.9981888662287534
610.0, 0.9924158540053214
611.0, 0.9788724884514174
612.0, 0.9625972403001529
613.0, 0.9471591277705095
614.0, 0.9339030458066657
615.0, 0.9040574458998074
616.0, 0.882977383947547
617.0, 0.8616276735848012
618.0, 0.8353247354359422
619.0, 0.8021977154771526
620.0, 0.7710184323008519
621.0, 0.7455638760398513
622.0, 0.7230985985977993
623.0, 0.6921687094716781
624.0, 0.6711995181550253
625.0, 0.6419976930910052
626.0, 0.6131340536984997
627.0, 0.6039138441045082
628.0, 0.5705945306972536
629.0, 0.5468128792538263
630.0, 0.5307302272874523
631.0, 0.5180228029772096
632.0, 0.4899537058179573
633.0, 0.47107404243789763
634.0, 0.45237166892783615
635.0, 0.4304094675046703
636.0, 0.4219059376968723
637.0, 0.40072135680411997
638.0, 0.3823405122856614
639.0, 0.37077285533772486
640.0, 0.36110969713045843
641.0, 0.3470483349181265
642.0, 0.3323035550024593
643.0, 0.3188463197331002
644.0, 0.30920324033443486
645.0, 0.3000668886003276
646.0, 0.29017329318885
647.0, 0.2800860387222852
648.0, 0.2705855257019296
649.0, 0.26465364723148577
650.0, 0.25729140799926015
651.0, 0.2514185458395929
652.0, 0.2478299002173977
653.0, 0.23955009973044808
654.0, 0.2354076632725983
655.0, 0.22775713813567833
656.0, 0.2169033854032057
657.0, 0.21169340986845134
658.0, 0.2078269304676299
659.0, 0.20343550838186916
660.0, 0.198168860760967
661.0, 0.1919275686671601
662.0, 0.18760058268838312
663.0, 0.18364309145301344
664.0, 0.1782309960118778
665.0, 0.17049521506647772
666.0, 0.170457666794327
667.0, 0.1646052702075631
668.0, 0.1593377047664628
669.0, 0.1569220821771072
670.0, 0.15381863484784222
671.0, 0.1469701358491093
672.0, 0.144460693517031
673.0, 0.14384064122275458
674.0, 0.1358226159710262
675.0, 0.1336030495646994
676.0, 0.12986676000646558
677.0, 0.1256152059865101
678.0, 0.12251112303022518
679.0, 0.11915782068803554
680.0, 0.11398650677095268
681.0, 0.11172103395362525
682.0, 0.11347992865135945
683.0, 0.10995075043625435
684.0, 0.10602219841973563
685.0, 0.10373159226369351
686.0, 0.10162250141089854
687.0, 0.09469341420306893
688.0, 0.09528577070370628
689.0, 0.09395790593655301
690.0, 0.09047195383692039
691.0, 0.08571983674591986
692.0, 0.08176141130804582
693.0, 0.08247267402406319
694.0, 0.08220697081999997
695.0, 0.07862859574318283
696.0, 0.07841988301024791
697.0, 0.07524835474530962
698.0, 0.0730117949192714
699.0, 0.0717726482303536
700.0, 0.06909141237065403
701.0, 0.06579832855672264
702.0, 0.06253986804319848
703.0, 0.060764604305139795
704.0, 0.06182936349797042
705.0, 0.06113972716075193
706.0, 0.058482341357489614
707.0, 0.05508905139830106
708.0, 0.05224135522641224
709.0, 0.052953589303427306
710.0, 0.04895846792022723
711.0, 0.047890660028306296
712.0, 0.048360110782896676
713.0, 0.043926097680767925
714.0, 0.04322586372445845
715.0, 0.042497202359391785
716.0, 0.04103750011146821
717.0, 0.038776975425808484
718.0, 0.04091327891179203
719.0, 0.03961734469131909
720.0, 0.03758582454187668
721.0, 0.03595326518020214
722.0, 0.03461519262801895
723.0, 0.03367988902078097
724.0, 0.03224558665602464
725.0, 0.030697887687408183
726.0, 0.029818424594990105
727.0, 0.02736667531591864
728.0, 0.027142348813129262
729.0, 0.027521438125009873
730.0, 0.027133906869054855
731.0, 0.024615851981877053
732.0, 0.02297976534537235
733.0, 0.02231918416855868
734.0, 0.021638731237932758
735.0, 0.01860130127497456
736.0, 0.01806319828919538
737.0, 0.01701769526011324
738.0, 0.015854526583390073
739.0, 0.015096189038555589
740.0, 0.013790119562494322
741.0, 0.012534428926333396
742.0, 0.011754065403846495
743.0, 0.011458395447020762
744.0, 0.011084152209739458
745.0, 0.007837905996442879
746.0, 0.0055804469086527175
747.0, 0.004563536428314546
748.0, 0.0043502124095617205
749.0, 0.003850416226026114
750.0, 0.0035181034906533134
751.0, 0.0024359118234022355
752.0, 0.0006487337995095368
753.0, 0.000817502306600469
754.0, 0.0005814394061024953
755.0, 0.000544944497961571
756.0, 0.0005990042113150946
757.0, 0.0003569851440271212
758.0, 0.0017089930009706739
759.0, 0.0019549649585856857
760.0, 0.0019104675213342539
761.0, 0.002166863744712377
762.0, 0.0025081098791927756
763.0, 0.002074397593042177
764.0, 0.002417218259765847
765.0, 0.0028773649145693225
766.0, 0.001330452337013747
767.0, 0.002285917392881626
768.0, 0.0022516831029178756
769.0, 0.0018467448168108637
770.0, 0.0018278301408258678
771.0, 0.003148039172595808
772.0, 0.001957075311140565
773.0, 0.002198202150725965
774.0, 0.0032911305100707558
775.0, 0.0012378865485117134
776.0, 0.0003689043855444427
777.0, 0.0004465005950847083
778.0, 0.0008824592760358791
779.0, 0.0011937183317570778
780.0, 0.0017727517065261643
781.0, 0.0029967302350016886
782.0, 0.002953063529979191
783.0, 0.0019463484636380352
784.0, 0.0021406150697322766
785.0, 0.0024159069819184795
786.0, 0.0031114681897964156
787.0, 0.0033358530075651236
788.0, 0.0025882696658203076
789.0, 0.003545461373527606
790.0, 0.002013204007361591
791.0, 0.0012252494711596192
792.0, 0.0017314671139308155
793.0, 0.0024171911102783476
794.0, 0.0007110403968571281
795.0, 0.00023326090259509727
796.0, 0.0005829018406926747
797.0, 0.0010539200802103955
798.0, 0.00035101768430121543
799.0, 0.0018451682843140529
800.0, 0.0031111656140775782
801.0, 0.003441208679723256
802.0, 0.0028566357649832904
803.0, 0.005886271004162181
804.0, 0.004621316058451011
805.0, 0.005080434366287547
806.0, 0.010377387608447348
807.0, 0.010079060750318553
808.0, 0.011492387625753593
809.0, 0.014184883994419814
810.0, 0.01724718939130195
811.0, 0.019279940590613782
812.0, 0.021231648390954958
813.0, 0.02393365284699456
814.0, 0.026851980766920625
815.0, 0.029588161625387938
816.0, 0.03195719673668435
817.0, 0.03475038474654422
818.0, 0.038150824193416526
819.0, 0.0417359556749604
820.0, 0.04485625120117174
821.0, 0.04726483003489609
822.0, 0.05257593591369906
823.0, 0.057070272399247765
824.0, 0.05992336913512417
825.0, 0.06457178445415496
826.0, 0.06950466567321116
827.0, 0.07351375293316648
828.0, 0.0772146176871303
829.0, 0.08138640919787712
830.0, 0.08555628865629576
831.0, 0.08896352851364164
832.0, 0.09299059149628966
833.0, 0.09762593133440284
834.0, 0.10172012583184976
835.0, 0.10564095562395626
836.0, 0.1113359810103011
837.0, 0.11737445019732227
838.0, 0.12272393898921743
839.0, 0.12840547300620006
840.0, 0.13673030313276974
841.0, 0.14408833798302478
842.0, 0.1501216672999026
843.0, 0.1556785538277449
844.0, 0.16733989485220638
845.0, 0.17339781020536452
846.0, 0.17975016690334286
847.0, 0.18855930118814151
848.0, 0.1967386236034391
849.0, 0.20395989089675404
850.0, 0.21319836405434242
851.0, 0.2220738402556602
852.0, 0.22809213912133156
853.0, 0.23318958759385053
854.0, 0.2436452176011778
855.0, 0.25318051089788246
856.0, 0.25981719711542917
857.0, 0.263563196046621
858.0, 0.2715774099563384
859.0, 0.28147658877210774
860.0, 0.29265844105598715
861.0, 0.3050661772880274
862.0, 0.3201716195686464
863.0, 0.33695939840385314
864.0, 0.354794291442496
865.0, 0.37498746906518926
866.0, 0.3985062474638537
867.0, 0.41965737696956695
868.0, 0.43996399236409645
869.0, 0.4503458264911504
870.0, 0.4514339581468528
871.0, 0.4510119768152123
872.0, 0.430097712493863
873.0, 0.4004778531698638
874.0, 0.36733881563082094
875.0, 0.332518438574616
876.0, 0.2897947658072151
877.0, 0.26202738465770936
878.0, 0.23203720918088735
879.0, 0.20305349915361784
880.0, 0.18071881008352347
881.0, 0.16084319495185662
882.0, 0.14517030006318593
883.0, 0.1311753616844792
884.0, 0.11819795287450595
885.0, 0.10640610219391206
886.0, 0.0972967029463899
887.0, 0.09081020904526164
888.0, 0.08353693715806017
889.0, 0.07513931783254385
890.0, 0.07104739013332764
891.0, 0.06642026245551338
892.0, 0.06220124086252995
893.0, 0.060022954635695194
894.0, 0.060610566753956305
895.0, 0.059810295542990506
896.0, 0.060530745174506226
897.0, 0.0649953840777645
898.0, 0.07059911744684563
899.0, 0.07314298223046758
900.0, 0.08142295353117454
901.0, 0.08804528323248581
902.0, 0.09734943605994405
903.0, 0.11006852830975382
904.0, 0.12359437045885745
905.0, 0.13627239252398293
906.0, 0.15498709369622188
907.0, 0.17230850123618033
908.0, 0.18652075286455125
909.0, 0.2116512842268562
910.0, 0.21191067869470837
911.0, 0.21241296884764127
912.0, 0.2118619968716079
913.0, 0.20589885904734803
914.0, 0.1954966136534108
915.0, 0.1774511594799456
916.0, 0.15671322529347942
917.0, 0.1369149041748732
918.0, 0.12121174697752539
919.0, 0.10259036977818888
920.0, 0.08884189346258187
921.0, 0.07558242921946738
922.0, 0.06264451666684843
923.0, 0.05355033404454986
924.0, 0.04453669507001564
925.0, 0.03787775219110629
926.0, 0.03249355762632448
927.0, 0.027599465472221897
928.0, 0.023046201310990694
929.0, 0.019677887198088957
930.0, 0.016954745600195636
931.0, 0.01434373071802909
932.0, 0.011387110171424207
933.0, 0.007873469843395825
934.0, 0.0077372741578522405
935.0, 0.006184346460979531
936.0, 0.00448628405099504
937.0, 0.004679172241364016
938.0, 0.0026854609181418813
939.0, 0.0009324434085536295
940.0, 0.0006380818438210676
941.0, 0.0014281748271878986
942.0, 0.002099239104044943
943.0, 0.001388716281160439
944.0, 0.0013914085876683155
945.0, 0.0015380771968013902
946.0, 0.0015320630263380422
947.0, 0.0012532441562482254
948.0, 0.0022448720002075295
949.0, 0.00193082100964706
950.0, 0.0016163274452017627
951.0, 0.0019959307146385783
952.0, 0.002925115240700997
953.0, 0.002624822771472813
954.0, 0.0017080914395198057
955.0, 0.0008819745178599909
956.0, 0.000573313232455976
957.0, 0.0005968147109711985
958.0, 0.0008925336311309112
959.0, 0.0006536773160457017
960.0, 0.0003888205709262712
961.0, 0.0005362575418118758
962.0, 0.0006180005609879924
963.0, 0.0016722569036176633
964.0, 0.0016433500732100717
965.0, 0.0012667949711501713
966.0, 0.001547910207489443
967.0, 0.0011641177036677867
968.0, 0.002871989569207251
969.0, 0.0037038306883296615
970.0, 0.0037122586095382935
971.0, 0.003931922487002383
972.0, 0.005070265662516013
973.0, 0.004920988505973421
974.0, 0.0052703154109273575
975.0, 0.006600946156296911
976.0, 0.008625345452335786
977.0, 0.007885720250989492
978.0, 0.007715713683024421
979.0, 0.0076786070659623
980.0, 0.007296394613429598
981.0, 0.006151567215555956
982.0, 0.009367100676294506
983.0, 0.008752960376527927
984.0, 0.008832395679007753
985.0, 0.010159071842922482
986.0, 0.009898875825481062
987.0, 0.009564966177934097
988.0, 0.01156527413570901
989.0, 0.012993026810579905
990.0, 0.013198085086469025
991.0, 0.014030113431188975
992.0, 0.013224442587006193
993.0, 0.013217597917852689
994.0, 0.013692672684500976
995.0, 0.01426433526028785
996.0, 0.014496878690024534
997.0, 0.014734823527485657
998.0, 0.013581571397244894
999.0, 0.013749270673126104
1000.0, 0.015288924653798037
1001.0, 0.01375490442259476
1002.0, 0.016025408245796336
1003.0, 0.016244888469266767
1004.0, 0.0158285454757581
1005.0, 0.016183270747756166
1006.0, 0.018166615758938652
1007.0, 0.01741916435682389
1008.0, 0.018419267623541402
1009.0, 0.019939694576296862
1010.0, 0.020996798756348602
1011.0, 0.021724886020972632
1012.0, 0.021737493036039366
1013.0, 0.021960701357465594
1014.0, 0.02191700419600658
1015.0, 0.021748858326229213
1016.0, 0.02310785913842447
1017.0, 0.022550930109615678
1018.0, 0.022125964246266377
1019.0, 0.022578052507527365
1020.0, 0.02378951821028869
1021.0, 0.024099376797506136
1022.0, 0.02356837808661463
1023.0, 0.02261007429707995
1024.0, 0.02133513228907339
1025.0, 0.01997203681097322
1026.0, 0.019029812959529907
1027.0, 0.017613890981741674
1028.0, 0.016231397111512835
1029.0, 0.014885243200560986
1030.0, 0.013587348284448127
1031.0, 0.01243720164235269
1032.0, 0.01118966201895905
1033.0, 0.010565011402389031
1034.0, 0.009882627454007987
1035.0, 0.008795445459542132
1036.0, 0.007639698511428869
1037.0, 0.007958152089241511
1038.0, 0.0073859496551699835
1039.0, 0.007153966809129787
1040.0, 0.007501010526552678
1041.0, 0.006956510173825623
1042.0, 0.005885443338392703
1043.0, 0.0055160252962425625
1044.0, 0.005416331162254246
1045.0, 0.00497556323099001
1046.0, 0.0034204177611883327
1047.0, 0.0030658920458081365
1048.0, 0.003491100468154333
1049.0, 0.0026673551319203893
1050.0, 0.0011808631198222627
1051.0, 0.0022610522975742434
1052.0, 0.0014752770297675995
1053.0, 0.0014745390566461246
1054.0, 0.001578240951644013
1055.0, 0.001725660490849606
1056.0, 0.0022866455937974994
1057.0, 0.0010718181524874788
1058.0, 0.0008365654615942684
1059.0, 0.0008432839434844464
1060.0, 0.0010518849388818949
1061.0, 0.0017090561951996998
1062.0, 0.0008413879977937442
1063.0, 0.0011665076577342935
1064.0, 0.0013288160125116857
1065.0, 0.0010923626461227306
1066.0, 0.0008978184177679985
1067.0, 0.0026170934716874656
1068.0, 0.0016512386188694888
1069.0, 0.0011457219357090135
1070.0, 0.0022040623614397524
1071.0, 0.00441273485142743
1072.0, 0.002720883734708622
1073.0, 0.0024146898646367045
1074.0, 0.0023363323713132813
1075.0, 0.0023682444235484713
1076.0, 0.0025749132549820032
1077.0, 0.00289711594358624
1078.0, 0.0030044894168380137
1079.0, 0.0036830841698420633
1080.0, 0.004198062210349562
1081.0, 0.003988714538708907
1082.0, 0.0033898726638390015
1083.0, 0.004595490153428454
1084.0, 0.004925699901650948
1085.0, 0.005244971908369437
1086.0, 0.005771016988802727
1087.0, 0.005333258235381522
1088.0, 0.005819203269398503
1089.0, 0.005711250740581915
1090.0, 0.005846211738766049
1091.0, 0.005871714096896002
1092.0, 0.004400203287766306
1093.0, 0.005359797776520067
1094.0, 0.005225346971812993
1095.0, 0.0045878725722219675
1096.0, 0.004196081391685258
1097.0, 0.004585501032875959
1098.0, 0.003099355201212138
1099.0, 0.0024344937185514347
1100.0, 0.0016394318781848896
1101.0, 0.0010801179520668498
1102.0, 0.0012681502240686519
1103.0, 0.001220805032254974
1104.0, 0.001102169524194869
1105.0, 0.0008423312461928571
1106.0, 0.0008062743330142174
1107.0, 0.0009874688569308195
1108.0, 0.00017295318869270891
1109.0, 0.00017825017295267702
1110.0, 0.000607793993542979
1111.0, 0.0005949271689898566
1112.0, 0.0001000479451950368
1113.0, 0.0003153097578196637
1114.0, 0.00019097287191013467
1115.0, 0.0001229235425223993
1116.0, 0.0001520238901898082
1117.0, 0.0003318437795265201
1118.0, 0.0006648063126185991
1119.0, 0.00021132301299806638
1120.0, 0.0010342490653921924
1121.0, 0.0017821130668647781
1122.0, 0.0023830205238086245
1123.0, 0.0030117906374615305
1124.0, 0.002221980358164463
1125.0, 0.0009164669725778363
1126.0, 0.0005737876792637501
1127.0, 0.0006175979941812893
1128.0, 0.0003862575362538294
1129.0, 6.900228361489725e-05
1130.0, 0.0007987552527966878
1131.0, 0.0009719693344663211
1132.0, 0.0010319285663170448
1133.0, 0.0011230844909873102
1134.0, 0.0008693337715869006
1135.0, 0.0015059512240451637
1136.0, 0.0008209797675944621
1137.0, 0.0013736889441415623
1138.0, 0.0019893423785961395
1139.0, 0.00012150414066712569
1140.0, 0.0003768143538593127
1141.0, 0.0010534731356231536
1142.0, 0.0014176448297214001
1143.0, 0.0013891489481399333
1144.0, 0.0013901268128165504
1145.0, 0.0028540155525984276
1146.0, 0.0021867754205634835
1147.0, 0.0010574853061790042
1148.0, 0.0005115309686617404
1149.0, 0.0008400778467898135
1150.0, 0.0013709362827702299
1151.0, 0.0012044477101658463
1152.0, 0.0019296437505927908
1153.0, 0.0022238385094020194
1154.0, 0.002241098794798654
1155.0, 0.0028021302629068034
1156.0, 0.002597414364351379
1157.0, 0.00273083971189098
1158.0, 0.0033295986048554505
1159.0, 0.003913065441243611
1160.0, 0.004119720365472462
1161.0, 0.004339985886744979
1162.0, 0.006113790377979082
1163.0, 0.0067260383157510175
1164.0, 0.006046266950821508
1165.0, 0.004986575976057729
1166.0, 0.005266628014853327
1167.0, 0.006888985445827054
1168.0, 0.006964289853051905
1169.0, 0.00781435307276675
1170.0, 0.008921185027094733
1171.0, 0.009129960570470878
1172.0, 0.010648654468944306
1173.0, 0.011688255495744242
1174.0, 0.014454731720504932
1175.0, 0.016844240940299557
1176.0, 0.01793194401487255
1177.0, 0.020014327178186034
1178.0, 0.021993808278740725
1179.0, 0.022342327769710468
1180.0, 0.022791923670366976
1181.0, 0.022677012585033074
1182.0, 0.020359888004461094
1183.0, 0.019655113821277673
1184.0, 0.01863812907591475
1185.0, 0.0177136833331534
1186.0, 0.01679082053383159
1187.0, 0.015378857939128361
1188.0, 0.012350250937821319
1189.0, 0.011772452536980295
1190.0, 0.01131771514664445
1191.0, 0.011503487497434055
1192.0, 0.011912976022485625
1193.0, 0.011466150038867877
1194.0, 0.011468268025650529
1195.0, 0.01171537104676881
1196.0, 0.012301400501281546
1197.0, 0.012398772044085732
1198.0, 0.01171369021342472
1199.0, 0.012098324608481776
1200.0, 0.01269997814215772
1201.0, 0.01257646721126769
1202.0, 0.011426254847737129
1203.0, 0.010420600353923918
1204.0, 0.01144675404665599
1205.0, 0.01003103959172807
1206.0, 0.010121415461118555
1207.0, 0.009503258385617242
1208.0, 0.008987588080868802
1209.0, 0.00938249117386622
1210.0, 0.009008959680844014
1211.0, 0.008916346430448556
1212.0, 0.00899444033216257
1213.0, 0.009164544335345077
1214.0, 0.009552230520949612
1215.0, 0.01036932248690788
1216.0, 0.01098988231081045
1217.0, 0.010493341169204626
1218.0, 0.00968212637947689
1219.0, 0.009149133553815124
1220.0, 0.009038815227087545
1221.0, 0.008621460695173323
1222.0, 0.007766626252588389
1223.0, 0.007694188093443566
1224.0, 0.008451872798484469
1225.0, 0.009576550172461652
1226.0, 0.010310571639946059
1227.0, 0.010011470339327797
1228.0, 0.01063698825687146
1229.0, 0.010953020814075533
1230.0, 0.010812058256177802
1231.0, 0.010622000032649683
1232.0, 0.011276517466188147
1233.0, 0.01193692981825562
1234.0, 0.011636351301053834
1235.0, 0.011640069527712306
1236.0, 0.011983320310679871
1237.0, 0.012116446101100378
1238.0, 0.011880778851784396
1239.0, 0.012650139088768891
1240.0, 0.012955250005756886
1241.0, 0.01318651551204405
1242.0, 0.01317881513011348
1243.0, 0.01218865628305908
1244.0, 0.013348495528887132
1245.0, 0.014129195814800362
1246.0, 0.01505502029519414
1247.0, 0.015324840700313114
1248.0, 0.014622888885414187
1249.0, 0.014699725114818743
1250.0, 0.014263054232781874
1251.0, 0.01361483239452115
1252.0, 0.013059450144701659
1253.0, 0.012404433508640185
1254.0, 0.011221865336091203
1255.0, 0.009564405703497059
1256.0, 0.008291421108334647
1257.0, 0.0078015765879744575
1258.0, 0.007261018576768135
1259.0, 0.006414102500753442
1260.0, 0.0059742249299889845
1261.0, 0.006507913195014365
1262.0, 0.00545296877847255
1263.0, 0.005664020101658661
1264.0, 0.006234562544899695
1265.0, 0.0058010419768610415
1266.0, 0.004983547528739699
1267.0, 0.003478615835560125
1268.0, 0.002549752041139373
1269.0, 0.0022903113693343597
1270.0, 0.002651604782493225
1271.0, 0.003089851218843363
1272.0, 0.0011292656367724774
1273.0, 0.0022287288088851907
1274.0, 0.002364820767150346
1275.0, 0.002566411526982298
1276.0, 0.0027066724683082097
1277.0, 0.0013841818084773124
1278.0, 0.0024455477948941017
1279.0, 0.001605883050887482
1280.0, 0.0014545193686840356
1281.0, 0.0013107060204802777
1282.0, 0.0007754858850174568
1283.0, 0.0011719774969300141
1284.0, 0.0016177913721447253
1285.0, 0.001824129801986488
1286.0, 0.0021422497822043297
1287.0, 0.002446593304761801
1288.0, 0.0024152521973463278
1289.0, 0.0017557415042674116
1290.0, 0.003122203460490386
1291.0, 0.0038420178813152674
1292.0, 0.003904022757181649
1293.0, 0.004171986155294265
1294.0, 0.005420420354232797
1295.0, 0.006113669854272319
1296.0, 0.006271704587247495
1297.0, 0.006649755337834172
1298.0, 0.006743687803474373
1299.0, 0.006619411350815668
1300.0, 0.006770276566729696
1301.0, 0.006149209473411189
1302.0, 0.005805458241550912
1303.0, 0.00507066944400464
1304.0, 0.0052893288399337044
1305.0, 0.006387654920175673
1306.0, 0.00635926364156422
1307.0, 0.006561475137818851
1308.0, 0.004640525385043252
1309.0, 0.005288942633128423
1310.0, 0.005575773546281149
1311.0, 0.00435132506695181
1312.0, 0.006386698974443707
1313.0, 0.005211025968542767
1314.0, 0.006430446821193809
1315.0, 0.006385134629288968
1316.0, 0.0057699345224656575
1317.0, 0.0056975311409426296
1318.0, 0.004694040863991104
1319.0, 0.0065389257297295165
1320.0, 0.006910847077115721
1321.0, 0.006407419264454006
1322.0, 0.006227656569230751
1323.0, 0.00676231537755285
1324.0, 0.00572154010213697
1325.0, 0.006748224358127727
1326.0, 0.005430059357272856
1327.0, 0.003975686935672436
1328.0, 0.0033988929608857964
1329.0, 0.003780209647127873
1330.0, 0.005100295404639947
1331.0, 0.0039019541880573622
1332.0, 0.0032177827415975396
1333.0, 0.0027535172862548254
1334.0, 0.002494660961151568
1335.0, 0.002546950745174518
1336.0, 0.0023603577113281444
1337.0, 0.0014780408587978821
1338.0, 0.0012970627238068392
1339.0, 0.0010219110405140796
1340.0, 0.000615382227550688
1341.0, 0.0006441747257374209
1342.0, 0.001367603076267927
1343.0, 0.0009919673239704668
1344.0, 0.0005926827400730016
1345.0, 0.00030547139705783044
1346.0, 0.00019296239809120245
1347.0, 0.0004039632651964192
1348.0, 0.0015159837416622189
1349.0, 0.0010732672521296413
1350.0, 0.0012609016703216034
1351.0, 0.0012751369188264315
1352.0, 0.0011907531407483857
1353.0, 0.001564962219804051
1354.0, 0.0010089081079628318
1355.0, 0.0004065053698304712
1356.0, 0.00031013172675339325
1357.0, 0.00024325839885262453
1358.0, 0.0003093675236415013
1359.0, 0.0008023707361133018
1360.0, 0.0005447056816157902
1361.0, 0.0005663686726410714
1362.0, 0.0008470059463630353
1363.0, 0.0009388598613289375
1364.0, 0.0009068408873284089
1365.0, 0.0009559058260695533
1366.0, 0.00018532412551806155
1367.0, 0.000606414574513179
1368.0, 0.0007951659457326952
1369.0, 0.0006761250065216268
1370.0, 0.00040825684338655164
1371.0, 0.0002315836856934901
1372.0, 0.00036022682314999316
1373.0, 0.00022128095731032758
1374.0, 0.0001482874902012288
1375.0, 0.0005709610312461348
1376.0, 0.0007764641736464683
1377.0, 0.00016660986618535564
1378.0, 0.0004646980194591716
1379.0, 0.0003519231836583241
1380.0, 0.00017499466739151083
1381.0, 0.0005803401290921387
1382.0, 0.0010300361416211274
1383.0, 0.0008445719092400895
1384.0, 0.000539255652516312
1385.0, 0.00021651571120445668
1386.0, 6.289380082395168e-05
1387.0, 0.0004967693754205182
1388.0, 0.000685146668536653
1389.0, 0.00035552175548532575
1390.0, 0.0011968678724747952
1391.0, 0.00021819097662271537
1392.0, 0.0007717696645225641
1393.0, 0.001204189182753701
1394.0, 0.0008644177439965308
1395.0, 0.0002951840492704164
1396.0, 0.0009861968764120679
1397.0, 0.0007480888513615964
1398.0, 0.0014634085671143013
1399.0, 0.0007747559130213894
1400.0, 0.0004478021050235168
1401.0, 0.0009408378825227985
1402.0, 0.00037752404264138723
1403.0, 0.0006618691555910812
1404.0, 0.00034709468041596494
1405.0, 0.0005892304982037714
1406.0, 0.000669634462403257
1407.0, 0.00043629141040490987
1408.0, 0.00035926127629436135
1409.0, 2.3213749397868802e-05
1410.0, 0.00047590643429415707
1411.0, 0.000375442835555793
1412.0, 0.00025085101796311907
1413.0, 0.0002117860632077875
1414.0, 0.00024400612686190635
1415.0, 0.0011438766920132645
1416.0, 0.001296397412396924
1417.0, 0.0009173618446098528
1418.0, 0.001858607803207213
1419.0, 0.002116165592509665
1420.0, 0.000801550065512714
1421.0, 0.0022158014332490836
1422.0, 0.0014522856185252902
1423.0, 0.001313905591406069
1424.0, 0.0015824511465554873
1425.0, 0.0015951370649796156
1426.0, 0.0013555963559801149
1427.0, 0.001776901310681376
1428.0, 0.0029438256412534394
1429.0, 0.002095431482561637
1430.0, 0.0013613349058845365
1431.0, 0.0017990696958406708
1432.0, 0.0024967925221010385
1433.0, 0.002025451452234351
1434.0, 0.002933555374250811
1435.0, 0.0030192311361423134
1436.0, 0.0040187193425750296
1437.0, 0.004350925067699653
1438.0, 0.003768114622477453
1439.0, 0.003265336909618715
1440.0, 0.0043829142140246816
1441.0, 0.004030973212548556
1442.0, 0.004048534889717523
1443.0, 0.003806267461191086
1444.0, 0.00327714595940648
1445.0, 0.0033317543343330956
1446.0, 0.005122183795412238
1447.0, 0.005306408558844855
1448.0, 0.004586703224481357
1449.0, 0.003106558693777339
1450.0, 0.003785833073504176
1451.0, 0.005232778224794353
1452.0, 0.00418212360211928
1453.0, 0.004102506887072665
1454.0, 0.0049584951759991105
1455.0, 0.004189106752207095
1456.0, 0.00465423390635574
1457.0, 0.005477986137834037
1458.0, 0.0049340785450783025
1459.0, 0.003480617344288504
1460.0, 0.0054158525629313965
1461.0, 0.004635335272496724
1462.0, 0.003897037200287483
1463.0, 0.0037448168558658853
1464.0, 0.0034942797545235264
1465.0, 0.002588405628390926
1466.0, 0.004097681490092297
1467.0, 0.004311933170245511
1468.0, 0.0031612462144645875
1469.0, 0.0036244246460793916
1470.0, 0.004425984359492682
1471.0, 0.0036094488085885597
1472.0, 0.0029252365331886364
1473.0, 0.0028828328021021843
1474.0, 0.0028849429578579385
1475.0, 0.003252738363524283
1476.0, 0.0027727576692426095
1477.0, 0.0020842646267521534
1478.0, 0.0030575416617200845
1479.0, 0.0022247893966021058
1480.0, 0.0038840596899472435
1481.0, 0.0027705230986689766
1482.0, 0.0022972080147829134
1483.0, 0.0028866311315135134
1484.0, 0.003170637092761693
1485.0, 0.0025663557304960866
1486.0, 0.0019286149089277034
1487.0, 0.0020943660935348976
1488.0, 0.0019473117051154987
1489.0, 0.001929559651977211
1490.0, 0.002146931789080332
1491.0, 0.0021338105792962705
1492.0, 0.001967656019247004
1493.0, 0.0027130086336090366
1494.0, 0.002149295149839156
1495.0, 0.002502242766476861
1496.0, 0.002675823357846223
1497.0, 0.0019056053124062266
1498.0, 0.0022976253933841575
1499.0, 0.0007763121217620897
1500.0, 0.00019757244937610035
1501.0, 0.0004963152525604949
1502.0, 0.0007405123300049925
1503.0, 0.0007223856333473748
1504.0, 0.0008749871771327735
1505.0, 0.0013789837206779681
1506.0, 0.0009565982913090668
1507.0, 0.0007274076309559069
1508.0, 0.00034382275937197283
1509.0, 6.486692935660091e-05
1510.0, 0.00043400124338515653
1511.0, 0.0017111632280679698
1512.0, 0.002391556786021594
1513.0, 0.0028944297596839434
1514.0, 0.0012760401525011504
1515.0, 0.0005247782639690288
1516.0, 0.0008870207303838952
1517.0, 0.0009862396048341661
1518.0, 7.999461637439809e-05
1519.0, 0.0005655600822161224
1520.0, 0.0004778914990318372
1521.0, 0.00017007310405222788
1522, 0.0
1523, 0.0
1524, 0.0
1525, 0.0
1526, 0.0
1527, 0.0
1528, 0.0
1529, 0.0
1530, 0.0
1531, 0.0
1532, 0.0
1533, 0.0
1534, 0.0
1535, 0.0
1536, 0.0
1537, 0.0
1538, 0.0
1539, 0.0
1540, 0.0
1541, 0.0
1542, 0.0
1543, 0.0
1544, 0.0
1545, 0.0
1546, 0.0
1547, 0.0
1548, 0.0
1549, 0.0
1550, 0.0
1551, 0.0
1552, 0.0
1553, 0.0
1554, 0.0
1555, 0.0
1556, 0.0
1557, 0.0
1558, 0.0
1559, 0.0
1560, 0.0
1561, 0.0
1562, 0.0
1563, 0.0
1564, 0.0
1565, 0.0
1566, 0.0
1567, 0.0
1568, 0.0
1569, 0.0
1570, 0.0
1571, 0.0
1572, 0.0
1573, 0.0
1574, 0.0
1575, 0.0
1576, 0.0
1577, 0.0
1578, 0.0
1579, 0.0
1580, 0.0
1581, 0.0
1582, 0.0
1583, 0.0
1584, 0.0
1585, 0.0
1586, 0.0
1587, 0.0
1588, 0.0
1589, 0.0
1590, 0.0
1591, 0.0
1592, 0.0
1593, 0.0
1594, 0.0
1595, 0.0
1596, 0.0
1597, 0.0
1598, 0.0
1599, 0.0
