30, 0.0
31, 0.0
32, 0.0
33, 0.0
34, 0.0
35, 0.0
36, 0.0
37, 0.0
38, 0.0
39, 0.0
40, 0.0
41, 0.0
42, 0.0
43, 0.0
44, 0.0
45, 0.0
46, 0.0
47, 0.0
48, 0.0
49, 0.0
50.0, 0.00034411046001174274
51.0, 0.0008998298802845885
52.0, 0.0015005156230507005
53.0, 0.0025342622529231874
54.0, 0.003102165564977198
55.0, 0.0029963708320316666
56.0, 0.0042044394621451615
57.0, 0.005167132574871916
58.0, 0.005870060336725685
59.0, 0.006186507720103921
60.0, 0.006942713389182909
61.0, 0.007567064812713721
62.0, 0.00795277746227714
63.0, 0.009411247522881522
64.0, 0.01139725986713645
65.0, 0.013294814861112185
66.0, 0.013985834678628746
67.0, 0.01436429879858115
68.0, 0.013615558784433084
69.0, 0.011549317926182894
70.0, 0.009688402444873167
71.0, 0.007818433206629819
72.0, 0.006063421073196448
73.0, 0.004662158639474933
74.0, 0.0033069396684284194
75.0, 0.0019983083934980604
76.0, 0.0007792442747475732
77.0, 0.00021414587912148202
78.0, 0.000971178577170167
79.0, 0.0020802775998367386
80.0, 0.0023608234155678685
81.0, 0.002432925281344552
82.0, 0.0031453162216958535
83.0, 0.0043892407461713955
84.0, 0.003481803576345205
85.0, 0.0030515849492422967
86.0, 0.0024620484283627755
87.0, 0.0009726639226638919
88.0, 0.0006029242191241452
89.0, 0.001292270783161146
90.0, 0.0030618690110600115
91.0, 0.006140320940605114
92.0, 0.0095162952729042
93.0, 0.013513176202655838
94.0, 0.018568947674346196
95.0, 0.022981799851635936
96.0, 0.028785726463945314
97.0, 0.03576447636480194
98.0, 0.04227828495598526
99.0, 0.04989694263579895
100.0, 0.057267218539419
101.0, 0.06351839682179035
102.0, 0.07008751958407952
103.0, 0.07720459513957131
104.0, 0.08482851868178244
105.0, 0.09293408142129148
106.0, 0.10041540553756047
107.0, 0.10735321034103783
108.0, 0.11372098774637719
109.0, 0.12065039910739099
110.0, 0.1284155067505446
111.0, 0.1363219647796722
112.0, 0.14288263603528006
113.0, 0.15098980070727208
114.0, 0.15435709532937814
115.0, 0.15197311607981864
116.0, 0.16173427877985821
117.0, 0.1659346782400562
118.0, 0.16799528637412048
119.0, 0.17197146397238997
120.0, 0.1763450779295346
121.0, 0.18063512439835896
122.0, 0.18500923889331813
123.0, 0.19134963124059068
124.0, 0.1949990829963352
125.0, 0.1991822928354852
126.0, 0.20671275882413648
127.0, 0.21206833059579083
128.0, 0.2177635986798365
129.0, 0.22313964036585887
130.0, 0.22473553683751882
131.0, 0.2307230429683412
132.0, 0.2348720552391721
133.0, 0.23401241526165298
134.0, 0.2338821911122014
135.0, 0.2352662892171193
136.0, 0.23628685938719657
137.0, 0.23267226593099286
138.0, 0.23405185559412606
139.0, 0.23608482708600692
140.0, 0.23794911708442046
141.0, 0.24323682484693185
142.0, 0.25218782383067834
143.0, 0.26064798053791827
144.0, 0.2636539138443215
145.0, 0.27276162624067607
146.0, 0.2766868447676839
147.0, 0.2757797557107386
148.0, 0.27830646767841416
149.0, 0.27669961676211446
150.0, 0.2768109526927736
151.0, 0.28230855197939686
152.0, 0.2889621308591665
153.0, 0.29937846381086863
154.0, 0.3133759861130842
155.0, 0.33129970465319925
156.0, 0.35562303275729684
157.0, 0.38347399141945654
158.0, 0.413821289708174
159.0, 0.44021374672071806
160.0, 0.4687844184361096
161.0, 0.49847592447176664
162.0, 0.5283737755754219
163.0, 0.5385704929413617
164.0, 0.5451611616087685
165.0, 0.54824299652862
166.0, 0.5397379722713453
167.0, 0.5286631702226273
168.0, 0.5147802027816248
169.0, 0.49762173703741347
170.0, 0.4688115923678931
171.0, 0.44941783547211844
172.0, 0.4338039554194486
173.0, 0.4118490743929769
174.0, 0.40394696070311253
175.0, 0.3988598211890793
176.0, 0.39426683494076714
177.0, 0.389275990295682
178.0, 0.38711550483644963
179.0, 0.3862751732459594
180.0, 0.3858251341994532
181.0, 0.39377047242525814
182.0, 0.39282923426355765
183.0, 0.38809037755772957
184.0, 0.3956953877579752
185.0, 0.3936165972416459
186.0, 0.3926419007873877
187.0, 0.3954189539424405
188.0, 0.39117621199881886
189.0, 0.38962772499612985
190.0, 0.39031562345023285
191.0, 0.39325542452418166
192.0, 0.39741627269296376
193.0, 0.4026415703710365
194.0, 0.408247162904461
195.0, 0.4117812194649928
196.0, 0.4192633529937792
197.0, 0.426879124784025
198.0, 0.43335409529033875
199.0, 0.4436447489066257
200.0, 0.4539372414437176
201.0, 0.46331992000206107
202.0, 0.4703951220471956
203.0, 0.48584774503263317
204.0, 0.49983385171561745
205.0, 0.5112845548103173
206.0, 0.5201359182435676
207.0, 0.5316139628170615
208.0, 0.5402317523452345
209.0, 0.5438334177798781
210.0, 0.5587148759949249
211.0, 0.560268457379498
212.0, 0.5578841473466439
213.0, 0.5636663756968873
214.0, 0.5613620790863868
215.0, 0.5620072657039524
216.0, 0.5659069866167653
217.0, 0.5689351772269998
218.0, 0.5647395563752932
219.0, 0.5671616866618824
220.0, 0.5815868502830185
221.0, 0.5766706497182343
222.0, 0.5830900763510342
223.0, 0.5928081753376473
224.0, 0.5961178604934179
225.0, 0.605869563081582
226.0, 0.6131387387212801
227.0, 0.6172258445308075
228.0, 0.6186168462829508
229.0, 0.6275575247250175
230.0, 0.6318777176018967
231.0, 0.6281519426286872
232.0, 0.6407597072268482
233.0, 0.6371249290304978
234.0, 0.6291966454357186
235.0, 0.6287950844160536
236.0, 0.6317005885706981
237.0, 0.6278488724465625
238.0, 0.6196982169492152
239.0, 0.6158941039762934
240.0, 0.6126022787427623
241.0, 0.616745924406917
242.0, 0.62857175045817
243.0, 0.6284690612811233
244.0, 0.6434655415504715
245.0, 0.664453103168405
246.0, 0.6853323612987392
247.0, 0.7049745616143253
248.0, 0.7271660936718011
249.0, 0.7496915508393014
250.0, 0.767889529339064
251.0, 0.7776194879855718
252.0, 0.7858614104944762
253.0, 0.7925447889875887
254.0, 0.7902232805570487
255.0, 0.7873110273051676
256.0, 0.7789114676011392
257.0, 0.7624719099425248
258.0, 0.7490436677880414
259.0, 0.7230576258151737
260.0, 0.6914163750388849
261.0, 0.6617487004488692
262.0, 0.6323585383727796
263.0, 0.5995170045151076
264.0, 0.5650924245530207
265.0, 0.5355859536871449
266.0, 0.5033822066438943
267.0, 0.4733901815304571
268.0, 0.44725714523021487
269.0, 0.42675902572779767
270.0, 0.4014276821315387
271.0, 0.37892179906109297
272.0, 0.36462983197043275
273.0, 0.350930901089942
274.0, 0.33891704586332444
275.0, 0.32733725422229015
276.0, 0.3142399247881279
277.0, 0.3047386704853206
278.0, 0.300007236903526
279.0, 0.2977240479378875
280.0, 0.2890690957868464
281.0, 0.2879528866403832
282.0, 0.2863932928116659
283.0, 0.2824674246654341
284.0, 0.2834453903788413
285.0, 0.28134577465216926
286.0, 0.27950104445218016
287.0, 0.28033814009485203
288.0, 0.2810316190561012
289.0, 0.278746693199499
290.0, 0.2752910085789331
291.0, 0.273470948159247
292.0, 0.26576183547963406
293.0, 0.25958740829069415
294.0, 0.2553319441340055
295.0, 0.25144421126327016
296.0, 0.24901119662300558
297.0, 0.250626435987346
298.0, 0.25688007413233227
299.0, 0.2650163726039706
300.0, 0.2778376296141323
301.0, 0.29058688743402666
302.0, 0.3004236271507926
303.0, 0.31540489866163485
304.0, 0.32612447833724933
305.0, 0.3328870347240464
306.0, 0.3355506015266635
307.0, 0.34375215655550284
308.0, 0.34938956664895365
309.0, 0.3522353105435445
310.0, 0.3529775160300049
311.0, 0.3557478547403841
312.0, 0.35938431808701227
313.0, 0.36413367626529
314.0, 0.37260967153869723
315.0, 0.3770516774832192
316.0, 0.3834934775857652
317.0, 0.3934644236658025
318.0, 0.38916524686178605
319.0, 0.3885159035243649
320.0, 0.38814899145658416
321.0, 0.38534113273023385
322.0, 0.3721266781704828
323.0, 0.36464258230785523
324.0, 0.3591956174131904
325.0, 0.34984497938953873
326.0, 0.3553212714780486
327.0, 0.35713798749209746
328.0, 0.35648342809340955
329.0, 0.3620243334974991
330.0, 0.371337600369211
331.0, 0.37713435930364186
332.0, 0.37984708237249987
333.0, 0.3913513811866653
334.0, 0.39222494759284016
335.0, 0.3909091283634911
336.0, 0.3905411946020041
337.0, 0.3864133415810686
338.0, 0.37858379586597174
339.0, 0.3696112746445266
340.0, 0.36129888568847673
341.0, 0.3427224294041818
342.0, 0.3290520475381732
343.0, 0.31663375295992635
344.0, 0.30073272700537584
345.0, 0.28931031772691596
346.0, 0.2772217134892038
347.0, 0.26551836902380616
348.0, 0.2573793190641639
349.0, 0.2527710619390646
350.0, 0.24678229279556754
351.0, 0.24021296039179693
352.0, 0.23908945418820923
353.0, 0.23601239029696072
354.0, 0.23118152452018487
355.0, 0.22482187892500494
356.0, 0.21832769985378692
357.0, 0.20751620506239013
358.0, 0.19821927212864682
359.0, 0.19300983623621537
360.0, 0.18682132919997235
361.0, 0.1783097089788772
362.0, 0.17031720945945458
363.0, 0.1650178363725166
364.0, 0.1577854477718579
365.0, 0.15309220573663349
366.0, 0.1487092290775909
367.0, 0.14192480704591245
368.0, 0.13571223945742267
369.0, 0.12898960938990772
370.0, 0.12160972471248774
371.0, 0.11333647016356259
372.0, 0.10735896550060448
373.0, 0.09923359203609075
374.0, 0.08980117552104261
375.0, 0.08287592715795446
376.0, 0.07186195632761155
377.0, 0.06317384190679089
378.0, 0.05712332621504697
379.0, 0.049301665057265784
380.0, 0.04128870371061724
381.0, 0.03364754235643309
382.0, 0.026771582449362407
383.0, 0.022101123170050203
384.0, 0.017321141833293047
385.0, 0.013449579081375531
386.0, 0.010982420933333794
387.0, 0.009634081601094418
388.0, 0.0071746890420065585
389.0, 0.0044771583766205205
390.0, 0.002139680272939271
391.0, 0.0012084349554236141
392.0, 0.002506048910706277
393.0, 0.0051435729429658685
394.0, 0.008371021917541027
395.0, 0.013140197217485489
396.0, 0.016417518868966075
397.0, 0.018089709589924802
398.0, 0.017947713477181285
399.0, 0.023848474407122816
400.0, 0.02737062259398606
401.0, 0.02886516437957599
402.0, 0.029566523279333318
403.0, 0.030700613015752696
404.0, 0.030601635254423488
405.0, 0.03022364189423366
406.0, 0.03216497315955668
407.0, 0.02987295736607241
408.0, 0.028699531175742744
409.0, 0.028572162410302367
410.0, 0.026779303299547624
411.0, 0.02424900862923748
412.0, 0.02101170049848016
413.0, 0.01683176702887605
414.0, 0.010706211120462814
415.0, 0.006531659962446035
416.0, 0.005884918621114235
417.0, 0.009598030835108979
418.0, 0.01953808545175918
419.0, 0.03025610681921224
420.0, 0.043126165923262204
421.0, 0.057913058505849366
422.0, 0.06897550622279366
423.0, 0.08373331454006548
424.0, 0.09706012333942728
425.0, 0.10674260083416152
426.0, 0.11435875521906239
427.0, 0.11716619604185276
428.0, 0.11613228447227057
429.0, 0.11195949772325742
430.0, 0.10934296060123067
431.0, 0.10205659037198783
432.0, 0.09394031975163515
433.0, 0.08756617765149595
434.0, 0.08480770228528534
435.0, 0.08088926781957972
436.0, 0.07745585983092929
437.0, 0.07576348027747724
438.0, 0.07436994177754103
439.0, 0.07585744056028777
440.0, 0.0779134031119313
441.0, 0.07848571097857565
442.0, 0.07921167563754626
443.0, 0.081847487656325
444.0, 0.08366632545047906
445.0, 0.08183251122451561
446.0, 0.08821093964484679
447.0, 0.09399511234772638
448.0, 0.09832681702012844
449.0, 0.10027723999863714
450.0, 0.10827478084046269
451.0, 0.1152622000361595
452.0, 0.12327947331868809
453.0, 0.13520864931282767
454.0, 0.14744165733240916
455.0, 0.15977781155443643
456.0, 0.17503105792079313
457.0, 0.19725909527545427
458.0, 0.21732618494567404
459.0, 0.2420656038478828
460.0, 0.2705147157530903
461.0, 0.3009176116173819
462.0, 0.33521374229280754
463.0, 0.37276717196903825
464.0, 0.40975218918729567
465.0, 0.44019141146724616
466.0, 0.4860070304819342
467.0, 0.5199684163036743
468.0, 0.5448102088202216
469.0, 0.5675494493313449
470.0, 0.5705937343164469
471.0, 0.5604505981528276
472.0, 0.5386705533366833
473.0, 0.5064921893278983
474.0, 0.4592819508312613
475.0, 0.4122356299719151
476.0, 0.3654120539887948
477.0, 0.3170138474424317
478.0, 0.27017788368636997
479.0, 0.23001890222138557
480.0, 0.1950526604129891
481.0, 0.16239678973146865
482.0, 0.1375740818542363
483.0, 0.11271977557448774
484.0, 0.09220128604069246
485.0, 0.08426711532586745
486.0, 0.073621121494871
487.0, 0.06382460623978896
488.0, 0.05653268096671265
489.0, 0.05406439439326143
490.0, 0.049733433134067966
491.0, 0.04800386037890045
492.0, 0.0478841103016366
493.0, 0.04754943251921961
494.0, 0.04504710575730105
495.0, 0.04631628308593224
496.0, 0.04838243947203012
497.0, 0.0466904082301946
498.0, 0.04821454111504884
499.0, 0.048908146018801835
500.0, 0.04945908957147879
501.0, 0.050964465224574346
502.0, 0.05217811946453743
503.0, 0.05260277787352038
504.0, 0.05369747398589629
505.0, 0.057187964726596645
506.0, 0.05678586781535605
507.0, 0.0585300921396597
508.0, 0.061970582548335595
509.0, 0.0665299917961291
510.0, 0.06425659888588543
511.0, 0.06873914962939899
512.0, 0.07461735745034212
513.0, 0.07696238454914017
514.0, 0.08199627929057417
515.0, 0.08724473879498636
516.0, 0.09159635786994569
517.0, 0.09432564057766536
518.0, 0.1002848691470891
519.0, 0.10387398994147837
520.0, 0.11022063977987721
521.0, 0.12192072187400425
522.0, 0.1225630277402052
523.0, 0.12665359006542526
524.0, 0.13614746597179
525.0, 0.15075588710531765
526.0, 0.15399549771133036
527.0, 0.1626326546951573
528.0, 0.17291104821338904
529.0, 0.18339369649189796
530.0, 0.19715973027267583
531.0, 0.21057225709862198
532.0, 0.22375155237169886
533.0, 0.23730092656852114
534.0, 0.25442817711613763
535.0, 0.2719359374138143
536.0, 0.2866094887125006
537.0, 0.29968542037264745
538.0, 0.3212731170137203
539.0, 0.3298910765652354
540.0, 0.34290447961579956
541.0, 0.3596006167992285
542.0, 0.3628810909844669
543.0, 0.37920409684144296
544.0, 0.3902636850917977
545.0, 0.3941491757143464
546.0, 0.39469085652028146
547.0, 0.4131436393339643
548.0, 0.4177700205384502
549.0, 0.41367154877262047
550.0, 0.4189564154056492
551.0, 0.41522935647901166
552.0, 0.40805474701495953
553.0, 0.40180154461517453
554.0, 0.40230783543542864
555.0, 0.3838317680171262
556.0, 0.36556607974366623
557.0, 0.35140487309712515
558.0, 0.3447737958415024
559.0, 0.32252159539313846
560.0, 0.30739790962341346
561.0, 0.2920399390672952
562.0, 0.2708194090584431
563.0, 0.2589145729162385
564.0, 0.24340396837274944
565.0, 0.2266502081311121
566.0, 0.21030297259133993
567.0, 0.19607041387832772
568.0, 0.18042576251141992
569.0, 0.16637059528074652
570.0, 0.15571027234725238
571.0, 0.15107384902419926
572.0, 0.14661478037733797
573.0, 0.1475324834208206
574.0, 0.15337738747017407
575.0, 0.15608357771223952
576.0, 0.16589757906418295
577.0, 0.18013652788266302
578.0, 0.19601276587431907
579.0, 0.2078251417390907
580.0, 0.23124487959079634
581.0, 0.25370345842940123
582.0, 0.27649386030406753
583.0, 0.30456895380695737
584.0, 0.3275655393246956
585.0, 0.35699334908627467
586.0, 0.388692109121919
587.0, 0.41695336663177535
588.0, 0.4464441496558644
589.0, 0.4841571835107405
590.0, 0.5192254696985851
591.0, 0.5444482827356321
592.0, 0.588866564921065
593.0, 0.62749992519612
594.0, 0.6640915016373469
595.0, 0.7010869550052676
596.0, 0.7413690025424029
597.0, 0.7715505414693952
598.0, 0.805161761581705
599.0, 0.8453790991639419
600.0, 0.8858562660536785
601.0, 0.9008037697599109
602.0, 0.926204105990111
603.0, 0.9550283911609798
604.0, 0.9514250981596554
605.0, 0.9729546206346398
606.0, 0.9905228671871369
607.0, 0.9969924696095631
608.0, 0.9864397313975027
609.0, 0.9902471862519215
610.0, 0.9806716416095512
611.0, 0.9645246554841268
612.0, 0.9494115413870595
613.0, 0.9333509711236156
614.0, 0.9112040820852036
615.0, 0.8905115601204138
616.0, 0.8727718046053867
617.0, 0.8325235284919796
618.0, 0.814739886066718
619.0, 0.7914828687332027
620.0, 0.7585819809650775
621.0, 0.74067278907156
622.0, 0.7180087142853359
623.0, 0.6904746999256874
624.0, 0.663687891468382
625.0, 0.6504973273446952
626.0, 0.6221271486505311
627.0, 0.6005699762116583
628.0, 0.5847967470258323
629.0, 0.5706626333692453
630.0, 0.5447933852715271
631.0, 0.5272502466503168
632.0, 0.5100086588957077
633.0, 0.4879037068661356
634.0, 0.4803426793944009
635.0, 0.4683791598395494
636.0, 0.4516944888103544
637.0, 0.4334824993657285
638.0, 0.43075382878514024
639.0, 0.41474910089588096
640.0, 0.39679579621502553
641.0, 0.38268806093353136
642.0, 0.3801285485871165
643.0, 0.362473726693116
644.0, 0.3516634672396435
645.0, 0.3443480902340467
646.0, 0.33221173508563673
647.0, 0.3229851911611282
648.0, 0.31494440784073074
649.0, 0.3044861786969312
650.0, 0.29040584597141444
651.0, 0.29387949450332923
652.0, 0.2810783644610637
653.0, 0.2691473898854042
654.0, 0.2641402856012649
655.0, 0.2584778838036539
656.0, 0.24927808177122265
657.0, 0.24285668877475217
658.0, 0.23833526365676236
659.0, 0.23049481925001086
660.0, 0.22322397434586969
661.0, 0.22015709859313562
662.0, 0.21655707273093186
663.0, 0.20666946715079373
664.0, 0.20423971827564485
665.0, 0.19718428241431232
666.0, 0.19059305658067338
667.0, 0.18739091464916116
668.0, 0.18419428335049756
669.0, 0.17590605691366196
670.0, 0.17075278722126552
671.0, 0.16855435202305993
672.0, 0.16024445593972547
673.0, 0.1606449087591063
674.0, 0.15780821105533255
675.0, 0.15171164658439784
676.0, 0.1449564824561643
677.0, 0.1443022689900967
678.0, 0.1397290025343507
679.0, 0.1340475875412944
680.0, 0.12995855015659663
681.0, 0.12987363747247116
682.0, 0.12436293199178378
683.0, 0.1202509486014482
684.0, 0.11887718029458086
685.0, 0.11507181330846253
686.0, 0.11004683276871344
687.0, 0.10769272472299796
688.0, 0.10618925644679222
689.0, 0.10130185240099321
690.0, 0.09943181851807288
691.0, 0.09650145333440327
692.0, 0.09324196780623359
693.0, 0.09040647216222522
694.0, 0.08800627787140416
695.0, 0.08500491110665975
696.0, 0.08315394247321316
697.0, 0.08195960658585236
698.0, 0.07691899007862843
699.0, 0.07555623066322494
700.0, 0.07318846064176639
701.0, 0.07026718443499509
702.0, 0.06880581603547738
703.0, 0.07024125468026632
704.0, 0.06600735397161243
705.0, 0.06126503805391198
706.0, 0.059962360553605716
707.0, 0.058349337146619155
708.0, 0.05657705437521663
709.0, 0.055422045629100275
710.0, 0.05447532030458061
711.0, 0.051575789326110816
712.0, 0.04930904882601622
713.0, 0.048876419373716014
714.0, 0.04825685487204595
715.0, 0.04457322518144362
716.0, 0.04433955740817201
717.0, 0.04352255228772277
718.0, 0.041064417301077384
719.0, 0.03746442058281306
720.0, 0.0398996323555487
721.0, 0.03652723334451191
722.0, 0.034885292848714666
723.0, 0.0348092008049336
724.0, 0.03127868066424079
725.0, 0.029483745556773945
726.0, 0.028486995142294844
727.0, 0.02710432734114399
728.0, 0.02445635222495371
729.0, 0.024299911602596678
730.0, 0.024454731047559644
731.0, 0.022873246738362704
732.0, 0.020589951502867264
733.0, 0.024823913563506984
734.0, 0.020654839055946037
735.0, 0.01806924855530743
736.0, 0.01762823182709573
737.0, 0.017757277295249608
738.0, 0.016421857493835183
739.0, 0.01493185400330933
740.0, 0.013547182984061426
741.0, 0.0127910004223894
742.0, 0.014800916318518965
743.0, 0.012754169510682367
744.0, 0.011272673007009985
745.0, 0.011017077421390667
746.0, 0.010902817634936144
747.0, 0.008573589093430065
748.0, 0.008706997016912703
749.0, 0.00814166389990987
750.0, 0.004603219851139953
751.0, 0.0048503213030781705
752.0, 0.005147322279572
753.0, 0.003980325590924309
754.0, 0.0016634047885183282
755.0, 0.0005185593401437976
756.0, 0.0013078668255896639
757.0, 0.0009742992133642333
758.0, 0.0004285246115544887
759.0, 0.0009621693804055015
760.0, 0.0023256933487328896
761.0, 0.0030690027544181832
762.0, 0.003560727521602526
763.0, 0.003914834982734617
764.0, 0.003950803157224513
765.0, 0.0037070311513296822
766.0, 0.004575419130691008
767.0, 0.0061519971913752535
768.0, 0.007556035562031371
769.0, 0.005545897944742689
770.0, 0.006625406550284866
771.0, 0.007587528010686674
772.0, 0.007227382755864658
773.0, 0.007326354806305896
774.0, 0.007787484856540242
775.0, 0.007442169583899193
776.0, 0.0074946287244943436
777.0, 0.00969819969236658
778.0, 0.008642000973350595
779.0, 0.00856197891151331
780.0, 0.009163336519743683
781.0, 0.009630166225201717
782.0, 0.007295527006470669
783.0, 0.007544574503417116
784.0, 0.006992177082275949
785.0, 0.006374021292764443
786.0, 0.007443110500896253
787.0, 0.006308660457638381
788.0, 0.006007662867626615
789.0, 0.006356209694796771
790.0, 0.006641681479848933
791.0, 0.004414408695036645
792.0, 0.003385854361932098
793.0, 0.0025489467237099273
794.0, 0.0017564256396541927
795.0, 0.001077292095841907
796.0, 0.0023742635002565876
797.0, 0.001660422863268421
798.0, 0.0006610513966489242
799.0, 0.00041619082206748915
800.0, 0.0014206122364218378
801.0, 0.0013808374128259013
802.0, 0.0017599329019197985
803.0, 0.0021954129653588067
804.0, 0.0020511189173978233
805.0, 0.0025184073564285835
806.0, 0.002596049924104521
807.0, 0.003107096802681954
808.0, 0.004039075883678343
809.0, 0.004208059688984564
810.0, 0.004685561725461945
811.0, 0.004928703239520016
812.0, 0.005255007871432517
813.0, 0.006040443495056886
814.0, 0.007136773222225018
815.0, 0.0072276191051186215
816.0, 0.007347736302915662
817.0, 0.00794659051341108
818.0, 0.009188653009241262
819.0, 0.00806261468387666
820.0, 0.008855186988287042
821.0, 0.00956634833911001
822.0, 0.00881841494520552
823.0, 0.010506686225685756
824.0, 0.011411770590745862
825.0, 0.011667972106207644
826.0, 0.011642248984116923
827.0, 0.011939238261043672
828.0, 0.01270358201147902
829.0, 0.013450318270595825
830.0, 0.01437799231931001
831.0, 0.015338206265858774
832.0, 0.015093757999059376
833.0, 0.01535986666387756
834.0, 0.016160433062801273
835.0, 0.017055438165070224
836.0, 0.017555007863516815
837.0, 0.019646154605893543
838.0, 0.02043140971669976
839.0, 0.021389265516993414
840.0, 0.02295604612895267
841.0, 0.024521876139164015
842.0, 0.025482436150485503
843.0, 0.028067382923432856
844.0, 0.03106223605819171
845.0, 0.03357448151659815
846.0, 0.03860264873324601
847.0, 0.042440280618973224
848.0, 0.04653123140829139
849.0, 0.051304305240514304
850.0, 0.05679190536283813
851.0, 0.06202093143892233
852.0, 0.06751507667718566
853.0, 0.07315993740717784
854.0, 0.07826493970881014
855.0, 0.08050036879365377
856.0, 0.08804510821626309
857.0, 0.09129609629804114
858.0, 0.09336059103363686
859.0, 0.09828655430594407
860.0, 0.09791838988244353
861.0, 0.09532720375087045
862.0, 0.09478977443534557
863.0, 0.09626852102672746
864.0, 0.09679910067528442
865.0, 0.09484128220071454
866.0, 0.09738471109793494
867.0, 0.09984500198910706
868.0, 0.10080385089053052
869.0, 0.10732426513899385
870.0, 0.11248030435966946
871.0, 0.11580075019536919
872.0, 0.12040449217820613
873.0, 0.12887848863708676
874.0, 0.13020580893676265
875.0, 0.1355956046980945
876.0, 0.1395273147818741
877.0, 0.14093436412086222
878.0, 0.14143083068320522
879.0, 0.15122089113580528
880.0, 0.15283616756916923
881.0, 0.15527183845003836
882.0, 0.16246320576493864
883.0, 0.16741977611301742
884.0, 0.1750937121344011
885.0, 0.18135991064665405
886.0, 0.18685908373955926
887.0, 0.19227122875672237
888.0, 0.19276768214839143
889.0, 0.19535323712135516
890.0, 0.1931210821109646
891.0, 0.1868825731146146
892.0, 0.18122669906920127
893.0, 0.1677115156996332
894.0, 0.1554900832866112
895.0, 0.14444432865093554
896.0, 0.13349517538736752
897.0, 0.11983534017891376
898.0, 0.10909720486068511
899.0, 0.10054772011596497
900.0, 0.0927808379432261
901.0, 0.08511403821135864
902.0, 0.08001294949746965
903.0, 0.0780899142503106
904.0, 0.07555316835002676
905.0, 0.07333303648487556
906.0, 0.07333367494497346
907.0, 0.07477864115340499
908.0, 0.07856507744041046
909.0, 0.08117764265819283
910.0, 0.08303393876703226
911.0, 0.08710295855949504
912.0, 0.08987923388221633
913.0, 0.0894662977884866
914.0, 0.08897121822610729
915.0, 0.08879357644987
916.0, 0.08498210824101048
917.0, 0.07816526394667642
918.0, 0.07258815145590015
919.0, 0.06564585954820014
920.0, 0.056543022890382835
921.0, 0.052912624074362785
922.0, 0.04538080964637428
923.0, 0.03885006053331745
924.0, 0.03375830933824861
925.0, 0.029462038759454363
926.0, 0.02458966266232925
927.0, 0.021760483492290143
928.0, 0.019413571463444784
929.0, 0.016879279499366264
930.0, 0.013890599874402434
931.0, 0.012852884346975629
932.0, 0.010452874401836761
933.0, 0.008366785909502735
934.0, 0.007025181906473258
935.0, 0.0057239607381973315
936.0, 0.004206644118433466
937.0, 0.003102932268625104
938.0, 0.0024651484306014914
939.0, 0.0021380387693362155
940.0, 0.0015867972669286398
941.0, 0.0005489651411202476
942.0, 0.0005251784406369153
943.0, 0.0013099330159629784
944.0, 0.0022584121094548163
945.0, 0.0017056765744069813
946.0, 0.0018263800707672747
947.0, 0.0016396757688145402
948.0, 0.0013517034763616067
949.0, 0.0013620811964676128
950.0, 0.0017963013421453497
951.0, 0.0016180392557108992
952.0, 0.0016046367084737148
953.0, 0.0014135598297419015
954.0, 0.0004940903296275377
955.0, 0.0009728231314909877
956.0, 0.0003991586862921764
957.0, 0.0003721291898967081
958.0, 0.0009647036538987137
959.0, 0.0014061695480265353
960.0, 0.0027964643036567875
961.0, 0.0034867318151820207
962.0, 0.0038655424304892224
963.0, 0.004475894886386195
964.0, 0.00607665405841351
965.0, 0.007128505938532197
966.0, 0.008509150742696365
967.0, 0.009981825808009694
968.0, 0.011163607249658213
969.0, 0.011413643287809696
970.0, 0.014218227092033714
971.0, 0.014829440061378487
972.0, 0.015834719266094803
973.0, 0.01811218890787082
974.0, 0.01834568476989211
975.0, 0.019802138878959985
976.0, 0.021568328080769403
977.0, 0.02242084684459769
978.0, 0.02194938721445062
979.0, 0.022004608051236153
980.0, 0.023195942853641745
981.0, 0.023493930883916277
982.0, 0.02319266744410015
983.0, 0.02297179474852971
984.0, 0.023750904118817927
985.0, 0.022621596574836086
986.0, 0.022615440738733585
987.0, 0.023257633455289375
988.0, 0.02364176085470088
989.0, 0.0241920585686288
990.0, 0.025189542626578663
991.0, 0.025478072764554396
992.0, 0.025735294225038636
993.0, 0.026752402884315546
994.0, 0.027022592073230992
995.0, 0.02733899150384484
996.0, 0.02783923863103147
997.0, 0.027836918399647803
998.0, 0.026808342224083345
999.0, 0.027602989783815948
1000.0, 0.026989794108939178
1001.0, 0.02698380086940361
1002.0, 0.027639323127016217
1003.0, 0.0282670246154524
1004.0, 0.02788861677029111
1005.0, 0.028220600608133146
1006.0, 0.02911936830341499
1007.0, 0.030081785643370343
1008.0, 0.03054611957294319
1009.0, 0.03127285536540867
1010.0, 0.03234059679185871
1011.0, 0.03278545885091107
1012.0, 0.03332298526808542
1013.0, 0.035035934733856806
1014.0, 0.034365322708141646
1015.0, 0.03533862833800064
1016.0, 0.03592660409589843
1017.0, 0.03572146302735334
1018.0, 0.035214706077808765
1019.0, 0.03691162334168314
1020.0, 0.037106323613215406
1021.0, 0.03723307649596559
1022.0, 0.03782980403989134
1023.0, 0.03879346658652621
1024.0, 0.03699312665583622
1025.0, 0.03751620476280137
1026.0, 0.03698772609308083
1027.0, 0.03543949198288152
1028.0, 0.03435892859738444
1029.0, 0.03450859577793489
1030.0, 0.03383135856546288
1031.0, 0.03230552673911658
1032.0, 0.03107176124142083
1033.0, 0.031179398900509497
1034.0, 0.02802206860032483
1035.0, 0.028037117121901604
1036.0, 0.02690909026640291
1037.0, 0.02521624602553156
1038.0, 0.02481855415412208
1039.0, 0.02340033275399506
1040.0, 0.023524376966377977
1041.0, 0.023413379674561974
1042.0, 0.022624913301525763
1043.0, 0.021260536022263427
1044.0, 0.020111904879259873
1045.0, 0.019614793572152452
1046.0, 0.018174858825278938
1047.0, 0.01701458453818426
1048.0, 0.017272540820727628
1049.0, 0.0158739246747681
1050.0, 0.015169883959717734
1051.0, 0.014737150195855479
1052.0, 0.01356872404109756
1053.0, 0.011482845515628275
1054.0, 0.011976218098241866
1055.0, 0.010914199123151152
1056.0, 0.010281661319260949
1057.0, 0.009930372293635286
1058.0, 0.009605886433885057
1059.0, 0.009769329082144475
1060.0, 0.008588903504404093
1061.0, 0.008823586744513218
1062.0, 0.0091296060998485
1063.0, 0.008585811159177717
1064.0, 0.008159598913316305
1065.0, 0.008177837454152058
1066.0, 0.007958992336727911
1067.0, 0.007837594668075286
1068.0, 0.007943864349716147
1069.0, 0.007986038642234928
1070.0, 0.008059710741713607
1071.0, 0.00862293529777229
1072.0, 0.008893086939427298
1073.0, 0.008946182503992352
1074.0, 0.00981747698013191
1075.0, 0.010673585795496671
1076.0, 0.011318081316910688
1077.0, 0.012649966415107971
1078.0, 0.014508749927096616
1079.0, 0.015981057242934048
1080.0, 0.017465604015249773
1081.0, 0.01916879951331468
1082.0, 0.02081740179402737
1083.0, 0.022847705900580224
1084.0, 0.025857621371244515
1085.0, 0.0287906287788081
1086.0, 0.030796866128198912
1087.0, 0.033868327613497236
1088.0, 0.036587000287020215
1089.0, 0.037391256791350976
1090.0, 0.03928430770238989
1091.0, 0.03973601643677476
1092.0, 0.03924976316581451
1093.0, 0.038250569876746396
1094.0, 0.03686277562023285
1095.0, 0.0342722081073206
1096.0, 0.031764314577368336
1097.0, 0.02977993646980402
1098.0, 0.027151480129124335
1099.0, 0.02371331754701315
1100.0, 0.021178060405557895
1101.0, 0.018900269688325852
1102.0, 0.01613827117263565
1103.0, 0.013874840393360578
1104.0, 0.012290489390447122
1105.0, 0.01075449293846185
1106.0, 0.009587583134261973
1107.0, 0.009241138922017606
1108.0, 0.007913892093710633
1109.0, 0.006295488344846588
1110.0, 0.006122579531359182
1111.0, 0.006166919032501601
1112.0, 0.005468286312531193
1113.0, 0.005306905477554733
1114.0, 0.0052591719648565
1115.0, 0.004682187670420081
1116.0, 0.004074030732311544
1117.0, 0.0038895813631465792
1118.0, 0.003608276752498026
1119.0, 0.0030682450051256033
1120.0, 0.0023215718343550136
1121.0, 0.0017318891041258387
1122.0, 0.0019464424186729965
1123.0, 0.002416975274950026
1124.0, 0.002490810722479382
1125.0, 0.00205270269483577
1126.0, 0.0015436548602445446
1127.0, 0.0010975284704336208
1128.0, 0.0006766071518484634
1129.0, 0.0004090613533223136
1130.0, 0.0003204098357453051
1131.0, 0.00033526318821876076
1132.0, 8.747803460294503e-05
1133.0, 0.00022625594831295433
1134.0, 0.0002360303890662758
1135.0, 0.0004914025604851298
1136.0, 0.0010426455702352447
1137.0, 0.00036437933406538
1138.0, 0.0009880486621527908
1139.0, 0.0007263257473672796
1140.0, 0.0007664682187876351
1141.0, 0.0013536923971899392
1142.0, 0.0011045592254891286
1143.0, 0.0008399842168200798
1144.0, 0.0013270337215505574
1145.0, 0.0013700139144848886
1146.0, 0.0008716711955336183
1147.0, 0.00046316492126276373
1148.0, 0.0007925724209968947
1149.0, 0.00047845307382874547
1150.0, 0.00048337901699861235
1151.0, 0.0004971154656991938
1152.0, 0.00036183447907689936
1153.0, 0.001454961733988293
1154.0, 0.0008958116475518169
1155.0, 0.0013622626548144934
1156.0, 0.0026604197541669522
1157.0, 0.004021489404893661
1158.0, 0.004399300156691087
1159.0, 0.006118657031465779
1160.0, 0.008136505436358733
1161.0, 0.009673733114745942
1162.0, 0.01110468681935407
1163.0, 0.013126811262169457
1164.0, 0.014336512725665999
1165.0, 0.016465724771232555
1166.0, 0.0182182043124427
1167.0, 0.02024215842111588
1168.0, 0.02321851925548242
1169.0, 0.02699532206541579
1170.0, 0.031628549048764554
1171.0, 0.035323238386184966
1172.0, 0.04084527058333489
1173.0, 0.04762307220902888
1174.0, 0.05254712058260637
1175.0, 0.0617040320120278
1176.0, 0.06898036973117513
1177.0, 0.0757022605374064
1178.0, 0.08239400414935108
1179.0, 0.08824990751625837
1180.0, 0.08870066325963043
1181.0, 0.09038754525020005
1182.0, 0.08954957584521231
1183.0, 0.08585114246039753
1184.0, 0.0806114837685752
1185.0, 0.07644073804849717
1186.0, 0.07023071021157787
1187.0, 0.06414859160799179
1188.0, 0.05920428584791744
1189.0, 0.05537733001273899
1190.0, 0.052194853237892344
1191.0, 0.049558850450354505
1192.0, 0.04910005919856934
1193.0, 0.048041404692042114
1194.0, 0.048439250557677074
1195.0, 0.05064042415939258
1196.0, 0.05155977064325032
1197.0, 0.05331259328212331
1198.0, 0.054753413507787875
1199.0, 0.05515054165396503
1200.0, 0.05515355597288808
1201.0, 0.055818371008989905
1202.0, 0.05641187486235346
1203.0, 0.054439691314636385
1204.0, 0.05318240516870813
1205.0, 0.05272788813033207
1206.0, 0.05197587818702559
1207.0, 0.04899857618837715
1208.0, 0.05052172161362696
1209.0, 0.04984965127331771
1210.0, 0.04938715412764131
1211.0, 0.05003673741946321
1212.0, 0.05122558132480749
1213.0, 0.04957403102964712
1214.0, 0.0505986850802849
1215.0, 0.050111304148463286
1216.0, 0.04809301701545067
1217.0, 0.04554775969519695
1218.0, 0.043859159569886924
1219.0, 0.04128436184067941
1220.0, 0.04042345522480157
1221.0, 0.038681305559480995
1222.0, 0.036576248126512986
1223.0, 0.035658844114960404
1224.0, 0.0358908557936891
1225.0, 0.03463507407928239
1226.0, 0.03480624275762748
1227.0, 0.035997982225075706
1228.0, 0.03734380264263647
1229.0, 0.03801510531726439
1230.0, 0.03850029941597074
1231.0, 0.040503183191981165
1232.0, 0.040274552507645514
1233.0, 0.0400708056420441
1234.0, 0.04200300540511564
1235.0, 0.0425093208487871
1236.0, 0.04140484478803838
1237.0, 0.042748228848991016
1238.0, 0.043421600053855494
1239.0, 0.042833264480634986
1240.0, 0.04266108702957287
1241.0, 0.044242794915574674
1242.0, 0.04288798407116945
1243.0, 0.04270148864416975
1244.0, 0.0429682405394108
1245.0, 0.042639952921797654
1246.0, 0.04182345020954385
1247.0, 0.04373935447772101
1248.0, 0.042169004900875606
1249.0, 0.040478771850719596
1250.0, 0.039648746505631334
1251.0, 0.03907737681252518
1252.0, 0.0369203891871563
1253.0, 0.03480520465584214
1254.0, 0.03337650286003134
1255.0, 0.031847012450550036
1256.0, 0.030223484872418098
1257.0, 0.029109746414430916
1258.0, 0.026754192403463575
1259.0, 0.02461394267580087
1260.0, 0.024085731844515644
1261.0, 0.023183005758810556
1262.0, 0.02108858355352269
1263.0, 0.020279667927251718
1264.0, 0.020372641989488394
1265.0, 0.019370714823609116
1266.0, 0.01837678680644379
1267.0, 0.017715768027450295
1268.0, 0.017184354771568343
1269.0, 0.016166218039895146
1270.0, 0.016365323134501546
1271.0, 0.015157062989033732
1272.0, 0.01424894248698926
1273.0, 0.014263919308147974
1274.0, 0.01444306012905867
1275.0, 0.01274428788760167
1276.0, 0.013757304834944683
1277.0, 0.013897124879976783
1278.0, 0.013008812942855195
1279.0, 0.012176262701334357
1280.0, 0.012930323457981417
1281.0, 0.012054851286079592
1282.0, 0.011788082305063083
1283.0, 0.011924852213000393
1284.0, 0.011767693476541774
1285.0, 0.011430310065476719
1286.0, 0.012955761081283088
1287.0, 0.012348067749919183
1288.0, 0.01297958929435272
1289.0, 0.013853923565791038
1290.0, 0.014309204316624267
1291.0, 0.014369003311189638
1292.0, 0.015514689267581877
1293.0, 0.016958760650784943
1294.0, 0.016980619675477055
1295.0, 0.01735226872728321
1296.0, 0.018679062398517885
1297.0, 0.02026638532701069
1298.0, 0.02064747681197323
1299.0, 0.02158247057844059
1300.0, 0.022316746813479563
1301.0, 0.02290830811442348
1302.0, 0.02384398386512131
1303.0, 0.025500388408153184
1304.0, 0.02432951609193046
1305.0, 0.02448249622226409
1306.0, 0.02485723907074074
1307.0, 0.024268990038568656
1308.0, 0.023127898655037744
1309.0, 0.02386751928713257
1310.0, 0.025024192659684915
1311.0, 0.023549232029645126
1312.0, 0.023203348666249235
1313.0, 0.02326267436834807
1314.0, 0.02249369655836953
1315.0, 0.021515397570818974
1316.0, 0.02263593798151541
1317.0, 0.02241769541485189
1318.0, 0.021918949479560433
1319.0, 0.02172568131641409
1320.0, 0.021736293547562725
1321.0, 0.020825902231257288
1322.0, 0.020095529051089897
1323.0, 0.019800633563666657
1324.0, 0.01919698121526598
1325.0, 0.01872212231303643
1326.0, 0.018842966097738358
1327.0, 0.01829580975855618
1328.0, 0.01724550449038057
1329.0, 0.01742159623585489
1330.0, 0.017190520332088927
1331.0, 0.016604685275118193
1332.0, 0.016271697243863556
1333.0, 0.014732921801895029
1334.0, 0.014312555066921516
1335.0, 0.015244215174132417
1336.0, 0.014837241705986236
1337.0, 0.01389768398083003
1338.0, 0.014665884482082513
1339.0, 0.014972608768753141
1340.0, 0.013999113776976276
1341.0, 0.015092086731719483
1342.0, 0.015346456038317786
1343.0, 0.014449510741168903
1344.0, 0.014287489591467393
1345.0, 0.01599032055704202
1346.0, 0.015904109550868163
1347.0, 0.015356135851709411
1348.0, 0.01571589726984994
1349.0, 0.016118235727992595
1350.0, 0.014869077462040784
1351.0, 0.014231923078328788
1352.0, 0.01478823134794318
1353.0, 0.014189472953580605
1354.0, 0.013624563442229516
1355.0, 0.013517652552014318
1356.0, 0.013385360874143284
1357.0, 0.012769552167778133
1358.0, 0.012560822758373549
1359.0, 0.011990376847127547
1360.0, 0.010894895093788349
1361.0, 0.009950935543237876
1362.0, 0.009805278183667929
1363.0, 0.0086627185157551
1364.0, 0.007881535514784842
1365.0, 0.007688137114419935
1366.0, 0.007061588662053049
1367.0, 0.00625059281729202
1368.0, 0.006005023045914874
1369.0, 0.005231741541591708
1370.0, 0.004356641258727761
1371.0, 0.0039705251630452075
1372.0, 0.0034757683147625625
1373.0, 0.002780504520188003
1374.0, 0.002296100590955353
1375.0, 0.0027570629359401798
1376.0, 0.0016861739948067756
1377.0, 0.0019318438154634883
1378.0, 0.0017562176950251703
1379.0, 0.001206504552529063
1380.0, 0.0009845280166641535
1381.0, 0.00039849394810612533
1382.0, 7.786552445195247e-05
1383.0, 0.00040310512420075955
1384.0, 0.0003196685284193627
1385.0, 0.0003241553983979671
1386.0, 0.0009245380039595961
1387.0, 0.000997048551320806
1388.0, 0.0005171534920339628
1389.0, 0.0008233466989691412
1390.0, 0.0006063541722110393
1391.0, 0.00022627633818352562
1392.0, 0.00037492420486171825
1393.0, 0.0010414439179063971
1394.0, 0.0006517574943059093
1395.0, 0.0009052739992498875
1396.0, 0.0006293213081344118
1397.0, 0.00025188339442673
1398.0, 0.0004099962695966912
1399.0, 0.0011735930918464023
1400.0, 0.0010567008843292284
1401.0, 0.0007465686607860604
1402.0, 0.0010242961584838192
1403.0, 0.0008333211452275483
1404.0, 0.00025041291579089623
1405.0, 0.0005486108518451546
1406.0, 0.0007857761863796366
1407.0, 0.0005102004351637975
1408.0, 0.000585380768569686
1409.0, 0.0005391536639056802
1410.0, 0.0006643172033101419
1411.0, 0.0014101858687259247
1412.0, 0.0011765683705668587
1413.0, 0.0013010330900808588
1414.0, 0.0017143939483258224
1415.0, 0.0017701745977882907
1416.0, 0.0018568103129452305
1417.0, 0.0025125177157214115
1418.0, 0.00318942159061818
1419.0, 0.002871068953240516
1420.0, 0.0035772942582248304
1421.0, 0.0037284548644176
1422.0, 0.003891136607408874
1423.0, 0.004613225262102523
1424.0, 0.0050928727222455715
1425.0, 0.004740252122798288
1426.0, 0.005611281625167913
1427.0, 0.006403309100179851
1428.0, 0.006803862660095265
1429.0, 0.007173627693397639
1430.0, 0.008051142267235316
1431.0, 0.00844711414860324
1432.0, 0.009315000256354107
1433.0, 0.010346646148192473
1434.0, 0.010490076032877329
1435.0, 0.010443965773590962
1436.0, 0.011492813533986136
1437.0, 0.0128943256518141
1438.0, 0.012585285399619707
1439.0, 0.013040600834462054
1440.0, 0.014027541704101221
1441.0, 0.014784847335224597
1442.0, 0.015212927469262307
1443.0, 0.01643431350303918
1444.0, 0.01649353021900793
1445.0, 0.016994809424550582
1446.0, 0.017438213807813997
1447.0, 0.01738542074344125
1448.0, 0.017600333954818467
1449.0, 0.01915073857368111
1450.0, 0.018656446217337638
1451.0, 0.01833182054436719
1452.0, 0.019063313852968628
1453.0, 0.019423095451273756
1454.0, 0.01926392060035485
1455.0, 0.01913833376945252
1456.0, 0.018901423623255253
1457.0, 0.017560357185778704
1458.0, 0.017530460417711887
1459.0, 0.017721002138638583
1460.0, 0.017160278397440554
1461.0, 0.016106138774190593
1462.0, 0.015947291349233356
1463.0, 0.015227327045330842
1464.0, 0.013403399635521238
1465.0, 0.013019068352190875
1466.0, 0.012766781621702895
1467.0, 0.01199453934739642
1468.0, 0.011216526587955826
1469.0, 0.011485521051200561
1470.0, 0.010891855484467418
1471.0, 0.009945901816231688
1472.0, 0.009141768947374333
1473.0, 0.008466680311848936
1474.0, 0.008007702684446607
1475.0, 0.008153631098024625
1476.0, 0.008107846780216402
1477.0, 0.005862469698696798
1478.0, 0.005854211332757176
1479.0, 0.006035959914428934
1480.0, 0.005592381421145315
1481.0, 0.005243195525440001
1482.0, 0.004833181501683683
1483.0, 0.004774014033467047
1484.0, 0.0035168154574321754
1485.0, 0.0031247606677395037
1486.0, 0.002922019706710951
1487.0, 0.002355022649632241
1488.0, 0.002360731021003321
1489.0, 0.002421258485627541
1490.0, 0.0020701893339171345
1491.0, 0.0017174378271446829
1492.0, 0.0018172186167153637
1493.0, 0.0017748594927352796
1494.0, 0.0008943250168179803
1495.0, 1.7300292092002753e-05
1496.0, 0.0010935203142876616
1497.0, 0.0006690131656835784
1498.0, 0.0004831076268704345
1499.0, 0.0006042342670614414
1500.0, 0.0005783687296751921
1501.0, 0.0002887557706663352
1502.0, 0.001108009509292297
1503.0, 0.00042585091486325077
1504.0, 0.0007491991538783917
1505.0, 0.0012339518645378394
1506.0, 0.0011791154040178655
1507.0, 0.0006224283247370352
1508.0, 0.0004681618562284765
1509.0, 0.0017199350574628454
1510.0, 0.0008391243803371831
1511.0, 0.0010098645394359023
1512.0, 0.0013635511627501627
1513.0, 0.0011215738947491674
1514.0, 0.0005747108941448863
1515.0, 0.00087022431214833
1516.0, 0.0008598442846970152
1517.0, 0.00048107886824212323
1518.0, 0.0005994281788795806
1519.0, 0.0006556169180683783
1520.0, 0.00037084325372270147
1521.0, 0.00033057720246576353
1522.0, 0.0008345756545596564
1523.0, 0.00017079958809221118
1524.0, 2.249774951477534e-06
1525, 0.0
1526, 0.0
1527, 0.0
1528, 0.0
1529, 0.0
1530, 0.0
1531, 0.0
1532, 0.0
1533, 0.0
1534, 0.0
1535, 0.0
1536, 0.0
1537, 0.0
1538, 0.0
1539, 0.0
1540, 0.0
1541, 0.0
1542, 0.0
1543, 0.0
1544, 0.0
1545, 0.0
1546, 0.0
1547, 0.0
1548, 0.0
1549, 0.0
1550, 0.0
1551, 0.0
1552, 0.0
1553, 0.0
1554, 0.0
1555, 0.0
1556, 0.0
1557, 0.0
1558, 0.0
1559, 0.0
1560, 0.0
1561, 0.0
1562, 0.0
1563, 0.0
1564, 0.0
1565, 0.0
1566, 0.0
1567, 0.0
1568, 0.0
1569, 0.0
1570, 0.0
1571, 0.0
1572, 0.0
1573, 0.0
1574, 0.0
1575, 0.0
1576, 0.0
1577, 0.0
1578, 0.0
1579, 0.0
1580, 0.0
1581, 0.0
1582, 0.0
1583, 0.0
1584, 0.0
1585, 0.0
1586, 0.0
1587, 0.0
1588, 0.0
1589, 0.0
1590, 0.0
1591, 0.0
1592, 0.0
1593, 0.0
1594, 0.0
1595, 0.0
1596, 0.0
1597, 0.0
1598, 0.0
1599, 0.0
