30, 0.0
31, 0.0
32, 0.0
33, 0.0
34, 0.0
35, 0.0
36, 0.0
37, 0.0
38, 0.0
39, 0.0
40, 0.0
41, 0.0
42, 0.0
43, 0.0
44, 0.0
45, 0.0
46, 0.0
47, 0.0
48, 0.0
49, 0.0
50, 0.0
51, 0.0
52.0, 0.0012422483237539057
53.0, 0.0035049173891041306
54.0, 0.005356309760479494
55.0, 0.0068687077381024255
56.0, 0.008074259463444384
57.0, 0.008912922111911071
58.0, 0.006265618692371798
59.0, 0.0033511566235569956
60.0, 0.0009428445131157478
61.0, 0.001858246866779632
62.0, 0.002230386060462732
63.0, 0.0023372581741577195
64.0, 0.002302958437544336
65.0, 0.0010783159889723665
66.0, 0.00199460897664504
67.0, 0.004960813799896971
68.0, 0.008983436281728313
69.0, 0.014227791705704427
70.0, 0.019714669352107014
71.0, 0.024882082889654922
72.0, 0.030735109189836518
73.0, 0.037024068140761535
74.0, 0.04342184306964854
75.0, 0.048684525513354004
76.0, 0.0556338588327184
77.0, 0.061686192703687685
78.0, 0.06525644244386435
79.0, 0.07040543119980808
80.0, 0.07410400518323869
81.0, 0.07659512393761203
82.0, 0.07867256865303711
83.0, 0.08080794802558353
84.0, 0.08213402231563996
85.0, 0.08214706609248988
86.0, 0.08430005731841794
87.0, 0.08558464368241643
88.0, 0.08685562536342642
89.0, 0.09045036436373895
90.0, 0.09165549729407058
91.0, 0.09315121141970915
92.0, 0.09584527175856418
93.0, 0.09714916410383245
94.0, 0.09771178357710213
95.0, 0.09889034189879543
96.0, 0.10358019149206757
97.0, 0.10414718785287654
98.0, 0.10565509932393079
99.0, 0.1092368034613445
100.0, 0.11143011670936077
101.0, 0.11507675669584148
102.0, 0.1188343559726054
103.0, 0.1208501115906888
104.0, 0.12446706298153591
105.0, 0.12742588930143847
106.0, 0.12947415034877097
107.0, 0.13184525300373
108.0, 0.13519474736530726
109.0, 0.13797437239671262
110.0, 0.13854194751694773
111.0, 0.1386895309076184
112.0, 0.1400586950906579
113.0, 0.1421558309657864
114.0, 0.14169839118092684
115.0, 0.14121414241278576
116.0, 0.14060814986953382
117.0, 0.13979843663930483
118.0, 0.13731968696851474
119.0, 0.13873041371657702
120.0, 0.14203932941975653
121.0, 0.14096526051106348
122.0, 0.1420843378791884
123.0, 0.14433889271819628
124.0, 0.14742020632866346
125.0, 0.14997121480298073
126.0, 0.15243823563596878
127.0, 0.15435627104134375
128.0, 0.15470859597271458
129.0, 0.15542587618252193
130.0, 0.1548165448828866
131.0, 0.15262219132004307
132.0, 0.15050667344356097
133.0, 0.14760651913171738
134.0, 0.14572794561813404
135.0, 0.14699156702194094
136.0, 0.14393647855569155
137.0, 0.1437020724490914
138.0, 0.1459257064502115
139.0, 0.14581227994781687
140.0, 0.14755184972319027
141.0, 0.14929221977582532
142.0, 0.1500211522907596
143.0, 0.15061346118777819
144.0, 0.15146733187127479
145.0, 0.1525638680269794
146.0, 0.15390454406528034
147.0, 0.1555966808565576
148.0, 0.15729903318254787
149.0, 0.15958666337409433
150.0, 0.17266230598584587
151.0, 0.18484652409615546
152.0, 0.19991463907421556
153.0, 0.22314332632444986
154.0, 0.24182472739065408
155.0, 0.26453735491385577
156.0, 0.29185696519699733
157.0, 0.32194887775630243
158.0, 0.3467871957998036
159.0, 0.3669521980895112
160.0, 0.38209418463018674
161.0, 0.39067058897005785
162.0, 0.3968524124016044
163.0, 0.3986300233539302
164.0, 0.39021735501578053
165.0, 0.37748751933272096
166.0, 0.36238248887685665
167.0, 0.34549031264100044
168.0, 0.3293251912041118
169.0, 0.3133069312877994
170.0, 0.29956226802275954
171.0, 0.29070979396260777
172.0, 0.28049105992979034
173.0, 0.27246004687570885
174.0, 0.26700007546311827
175.0, 0.2649406867961358
176.0, 0.26028911431924534
177.0, 0.25819188151141526
178.0, 0.26078441209094694
179.0, 0.2606119787457735
180.0, 0.26088091636894883
181.0, 0.26136485368948237
182.0, 0.2617746566584613
183.0, 0.2626462828744683
184.0, 0.26191925073007793
185.0, 0.2599138837779701
186.0, 0.26018362103076953
187.0, 0.25828114086207027
188.0, 0.2575646700934149
189.0, 0.26010708503348917
190.0, 0.26331121320707396
191.0, 0.26597854906592244
192.0, 0.27038687889462704
193.0, 0.2815768569338092
194.0, 0.28274762797182573
195.0, 0.2879175233825997
196.0, 0.29861481445584015
197.0, 0.30388780308476443
198.0, 0.3122807727182666
199.0, 0.3218270320753712
200.0, 0.3313168009775654
201.0, 0.339691555019504
202.0, 0.34803958686897907
203.0, 0.35679189788355786
204.0, 0.36697835758695285
205.0, 0.3794912431859855
206.0, 0.3872413433038582
207.0, 0.38976281595298956
208.0, 0.3995703689911732
209.0, 0.40668734156681957
210.0, 0.4107127039198248
211.0, 0.41081855710351234
212.0, 0.41612924496984477
213.0, 0.41947518108432663
214.0, 0.4211996747743733
215.0, 0.42247074471403695
216.0, 0.4290570443104109
217.0, 0.4341826451500479
218.0, 0.4369710799936293
219.0, 0.4444104821772246
220.0, 0.45213476598427027
221.0, 0.4592557860630878
222.0, 0.46502608570754445
223.0, 0.4718341181676446
224.0, 0.47608281705702243
225.0, 0.478640339592791
226.0, 0.4813144712241055
227.0, 0.4836171789808592
228.0, 0.4848269588808961
229.0, 0.48501107993092735
230.0, 0.48585451757685333
231.0, 0.48529424596716453
232.0, 0.4823029148941342
233.0, 0.4759681123037937
234.0, 0.47285107304024726
235.0, 0.46955995851059673
236.0, 0.4664036150325387
237.0, 0.46399486779667726
238.0, 0.47140466962260097
239.0, 0.4788970632198764
240.0, 0.4862044760018654
241.0, 0.49971547346378153
242.0, 0.5137575788989978
243.0, 0.531769633755466
244.0, 0.5554198813272723
245.0, 0.5757948661681486
246.0, 0.5930419928674708
247.0, 0.6116200533158154
248.0, 0.6373666997379211
249.0, 0.6462708726092393
250.0, 0.6555121695024102
251.0, 0.664531782103722
252.0, 0.6661551058341272
253.0, 0.6613976549543534
254.0, 0.6558087197950978
255.0, 0.6500376784415021
256.0, 0.6332459856648992
257.0, 0.6121174758488727
258.0, 0.5869986538699115
259.0, 0.557613110736871
260.0, 0.5351882344135166
261.0, 0.5078157915288737
262.0, 0.4784416715513827
263.0, 0.45309163199937325
264.0, 0.4270402969772262
265.0, 0.4008816716175178
266.0, 0.375895073120507
267.0, 0.35803173772247443
268.0, 0.3330487196068848
269.0, 0.312264597383611
270.0, 0.30026805808256224
271.0, 0.28366175439755664
272.0, 0.2687719248336565
273.0, 0.25569371568709787
274.0, 0.24481072466545287
275.0, 0.239771626246655
276.0, 0.23345838944978203
277.0, 0.2258494403657249
278.0, 0.21767072104824847
279.0, 0.2153331915944318
280.0, 0.21186841875509144
281.0, 0.2069271841472107
282.0, 0.20709234374460514
283.0, 0.20393554555150298
284.0, 0.20148658159952726
285.0, 0.20169915421266588
286.0, 0.20301242997349508
287.0, 0.19954803779356214
288.0, 0.19405576138821223
289.0, 0.18921677846758295
290.0, 0.18921889401773756
291.0, 0.18371431857002413
292.0, 0.1763416523886922
293.0, 0.17684529194278628
294.0, 0.1760745319493278
295.0, 0.1793416469015317
296.0, 0.18701308455270646
297.0, 0.19547122722639965
298.0, 0.20826205719535276
299.0, 0.22200114424867456
300.0, 0.23513748230028242
301.0, 0.24533463992489887
302.0, 0.25577757430263504
303.0, 0.2666668560532763
304.0, 0.2782341083229113
305.0, 0.28562706971046536
306.0, 0.29236449133740444
307.0, 0.2999009233076095
308.0, 0.31083021969014163
309.0, 0.318485635347393
310.0, 0.3268355807774653
311.0, 0.33494957231354405
312.0, 0.33734801652331037
313.0, 0.34477483957748306
314.0, 0.34862589480813205
315.0, 0.34658901906000117
316.0, 0.3424239977515561
317.0, 0.3383018053703775
318.0, 0.33155508570595194
319.0, 0.320586486623571
320.0, 0.31339883360986864
321.0, 0.30617838460744506
322.0, 0.3003883767576349
323.0, 0.29786480683038985
324.0, 0.29321246753132224
325.0, 0.29438886344080395
326.0, 0.2984448841379815
327.0, 0.2985413919961981
328.0, 0.3034936169422039
329.0, 0.30812644702045977
330.0, 0.31284242697841597
331.0, 0.3225207133227205
332.0, 0.3209401638568574
333.0, 0.3206233732579771
334.0, 0.32376524747443075
335.0, 0.31551872321366387
336.0, 0.30891910023987595
337.0, 0.30051536518890953
338.0, 0.28831028032966094
339.0, 0.2744302174476872
340.0, 0.2610618394028349
341.0, 0.24741726525147442
342.0, 0.23268444258897944
343.0, 0.21991118306188367
344.0, 0.20702501121013744
345.0, 0.19415122376310648
346.0, 0.1816237589445491
347.0, 0.17471552102125232
348.0, 0.1666531417060895
349.0, 0.15819072761272893
350.0, 0.1536754581412719
351.0, 0.1481319062477806
352.0, 0.14291328093508093
353.0, 0.13865716237464928
354.0, 0.1370688022707545
355.0, 0.13339545780732548
356.0, 0.13027594071980114
357.0, 0.12860203848059087
358.0, 0.12712258603925847
359.0, 0.12288413106624073
360.0, 0.11847261706524663
361.0, 0.11535558684017633
362.0, 0.1106316980951784
363.0, 0.10729177586888432
364.0, 0.10331576412399766
365.0, 0.0966960771395984
366.0, 0.09030394310991634
367.0, 0.08526147443264351
368.0, 0.08010567373897268
369.0, 0.07256632777723468
370.0, 0.06673877469851688
371.0, 0.05965878644526421
372.0, 0.05183903797598179
373.0, 0.0449633235157764
374.0, 0.0390322277231457
375.0, 0.032867085897524406
376.0, 0.026361594866377538
377.0, 0.019786853302358055
378.0, 0.013984411973981198
379.0, 0.009045815016497804
380.0, 0.004944152185662509
381.0, 0.0013424641963303823
382.0, 0.0010040511441408847
383.0, 0.0025189694207287043
384.0, 0.005098141287419412
385.0, 0.005938339989197508
386.0, 0.0062617797386652595
387.0, 0.007956785344722385
388.0, 0.011843018196394049
389.0, 0.01206535652446441
390.0, 0.014755031036767657
391.0, 0.017699391403534204
392.0, 0.019196315582513102
393.0, 0.02172025358641256
394.0, 0.02453081538285244
395.0, 0.026841055319314785
396.0, 0.02774363213182013
397.0, 0.030553561545557516
398.0, 0.03164981491836321
399.0, 0.031831610763469874
400.0, 0.032415727655735534
401.0, 0.032485873717343156
402.0, 0.03155242109422169
403.0, 0.03026507026993814
404.0, 0.029985315195266236
405.0, 0.02781752252269731
406.0, 0.025323806559885788
407.0, 0.022612474500742108
408.0, 0.01942716264650299
409.0, 0.015299860161252496
410.0, 0.009828753329049419
411.0, 0.004154502516087673
412.0, 0.002580285716832672
413.0, 0.01092836155057679
414.0, 0.021514768580567327
415.0, 0.03249813409018347
416.0, 0.04411141631502298
417.0, 0.05839421860678238
418.0, 0.07338491269702896
419.0, 0.08812556953105605
420.0, 0.10048935539840204
421.0, 0.11061097914409432
422.0, 0.12068076149839205
423.0, 0.13067768040732133
424.0, 0.1329737703772175
425.0, 0.1310627604825208
426.0, 0.12884636990606535
427.0, 0.12748656166515993
428.0, 0.11795424983438937
429.0, 0.10969384803525734
430.0, 0.10387577885004254
431.0, 0.10121191727789122
432.0, 0.09995239343070411
433.0, 0.09460876772338571
434.0, 0.09053447042519572
435.0, 0.09128077402804471
436.0, 0.08746518366570023
437.0, 0.08912884770221717
438.0, 0.09153061535945348
439.0, 0.0907766184610668
440.0, 0.08972295226082648
441.0, 0.09092148985384708
442.0, 0.09287804543578243
443.0, 0.09417689244989093
444.0, 0.09568902463448868
445.0, 0.09851910820201276
446.0, 0.10221013845549244
447.0, 0.10627573398303206
448.0, 0.11063065814979034
449.0, 0.11573784901131684
450.0, 0.12244893199851765
451.0, 0.13185249556040396
452.0, 0.1475394655320215
453.0, 0.1590319971290584
454.0, 0.17190488378697333
455.0, 0.19411259950424326
456.0, 0.21408007903103768
457.0, 0.24056174638383618
458.0, 0.2710481346963091
459.0, 0.30154642461492254
460.0, 0.33864589489690905
461.0, 0.3765847040333131
462.0, 0.41410177881024235
463.0, 0.44972138048911964
464.0, 0.4782088696277942
465.0, 0.5079882005721331
466.0, 0.5312489042854108
467.0, 0.5343202466683571
468.0, 0.5232214093458628
469.0, 0.504470901554501
470.0, 0.4745880866481483
471.0, 0.4264888034585886
472.0, 0.38826394006030335
473.0, 0.34000894266847803
474.0, 0.28907788212919855
475.0, 0.25010786345193414
476.0, 0.21386240165605955
477.0, 0.18065721123678116
478.0, 0.15097751209754906
479.0, 0.1257563722010551
480.0, 0.10633020786746496
481.0, 0.09058402294637122
482.0, 0.07761743020969351
483.0, 0.06631236399482911
484.0, 0.05787748285239593
485.0, 0.05129401935676693
486.0, 0.046715984837389056
487.0, 0.04457671116761708
488.0, 0.041962305215951026
489.0, 0.040622397821301524
490.0, 0.04049084467619586
491.0, 0.04133295223213041
492.0, 0.04124515745609988
493.0, 0.0413270225369249
494.0, 0.04173527223168977
495.0, 0.04261478701416331
496.0, 0.04239515533978541
497.0, 0.04425546187006515
498.0, 0.04635707266129193
499.0, 0.04603150268372442
500.0, 0.044772186551846505
501.0, 0.04647325598114807
502.0, 0.048718482894391464
503.0, 0.04838515283570479
504.0, 0.051382278103251126
505.0, 0.054359020142436425
506.0, 0.05746245320450711
507.0, 0.06093237731856272
508.0, 0.06318599568700593
509.0, 0.06614851498128094
510.0, 0.06987234895826845
511.0, 0.07435467766467148
512.0, 0.07573049193422493
513.0, 0.08103891709647791
514.0, 0.08637073967298095
515.0, 0.08848214481328256
516.0, 0.09414484606222094
517.0, 0.09978786547879594
518.0, 0.10372415240233446
519.0, 0.10507926916408315
520.0, 0.11210879067293793
521.0, 0.11897012919938747
522.0, 0.12642874132934362
523.0, 0.13479545771593548
524.0, 0.1415548872738656
525.0, 0.14871958905338473
526.0, 0.1592216629268629
527.0, 0.17390885610185428
528.0, 0.18555081052242378
529.0, 0.20031900490852433
530.0, 0.21436656815901653
531.0, 0.22648350329462327
532.0, 0.24020729184989467
533.0, 0.2594836805567911
534.0, 0.276188527335758
535.0, 0.2890979258085773
536.0, 0.3070377931067396
537.0, 0.3227204697670312
538.0, 0.3383648642155575
539.0, 0.3529326328109871
540.0, 0.359977229851462
541.0, 0.3719970146769102
542.0, 0.37844597317456247
543.0, 0.3820070323695338
544.0, 0.39742474112590426
545.0, 0.3996281236766546
546.0, 0.4026782221620169
547.0, 0.40640129172316397
548.0, 0.4053588081374898
549.0, 0.40296505894700085
550.0, 0.3972119409430985
551.0, 0.38896938128597464
552.0, 0.3800560809101411
553.0, 0.36407074571043646
554.0, 0.3486527640174575
555.0, 0.3347735684711706
556.0, 0.32309432144532874
557.0, 0.3026141336032549
558.0, 0.28660322643536507
559.0, 0.27041799110088033
560.0, 0.24958843562706332
561.0, 0.23812360656740822
562.0, 0.2212966224667436
563.0, 0.20246038718844264
564.0, 0.18427342895845136
565.0, 0.16937458862225782
566.0, 0.15544773308404877
567.0, 0.14221613694329055
568.0, 0.13010315885402743
569.0, 0.12336738878886068
570.0, 0.11945316116880325
571.0, 0.11684010315023417
572.0, 0.11627450719030952
573.0, 0.12392863582151595
574.0, 0.13234838139773736
575.0, 0.14165200809713133
576.0, 0.15175941446748484
577.0, 0.1623241969454248
578.0, 0.18092167000581388
579.0, 0.20108992360066028
580.0, 0.22068840830253328
581.0, 0.2374090790148132
582.0, 0.2645076200422092
583.0, 0.28711002066485675
584.0, 0.30812111077657306
585.0, 0.33358293782929804
586.0, 0.3674884970926973
587.0, 0.3973659766217457
588.0, 0.4276592416503843
589.0, 0.46286304670642386
590.0, 0.4951469795998727
591.0, 0.5253491840613872
592.0, 0.5596734574461403
593.0, 0.6014907611943049
594.0, 0.6427827367445549
595.0, 0.6794548287171108
596.0, 0.7165496587575605
597.0, 0.7550793627244969
598.0, 0.7887009519380634
599.0, 0.8325445928282036
600.0, 0.8684697215419143
601.0, 0.8950756556180836
602.0, 0.9234978840389976
603.0, 0.9478438796675068
604.0, 0.9706417040189189
605.0, 0.9884307263590077
606.0, 0.9937372306440067
607.0, 0.9983143312685588
608.0, 0.9984906571116497
609.0, 0.9930523534561948
610.0, 0.9810008777178645
611.0, 0.9644670289289707
612.0, 0.9443881003964796
613.0, 0.9253515438751881
614.0, 0.9099021833774947
615.0, 0.8844505966482511
616.0, 0.8652256950198791
617.0, 0.8420817490001961
618.0, 0.8123597785845326
619.0, 0.7884907659151627
620.0, 0.7594614368060707
621.0, 0.7356329670179924
622.0, 0.7142727315072692
623.0, 0.6783832577463156
624.0, 0.6670802681675532
625.0, 0.6414379780703189
626.0, 0.6118753073455039
627.0, 0.6060581494720724
628.0, 0.5720867936510632
629.0, 0.5494521525372223
630.0, 0.5333307668241504
631.0, 0.5164613104623451
632.0, 0.4922871902815493
633.0, 0.4772913357963592
634.0, 0.4606819316868663
635.0, 0.4386093874066445
636.0, 0.4329796969014744
637.0, 0.4129065404714799
638.0, 0.3966006822926408
639.0, 0.3878122567589782
640.0, 0.37730730070258894
641.0, 0.3626762814899304
642.0, 0.3484558626464836
643.0, 0.3360324510614662
644.0, 0.3265268267821494
645.0, 0.3190804933441287
646.0, 0.30942787728248733
647.0, 0.2982008729533024
648.0, 0.2865837760899444
649.0, 0.28088393746574625
650.0, 0.2724782587687918
651.0, 0.2650741411404631
652.0, 0.2601281791879239
653.0, 0.2518609448639103
654.0, 0.24845122257846247
655.0, 0.2416646929728936
656.0, 0.23175126442861377
657.0, 0.2279873947177903
658.0, 0.22430212748191034
659.0, 0.21800322686147908
660.0, 0.21025670296077884
661.0, 0.2036443793993382
662.0, 0.20103104849817896
663.0, 0.1957412549658472
664.0, 0.19042444897486163
665.0, 0.18731679960373104
666.0, 0.1818068329704858
667.0, 0.1749824725696954
668.0, 0.17108133393474415
669.0, 0.17022217395124983
670.0, 0.1636511558577001
671.0, 0.1578713164351134
672.0, 0.15551207578059198
673.0, 0.15378510880399213
674.0, 0.14532782881395306
675.0, 0.14462320905693188
676.0, 0.14108515312841804
677.0, 0.13720865321329134
678.0, 0.13642934098583892
679.0, 0.13323943485098036
680.0, 0.1272709520371702
681.0, 0.12341396536010817
682.0, 0.12328477173346715
683.0, 0.11986386228101857
684.0, 0.11557809954166122
685.0, 0.11206624683820032
686.0, 0.10908957282742289
687.0, 0.10494744192878153
688.0, 0.10464491335196113
689.0, 0.10337868615878941
690.0, 0.101104262400739
691.0, 0.09836476195614016
692.0, 0.09628079918107732
693.0, 0.09404152238859684
694.0, 0.09114275980272038
695.0, 0.08763809434674402
696.0, 0.08564575508298275
697.0, 0.08299476136273194
698.0, 0.08084652809167592
699.0, 0.07905278356522887
700.0, 0.07647930319572434
701.0, 0.07409955624334434
702.0, 0.0711316587862478
703.0, 0.06825151604077533
704.0, 0.06625344965751327
705.0, 0.06383470819887754
706.0, 0.06279170608612672
707.0, 0.060841916596170206
708.0, 0.057624079793318475
709.0, 0.05767359978210318
710.0, 0.055948404793467944
711.0, 0.05395662427510413
712.0, 0.052018855051999276
713.0, 0.0500836428496067
714.0, 0.04829165531965927
715.0, 0.0460868238598093
716.0, 0.04372696045332595
717.0, 0.041690151075780627
718.0, 0.04268375750377407
719.0, 0.041297437806218786
720.0, 0.03910680373548829
721.0, 0.037212638519520606
722.0, 0.03713927674942261
723.0, 0.0356243631041335
724.0, 0.03390089823680574
725.0, 0.03304730014613861
726.0, 0.03432959812362502
727.0, 0.029034349020708755
728.0, 0.028893882990614808
729.0, 0.029633097772808613
730.0, 0.028403303703014648
731.0, 0.026517512896468504
732.0, 0.02516261867894954
733.0, 0.02506584582990785
734.0, 0.025166389623760377
735.0, 0.022569911546841407
736.0, 0.02223297463575065
737.0, 0.021843535997549818
738.0, 0.020759452142556395
739.0, 0.018719469237063274
740.0, 0.0183833657930186
741.0, 0.017633550588366985
742.0, 0.016722570354729665
743.0, 0.015831205650453654
744.0, 0.015205329120734995
745.0, 0.013246841836525412
746.0, 0.012614740018480177
747.0, 0.012492733753193869
748.0, 0.011333490413131139
749.0, 0.01006602462957708
750.0, 0.010413233469800436
751.0, 0.010065147761680915
752.0, 0.008329163371238365
753.0, 0.008185512280281295
754.0, 0.006224043197530125
755.0, 0.005171147571236614
756.0, 0.00507448821280258
757.0, 0.005058087228646583
758.0, 0.003244953000145359
759.0, 0.003107830909503332
760.0, 0.0031666614412375607
761.0, 0.0024942792021521885
762.0, 0.0022407064261775584
763.0, 0.0016715867688659309
764.0, 0.00112162957692456
765.0, 0.0006924441891531257
766.0, 0.000410721032149874
767.0, 0.0003359589907374929
768.0, 0.0005175754005623569
769.0, 0.0007392158619707584
770.0, 0.0007937542093921665
771.0, 0.0004763789806461985
772.0, 0.001042877670733582
773.0, 0.0015926830583696486
774.0, 0.0017707683115921178
775.0, 0.00139942612354583
776.0, 0.0018531452808692498
777.0, 0.0013648054067465555
778.0, 0.001222836270173201
779.0, 0.0023053005670982604
780.0, 0.001550541333634754
781.0, 0.0018161947960326388
782.0, 0.0019725278435722415
783.0, 0.0018258353493152083
784.0, 0.001779004323825306
785.0, 0.0020714215110382295
786.0, 0.002302333030000185
787.0, 0.002159693617263983
788.0, 0.0015308923697051513
789.0, 0.001582543531817752
790.0, 0.0017332882155367837
791.0, 0.0018443088242953419
792.0, 0.0018737050741265077
793.0, 0.00182853475277167
794.0, 0.0009576172383598122
795.0, 0.0017699216165413085
796.0, 0.0024282406237047926
797.0, 0.0016301637453886666
798.0, 0.0023244347036372563
799.0, 0.002773721913946776
800.0, 0.003045128372678162
801.0, 0.0030753038585919056
802.0, 0.0027051119683659058
803.0, 0.0025549818466638133
804.0, 0.003223592339299335
805.0, 0.003608382939324966
806.0, 0.0031727952784960335
807.0, 0.0039056182751901394
808.0, 0.004430120414089654
809.0, 0.004422094746352348
810.0, 0.004082550160597301
811.0, 0.003909759017015281
812.0, 0.004515916229342135
813.0, 0.003953735120508499
814.0, 0.003313523798435886
815.0, 0.0033078604589546847
816.0, 0.003902396319985143
817.0, 0.004250119242291124
818.0, 0.00454480100714934
819.0, 0.004306056756882375
820.0, 0.0029258370175011665
821.0, 0.002915514296846213
822.0, 0.002742102992337378
823.0, 0.0029022938911794595
824.0, 0.0032651425798430884
825.0, 0.002579637874487574
826.0, 0.0026653088457967793
827.0, 0.003052079631618214
828.0, 0.00290654879654743
829.0, 0.0016213893496860882
830.0, 0.0015552211884312377
831.0, 0.0021620419208412266
832.0, 0.0021587961851929367
833.0, 0.0015292097598848856
834.0, 0.0012803576692047981
835.0, 0.0012026400411074296
836.0, 0.0013082512512449707
837.0, 0.0012067018625665537
838.0, 0.0007114145723243465
839.0, 0.00047869567377235037
840.0, 0.00043342257251186825
841.0, 0.0006706746279483965
842.0, 0.0011319133138216018
843.0, 0.0016884209992737089
844.0, 0.002620954395939701
845.0, 0.0029591548099574742
846.0, 0.003400773021204891
847.0, 0.0042315612081645386
848.0, 0.005190774541195601
849.0, 0.005551097252434821
850.0, 0.006678188019633524
851.0, 0.007928230979397728
852.0, 0.008553056420962008
853.0, 0.009059635998835655
854.0, 0.009331407589335787
855.0, 0.009856858637978487
856.0, 0.010435741202183685
857.0, 0.010409997205139028
858.0, 0.010240726613002958
859.0, 0.010456574123029973
860.0, 0.010638805202204974
861.0, 0.010413826712863807
862.0, 0.009356848084513507
863.0, 0.009540028853924121
864.0, 0.009667714724677189
865.0, 0.009847264623901168
866.0, 0.010385127455641893
867.0, 0.011086071459666053
868.0, 0.011223193546066292
869.0, 0.011030577110205202
870.0, 0.011106024267675589
871.0, 0.01247701659396299
872.0, 0.012744977656637518
873.0, 0.012591366470055605
874.0, 0.012937409473590091
875.0, 0.013871199727549384
876.0, 0.013421014995439039
877.0, 0.013628171200523202
878.0, 0.014342824678675491
879.0, 0.015126651981789701
880.0, 0.01557767775153781
881.0, 0.01630927044296009
882.0, 0.016220954756583274
883.0, 0.016480668543449265
884.0, 0.016950361504749326
885.0, 0.01671156301799923
886.0, 0.016711841060088155
887.0, 0.01729670342701088
888.0, 0.017566151496185872
889.0, 0.017187314239269325
890.0, 0.01676835617741079
891.0, 0.016334839795816458
892.0, 0.015743320593143578
893.0, 0.01535815403316105
894.0, 0.015362032618081028
895.0, 0.014649641768517683
896.0, 0.014746954573176672
897.0, 0.014868657818489377
898.0, 0.01519911608714011
899.0, 0.016186618871368342
900.0, 0.01617869484862851
901.0, 0.01706073960716217
902.0, 0.018597290935092756
903.0, 0.020247865815134967
904.0, 0.02100931746371239
905.0, 0.02357332569409622
906.0, 0.02613236596060733
907.0, 0.028765830521888542
908.0, 0.03127463301613787
909.0, 0.03246135382277857
910.0, 0.03438845995977565
911.0, 0.03605016154078501
912.0, 0.036338139219270635
913.0, 0.03485684192447162
914.0, 0.0356959375550465
915.0, 0.03362767169448566
916.0, 0.03095174950609273
917.0, 0.028546393148697127
918.0, 0.026780198156591887
919.0, 0.024155323850961447
920.0, 0.02160156884794245
921.0, 0.01953989403865028
922.0, 0.017921301127283792
923.0, 0.01626136127622444
924.0, 0.015078964971188307
925.0, 0.013835758604337523
926.0, 0.012790183761303312
927.0, 0.01209753871631106
928.0, 0.011738633675903892
929.0, 0.010869269018629625
930.0, 0.010518367491383799
931.0, 0.010380168157713232
932.0, 0.010142293850860493
933.0, 0.010026342386993103
934.0, 0.009506007646192388
935.0, 0.00934872794401233
936.0, 0.009257385959687047
937.0, 0.008826855413950325
938.0, 0.009025169619563303
939.0, 0.009169715835609733
940.0, 0.009211760579851007
941.0, 0.009087979539414858
942.0, 0.00876035813048408
943.0, 0.00894598685539668
944.0, 0.0087849445263615
945.0, 0.008818302423619563
946.0, 0.00912163959705569
947.0, 0.009389800889642174
948.0, 0.009646837855780056
949.0, 0.009798560144723505
950.0, 0.009852494789689763
951.0, 0.009911087479075051
952.0, 0.010238570036748664
953.0, 0.010521185085237594
954.0, 0.010669674524972115
955.0, 0.010930379573633494
956.0, 0.011299720433624972
957.0, 0.011088427385805039
958.0, 0.011335804228525462
959.0, 0.011506821441001689
960.0, 0.011610443421952079
961.0, 0.011721322629104677
962.0, 0.011906273900129334
963.0, 0.011867666592072746
964.0, 0.011908199143347733
965.0, 0.01202075888299748
966.0, 0.012129286385741707
967.0, 0.012150147120927086
968.0, 0.01181996664031732
969.0, 0.011752357920826786
970.0, 0.011886110959811071
971.0, 0.011954255898109886
972.0, 0.011964897472522986
973.0, 0.012247020150991583
974.0, 0.012459551205674926
975.0, 0.012554192354438583
976.0, 0.012590526006019277
977.0, 0.012077031144279573
978.0, 0.012395210800818934
979.0, 0.012344606610833362
980.0, 0.011846030486585593
981.0, 0.011560541483686456
982.0, 0.012435436189004175
983.0, 0.012396706320897547
984.0, 0.012289810929453823
985.0, 0.012404994686212326
986.0, 0.012576914384188365
987.0, 0.012908699815804184
988.0, 0.013034283479015347
989.0, 0.012847043926943403
990.0, 0.012538146055310088
991.0, 0.012647291785575106
992.0, 0.012792921324590707
993.0, 0.012421923538680942
994.0, 0.01257103684915685
995.0, 0.01326668679918487
996.0, 0.01311336640152723
997.0, 0.01324246990186453
998.0, 0.013746164079892521
999.0, 0.014310639584554316
1000.0, 0.014790429389831432
1001.0, 0.015323489549902786
1002.0, 0.01577752165751202
1003.0, 0.016273780947592097
1004.0, 0.01709175009648468
1005.0, 0.018213982258122055
1006.0, 0.019086634481172614
1007.0, 0.019941720327033667
1008.0, 0.021272109646594865
1009.0, 0.022540775485072644
1010.0, 0.02332130273979924
1011.0, 0.023467473210103562
1012.0, 0.024351069426047943
1013.0, 0.024791473407977247
1014.0, 0.02474683312457174
1015.0, 0.024553095138012515
1016.0, 0.02516415629332483
1017.0, 0.024730607080280232
1018.0, 0.023981450547710812
1019.0, 0.023636933085499218
1020.0, 0.02382837157581282
1021.0, 0.023502353572651034
1022.0, 0.02259091976971665
1023.0, 0.022206065425500222
1024.0, 0.021429583017702054
1025.0, 0.019903172524086334
1026.0, 0.018639554597906317
1027.0, 0.01748268581653522
1028.0, 0.016171344756985524
1029.0, 0.01446698350039158
1030.0, 0.012617438686263915
1031.0, 0.011789199185245697
1032.0, 0.010788517009529675
1033.0, 0.010031101149600048
1034.0, 0.009275364759870477
1035.0, 0.008380066717738372
1036.0, 0.0074312345192501066
1037.0, 0.006937079264564081
1038.0, 0.00654266049405752
1039.0, 0.006271724151333295
1040.0, 0.006000612996669728
1041.0, 0.005357153737306486
1042.0, 0.004935992845784686
1043.0, 0.00505524786158962
1044.0, 0.004990008674754244
1045.0, 0.004667239027144368
1046.0, 0.0048707550011507054
1047.0, 0.004327640014893736
1048.0, 0.003872246661066253
1049.0, 0.0036777553634351904
1050.0, 0.003684166418648566
1051.0, 0.003604273178556867
1052.0, 0.0036045028243786538
1053.0, 0.0034037563217427717
1054.0, 0.003360119280009852
1055.0, 0.0034363972563652766
1056.0, 0.0032854139574041933
1057.0, 0.0031492339850844766
1058.0, 0.0032437329665789723
1059.0, 0.0030990782942314655
1060.0, 0.002892239727786004
1061.0, 0.0031382288311460602
1062.0, 0.0032432143970302983
1063.0, 0.0032939697427905395
1064.0, 0.003256799414248058
1065.0, 0.0031138998967074768
1066.0, 0.0028942032734259092
1067.0, 0.0029464824707097445
1068.0, 0.003133198727136428
1069.0, 0.003081481351727308
1070.0, 0.0030131106128525515
1071.0, 0.0032265859486637232
1072.0, 0.0033223164799601685
1073.0, 0.0032307045648573268
1074.0, 0.0033441734748396144
1075.0, 0.003438196742462473
1076.0, 0.003367500141425453
1077.0, 0.0037966599242070746
1078.0, 0.0036701581213972627
1079.0, 0.0034326816612036183
1080.0, 0.0033832227032975794
1081.0, 0.003584812197057838
1082.0, 0.003594702339680322
1083.0, 0.0036794849693169976
1084.0, 0.0037617707297569764
1085.0, 0.0038872339278601857
1086.0, 0.004141371958703714
1087.0, 0.004658483948028083
1088.0, 0.004256739866570255
1089.0, 0.004316884874223249
1090.0, 0.00428610948319115
1091.0, 0.004077770826695222
1092.0, 0.004081826895871334
1093.0, 0.004024866132937162
1094.0, 0.00404260775535052
1095.0, 0.003604673876013382
1096.0, 0.0030976552872500162
1097.0, 0.003255092658525277
1098.0, 0.002697708581264044
1099.0, 0.0024720084617224827
1100.0, 0.0023718869797366544
1101.0, 0.0021368851336997364
1102.0, 0.001624216911038376
1103.0, 0.0013775340956393033
1104.0, 0.0014251301762448466
1105.0, 0.0014400853920931878
1106.0, 0.0012402074298460746
1107.0, 0.0008877979887062326
1108.0, 0.0010166421147624824
1109.0, 0.0010709724178320753
1110.0, 0.0008565031736498673
1111.0, 0.0006154764575066337
1112.0, 0.0005309246757835485
1113.0, 0.0006388840909735378
1114.0, 0.0007829554348631737
1115.0, 0.0008035560281315182
1116.0, 0.0006211431450755055
1117.0, 0.0003413735844908321
1118.0, 0.0002051154505089351
1119.0, 0.00032207523636128824
1120.0, 0.00029233006264849597
1121.0, 0.00040384755654494206
1122.0, 0.0005318784756293028
1123.0, 0.0004622598210048216
1124.0, 0.00043705494254371
1125.0, 0.00022307727454920774
1126.0, 0.00016544651026705403
1127.0, 0.00013294480886782498
1128.0, 3.543084353720075e-05
1129.0, 0.00012840589750601168
1130.0, 0.00019049264236341206
1131.0, 0.00011313614157895067
1132.0, 0.00011110997826061063
1133.0, 0.0001873410342307337
1134.0, 7.331710532138818e-05
1135.0, 0.0003520651661555424
1136.0, 0.00019104022219227533
1137.0, 0.00019023709757596893
1138.0, 0.00028891699431412757
1139.0, 0.00012894335622107812
1140.0, 0.00022676045344885787
1141.0, 0.0002049707580697153
1142.0, 0.0002547789599925139
1143.0, 0.00023410431606566865
1144.0, 9.915803244142348e-05
1145.0, 0.00039609931434850287
1146.0, 0.00016795343495564017
1147.0, 0.000258931686304699
1148.0, 0.0005278517599401377
1149.0, 0.0006611249918708523
1150.0, 0.0002800245019671036
1151.0, 0.00045834408250489567
1152.0, 0.0003392152128329941
1153.0, 0.00031700064430633323
1154.0, 0.00045515690218479054
1155.0, 0.0006112017436008397
1156.0, 0.0007214543609615438
1157.0, 0.0007170402682297228
1158.0, 0.0009663129615028296
1159.0, 0.0011342218652384546
1160.0, 0.001030396735297255
1161.0, 0.001338740131137323
1162.0, 0.0012853343352285686
1163.0, 0.0013892027954153544
1164.0, 0.001547403229883003
1165.0, 0.001658051115150404
1166.0, 0.001689457369942692
1167.0, 0.0019295830531601869
1168.0, 0.0020768281629788654
1169.0, 0.002171073240303276
1170.0, 0.0023307766805822157
1171.0, 0.002661595208239766
1172.0, 0.003050830626996036
1173.0, 0.0033563101833013346
1174.0, 0.003820893246010243
1175.0, 0.00429800842147221
1176.0, 0.004736941908891677
1177.0, 0.005358266046333747
1178.0, 0.0057977428342375825
1179.0, 0.006120677470559207
1180.0, 0.006237582127629348
1181.0, 0.006145621352602238
1182.0, 0.005920743755428914
1183.0, 0.00574107950985214
1184.0, 0.0055747665333084825
1185.0, 0.005228407710131989
1186.0, 0.004805417811296754
1187.0, 0.004385667301230097
1188.0, 0.0038167999864100986
1189.0, 0.003624832596097833
1190.0, 0.003343598601385938
1191.0, 0.0032043454782847954
1192.0, 0.003202475390180807
1193.0, 0.003139634852355933
1194.0, 0.0032331288811172382
1195.0, 0.0031828550929654557
1196.0, 0.0033220463715663553
1197.0, 0.0034597671734653015
1198.0, 0.0034347875851700425
1199.0, 0.003588588203003394
1200.0, 0.0032013842769380847
1201.0, 0.0033591647255010832
1202.0, 0.003423656319660766
1203.0, 0.0033403202976984617
1204.0, 0.0036327893942337494
1205.0, 0.004018352151381702
1206.0, 0.003744386122087906
1207.0, 0.0039760316460720185
1208.0, 0.004395453459725211
1209.0, 0.004535507196146143
1210.0, 0.004772895000056046
1211.0, 0.004882940312199348
1212.0, 0.004912983258313641
1213.0, 0.004966991500920388
1214.0, 0.004922094386048611
1215.0, 0.004516925275133539
1216.0, 0.004036186284905365
1217.0, 0.003940001593209756
1218.0, 0.0037310151357668785
1219.0, 0.0033842473671344664
1220.0, 0.0029956593907671768
1221.0, 0.002634021271581639
1222.0, 0.0027946819376229045
1223.0, 0.002679745193531988
1224.0, 0.0025428707182065546
1225.0, 0.0024107765161821737
1226.0, 0.002179798550080228
1227.0, 0.0022053512940013067
1228.0, 0.0024738647450249416
1229.0, 0.0022534433688851346
1230.0, 0.0021372594352017877
1231.0, 0.002469357247659985
1232.0, 0.0027203297258310533
1233.0, 0.002755573733522725
1234.0, 0.0028222059150886003
1235.0, 0.002754706007358757
1236.0, 0.0026640351195471854
1237.0, 0.0027351399647894377
1238.0, 0.0028607600571865983
1239.0, 0.002844342300328905
1240.0, 0.0031582728544154027
1241.0, 0.0033296966736951097
1242.0, 0.0033846457146326538
1243.0, 0.0038957471292696997
1244.0, 0.0035021687374225995
1245.0, 0.0038262931077977687
1246.0, 0.003857351495623925
1247.0, 0.003750674066857007
1248.0, 0.003864870104670487
1249.0, 0.004139131006390211
1250.0, 0.0034445283365631416
1251.0, 0.0033048574804396607
1252.0, 0.003162955995875472
1253.0, 0.002943051429883582
1254.0, 0.0028954884391193193
1255.0, 0.002975629101938031
1256.0, 0.002399225005042774
1257.0, 0.0022733031306598236
1258.0, 0.002066308041446472
1259.0, 0.001718327274315855
1260.0, 0.001953163485760712
1261.0, 0.0015246703056979625
1262.0, 0.001156219790554287
1263.0, 0.0011139738274506517
1264.0, 0.0011564504804716413
1265.0, 0.0010990489946448162
1266.0, 0.0012978148774714564
1267.0, 0.0013126454086146385
1268.0, 0.0013804191903316668
1269.0, 0.001193916318113591
1270.0, 0.0009490654808092763
1271.0, 0.0009707410194948511
1272.0, 0.0007124658020469005
1273.0, 0.0005933734951714448
1274.0, 0.0006403917136115334
1275.0, 0.0007022555916641047
1276.0, 0.0006906684386077367
1277.0, 0.0006091744894981614
1278.0, 0.00038402575164777383
1279.0, 0.0003921546900825524
1280.0, 0.0003719615331832914
1281.0, 0.00025052687514325587
1282.0, 9.920453736554501e-05
1283.0, 0.00013138719081432122
1284.0, 0.0003136668673047712
1285.0, 0.00035835419836047086
1286.0, 0.0002898707448400708
1287.0, 0.00031067579283557167
1288.0, 0.0004896131132238166
1289.0, 0.0003678407908835177
1290.0, 0.0003428243412339374
1291.0, 0.0004773554257849932
1292.0, 0.0006598640175371281
1293.0, 0.000770129686298136
1294.0, 0.0007301201645934703
1295.0, 0.0005978331316241733
1296.0, 0.00067841676628939
1297.0, 0.0007521276044551543
1298.0, 0.0007040652317879714
1299.0, 0.0006374801724627805
1300.0, 0.0007858960237901007
1301.0, 0.0010115540291659266
1302.0, 0.0009000924595091609
1303.0, 0.0009641572608983593
1304.0, 0.0010281338437692089
1305.0, 0.0009678153760257223
1306.0, 0.0009135141228994025
1307.0, 0.0013707924891374922
1308.0, 0.001193174139631827
1309.0, 0.001287797600224975
1310.0, 0.0013701438257876831
1311.0, 0.0011953905563221955
1312.0, 0.0011180468754815776
1313.0, 0.001272330062964708
1314.0, 0.0011900390615322439
1315.0, 0.0011917170382367323
1316.0, 0.0012013972772437795
1317.0, 0.0011669546429626098
1318.0, 0.0013882926493947786
1319.0, 0.0015923608680356474
1320.0, 0.0016884929977197699
1321.0, 0.0017306464127215173
1322.0, 0.0016576268873416307
1323.0, 0.0014959445639171056
1324.0, 0.001631266252689062
1325.0, 0.0016670581100094125
1326.0, 0.001674493644988555
1327.0, 0.0013841916828646443
1328.0, 0.0011226629590779193
1329.0, 0.0012640894605773295
1330.0, 0.0012631048551390654
1331.0, 0.0010829757718610058
1332.0, 0.0012159691445602857
1333.0, 0.001283460146594881
1334.0, 0.0012142791057348178
1335.0, 0.0011399986186355865
1336.0, 0.001036767831220362
1337.0, 0.0011421147819020052
1338.0, 0.0012216797972230207
1339.0, 0.001104249383777015
1340.0, 0.000946005227393676
1341.0, 0.0009654631037372193
1342.0, 0.0006919058429897673
1343.0, 0.001022893931162949
1344.0, 0.0010455714465038416
1345.0, 0.0009333143447214699
1346.0, 0.0009095141593982184
1347.0, 0.0010384772108330618
1348.0, 0.0009049168412090325
1349.0, 0.0011639976983140849
1350.0, 0.0011775896108221723
1351.0, 0.0011987073296317423
1352.0, 0.0012028996071970573
1353.0, 0.0009838151108418512
1354.0, 0.0007942642192933755
1355.0, 0.0007631078391874272
1356.0, 0.0006826983221897277
1357.0, 0.0006903341416028959
1358.0, 0.0007027127634141719
1359.0, 0.0005532499846905677
1360.0, 0.0005533692128173921
1361.0, 0.00043936697940829324
1362.0, 0.000518316756704256
1363.0, 0.0005039118334564552
1364.0, 0.0003767712913737868
1365.0, 0.0003252123710598109
1366.0, 0.00039029708044095626
1367.0, 0.00016564198321319127
1368.0, 0.00015269305576160605
1369.0, 0.000198884620738089
1370.0, 0.00022348997436805987
1371.0, 0.00023011092364255432
1372.0, 0.00020037351638144623
1373.0, 8.895001053133735e-05
1374.0, 0.00016861031909826013
1375.0, 0.00018476777546249558
1376.0, 0.00012942667529625428
1377.0, 0.00013547589536028242
1378.0, 0.00022896323640682673
1379.0, 0.0002839427574817608
1380.0, 0.0003136859556706575
1381.0, 0.00027690994813804473
1382.0, 0.00018681507406587196
1383.0, 0.00010281571349008988
1384.0, 0.0001155303776744829
1385.0, 0.0001143938596300278
1386.0, 0.00019060671623983728
1387.0, 0.00022568720330843277
1388.0, 0.00024285323040873784
1389.0, 0.0002457216032205881
1390.0, 9.469796503792882e-05
1391.0, 0.000227920361295675
1392.0, 0.00020518633309484912
1393.0, 0.00016643305148835645
1394.0, 0.00019772047406718514
1395.0, 0.00025730633171834003
1396.0, 0.00017299447257897036
1397.0, 0.00016957368951932929
1398.0, 0.00029864571248639274
1399.0, 0.0002669428806077941
1400.0, 0.00018934348109883207
1401.0, 0.0001997402962019793
1402.0, 0.0003020172207287922
1403.0, 0.0003519853988796981
1404.0, 0.00025037107427437115
1405.0, 0.00017913037936543116
1406.0, 0.00010861953377637432
1407.0, 4.754176792275762e-05
1408.0, 4.985234238783599e-05
1409.0, 7.922515031861715e-05
1410.0, 0.0002775675214379193
1411.0, 0.00014269440409959896
1412.0, 5.1350492768296526e-05
1413.0, 0.0001523243469103621
1414.0, 0.00032138411424482467
1415.0, 0.000291712040762962
1416.0, 0.00044731998376671344
1417.0, 0.0005521582452955455
1418.0, 0.00048798489543664314
1419.0, 0.0003140540309261282
1420.0, 0.000224831873591136
1421.0, 0.0004677006438338225
1422.0, 0.0006440684282023032
1423.0, 0.0005316777609513662
1424.0, 0.00045430581901625906
1425.0, 0.00043274759662434583
1426.0, 0.00046752561720839127
1427.0, 0.000619745219264625
1428.0, 0.0006934639285372281
1429.0, 0.0007826183599437643
1430.0, 0.0007278489883048146
1431.0, 0.0006930405931135413
1432.0, 0.0007782469731600235
1433.0, 0.000871951308612022
1434.0, 0.0004648678448888468
1435.0, 0.0007473693460521188
1436.0, 0.0008251178909472902
1437.0, 0.0008906548177452727
1438.0, 0.0009794020040647668
1439.0, 0.0010651651698488382
1440.0, 0.0012561692058623507
1441.0, 0.0012123314242627585
1442.0, 0.00107943091104923
1443.0, 0.0011178049689444085
1444.0, 0.001149319073922684
1445.0, 0.001095836931513079
1446.0, 0.0011647453169330224
1447.0, 0.0012123910851913637
1448.0, 0.0011343532746576472
1449.0, 0.0012539647816923862
1450.0, 0.0012683530281845693
1451.0, 0.0012064723662571157
1452.0, 0.001266031133058329
1453.0, 0.0010176401077042865
1454.0, 0.0012095564959397126
1455.0, 0.0011541996787535701
1456.0, 0.0010340110810630725
1457.0, 0.0010942372269889644
1458.0, 0.0012622925870809766
1459.0, 0.0010001009156829447
1460.0, 0.0011334825921519044
1461.0, 0.0010472292690201384
1462.0, 0.0010082635061503516
1463.0, 0.0008485591678649492
1464.0, 0.0007463226716886396
1465.0, 0.0010423833726838955
1466.0, 0.0008582739657130295
1467.0, 0.0009275042125685486
1468.0, 0.0006150745712072877
1469.0, 0.0005649627354395972
1470.0, 0.0006380264629654424
1471.0, 0.0005955346160400052
1472.0, 0.0009400569768860307
1473.0, 0.0010091499357602898
1474.0, 0.0008686719770204433
1475.0, 0.0006684467084215251
1476.0, 0.0006530067978147529
1477.0, 0.0007451875397740649
1478.0, 0.0006635553523649533
1479.0, 0.0008816154258713352
1480.0, 0.0008884776187583954
1481.0, 0.0008044237982898039
1482.0, 0.0007354808290247469
1483.0, 0.0006450542678398745
1484.0, 0.0005114923601196196
1485.0, 0.0004795548656692629
1486.0, 0.0003464133216483955
1487.0, 0.00022910030480988223
1488.0, 0.00019799468108029278
1489.0, 0.00013197741652612148
1490.0, 7.812165943749683e-05
1491.0, 0.00021185936616160994
1492.0, 0.00039095057863108493
1493.0, 0.00038888634732789406
1494.0, 0.00040934417381611386
1495.0, 0.0005123502440678043
1496.0, 0.0006187906367367328
1497.0, 0.0006173713616590407
1498.0, 0.0004569410819869589
1499.0, 7.450392447818591e-05
1500.0, 0.00022582326452810886
1501.0, 0.00014821697030158507
1502.0, 0.00021179212023173134
1503.0, 0.0004886929467924702
1504.0, 0.0006740655307870216
1505.0, 0.0005433637261076656
1506.0, 0.000315510975775359
1507.0, 0.0002883909982328643
1508.0, 0.0003786531683535282
1509.0, 0.0004849501547861587
1510.0, 0.0005388262343035675
1511.0, 0.0004990925370611741
1512.0, 0.00020468152064032592
1513.0, 0.0002938717991916559
1514.0, 0.0002298549329706683
1515.0, 0.0001490674970742442
1516.0, 0.00020102812659069638
1517.0, 0.00032886104772706596
1518.0, 0.0002169204983490213
1519.0, 0.0001312346863578033
1520.0, 7.772309726678024e-05
1521.0, 0.00012191417305235429
1522.0, 8.68249292565021e-05
1523, 0.0
1524, 0.0
1525, 0.0
1526, 0.0
1527, 0.0
1528, 0.0
1529, 0.0
1530, 0.0
1531, 0.0
1532, 0.0
1533, 0.0
1534, 0.0
1535, 0.0
1536, 0.0
1537, 0.0
1538, 0.0
1539, 0.0
1540, 0.0
1541, 0.0
1542, 0.0
1543, 0.0
1544, 0.0
1545, 0.0
1546, 0.0
1547, 0.0
1548, 0.0
1549, 0.0
1550, 0.0
1551, 0.0
1552, 0.0
1553, 0.0
1554, 0.0
1555, 0.0
1556, 0.0
1557, 0.0
1558, 0.0
1559, 0.0
1560, 0.0
1561, 0.0
1562, 0.0
1563, 0.0
1564, 0.0
1565, 0.0
1566, 0.0
1567, 0.0
1568, 0.0
1569, 0.0
1570, 0.0
1571, 0.0
1572, 0.0
1573, 0.0
1574, 0.0
1575, 0.0
1576, 0.0
1577, 0.0
1578, 0.0
1579, 0.0
1580, 0.0
1581, 0.0
1582, 0.0
1583, 0.0
1584, 0.0
1585, 0.0
1586, 0.0
1587, 0.0
1588, 0.0
1589, 0.0
1590, 0.0
1591, 0.0
1592, 0.0
1593, 0.0
1594, 0.0
1595, 0.0
1596, 0.0
1597, 0.0
1598, 0.0
1599, 0.0
