30, 0.0
31, 0.0
32, 0.0
33, 0.0
34, 0.0
35, 0.0
36, 0.0
37, 0.0
38, 0.0
39, 0.0
40, 0.0
41, 0.0
42, 0.0
43, 0.0
44, 0.0
45, 0.0
46, 0.0
47, 0.0
48, 0.0
49, 0.0
50, 0.0
51, 0.0
52, 0.0
53, 0.0
54, 0.0
55, 0.0
56, 0.0
57, 0.0
58, 0.0
59, 0.0
60, 0.0
61, 0.0
62, 0.0
63, 0.0
64, 0.0
65, 0.0
66, 0.0
67, 0.0
68, 0.0
69, 0.0
70, 0.0
71, 0.0
72, 0.0
73, 0.0
74, 0.0
75, 0.0
76, 0.0
77, 0.0
78, 0.0
79, 0.0
80, 0.0
81, 0.0
82, 0.0
83, 0.0
84, 0.0
85, 0.0
86, 0.0
87, 0.0
88, 0.0
89, 0.0
90, 0.0
91, 0.0
92, 0.0
93, 0.0
94, 0.0
95, 0.0
96, 0.0
97, 0.0
98, 0.0
99, 0.0
100, 0.0
101, 0.0
102, 0.0
103, 0.0
104, 0.0
105, 0.0
106, 0.0
107, 0.0
108, 0.0
109, 0.0
110, 0.0
111, 0.0
112, 0.0
113, 0.0
114, 0.0
115, 0.0
116, 0.0
117, 0.0
118, 0.0
119, 0.0
120, 0.0
121, 0.0
122, 0.0
123, 0.0
124, 0.0
125, 0.0
126, 0.0
127, 0.0
128, 0.0
129, 0.0
130, 0.0
131, 0.0
132, 0.0
133, 0.0
134, 0.0
135, 0.0
136, 0.0
137, 0.0
138, 0.0
139, 0.0
140, 0.0
141, 0.0
142, 0.0
143, 0.0
144, 0.0
145, 0.0
146, 0.0
147, 0.0
148, 0.0
149, 0.0
150, 0.0
151, 0.0
152, 0.0
153, 0.0
154, 0.0
155, 0.0
156.0, 0.00019261791873991557
157.0, 0.002282383993789894
158.0, 0.0030747168391557595
159.0, 0.0022109233333858984
160.0, 0.0037237047050720368
161.0, 0.003996818363401839
162.0, 0.003996904817222794
163.0, 0.0030329883183209793
164.0, 0.0004701733805864065
165.0, 0.0015785463758002849
166.0, 0.00043526785632281174
167.0, 0.0009506582828825687
168.0, 0.00013895585909341724
169.0, 0.0010596653584523117
170.0, 0.0024081726446239736
171.0, 0.003493076088653641
172.0, 0.003542713982145212
173.0, 0.0033209062995497632
174.0, 0.006679077169835547
175.0, 0.007709931325675961
176.0, 0.008736181512449433
177.0, 0.011699853905371574
178.0, 0.014350831232427771
179.0, 0.01640075716332846
180.0, 0.017320794498687536
181.0, 0.01790902444348919
182.0, 0.019693899141484845
183.0, 0.02450245787977398
184.0, 0.027208600111613832
185.0, 0.02815940200971942
186.0, 0.02966417879529595
187.0, 0.032713202380661326
188.0, 0.03366004033253313
189.0, 0.034122003641218486
190.0, 0.034242213406800524
191.0, 0.029316703362864016
192.0, 0.02664224854799511
193.0, 0.023658680357406894
194.0, 0.021042057747418078
195.0, 0.02144745336745573
196.0, 0.018103902502221873
197.0, 0.013138466467209828
198.0, 0.009867606172868595
199.0, 0.009161283852133491
200.0, 0.008022464168697717
201.0, 0.00635275007880082
202.0, 0.005781195597262975
203.0, 0.0060714152131747115
204.0, 0.004568583464718541
205.0, 0.005130321613903234
206.0, 0.006562780866895727
207.0, 0.0069225335379054075
208.0, 0.00520751685954451
209.0, 0.005636587275182557
210.0, 0.007259210323436296
211.0, 0.008945413058148647
212.0, 0.009226694056858536
213.0, 0.008006213797216305
214.0, 0.012186272070620606
215.0, 0.015050843642745886
216.0, 0.016520420298968917
217.0, 0.019981166683866642
218.0, 0.02279962374042338
219.0, 0.026822778039402743
220.0, 0.030155428233285944
221.0, 0.031835587187492645
222.0, 0.03338286924720666
223.0, 0.035437375275467184
224.0, 0.03801899906710007
225.0, 0.040747673886415585
226.0, 0.04399903095124555
227.0, 0.05048694981800558
228.0, 0.05451543653006115
229.0, 0.05690708626104807
230.0, 0.060468136488263394
231.0, 0.06697196867142914
232.0, 0.0688998419903982
233.0, 0.07047319741428024
234.0, 0.07344104818336346
235.0, 0.07631660682769502
236.0, 0.07735494862595722
237.0, 0.07571280723036335
238.0, 0.07422634194707967
239.0, 0.07374125533210805
240.0, 0.07172553092183485
241.0, 0.06740345472487441
242.0, 0.06371352852365343
243.0, 0.06039515431410897
244.0, 0.05589274459229477
245.0, 0.05496114525539703
246.0, 0.05304223077383798
247.0, 0.051205265620140356
248.0, 0.050475345816450086
249.0, 0.04904037868868542
250.0, 0.04762508697936595
251.0, 0.04985347973212906
252.0, 0.05288902277285922
253.0, 0.051962629261353574
254.0, 0.04965997606808943
255.0, 0.05030937151293001
256.0, 0.052335296613467475
257.0, 0.0539236700003931
258.0, 0.05545983378535156
259.0, 0.05338838195480918
260.0, 0.05285908922118018
261.0, 0.0521551496803242
262.0, 0.05455799866831454
263.0, 0.053979607284341986
264.0, 0.056178425215065664
265.0, 0.055910460779171785
266.0, 0.05336083253487398
267.0, 0.05524356160080168
268.0, 0.05672115356490611
269.0, 0.05613402074133295
270.0, 0.05349858906983412
271.0, 0.05170377212727338
272.0, 0.04953210436081753
273.0, 0.04906415464207873
274.0, 0.04766326744069274
275.0, 0.047171907157571566
276.0, 0.04978956579263856
277.0, 0.05008172349830062
278.0, 0.04952660252025549
279.0, 0.04951716921519678
280.0, 0.049762205516938066
281.0, 0.049495590157575216
282.0, 0.0505448020627807
283.0, 0.04970411966255962
284.0, 0.048104232193553344
285.0, 0.04666011689475387
286.0, 0.04433859307334199
287.0, 0.04208576098027904
288.0, 0.03879838222053121
289.0, 0.03720824251753724
290.0, 0.038184618455572014
291.0, 0.03521114238332607
292.0, 0.03505434149954343
293.0, 0.03660568162077716
294.0, 0.03793885755642881
295.0, 0.03846981360513099
296.0, 0.038468296389097045
297.0, 0.03980878106503493
298.0, 0.04088704269329312
299.0, 0.041002333403836175
300.0, 0.04056688588639536
301.0, 0.03984442794799587
302.0, 0.03902845408616383
303.0, 0.03863874812500474
304.0, 0.037450543771577076
305.0, 0.03295756415157054
306.0, 0.030083231169953765
307.0, 0.028850539574061015
308.0, 0.026940505990122012
309.0, 0.023129082627560575
310.0, 0.01978350461228251
311.0, 0.020060352322101436
312.0, 0.018333514894955542
313.0, 0.015055419289010078
314.0, 0.01484016649733165
315.0, 0.013357298601092856
316.0, 0.012409233208085258
317.0, 0.010408084797056133
318.0, 0.00799004792717063
319.0, 0.008244231410158391
320.0, 0.006158474516172119
321.0, 0.006234934559142073
322.0, 0.005927577850916424
323.0, 0.0033822325256369543
324.0, 0.002677962186593743
325.0, 0.0024838744547248295
326.0, 0.0012165324980172086
327.0, 0.0001857157801074149
328.0, 0.0006957866353849983
329.0, 0.0011764486963596207
330.0, 0.0009687183267324219
331.0, 0.0003204789946355255
332.0, 0.0014907032534359334
333.0, 0.0022857661025210974
334.0, 0.0007032606743229748
335.0, 0.0008182915953840162
336.0, 0.00025781850837969353
337.0, 0.0011874045025651243
338.0, 0.0016006108671229365
339.0, 0.0008056937577008826
340.0, 0.000523843772455063
341.0, 0.0014004927546707843
342.0, 0.002600255818743754
343.0, 0.0027177554930541623
344.0, 0.0022087663062010407
345.0, 0.0008012147786436526
346.0, 0.0006631261681526895
347.0, 0.0018068357733934213
348.0, 0.001765905959288218
349.0, 0.00026884960996205205
350.0, 0.0005827520078433558
351.0, 0.002570598010303263
352.0, 0.00020579153317601195
353.0, 0.0011762392321863447
354.0, 0.0016912886217319853
355.0, 0.0009489421175859405
356.0, 0.00039010199321212405
357.0, 0.0023150065608932785
358.0, 0.00024602312277924483
359.0, 0.001898749683358057
360.0, 0.0011504328163041697
361.0, 0.0011781363677313705
362.0, 0.003843066400051156
363.0, 0.00459912343952816
364.0, 0.004950298162174317
365.0, 0.004185246668784537
366.0, 0.005025847456693594
367.0, 0.007560242505132811
368.0, 0.008305151579976442
369.0, 0.009190396786146993
370.0, 0.01005512895406132
371.0, 0.011774949266551525
372.0, 0.013948655757440542
373.0, 0.01439537412049451
374.0, 0.015198896067493112
375.0, 0.015509484216501423
376.0, 0.016577140055183952
377.0, 0.018736545562402403
378.0, 0.019086679321834568
379.0, 0.019137120339122456
380.0, 0.020029109464152442
381.0, 0.02048534817306591
382.0, 0.019973292561094876
383.0, 0.021187819196068616
384.0, 0.021518485971792102
385.0, 0.021332095885039606
386.0, 0.02080746960231672
387.0, 0.01992202025668804
388.0, 0.01893676955886163
389.0, 0.017419117739801537
390.0, 0.016879536466961793
391.0, 0.015386989505101164
392.0, 0.013564091646920835
393.0, 0.013965826062691833
394.0, 0.011957578467854384
395.0, 0.01126221431048402
396.0, 0.010084649321550693
397.0, 0.007506874479988154
398.0, 0.00568596191463739
399.0, 0.005967926324158351
400.0, 0.003812597059190478
401.0, 0.0013699101757189444
402.0, 0.00091369266333066
403.0, 0.0017664128732339055
404.0, 0.0011748818897197105
405.0, 0.0007865354031755347
406.0, 0.002050995162341157
407.0, 0.002541748457757245
408.0, 0.003341161802413727
409.0, 0.0026909591275235856
410.0, 0.0029035313013250977
411.0, 0.0017907985736251696
412.0, 0.0004516201071886999
413.0, 0.0005298622081868946
414.0, 0.0002353862038946538
415.0, 0.00011853834607235501
416.0, 0.0012917914247118406
417.0, 0.003178296720660429
418.0, 0.004471119541217439
419.0, 0.005018531588415143
420.0, 0.003158658673717432
421.0, 0.005226426109296432
422.0, 0.009711244922122898
423.0, 0.012760089630732567
424.0, 0.015448827798046967
425.0, 0.016583082925016455
426.0, 0.018952601081031258
427.0, 0.020962996162226848
428.0, 0.022778315323395748
429.0, 0.027083083415094508
430.0, 0.028942472041413005
431.0, 0.03175301960990181
432.0, 0.03419473422509215
433.0, 0.03754150840860625
434.0, 0.04384210674797873
435.0, 0.04693648699547841
436.0, 0.05008505207775355
437.0, 0.05604773514970241
438.0, 0.06348928545657437
439.0, 0.06938241375653983
440.0, 0.07387774755489182
441.0, 0.08095793871154904
442.0, 0.08880322126825718
443.0, 0.0974900448387165
444.0, 0.10680885497816799
445.0, 0.11524816947928619
446.0, 0.12753008628332316
447.0, 0.14117738884506598
448.0, 0.1541414688979449
449.0, 0.16882982482671402
450.0, 0.1886225142104558
451.0, 0.21085958464480015
452.0, 0.23238554164480518
453.0, 0.26080614565691435
454.0, 0.29475986748702926
455.0, 0.33058888227612504
456.0, 0.3743834884688493
457.0, 0.41483672999469473
458.0, 0.4565436201273522
459.0, 0.5007639100835783
460.0, 0.5437675446458505
461.0, 0.5797943872796235
462.0, 0.6208414899427661
463.0, 0.6593921805014311
464.0, 0.6957196446218908
465.0, 0.7346574329075354
466.0, 0.7777434524891196
467.0, 0.816243401582211
468.0, 0.8565197429249293
469.0, 0.8969287700266896
470.0, 0.9327834579932344
471.0, 0.9613264379064221
472.0, 0.9844586910857618
473.0, 0.9988882580114967
474.0, 0.9953262728311654
475.0, 0.9745142679849269
476.0, 0.9352788606318158
477.0, 0.8688439885412554
478.0, 0.7893359256452008
479.0, 0.7086874356076495
480.0, 0.6248112083262101
481.0, 0.5447905848115345
482.0, 0.47938531362476355
483.0, 0.423644649595384
484.0, 0.376119338413327
485.0, 0.3351691913719043
486.0, 0.3018379363731061
487.0, 0.2760508310232722
488.0, 0.2545100023569772
489.0, 0.23583301597225592
490.0, 0.2176495229059301
491.0, 0.20340476236385457
492.0, 0.19127567486491892
493.0, 0.17775060999886172
494.0, 0.1681767883543693
495.0, 0.159891050759671
496.0, 0.15371157041855327
497.0, 0.14703547679382936
498.0, 0.13965551700895804
499.0, 0.1340638431271677
500.0, 0.12774541601235198
501.0, 0.12047134341779347
502.0, 0.11464327191179037
503.0, 0.11043642617494284
504.0, 0.10607019492537002
505.0, 0.099960851278986
506.0, 0.09380833842559032
507.0, 0.08899770676934338
508.0, 0.0843864448070165
509.0, 0.07830177666796419
510.0, 0.07127185296181039
511.0, 0.06662055594988525
512.0, 0.06186912144410746
513.0, 0.05861635543011306
514.0, 0.054140184800442
515.0, 0.04827518162229643
516.0, 0.044475829264983224
517.0, 0.04073641699240892
518.0, 0.03773909366394511
519.0, 0.03357575630732273
520.0, 0.029671201416364867
521.0, 0.02739902946043719
522.0, 0.024399691097229295
523.0, 0.02194950629266835
524.0, 0.019656479183258406
525.0, 0.01663023926872719
526.0, 0.014734196739469421
527.0, 0.015213664802819089
528.0, 0.012204828537212038
529.0, 0.01111349432417268
530.0, 0.010293763622800428
531.0, 0.00830594189436029
532.0, 0.005733426653872131
533.0, 0.004436061335922496
534.0, 0.006254252732836724
535.0, 0.005065393536900077
536.0, 0.00395948235113593
537.0, 0.003065447212871244
538.0, 0.0016586232083616295
539.0, 0.0018223830395357348
540.0, 0.00136176802795387
541.0, 0.001050820649164481
542.0, 0.0008224920288070159
543.0, 0.00030686819043359464
544.0, 0.0008071586111038319
545.0, 0.002074466916074801
546.0, 0.0008878420944886715
547.0, 0.0006613971545511088
548.0, 0.0008096385071767293
549.0, 0.001618944332714824
550.0, 0.003284410494706964
551.0, 0.001280584278595741
552.0, 0.00025552780006102163
553.0, 0.0006012306029123644
554.0, 0.0015699319981531785
555.0, 0.002252353161408426
556.0, 0.0023618078817990015
557.0, 0.003374254563530229
558.0, 0.002386849347097716
559.0, 0.0009110798779547059
560.0, 0.0003487501733792874
561.0, 0.0008521961461003752
562.0, 0.0014746698912472835
563.0, 0.00036170185210472274
564.0, 0.0011926085435043491
565.0, 0.0009081048356992332
566.0, 0.0004287934942583359
567.0, 0.0013493222847695409
568.0, 0.002455477424073475
569.0, 0.0007100349299640697
570.0, 0.001256021574695881
571.0, 0.0018125305683471093
572.0, 0.0019678308801802883
573.0, 0.0025704823039027947
574.0, 0.0033144139159084493
575.0, 0.0027088933076800928
576.0, 0.0043018817289964565
577.0, 0.004661477385682078
578.0, 0.004064165808746871
579.0, 0.0045830419071672185
580.0, 0.006843593726155905
581.0, 0.006426149141449902
582.0, 0.005584619825060633
583.0, 0.005295584545686216
584.0, 0.005456727891115159
585.0, 0.005316797472929828
586.0, 0.004881067185787436
587.0, 0.006455360516974611
588.0, 0.006828771885395176
589.0, 0.007230894971738989
590.0, 0.007299442302937111
591.0, 0.006875845826028374
592.0, 0.007092384084437829
593.0, 0.008364952399958991
594.0, 0.007431065925262476
595.0, 0.006944500595652129
596.0, 0.0071626887799570394
597.0, 0.007590580912117616
598.0, 0.008234057812849053
599.0, 0.008526989078884158
600.0, 0.007727073728245931
601.0, 0.007854229984874313
602.0, 0.008344760504509429
603.0, 0.008768347893926312
604.0, 0.009466479094799952
605.0, 0.009039369962001904
606.0, 0.008955863172370786
607.0, 0.008001376160951397
608.0, 0.007508651079620163
609.0, 0.008024511467112179
610.0, 0.008095952564624587
611.0, 0.007565644680693142
612.0, 0.008247736651171702
613.0, 0.007687200217615656
614.0, 0.006980075136583908
615.0, 0.006448929392367445
616.0, 0.005927265529266005
617.0, 0.00570152699854295
618.0, 0.006258284324970989
619.0, 0.005537056123930835
620.0, 0.003545913171518311
621.0, 0.003346839952585917
622.0, 0.004639490571941112
623.0, 0.003820670004071832
624.0, 0.004862168402152966
625.0, 0.004520228056339704
626.0, 0.004116508858009785
627.0, 0.004499161049819269
628.0, 0.005154722548235453
629.0, 0.0054086127688808255
630.0, 0.005925792100078001
631.0, 0.004593545994625628
632.0, 0.00478093779309261
633.0, 0.004748536697804068
634.0, 0.004540456362818902
635.0, 0.005191823054183489
636.0, 0.005495391230869596
637.0, 0.004554574211029541
638.0, 0.0053657904914182755
639.0, 0.004957650608315971
640.0, 0.004210513414802628
641.0, 0.004244853403647194
642.0, 0.003956420181025639
643.0, 0.0031052551039079976
644.0, 0.003535382011954603
645.0, 0.004322465725654443
646.0, 0.0040655959520531654
647.0, 0.00397091522695808
648.0, 0.004528313925574226
649.0, 0.003595453053716136
650.0, 0.004579914944339754
651.0, 0.005280096194507996
652.0, 0.004288188712050974
653.0, 0.003196889595396061
654.0, 0.0034034526318059703
655.0, 0.004101408738851839
656.0, 0.00404918385206483
657.0, 0.004104978575050431
658.0, 0.004400824770101365
659.0, 0.0030402870122454603
660.0, 0.0022813325530210535
661.0, 0.003941515668513798
662.0, 0.004418916425492105
663.0, 0.0042311535915566445
664.0, 0.004100569688213145
665.0, 0.004102036795170387
666.0, 0.00378239441717901
667.0, 0.0034785180136016635
668.0, 0.0038038545981944694
669.0, 0.0030857649603849876
670.0, 0.0032667572227975984
671.0, 0.003206752059245898
672.0, 0.0036418108051640224
673.0, 0.004082371848533032
674.0, 0.0037718176635494188
675.0, 0.003871630482509659
676.0, 0.0035815382343838604
677.0, 0.005126871078872578
678.0, 0.005462686373474271
679.0, 0.004165806286231769
680.0, 0.003475903853967047
681.0, 0.004697362003895755
682.0, 0.005166352932962216
683.0, 0.003194576566518906
684.0, 0.00419580348452883
685.0, 0.0048352621303337515
686.0, 0.004125926780423115
687.0, 0.00336110964015865
688.0, 0.003084137272058556
689.0, 0.0033742773699021425
690.0, 0.0037738092533241667
691.0, 0.0033399652979762716
692.0, 0.0035618642829257615
693.0, 0.004241023381509982
694.0, 0.0037040357297663676
695.0, 0.0026703092153000144
696.0, 0.004864038300572991
697.0, 0.004478147120659557
698.0, 0.0038926590306493972
699.0, 0.004136386246656405
700.0, 0.0037993449192190664
701.0, 0.0031823148834214405
702.0, 0.005365279171655347
703.0, 0.00454118964654622
704.0, 0.0024382610679973982
705.0, 0.002347975862865249
706.0, 0.003174976481585426
707.0, 0.0028933207944508133
708.0, 0.0016546959700875102
709.0, 0.001135829398618894
710.0, 0.0013989903710039447
711.0, 0.0025302618867113474
712.0, 0.003078879249980943
713.0, 0.0023422179633623324
714.0, 0.0018884478281534433
715.0, 0.0024596681543538816
716.0, 0.002200674485721034
717.0, 0.0015007297906822804
718.0, 0.0017996337234463015
719.0, 0.001193240105470276
720.0, 0.0009995283709533734
721.0, 0.0016224530245160628
722.0, 0.0017076916755704942
723.0, 0.0010436792224862207
724.0, 0.0008154200923472261
725.0, 0.0005945156357581266
726.0, 0.000656542459069161
727.0, 0.00019873540088828116
728.0, 0.0009613942899398302
729.0, 0.0007021676652830213
730.0, 7.234769243872061e-05
731.0, 0.0003441540253721116
732.0, 0.0013511213775603001
733.0, 0.0008234341136440363
734.0, 0.0012725817305269467
735.0, 0.002214891390662037
736.0, 0.0012085272596196331
737.0, 7.84208983177397e-05
738.0, 0.0003753758536164152
739.0, 0.0006076596032519022
740.0, 0.0005970329682716727
741.0, 0.00021052632363870963
742.0, 0.0006381140183112099
743.0, 0.0013377810336026971
744.0, 3.1270372573321665e-05
745.0, 0.00016075769607216828
746.0, 0.0003962873023660808
747.0, 0.0008029375580540174
748.0, 0.0012650680832114651
749.0, 0.0011436433219652684
750.0, 0.00047145629248704986
751.0, 0.00016915197677598394
752.0, 0.0004655136739448493
753.0, 0.00023538040311082034
754.0, 0.0011210869527672
755.0, 0.00035536316764445304
756.0, 7.36764204568832e-05
757.0, 0.0006251691584529188
758.0, 0.0013817403064393778
759.0, 0.001892137613497695
760.0, 0.002020663048354696
761.0, 0.0021397452178308907
762.0, 0.0016853498660548344
763.0, 0.0008955530195174748
764.0, 0.0013655102794325423
765.0, 0.0030315079414704434
766.0, 0.00414405655011967
767.0, 0.004865693643036112
768.0, 0.00603416598485473
769.0, 0.0072951352089395795
770.0, 0.007132590806455771
771.0, 0.007463971955155898
772.0, 0.009428100103255338
773.0, 0.011758323342422643
774.0, 0.01257980718142419
775.0, 0.013208445712706036
776.0, 0.014652625862571326
777.0, 0.016414119396218438
778.0, 0.017436901584242305
779.0, 0.018949518824331314
780.0, 0.020419433085409916
781.0, 0.020644401910442305
782.0, 0.023074996944145762
783.0, 0.023977723965228417
784.0, 0.025068882893121227
785.0, 0.024415693202756168
786.0, 0.024390932345557184
787.0, 0.024856209249032046
788.0, 0.02445754537357967
789.0, 0.023667794185762276
790.0, 0.021792402805446906
791.0, 0.02105084331617087
792.0, 0.019367177015382504
793.0, 0.01755021809859795
794.0, 0.014853044967121682
795.0, 0.013532339882457816
796.0, 0.0133444636861918
797.0, 0.010485813629654754
798.0, 0.010196106680900683
799.0, 0.008322484458531239
800.0, 0.0071096089598639885
801.0, 0.006655071705190086
802.0, 0.00621427107099586
803.0, 0.004567221121359778
804.0, 0.002645849888983492
805.0, 0.003176397011016141
806.0, 0.003052861644267752
807.0, 0.0023157858495992333
808.0, 0.0008310228295455981
809.0, 0.001338809229846744
810.0, 0.002829052378123326
811.0, 0.0032224767082008523
812.0, 0.0024251250999360935
813.0, 0.0015665869290331703
814.0, 0.0019892488209796596
815.0, 0.004727656655145936
816.0, 0.004612271008688868
817.0, 0.00496892294874517
818.0, 0.006303701535377858
819.0, 0.0073101291394978745
820.0, 0.008399620006175447
821.0, 0.010503686827922451
822.0, 0.013019460211695469
823.0, 0.014330211506318299
824.0, 0.01566152946412249
825.0, 0.01641257424034746
826.0, 0.017881475042828866
827.0, 0.020609355395325792
828.0, 0.022829549005602908
829.0, 0.02354206283792854
830.0, 0.02642107889712618
831.0, 0.02901922979341819
832.0, 0.03143110101246658
833.0, 0.03393574402426921
834.0, 0.03777401835351061
835.0, 0.04278797983166307
836.0, 0.046872966095399114
837.0, 0.04833780056905224
838.0, 0.052343919422008126
839.0, 0.05771217642538387
840.0, 0.06202829465434444
841.0, 0.06827796082730607
842.0, 0.07220426053951658
843.0, 0.07639589188253486
844.0, 0.08253399255571166
845.0, 0.08648178153537697
846.0, 0.09215878439403102
847.0, 0.09812517664970699
848.0, 0.10549502829799547
849.0, 0.11219120148037154
850.0, 0.11775577105919681
851.0, 0.12488714026702204
852.0, 0.1309456439815899
853.0, 0.13536542561532972
854.0, 0.1440780151993288
855.0, 0.14938103883123227
856.0, 0.15634773948434294
857.0, 0.16179545820627367
858.0, 0.166049018543493
859.0, 0.17146561085292472
860.0, 0.17670163293168706
861.0, 0.17987959528149644
862.0, 0.1823598115214703
863.0, 0.18587878812429048
864.0, 0.19109431489169476
865.0, 0.19529779503259997
866.0, 0.196958605311333
867.0, 0.1981351611309031
868.0, 0.2030721664215679
869.0, 0.20558848763472976
870.0, 0.20486531847257938
871.0, 0.21087938801951064
872.0, 0.2116532502729737
873.0, 0.21626452217766293
874.0, 0.21935902157915987
875.0, 0.21981400196345113
876.0, 0.2195374264759337
877.0, 0.21909691025006306
878.0, 0.22026735084851304
879.0, 0.22122841109412356
880.0, 0.21556904879566588
881.0, 0.21141864764032708
882.0, 0.2035832716063473
883.0, 0.1954774038697135
884.0, 0.18566783240265242
885.0, 0.17373498049300096
886.0, 0.16120396394217198
887.0, 0.14784602546527406
888.0, 0.13326264780437666
889.0, 0.11985037353976628
890.0, 0.1076730592340163
891.0, 0.09725713951099577
892.0, 0.08690215028890697
893.0, 0.07710378318208896
894.0, 0.06737668673645594
895.0, 0.05930526762861262
896.0, 0.052748738004271586
897.0, 0.045314266470093255
898.0, 0.0379219750198
899.0, 0.03455608536107285
900.0, 0.03227077179317539
901.0, 0.028428856522084614
902.0, 0.024657045449660766
903.0, 0.020763169208239892
904.0, 0.017568717714127605
905.0, 0.016063127320016184
906.0, 0.015274794799591773
907.0, 0.013257253042486197
908.0, 0.01117721338904504
909.0, 0.010562322677423436
910.0, 0.00759830744396415
911.0, 0.006733577079089103
912.0, 0.005201620197273394
913.0, 0.004501330534382391
914.0, 0.004630217552279542
915.0, 0.0033595198829514347
916.0, 0.002245657735181943
917.0, 0.0019594094487618004
918.0, 0.00042278730436285403
919.0, 0.00023656362782114166
920.0, 0.0001866020785116244
921.0, 0.0008168111919535355
922.0, 0.0012539473959833453
923.0, 0.0004775755193005076
924.0, 0.0009013198182970302
925.0, 0.0011937326389502333
926.0, 0.0015450697842267606
927.0, 0.0010121649615810707
928.0, 0.0015139745212945895
929.0, 0.0014346557861214587
930.0, 0.0009069221744213431
931.0, 0.0005686205427624609
932.0, 0.0006039291555122126
933.0, 0.0010123779264142724
934.0, 0.0016087627718922514
935.0, 0.0018015444989977196
936.0, 0.0013098196350417566
937.0, 0.0009192331397415642
938.0, 0.00028110462929912465
939.0, 0.0006123549141837482
940.0, 0.0006549637993777255
941.0, 6.975554144254939e-05
942.0, 0.002582756630467214
943.0, 0.0033869250795969643
944.0, 0.0005091361047073859
945.0, 0.0009294338069813443
946.0, 0.0016360969436830736
947.0, 0.000876206114980947
948.0, 0.0007062550151065952
949.0, 0.0014771078911121338
950.0, 0.0007740772585611003
951.0, 0.0012679641244751612
952.0, 0.002858938927282756
953.0, 0.003589065798347379
954.0, 0.0031317725014475377
955.0, 0.002238616390396231
956.0, 0.002338933856585972
957.0, 0.0014102804022296347
958.0, 0.002970321300529173
959.0, 0.0028886203111916156
960.0, 0.002952366869857585
961.0, 0.0032682453775354082
962.0, 0.0032762092789798223
963.0, 0.0033295514697858687
964.0, 0.003221248672680942
965.0, 0.0027871348542248147
966.0, 0.004092611344147122
967.0, 0.00565037828546228
968.0, 0.0036212089955851676
969.0, 0.0034375497173806543
970.0, 0.0049494999664565715
971.0, 0.00559416533945177
972.0, 0.0054540849918549945
973.0, 0.0054064677185073715
974.0, 0.006165464983292717
975.0, 0.006915067515896128
976.0, 0.00580379526427186
977.0, 0.00580135712253019
978.0, 0.006361675497687305
979.0, 0.007351009497532706
980.0, 0.006354819673538303
981.0, 0.0064467248152312445
982.0, 0.006572999697625176
983.0, 0.006536755401511913
984.0, 0.006644600585855817
985.0, 0.0068372090634161485
986.0, 0.007510384088744668
987.0, 0.007086837387584857
988.0, 0.007589081376104388
989.0, 0.007734848285152238
990.0, 0.007863980939032207
991.0, 0.007101374153366356
992.0, 0.006933260609720613
993.0, 0.006829926527744626
994.0, 0.006310947625537544
995.0, 0.0066933303390615635
996.0, 0.006816212316469359
997.0, 0.004607543616396465
998.0, 0.004361289705852087
999.0, 0.005902303375860785
1000.0, 0.0057541455106068255
1001.0, 0.005527044607772148
1002.0, 0.0051378872323315766
1003.0, 0.004992322199451213
1004.0, 0.004839157311922726
1005.0, 0.005136334522399223
1006.0, 0.005803577435464217
1007.0, 0.005916363407678436
1008.0, 0.005527793859868006
1009.0, 0.00543718260541347
1010.0, 0.005029089797876726
1011.0, 0.0043398877069738195
1012.0, 0.00480852606750619
1013.0, 0.004664414688309463
1014.0, 0.003953353965907231
1015.0, 0.0047443916588022815
1016.0, 0.005337486888447605
1017.0, 0.00488918061694226
1018.0, 0.004841970654859802
1019.0, 0.004208407386250115
1020.0, 0.0031288027295826655
1021.0, 0.003966616040919153
1022.0, 0.004398279504618628
1023.0, 0.00464268624100916
1024.0, 0.004241547370638143
1025.0, 0.0033566903239947237
1026.0, 0.003073476885701177
1027.0, 0.002712676970677863
1028.0, 0.0036385606998587607
1029.0, 0.004783878033197858
1030.0, 0.003638701459463431
1031.0, 0.0036845265284332794
1032.0, 0.004763693817201249
1033.0, 0.0032222547700965945
1034.0, 0.003662963069496699
1035.0, 0.0033096066385396566
1036.0, 0.003984649121067361
1037.0, 0.004064769229492242
1038.0, 0.0029559299740925566
1039.0, 0.002600438416087746
1040.0, 0.003475279450424351
1041.0, 0.0034825962769542314
1042.0, 0.0025112387886232525
1043.0, 0.0028975199148024147
1044.0, 0.002127525123843459
1045.0, 0.00334788911234533
1046.0, 0.0028895448415811697
1047.0, 0.0024220331060218403
1048.0, 0.0026781880795954697
1049.0, 0.0022517526029418983
1050.0, 0.0011822012501764398
1051.0, 0.0015771562355643995
1052.0, 0.0030584232001858182
1053.0, 0.0024871614737971477
1054.0, 0.0010568803082178523
1055.0, 0.0012944319774096775
1056.0, 0.0008006538462559042
1057.0, 0.0015885452512224341
1058.0, 0.0017395790929412515
1059.0, 0.0013706515025330866
1060.0, 0.0009324081057206826
1061.0, 0.0016217253510201052
1062.0, 0.0003102308809022718
1063.0, 0.0004421400307991344
1064.0, 0.0009418756369821193
1065.0, 0.000812070736376186
1066.0, 0.0007870454390226546
1067.0, 0.001148411607364269
1068.0, 0.0014473895291316826
1069.0, 0.001047373509409701
1070.0, 0.0011268172244622296
1071.0, 0.000354835766823308
1072.0, 0.0012789376276034266
1073.0, 0.001188511031190131
1074.0, 0.0009475112879862369
1075.0, 0.00044266348551971475
1076.0, 0.0004950330811090157
1077.0, 0.00013998547434172965
1078.0, 0.0007410551870829568
1079.0, 0.0015765567506455217
1080.0, 0.0006938102286566556
1081.0, 0.0007399730344546617
1082.0, 0.001466679551595377
1083.0, 0.0006191054634133403
1084.0, 0.0012449085125815593
1085.0, 7.714547313029573e-05
1086.0, 0.000869166647496391
1087.0, 0.0002406986369251105
1088.0, 0.000407302825066366
1089.0, 0.0002704590739501467
1090.0, 0.00029865609313141166
1091.0, 0.00015866532596272014
1092.0, 0.0005363990786771554
1093.0, 0.0006272060457462005
1094.0, 0.0006352344878834885
1095.0, 0.0005154462103329088
1096.0, 0.0015850476085628546
1097.0, 0.0010600401637521299
1098.0, 0.0005225593126629307
1099.0, 0.0007596376829663616
1100.0, 0.0005815654156889863
1101.0, 0.0010071947831383106
1102.0, 0.0010445266302342065
1103.0, 0.0002475307500888859
1104.0, 0.0005030598824441095
1105.0, 5.696553391509385e-05
1106.0, 3.1083758882903675e-05
1107.0, 0.000722738339336369
1108.0, 0.0007482855393902654
1109.0, 0.0009239637884139167
1110.0, 0.0009193713951673628
1111.0, 0.0008286650148113751
1112.0, 0.00021599622281985858
1113.0, 0.0004386088858341796
1114.0, 0.000957940137651877
1115.0, 0.0007017809730079236
1116.0, 0.00035186337775462457
1117.0, 0.00048094083622179777
1118.0, 0.0004569233532092067
1119.0, 0.00024753419691011863
1120.0, 0.0010226990763882301
1121.0, 0.0006192629216052413
1122.0, 0.0005534643168998866
1123.0, 0.000504346931076177
1124.0, 0.00010407654776904973
1125.0, 0.00061079730161929
1126.0, 0.0013718237519714641
1127.0, 0.0002197199079647114
1128.0, 4.549254146829621e-05
1129.0, 0.00023688047656893706
1130.0, 0.0002332484675108862
1131.0, 0.0007599524269037065
1132.0, 0.000484953914831183
1133.0, 0.0005177378830424514
1134.0, 0.00031314171021695406
1135.0, 0.00018283448014401484
1136.0, 0.00014709318353092233
1137.0, 0.0005238302806419142
1138.0, 0.00043278139966262106
1139.0, 0.00026717273789934144
1140.0, 0.00043598829529493754
1141.0, 0.00022644011209950037
1142.0, 0.0014332185590014371
1143.0, 0.0012046422543554904
1144.0, 0.0010222551842559962
1145.0, 0.00013830592166843802
1146.0, 0.000912243225135912
1147.0, 0.0011770657520347536
1148.0, 0.0008636313173499796
1149.0, 0.0009708662739549926
1150.0, 0.0005834416787100863
1151.0, 0.0007286668191785403
1152.0, 0.0008576811667079916
1153.0, 0.000716641623384543
1154.0, 0.0009893096335028561
1155.0, 0.000894009136995482
1156.0, 0.00040883111332947814
1157.0, 0.00048470613768897974
1158.0, 0.0011112929345823504
1159.0, 0.0010061258436336032
1160.0, 0.001775810040413813
1161.0, 0.0013706270869569379
1162.0, 0.0007235475238397894
1163.0, 0.0006933861146058234
1164.0, 0.0005837433310700326
1165.0, 7.806172596372162e-05
1166.0, 0.0014972551244744785
1167.0, 0.0022317043045948933
1168.0, 0.0016552859041265048
1169.0, 0.0010925615244065667
1170.0, 0.0011300135237286917
1171.0, 0.0012330827125787177
1172.0, 0.0008394429468599417
1173.0, 0.0004543552197260174
1174.0, 0.0008446489397684041
1175.0, 0.0016625429827602555
1176.0, 0.0009459361456145721
1177.0, 0.0018448459083696502
1178.0, 0.0010528035536708806
1179.0, 0.0007682516821857636
1180.0, 0.000631931250117592
1181.0, 0.0014322720481619864
1182.0, 0.0012515480897983074
1183.0, 0.001311123568659509
1184.0, 0.0014760549388459746
1185.0, 0.001840229352593652
1186.0, 0.0015303909054746013
1187.0, 0.0015456635355585214
1188.0, 0.0017242425615726987
1189.0, 0.0013100909219961776
1190.0, 0.0014518427276021038
1191.0, 0.0015588011156543033
1192.0, 0.0009410050090650914
1193.0, 0.002129067084599167
1194.0, 0.0009694956102375211
1195.0, 0.0011458044664771415
1196.0, 0.001493777917996433
1197.0, 0.0013542185479697467
1198.0, 0.0007448211933110793
1199.0, 0.00016273237664023594
1200.0, 0.000194141146804071
1201.0, 0.00034494338891555314
1202.0, 0.00018659390346425375
1203.0, 0.00047360118924752773
1204.0, 0.0007101727644712594
1205.0, 0.0004982196058381711
1206.0, 0.0001145282526693676
1207.0, 0.0006094769586702562
1208.0, 0.0009643932865265471
1209.0, 0.0004331677735961756
1210.0, 0.0009060480925977599
1211.0, 0.0013823587210144536
1212.0, 0.0015156438687208295
1213.0, 0.0017891614158663596
1214.0, 0.0011049034688305238
1215.0, 0.0008932750530224551
1216.0, 0.0010409101498079988
1217.0, 0.0009614082488169502
1218.0, 0.0012646861055925441
1219.0, 0.0008384071027477662
1220.0, 0.0015622136271346812
1221.0, 0.0017133777563836084
1222.0, 0.0004314877908265852
1223.0, 0.0007941361304691346
1224.0, 0.0013191072608825024
1225.0, 0.0010679817806507417
1226.0, 0.0010705597850403804
1227.0, 0.001076121865978414
1228.0, 0.0014158666204004027
1229.0, 0.0009928790930206195
1230.0, 0.0007317796470653499
1231.0, 0.0010652563956824225
1232.0, 0.0008408318468141793
1233.0, 0.0007902945722218746
1234.0, 0.0008653247222197728
1235.0, 0.0011784250845681466
1236.0, 0.0008360835417724969
1237.0, 0.001506772866461764
1238.0, 0.0009248833013059047
1239.0, 0.0007004030880855306
1240.0, 0.0006473187825926397
1241.0, 8.0448881691477e-05
1242.0, 0.0004945520528989241
1243.0, 0.0012791450414215315
1244.0, 0.00042697614730125775
1245.0, 0.00013276081460694732
1246.0, 0.0007550145598458175
1247.0, 0.0017265163070124424
1248.0, 0.0004282518791197667
1249.0, 0.0005708068394943814
1250.0, 0.0015630363873068106
1251.0, 0.0010775081217500953
1252.0, 0.0015506717706518143
1253.0, 0.001289969835856264
1254.0, 0.0006377591389772025
1255.0, 0.0012685775805493487
1256.0, 0.0006452721853607099
1257.0, 0.00019274275207451595
1258.0, 0.001216574458275728
1259.0, 0.0012186120451685499
1260.0, 0.0007481604508777317
1261.0, 0.0006848686957042316
1262.0, 0.001140368474114572
1263.0, 0.0015323229406270572
1264.0, 0.0009994069831617482
1265.0, 0.0002562568066789228
1266.0, 0.0009419608759403374
1267.0, 0.0008926108746234835
1268.0, 0.00103843769593893
1269.0, 0.00033170137820081756
1270.0, 0.0014005222568104793
1271.0, 0.0013102802971950685
1272.0, 0.0008039260939158091
1273.0, 0.0008567641814719825
1274.0, 0.00039049092904412365
1275.0, 0.0003851230915368954
1276.0, 0.0011485685568742704
1277.0, 0.0015313725869578769
1278.0, 0.0005060372696139635
1279.0, 0.0002834634941280131
1280.0, 0.0009095200119604021
1281.0, 0.0015075177355377593
1282.0, 0.0013153791719723842
1283.0, 0.0007311706444195545
1284.0, 0.0009221320510013875
1285.0, 0.0006536282371648014
1286.0, 8.610279968255733e-05
1287.0, 0.00030050923092295336
1288.0, 9.110638646719473e-06
1289, 0.0
1290, 0.0
1291, 0.0
1292, 0.0
1293, 0.0
1294, 0.0
1295, 0.0
1296, 0.0
1297, 0.0
1298, 0.0
1299, 0.0
1300, 0.0
1301, 0.0
1302, 0.0
1303, 0.0
1304, 0.0
1305, 0.0
1306, 0.0
1307, 0.0
1308, 0.0
1309, 0.0
1310, 0.0
1311, 0.0
1312, 0.0
1313, 0.0
1314, 0.0
1315, 0.0
1316, 0.0
1317, 0.0
1318, 0.0
1319, 0.0
1320, 0.0
1321, 0.0
1322, 0.0
1323, 0.0
1324, 0.0
1325, 0.0
1326, 0.0
1327, 0.0
1328, 0.0
1329, 0.0
1330, 0.0
1331, 0.0
1332, 0.0
1333, 0.0
1334, 0.0
1335, 0.0
1336, 0.0
1337, 0.0
1338, 0.0
1339, 0.0
1340, 0.0
1341, 0.0
1342, 0.0
1343, 0.0
1344, 0.0
1345, 0.0
1346, 0.0
1347, 0.0
1348, 0.0
1349, 0.0
1350, 0.0
1351, 0.0
1352, 0.0
1353, 0.0
1354, 0.0
1355, 0.0
1356, 0.0
1357, 0.0
1358, 0.0
1359, 0.0
1360, 0.0
1361, 0.0
1362, 0.0
1363, 0.0
1364, 0.0
1365, 0.0
1366, 0.0
1367, 0.0
1368, 0.0
1369, 0.0
1370, 0.0
1371, 0.0
1372, 0.0
1373, 0.0
1374, 0.0
1375, 0.0
1376, 0.0
1377, 0.0
1378, 0.0
1379, 0.0
1380, 0.0
1381, 0.0
1382, 0.0
1383, 0.0
1384, 0.0
1385, 0.0
1386, 0.0
1387, 0.0
1388, 0.0
1389, 0.0
1390, 0.0
1391, 0.0
1392, 0.0
1393, 0.0
1394, 0.0
1395, 0.0
1396, 0.0
1397, 0.0
1398, 0.0
1399, 0.0
1400, 0.0
1401, 0.0
1402, 0.0
1403, 0.0
1404, 0.0
1405, 0.0
1406, 0.0
1407, 0.0
1408, 0.0
1409, 0.0
1410, 0.0
1411, 0.0
1412, 0.0
1413, 0.0
1414, 0.0
1415, 0.0
1416, 0.0
1417, 0.0
1418, 0.0
1419, 0.0
1420, 0.0
1421, 0.0
1422, 0.0
1423, 0.0
1424, 0.0
1425, 0.0
1426, 0.0
1427, 0.0
1428, 0.0
1429, 0.0
1430, 0.0
1431, 0.0
1432, 0.0
1433, 0.0
1434, 0.0
1435, 0.0
1436, 0.0
1437, 0.0
1438, 0.0
1439, 0.0
1440, 0.0
1441, 0.0
1442, 0.0
1443, 0.0
1444, 0.0
1445, 0.0
1446, 0.0
1447, 0.0
1448, 0.0
1449, 0.0
1450, 0.0
1451, 0.0
1452, 0.0
1453, 0.0
1454, 0.0
1455, 0.0
1456, 0.0
1457, 0.0
1458, 0.0
1459, 0.0
1460, 0.0
1461, 0.0
1462, 0.0
1463, 0.0
1464, 0.0
1465, 0.0
1466, 0.0
1467, 0.0
1468, 0.0
1469, 0.0
1470, 0.0
1471, 0.0
1472, 0.0
1473, 0.0
1474, 0.0
1475, 0.0
1476, 0.0
1477, 0.0
1478, 0.0
1479, 0.0
1480, 0.0
1481, 0.0
1482, 0.0
1483, 0.0
1484, 0.0
1485, 0.0
1486, 0.0
1487, 0.0
1488, 0.0
1489, 0.0
1490, 0.0
1491, 0.0
1492, 0.0
1493, 0.0
1494, 0.0
1495, 0.0
1496, 0.0
1497, 0.0
1498, 0.0
1499, 0.0
1500, 0.0
1501, 0.0
1502, 0.0
1503, 0.0
1504, 0.0
1505, 0.0
1506, 0.0
1507, 0.0
1508, 0.0
1509, 0.0
1510, 0.0
1511, 0.0
1512, 0.0
1513, 0.0
1514, 0.0
1515, 0.0
1516, 0.0
1517, 0.0
1518, 0.0
1519, 0.0
1520, 0.0
1521, 0.0
1522, 0.0
1523, 0.0
1524, 0.0
1525, 0.0
1526, 0.0
1527, 0.0
1528, 0.0
1529, 0.0
1530, 0.0
1531, 0.0
1532, 0.0
1533, 0.0
1534, 0.0
1535, 0.0
1536, 0.0
1537, 0.0
1538, 0.0
1539, 0.0
1540, 0.0
1541, 0.0
1542, 0.0
1543, 0.0
1544, 0.0
1545, 0.0
1546, 0.0
1547, 0.0
1548, 0.0
1549, 0.0
1550, 0.0
1551, 0.0
1552, 0.0
1553, 0.0
1554, 0.0
1555, 0.0
1556, 0.0
1557, 0.0
1558, 0.0
1559, 0.0
1560, 0.0
1561, 0.0
1562, 0.0
1563, 0.0
1564, 0.0
1565, 0.0
1566, 0.0
1567, 0.0
1568, 0.0
1569, 0.0
1570, 0.0
1571, 0.0
1572, 0.0
1573, 0.0
1574, 0.0
1575, 0.0
1576, 0.0
1577, 0.0
1578, 0.0
1579, 0.0
1580, 0.0
1581, 0.0
1582, 0.0
1583, 0.0
1584, 0.0
1585, 0.0
1586, 0.0
1587, 0.0
1588, 0.0
1589, 0.0
1590, 0.0
1591, 0.0
1592, 0.0
1593, 0.0
1594, 0.0
1595, 0.0
1596, 0.0
1597, 0.0
1598, 0.0
1599, 0.0
