30, 0.0
31, 0.0
32, 0.0
33, 0.0
34, 0.0
35, 0.0
36, 0.0
37, 0.0
38, 0.0
39, 0.0
40, 0.0
41, 0.0
42, 0.0
43, 0.0
44, 0.0
45, 0.0
46, 0.0
47, 0.0
48, 0.0
49, 0.0
50, 0.0
51, 0.0
52, 0.0
53, 0.0
54, 0.0
55, 0.0
56, 0.0
57, 0.0
58, 0.0
59, 0.0
60, 0.0
61, 0.0
62, 0.0
63, 0.0
64, 0.0
65, 0.0
66, 0.0
67, 0.0
68, 0.0
69, 0.0
70, 0.0
71, 0.0
72, 0.0
73, 0.0
74, 0.0
75, 0.0
76, 0.0
77, 0.0
78, 0.0
79, 0.0
80, 0.0
81, 0.0
82, 0.0
83, 0.0
84, 0.0
85, 0.0
86, 0.0
87, 0.0
88, 0.0
89.0, 2.938331108414053e-05
90.0, 0.00034533289263402643
91.0, 0.00041983561874513057
92.0, 0.0013942240329004464
93.0, 0.0045362065333691024
94.0, 0.004241916431329166
95.0, 0.004574838390527374
96.0, 0.005756871369579189
97.0, 0.007428229878717067
98.0, 0.00843334020891888
99.0, 0.009164732675348135
100.0, 0.009783896810493842
101.0, 0.013070575809156784
102.0, 0.014511239056853528
103.0, 0.014742917956902713
104.0, 0.01506216360125361
105.0, 0.01747009353265516
106.0, 0.021128863970722916
107.0, 0.02557202866420106
108.0, 0.025935076779211523
109.0, 0.03036672262627976
110.0, 0.034142297465313776
111.0, 0.031267225222641304
112.0, 0.03309288701997571
113.0, 0.03566956819321556
114.0, 0.039334346790944615
115.0, 0.048885742063784425
116.0, 0.053912495433244535
117.0, 0.05779711900241414
118.0, 0.06242226046589612
119.0, 0.06641650931620581
120.0, 0.06786445192184298
121.0, 0.06784242662725573
122.0, 0.06893145282577562
123.0, 0.07135613853293019
124.0, 0.07393384743967177
125.0, 0.07599128336304167
126.0, 0.07211231803835948
127.0, 0.06441796418258212
128.0, 0.05773756942675728
129.0, 0.058188778209144885
130.0, 0.0548617508087932
131.0, 0.054872974533437896
132.0, 0.05839820974366721
133.0, 0.06250066374007146
134.0, 0.07068848894434959
135.0, 0.08093156410001906
136.0, 0.09241435526117052
137.0, 0.10735699429826188
138.0, 0.1248072684977924
139.0, 0.14320703411915955
140.0, 0.15949266542554655
141.0, 0.18152070809773863
142.0, 0.19879133275260155
143.0, 0.20923261227954632
144.0, 0.21728469755204777
145.0, 0.21631962530866708
146.0, 0.20522297383839472
147.0, 0.18092032662672655
148.0, 0.15696414641163214
149.0, 0.13429258075121703
150.0, 0.1144983678823731
151.0, 0.10313099833591485
152.0, 0.09531205298692441
153.0, 0.09287725352146432
154.0, 0.09674503464106474
155.0, 0.1046130867077725
156.0, 0.1156358144537317
157.0, 0.1311735230516597
158.0, 0.15399751096965267
159.0, 0.17277357371930802
160.0, 0.19650532237117554
161.0, 0.2238545569175441
162.0, 0.24468151286340697
163.0, 0.25967286691878655
164.0, 0.2670374301583023
165.0, 0.26497746062571403
166.0, 0.24384948706759604
167.0, 0.2214397576442777
168.0, 0.19676781059334295
169.0, 0.1677408720724486
170.0, 0.14677160818244325
171.0, 0.12646486481121127
172.0, 0.10723647354554747
173.0, 0.09779405068222409
174.0, 0.08591313158881463
175.0, 0.07577557582582897
176.0, 0.06984028626404779
177.0, 0.06341384176874561
178.0, 0.05744231552141775
179.0, 0.05250357181330546
180.0, 0.049856529006452925
181.0, 0.0455617175795968
182.0, 0.0420951883447655
183.0, 0.03971573866146599
184.0, 0.03738086793958651
185.0, 0.03479611471613036
186.0, 0.033392218017283835
187.0, 0.03412468404813475
188.0, 0.032514187333536795
189.0, 0.03179880210750734
190.0, 0.0315418733544072
191.0, 0.03102111637492872
192.0, 0.03109039035872767
193.0, 0.03142519569618492
194.0, 0.0318616385955201
195.0, 0.031756188262388074
196.0, 0.03603327996513901
197.0, 0.039681876578691724
198.0, 0.0399585517534322
199.0, 0.04009646542631772
200.0, 0.039624111999655154
201.0, 0.039255213331816474
202.0, 0.040176744748558514
203.0, 0.04218786639977048
204.0, 0.04328095985327199
205.0, 0.04392131518648577
206.0, 0.04775539083566588
207.0, 0.04790413234402751
208.0, 0.04695233843584337
209.0, 0.04584515516454073
210.0, 0.0399748817624125
211.0, 0.035121076457326046
212.0, 0.03094151072182145
213.0, 0.027120373122845473
214.0, 0.022507979952867886
215.0, 0.01923178567631317
216.0, 0.017115924671290687
217.0, 0.014898099039662221
218.0, 0.013841948976346169
219.0, 0.012800282258566727
220.0, 0.011294084184720266
221.0, 0.008147299608290123
222.0, 0.00713180506296919
223.0, 0.00633850059613043
224.0, 0.004031955499352763
225.0, 0.002896028685911146
226.0, 0.0014745149951998578
227.0, 0.00027637939704841643
228.0, 0.000783399518397797
229.0, 0.0008807163937268392
230.0, 0.0008361664592296957
231.0, 0.0007361880699263687
232.0, 0.0007837773508055421
233.0, 0.0008432007747677676
234.0, 0.002532036889605154
235.0, 0.006933868043963788
236.0, 0.007547171628649979
237.0, 0.011017916896660264
238.0, 0.01563964161863439
239.0, 0.018970730165387202
240.0, 0.02276090902945473
241.0, 0.024116834395719433
242.0, 0.023701753296001434
243.0, 0.02520868799124212
244.0, 0.020687277524987967
245.0, 0.01540574067662002
246.0, 0.011044727213565779
247.0, 0.006342907831390588
248.0, 0.002958629149108982
249.0, 0.0016586628865200704
250.0, 0.0033642001025600177
251.0, 0.0025385327820236377
252.0, 0.0036664242804715927
253.0, 0.00570145703941477
254.0, 0.006413837588349554
255.0, 0.006044644022519328
256.0, 0.006530622585250175
257.0, 0.007466685984320027
258.0, 0.0053365278669088275
259.0, 0.005484739140576453
260.0, 0.0057528287362676464
261.0, 0.0053068689674437884
262.0, 0.005221793271551009
263.0, 0.005100836799923405
264.0, 0.004842814414119231
265.0, 0.00433276420692919
266.0, 0.004097338736593468
267.0, 0.003591451843882228
268.0, 0.0029709367289582865
269.0, 0.002598123962547368
270.0, 0.002137511465125528
271.0, 0.0017873308026260001
272.0, 0.0016007632311014052
273.0, 0.0016740292943237267
274.0, 0.0010832332848850908
275.0, 0.0010816937653447662
276.0, 0.002007307917852715
277.0, 0.0006472939767457155
278.0, 0.0005561937979380688
279.0, 0.000825751598072859
280.0, 0.0007110382229945089
281.0, 0.001141005088028061
282.0, 0.0011391526169348967
283.0, 0.0012650923516519855
284.0, 0.0026179071812310805
285.0, 0.0013569665130075909
286.0, 0.002193288960441555
287.0, 0.004811028097065576
288.0, 0.005592061100247582
289.0, 0.004735318968314404
290.0, 0.004895279378643975
291.0, 0.006710672000615392
292.0, 0.00773004527229555
293.0, 0.00917670783721811
294.0, 0.01020629744569989
295.0, 0.0102849066614834
296.0, 0.01385084939334578
297.0, 0.016099163144499974
298.0, 0.017850068249205223
299.0, 0.020117700062061546
300.0, 0.02620199715280541
301.0, 0.03241011484316659
302.0, 0.03891680387542819
303.0, 0.04691195990997725
304.0, 0.05454487133342366
305.0, 0.0620553821576497
306.0, 0.06914057465821102
307.0, 0.07401360484540194
308.0, 0.07123150218534265
309.0, 0.06477241043707968
310.0, 0.05598479445858847
311.0, 0.04428438545138775
312.0, 0.03423042347064118
313.0, 0.026218358773533845
314.0, 0.020706202720611855
315.0, 0.01624250479815824
316.0, 0.01391890458125795
317.0, 0.012078076798889533
318.0, 0.008466120261917861
319.0, 0.008385873366138843
320.0, 0.008721850929520374
321.0, 0.008978330177781808
322.0, 0.008549243353963473
323.0, 0.009256558424073422
324.0, 0.010278031826318226
325.0, 0.011270152300482826
326.0, 0.0113811884516077
327.0, 0.011717944831915435
328.0, 0.01315495379555155
329.0, 0.01577389702731331
330.0, 0.01699901554953962
331.0, 0.01756762229970933
332.0, 0.01852115477714631
333.0, 0.020454882860405872
334.0, 0.020737042810072305
335.0, 0.02201183259823191
336.0, 0.023019919240988642
337.0, 0.022412218292208245
338.0, 0.025684555631656548
339.0, 0.028239577931681754
340.0, 0.03003929786528857
341.0, 0.031245518565924148
342.0, 0.03445619016388906
343.0, 0.03584061436084575
344.0, 0.03609308979186811
345.0, 0.03842953392290591
346.0, 0.03950194313347122
347.0, 0.040417328593893936
348.0, 0.04162618351706618
349.0, 0.0441594556992625
350.0, 0.04343154313973962
351.0, 0.04408925403462094
352.0, 0.047331857612721434
353.0, 0.047824220592525106
354.0, 0.04974576366057052
355.0, 0.05226913649400914
356.0, 0.05497964026886623
357.0, 0.05869489360438918
358.0, 0.06302339004032557
359.0, 0.06598591327769748
360.0, 0.06567967273085397
361.0, 0.06772477469411955
362.0, 0.06469947522908864
363.0, 0.058935587611991073
364.0, 0.05366461516617684
365.0, 0.047804607559841145
366.0, 0.039747183756469365
367.0, 0.03154022576203559
368.0, 0.027758192237380984
369.0, 0.023050552669019578
370.0, 0.019259396837150763
371.0, 0.01631322597609075
372.0, 0.013203047930338531
373.0, 0.011415498059268114
374.0, 0.01037057043468702
375.0, 0.00929786625780878
376.0, 0.005100339904094449
377.0, 0.0059908520577656695
378.0, 0.006172479851873457
379.0, 0.004067310411044127
380.0, 0.003301349786640459
381.0, 0.003831538354386896
382.0, 0.004031010144139863
383.0, 0.003164641128841853
384.0, 0.002672516483827472
385.0, 0.0023700208897851943
386.0, 0.0022736014910648633
387.0, 0.0024033118581439582
388.0, 0.0026231642397976404
389.0, 0.0028150387735213596
390.0, 0.0031542297952806614
391.0, 0.0038197432797874866
392.0, 0.004017904433108234
393.0, 0.004190822629691049
394.0, 0.004486797900629108
395.0, 0.005103862396459435
396.0, 0.0052574945753723085
397.0, 0.005993110129525033
398.0, 0.00677762361365302
399.0, 0.006546874293739881
400.0, 0.008789306467492678
401.0, 0.010546039992503484
402.0, 0.011712617258691103
403.0, 0.012735393361032049
404.0, 0.015669682938388246
405.0, 0.018194058186812932
406.0, 0.020831316446425927
407.0, 0.026386553060656157
408.0, 0.029781714182358917
409.0, 0.034421812323220904
410.0, 0.0406084560069239
411.0, 0.04656780897042867
412.0, 0.05138612544330266
413.0, 0.05692086518963901
414.0, 0.06266191039648487
415.0, 0.06288490214895173
416.0, 0.06466473026273073
417.0, 0.06307143550948292
418.0, 0.05724469788855902
419.0, 0.05463071392077206
420.0, 0.05194701828036198
421.0, 0.048086718679898936
422.0, 0.04319636194944728
423.0, 0.04426560144896226
424.0, 0.0424152471791854
425.0, 0.04076345445856292
426.0, 0.04090079862957282
427.0, 0.04040936942546434
428.0, 0.042999603271846855
429.0, 0.04721549535008623
430.0, 0.05208246519725191
431.0, 0.055882601578951
432.0, 0.06340498534239918
433.0, 0.07367595595965998
434.0, 0.08596866542798673
435.0, 0.09721312851769462
436.0, 0.11835407210081147
437.0, 0.14161745898071437
438.0, 0.15989671489606305
439.0, 0.19474309607897866
440.0, 0.22683405886152766
441.0, 0.2549553234989606
442.0, 0.2776935288466769
443.0, 0.28220789592323486
444.0, 0.27313921762160726
445.0, 0.25392247745494406
446.0, 0.22830572556214085
447.0, 0.1966600006565013
448.0, 0.17060005089672747
449.0, 0.14859224069817684
450.0, 0.1282080310606663
451.0, 0.1055082287682409
452.0, 0.09000556275511845
453.0, 0.07827302343124735
454.0, 0.06469361308488225
455.0, 0.056633247867204986
456.0, 0.04966895528555919
457.0, 0.043093027899685124
458.0, 0.0362179292911174
459.0, 0.03541604029266882
460.0, 0.03313384639024152
461.0, 0.029865364387017437
462.0, 0.02740209894555846
463.0, 0.026964630509464495
464.0, 0.026576554746349495
465.0, 0.025774668409803053
466.0, 0.023991657742192474
467.0, 0.02226277855037101
468.0, 0.022279687619915528
469.0, 0.022671865643291808
470.0, 0.020513196474529403
471.0, 0.02255270719955634
472.0, 0.02411109044105396
473.0, 0.02427213875206005
474.0, 0.02206967868860959
475.0, 0.02348726191531458
476.0, 0.02490322766344254
477.0, 0.026081983455598298
478.0, 0.027306065748488678
479.0, 0.028582444228191797
480.0, 0.02923583645348395
481.0, 0.030434988967300763
482.0, 0.03470657654509732
483.0, 0.03482289341978405
484.0, 0.03776988643980197
485.0, 0.041184185077276815
486.0, 0.0389000062791937
487.0, 0.03990947787137109
488.0, 0.042264408457470586
489.0, 0.04463107278269413
490.0, 0.044802400022316786
491.0, 0.047020173463068755
492.0, 0.049183044980292946
493.0, 0.05151849192093262
494.0, 0.05484174772876353
495.0, 0.05478072434825852
496.0, 0.056398970837234365
497.0, 0.05973982911656602
498.0, 0.06414828163717894
499.0, 0.06660358215481843
500.0, 0.06768749850438482
501.0, 0.06920578626943413
502.0, 0.07410024872136102
503.0, 0.07671284130813939
504.0, 0.08233758289618637
505.0, 0.08834252882239023
506.0, 0.09013363066025185
507.0, 0.09619000079643271
508.0, 0.10192805958420859
509.0, 0.10811921420461407
510.0, 0.11620520978874552
511.0, 0.12281192317060023
512.0, 0.12785240528489109
513.0, 0.13372685044315027
514.0, 0.14346891039556114
515.0, 0.14961045351636038
516.0, 0.15537090330744432
517.0, 0.1636814441907664
518.0, 0.17772510760791121
519.0, 0.18538237872363486
520.0, 0.19451210002977717
521.0, 0.20643776197262437
522.0, 0.22244938882835294
523.0, 0.2472990803594818
524.0, 0.273708505011645
525.0, 0.30734597096028105
526.0, 0.3532671154731585
527.0, 0.41652533192623853
528.0, 0.4874015057721702
529.0, 0.5749174027929022
530.0, 0.6836978790961825
531.0, 0.7733905723147869
532.0, 0.8654866121762638
533.0, 0.9450734359311985
534.0, 0.996868099351266
535.0, 0.9533694792299621
536.0, 0.8867176471129082
537.0, 0.7926673469336241
538.0, 0.6715968382806713
539.0, 0.5488218164194592
540.0, 0.4526528029877875
541.0, 0.37134578771748755
542.0, 0.3013448732281254
543.0, 0.2506765822491759
544.0, 0.20796393257884993
545.0, 0.1733684494346516
546.0, 0.14683384505044766
547.0, 0.12757955529774276
548.0, 0.1087059979661616
549.0, 0.09422710216804768
550.0, 0.08399571401707079
551.0, 0.07353725388207827
552.0, 0.0662751019385372
553.0, 0.05982631411790341
554.0, 0.05373130667261591
555.0, 0.04808569759022478
556.0, 0.04411557131617665
557.0, 0.04060060353303105
558.0, 0.03712981489417774
559.0, 0.033217729703045575
560.0, 0.031124526521663653
561.0, 0.02907903852267202
562.0, 0.027115120500525034
563.0, 0.025571326633339293
564.0, 0.02591423278584889
565.0, 0.02502121554223749
566.0, 0.023021283267648292
567.0, 0.02028738909823929
568.0, 0.017470968406684474
569.0, 0.016590196530530933
570.0, 0.01660682152437737
571.0, 0.01646661338892637
572.0, 0.015088643635249182
573.0, 0.0156878611045244
574.0, 0.015544501914833869
575.0, 0.013150888416543294
576.0, 0.014073552505429746
577.0, 0.011535596995530802
578.0, 0.010269058893541802
579.0, 0.011659325743138573
580.0, 0.00791100005747562
581.0, 0.007437098557242321
582.0, 0.008001568939933822
583.0, 0.00853764785429448
584.0, 0.007902770993213593
585.0, 0.006817620283802927
586.0, 0.006220831600402254
587.0, 0.005897028201146671
588.0, 0.00442996766047645
589.0, 0.005520787217367386
590.0, 0.004943802463664654
591.0, 0.0035374193822379062
592.0, 0.004554054313709949
593.0, 0.006353258862538137
594.0, 0.005861286548949009
595.0, 0.0047863573607449215
596.0, 0.006046490077186254
597.0, 0.006577850041832147
598.0, 0.007252765037625683
599.0, 0.007526842007527059
600.0, 0.006850268067046613
601.0, 0.0063592309268190594
602.0, 0.006916458471811347
603.0, 0.006511789474190389
604.0, 0.004178262288171633
605.0, 0.005285420453662146
606.0, 0.004945782938056383
607.0, 0.003576458144515261
608.0, 0.0021534169924487677
609.0, 0.005288368728689385
610.0, 0.0033926855604282
611.0, 0.0020587484677243827
612.0, 0.002123874718496512
613.0, 0.0005574067136258986
614.0, 0.0006147594759968258
615.0, 0.0012318405772041355
616.0, 0.0015622663409456108
617.0, 0.0001677516282991841
618.0, 0.002060338939954771
619.0, 0.0016906319339360528
620.0, 0.000747022085101826
621.0, 0.0022896264945233107
622.0, 0.0024755392089057305
623.0, 0.0013763220720531177
624.0, 0.0003095640708177483
625.0, 0.0004115723784199668
626.0, 0.0001999869078067235
627.0, 0.0008733845661114182
628.0, 0.0013701907688281091
629.0, 0.0011797794591907208
630.0, 0.0010924658042870026
631.0, 0.002233516218798579
632.0, 0.0020033276689531572
633.0, 0.0003317672988578197
634.0, 0.0005492534758269901
635.0, 0.0012287439507625286
636.0, 0.0011747089505091855
637.0, 0.0008074074889928678
638.0, 0.001614502324544675
639.0, 0.0005133049727924011
640.0, 0.0005209503845114192
641.0, 0.0012691813601561977
642.0, 0.0018710291579513108
643.0, 0.0015850506661904736
644.0, 0.0011146814127750324
645.0, 0.0008602986740720125
646.0, 0.001051566076469956
647.0, 0.00024961143244870993
648.0, 0.00047533205307230775
649.0, 0.0015238683503446997
650.0, 0.0027146111013995637
651.0, 0.0007940018234148714
652.0, 0.0004929664325248196
653.0, 0.0009457305667409661
654.0, 0.0014951070431765624
655.0, 0.0009154064236381345
656.0, 0.0011332521443083684
657.0, 0.0013324581137146763
658.0, 0.0013469180269850968
659.0, 0.0010874496130261553
660.0, 0.00042246254513984144
661.0, 0.0007423044316858506
662.0, 0.0010329571651511585
663.0, 0.00039617581181085234
664.0, 0.0010866897791943376
665.0, 0.00102601177174116
666.0, 0.0006324558641425937
667.0, 0.00035870927343273893
668.0, 0.0015487193786754344
669.0, 0.0011866339622148298
670.0, 0.0014142894257110562
671.0, 0.002386486721684768
672.0, 0.0027458473376169032
673.0, 0.002370891340143041
674.0, 0.0032420052012418358
675.0, 0.004025118792578388
676.0, 0.0022555710058902332
677.0, 0.003127468801569582
678.0, 0.003873699206778429
679.0, 0.004934781828108224
680.0, 0.00659163920205689
681.0, 0.006699392773117371
682.0, 0.007686095558949925
683.0, 0.008794621990387727
684.0, 0.009612287142748109
685.0, 0.009870059694207449
686.0, 0.012124364634071209
687.0, 0.013739947545387345
688.0, 0.014420628494296163
689.0, 0.014889559199702786
690.0, 0.016284333219883717
691.0, 0.01791518831991739
692.0, 0.019341482395389124
693.0, 0.02014434889395126
694.0, 0.021780006265726057
695.0, 0.02432274113755439
696.0, 0.02643189457130087
697.0, 0.027369644082974758
698.0, 0.02800831967660217
699.0, 0.02932666679178789
700.0, 0.03203322567409193
701.0, 0.03515446658279876
702.0, 0.03511417749097996
703.0, 0.037944287778477685
704.0, 0.038537727931638045
705.0, 0.03774004994421694
706.0, 0.03776353780761971
707.0, 0.03900579141441365
708.0, 0.03548698427338426
709.0, 0.03304798066772207
710.0, 0.03517408216610442
711.0, 0.0325930054092342
712.0, 0.0315000827582353
713.0, 0.02941339005222983
714.0, 0.02629609865546231
715.0, 0.02509550582357145
716.0, 0.02370360383478742
717.0, 0.02206322693023287
718.0, 0.02030024713592354
719.0, 0.01862809350012081
720.0, 0.02090293982243666
721.0, 0.02082652323464492
722.0, 0.020749316773012724
723.0, 0.02221078496243269
724.0, 0.021407917248829098
725.0, 0.02033320831931085
726.0, 0.021289274652876954
727.0, 0.02314045783346075
728.0, 0.019395290231915146
729.0, 0.020030992362973517
730.0, 0.019290696544488437
731.0, 0.017385962330888155
732.0, 0.015849218811900198
733.0, 0.012799383118646894
734.0, 0.01057000494369679
735.0, 0.009234612224588488
736.0, 0.008594823071395044
737.0, 0.007006162111384935
738.0, 0.00586808289441841
739.0, 0.005817016730921598
740.0, 0.005948070845784458
741.0, 0.0032187317825634987
742.0, 0.002882293357851426
743.0, 0.0026174281172764266
744.0, 0.0018016394530328893
745.0, 0.00013573767930315835
746.0, 0.0028994459928435344
747.0, 0.0016225999050193422
748.0, 0.0005198282670199401
749.0, 0.0014266709498643327
750.0, 0.0010473183465707578
751.0, 0.001214730058701269
752.0, 0.001027132600209856
753.0, 0.000655900802200154
754.0, 0.0008771993678271486
755.0, 0.000896564694288858
756.0, 0.0008191984922273721
757.0, 0.0006991953072286524
758.0, 0.0005894789633243059
759.0, 0.000562396737634486
760.0, 0.0003538602784178401
761.0, 0.000222792653533269
762.0, 0.00020657293268011708
763.0, 8.507742892559078e-05
764.0, 0.0007980299430424584
765.0, 0.0011572611865932276
766.0, 0.0009173221225164487
767.0, 2.071349186344562e-05
768.0, 0.00024275920295182142
769.0, 0.0005327849723646512
770.0, 0.0012162450376835142
771.0, 0.002211018323280535
772.0, 0.002056717741867316
773.0, 0.0017598257016349567
774.0, 0.0012318171098808295
775.0, 0.0009558881355879269
776.0, 0.0018862762875558876
777.0, 0.0008736431962205874
778.0, 0.001451096130403819
779.0, 0.0017247543920196377
780.0, 0.00035895362358818615
781.0, 0.00041371343297816674
782.0, 0.0010141592244513951
783.0, 0.0014727009879209859
784.0, 0.0014373310166967588
785.0, 0.0005933129101597658
786.0, 0.0007535029372252182
787.0, 0.0005106501389990816
788.0, 0.0009602805042556816
789.0, 0.003020538920424503
790.0, 0.0013748480169553565
791.0, 0.0016668278314389711
792.0, 0.001590323621792992
793.0, 0.0006097223288972533
794.0, 0.00029940400420603273
795.0, 0.0023226613961064195
796.0, 0.0018757530469093683
797.0, 0.0003735041119795059
798.0, 0.0004966040198327785
799.0, 0.003386705608117231
800.0, 0.002177582241949521
801.0, 0.001743381020257301
802.0, 0.0031884411349185162
803.0, 0.00043680067686631364
804.0, 0.0002455843615862947
805.0, 0.0016757098076250775
806.0, 0.002700280438639438
807.0, 0.0007473087358040606
808.0, 0.0035522750618749523
809.0, 0.0026052808515907465
810.0, 0.0021535814609322493
811.0, 0.0037218565627832713
812.0, 0.002547446832459125
813.0, 0.0008086511934476336
814.0, 0.0018439730370079358
815.0, 0.0034444495693323755
816.0, 0.0012096396934588162
817.0, 0.0021205886002957364
818.0, 0.002596036938360704
819.0, 0.002166278919000375
820.0, 0.0013509339296192014
821.0, 0.004060643263441171
822.0, 0.002306572655997923
823.0, 0.001288777257809194
824.0, 0.0013529199675184225
825.0, 0.0013396468892101893
826.0, 0.0008963926454681277
827.0, 0.0018514609052902688
828.0, 0.0038224491530534127
829.0, 0.006001679719610811
830.0, 0.005836911950279393
831.0, 0.004951237660303739
832.0, 0.00516297583060772
833.0, 0.005012647025248895
834.0, 0.0018884473699475202
835.0, 0.003932150451696313
836.0, 0.005306655407533135
837.0, 0.004590398421957479
838.0, 0.0020986170211487387
839.0, 0.002553395510945432
840.0, 0.001610686172323907
841.0, 0.0015947037582733938
842.0, 0.0020226020036288447
843.0, 0.0017053403504617365
844.0, 0.0018457582987089563
845.0, 0.0009414169310327349
846.0, 0.0009107022441399782
847.0, 0.002008378142657677
848.0, 0.0016218527038492493
849.0, 0.0015815385260904483
850.0, 0.0026895583748729433
851.0, 0.003566323642048463
852.0, 0.0026670808439396964
853.0, 0.0034609343805561375
854.0, 0.004304600255203783
855.0, 0.0043234021292479705
856.0, 0.00368805339698299
857.0, 0.003922244496743013
858.0, 0.004673902607388282
859.0, 0.004782398421278708
860.0, 0.00504536852902538
861.0, 0.00602342558293279
862.0, 0.004750633840459016
863.0, 0.0051726791460362884
864.0, 0.004935733779997126
865.0, 0.0036880702196724472
866.0, 0.00232709067276345
867.0, 0.005122034751901299
868.0, 0.0038283408247396845
869.0, 0.00260445119023149
870.0, 0.00429977001027026
871.0, 0.005844328492880302
872.0, 0.004464682469057918
873.0, 0.00428046647575898
874.0, 0.004371088239791227
875.0, 0.00202367846031115
876.0, 0.003695952094703449
877.0, 0.0036125638919931712
878.0, 0.002175140911856746
879.0, 0.000933230264875544
880.0, 0.004548597687997094
881.0, 0.002236946307069977
882.0, 0.0016649754016580555
883.0, 0.0032040658524217
884.0, 0.005519287293912566
885.0, 0.0013665423717746086
886.0, 0.0028351639230160966
887.0, 0.002630318308573086
888.0, 0.0008969667772134697
889.0, 0.003766982297945647
890.0, 0.002847358754784094
891.0, 0.001777200261052035
892.0, 0.0010421141351586174
893.0, 0.0010876908364272771
894.0, 0.0030623686622351315
895.0, 0.0022478833678285853
896.0, 0.0020930902562299922
897.0, 0.002219479986441857
898.0, 0.001222141860098671
899.0, 0.0020831908506638453
900.0, 0.002559692699895577
901.0, 0.0024680902036919687
902.0, 0.001962549217821114
903.0, 0.0017065120393126132
904.0, 0.000647643707216761
905.0, 0.0005899945999919593
906.0, 0.0009305930349905245
907.0, 0.001094726231424984
908.0, 0.00181156159163658
909.0, 0.0023836946474394705
910.0, 0.0028870690406509725
911.0, 0.006695936436424628
912.0, 0.01845800756061101
913.0, 0.013382870056475928
914.0, 0.011738534811318556
915.0, 0.009582378459950643
916.0, 0.005613087518262891
917.0, 0.0021236010943753683
918.0, 0.0007498402960160417
919.0, 0.00020741581984853142
920.0, 0.0008394876993951483
921.0, 0.002410729850767671
922.0, 0.0005779199270556977
923.0, 0.0006424433051565137
924.0, 0.0007690565372724034
925.0, 0.0009389215364304347
926.0, 0.0017808242096328732
927.0, 0.0015648845040918398
928.0, 0.0013652453200131804
929.0, 0.0015400031430676414
930.0, 0.001928129445811777
931.0, 0.0015901952951006034
932.0, 0.001866442306608404
933.0, 0.0013386641923176317
934.0, 0.0007908916137635387
935.0, 0.0011208876858468826
936.0, 0.003278796122830131
937.0, 0.003549370390634693
938.0, 0.00295952995437186
939.0, 0.0020374274973417672
940.0, 0.001271833101971501
941.0, 0.0015308611194446344
942.0, 0.001954008233658284
943.0, 0.00164498622394602
944.0, 0.0013205176251909366
945.0, 0.003349993783549084
946.0, 0.0033623194329213822
947.0, 0.0016144645125753044
948.0, 0.0009863116260903032
949.0, 0.0022314278638470094
950.0, 0.0007605110818065828
951.0, 0.0013915952621082449
952.0, 0.00274842067444795
953.0, 0.003540280937130505
954.0, 0.0029620803214124246
955.0, 0.003691607070707602
956.0, 0.003636831431375615
957.0, 0.0038036585788106397
958.0, 0.004052498382010267
959.0, 0.0037779923519820962
960.0, 0.004194643971228766
961.0, 0.004667399015135502
962.0, 0.00519065515759336
963.0, 0.005564287913833171
964.0, 0.0053066481853113155
965.0, 0.007453992126605398
966.0, 0.008467390785427503
967.0, 0.00942709497658218
968.0, 0.010759529407534302
969.0, 0.010589568576403658
970.0, 0.009349469544044876
971.0, 0.010377038049773746
972.0, 0.0117966894658089
973.0, 0.011303956724763092
974.0, 0.009310380145412234
975.0, 0.01246366353535171
976.0, 0.014861266442506592
977.0, 0.015531000676005947
978.0, 0.015442661406891975
979.0, 0.01865543498973939
980.0, 0.015473954003648753
981.0, 0.01350522676646147
982.0, 0.013735228622170758
983.0, 0.011956512936044964
984.0, 0.011661723285014915
985.0, 0.011717870826517218
986.0, 0.011456570525807707
987.0, 0.010837780345359116
988.0, 0.010885312269756007
989.0, 0.010997882963738116
990.0, 0.01067384627192413
991.0, 0.010821199754136349
992.0, 0.011754743756758203
993.0, 0.011492117713619646
994.0, 0.01202431236191748
995.0, 0.013095744577301897
996.0, 0.014039841496870624
997.0, 0.014368339762176443
998.0, 0.015395484843611956
999.0, 0.016186586800445362
1000.0, 0.016741895093026517
1001.0, 0.01741891815353737
1002.0, 0.018571599021523777
1003.0, 0.018097033429347566
1004.0, 0.018832976579576177
1005.0, 0.019933587800738277
1006.0, 0.020482009046580478
1007.0, 0.019485898126600624
1008.0, 0.022442955237614855
1009.0, 0.023923438575843822
1010.0, 0.02346226676090143
1011.0, 0.021838940845789176
1012.0, 0.021340646176370055
1013.0, 0.020933513844715868
1014.0, 0.020851578584305912
1015.0, 0.02079260178723008
1016.0, 0.020646012658956697
1017.0, 0.020671637588676496
1018.0, 0.022106332420926994
1019.0, 0.02132988776347217
1020.0, 0.021700643737238914
1021.0, 0.024314884029598763
1022.0, 0.02226852222104418
1023.0, 0.02248780699260042
1024.0, 0.024360679564896816
1025.0, 0.02658583896806793
1026.0, 0.02789660437537906
1027.0, 0.02763117224259078
1028.0, 0.030846331135093615
1029.0, 0.031988280911336535
1030.0, 0.03359397670960795
1031.0, 0.03851644083599336
1032.0, 0.0388327141661089
1033.0, 0.04444560998472157
1034.0, 0.049344357009701176
1035.0, 0.05392265974521649
1036.0, 0.06068524853711116
1037.0, 0.07192592708977276
1038.0, 0.0831997906382428
1039.0, 0.09367381415359714
1040.0, 0.10495197261699776
1041.0, 0.11903909915140125
1042.0, 0.12351998082622195
1043.0, 0.12158938120397388
1044.0, 0.1127919016524756
1045.0, 0.09968237031340664
1046.0, 0.08698386740057765
1047.0, 0.07471371732025509
1048.0, 0.062493782618827765
1049.0, 0.05320804105765254
1050.0, 0.046110085251944405
1051.0, 0.03754379178405828
1052.0, 0.033793698595922995
1053.0, 0.03204762420757751
1054.0, 0.029785133206265427
1055.0, 0.02672005472630213
1056.0, 0.024750887801705982
1057.0, 0.025033781558806492
1058.0, 0.022664933211674534
1059.0, 0.021140999146381796
1060.0, 0.021204058072571443
1061.0, 0.020286575953820756
1062.0, 0.01905858747265307
1063.0, 0.019092958729993302
1064.0, 0.01949585168438254
1065.0, 0.019531997235167468
1066.0, 0.018700791238466484
1067.0, 0.01795441081166895
1068.0, 0.017984022544556093
1069.0, 0.018422837695988997
1070.0, 0.01893702508882622
1071.0, 0.01928419384581558
1072.0, 0.0192112999040954
1073.0, 0.020417969133221987
1074.0, 0.020914810701236457
1075.0, 0.020544308455482576
1076.0, 0.022384782966416206
1077.0, 0.02322449856459703
1078.0, 0.022082481205236218
1079.0, 0.02217369050977203
1080.0, 0.024304078451848544
1081.0, 0.02496844533894596
1082.0, 0.02427505710418873
1083.0, 0.02560717652007544
1084.0, 0.02740558575544131
1085.0, 0.0283571078804386
1086.0, 0.027907062846180494
1087.0, 0.030461146031024514
1088.0, 0.028592543719817287
1089.0, 0.027298063547411273
1090.0, 0.02840035801393384
1091.0, 0.027583390323820286
1092.0, 0.025383536756298643
1093.0, 0.025209116647878685
1094.0, 0.02478975688090884
1095.0, 0.023275259401392922
1096.0, 0.0223675898016353
1097.0, 0.022128390251830735
1098.0, 0.021374877017524413
1099.0, 0.019954006884639417
1100.0, 0.01915888673705162
1101.0, 0.02233419062268338
1102.0, 0.018549095321126682
1103.0, 0.019260724908467707
1104.0, 0.019874858497373697
1105.0, 0.018760791835993246
1106.0, 0.018493990396239217
1107.0, 0.022033508871618913
1108.0, 0.018393064731702102
1109.0, 0.01707975505137847
1110.0, 0.019802846128347405
1111.0, 0.019687955583314334
1112.0, 0.019330106964406835
1113.0, 0.019175191944643833
1114.0, 0.01850888971209565
1115.0, 0.01792479935398054
1116.0, 0.019113111908974932
1117.0, 0.020197779729075296
1118.0, 0.016676889521172904
1119.0, 0.015440571488259783
1120.0, 0.016959416441333818
1121.0, 0.017039423750222434
1122.0, 0.01251587180661194
1123.0, 0.014746998234719979
1124.0, 0.015426481899954473
1125.0, 0.01384152344942301
1126.0, 0.013437482668018766
1127.0, 0.015431869155257414
1128.0, 0.012968813027655606
1129.0, 0.012248424895373016
1130.0, 0.01365267849822676
1131.0, 0.014621525068946812
1132.0, 0.009185961074822523
1133.0, 0.011544509711550865
1134.0, 0.010859698156555832
1135.0, 0.009291204122832594
1136.0, 0.011045374301665432
1137.0, 0.009045748321556838
1138.0, 0.005382462943898876
1139.0, 0.0061056175538492154
1140.0, 0.008205736737114652
1141.0, 0.007863876644976764
1142.0, 0.005769962296274746
1143.0, 0.005750107422388783
1144.0, 0.00569959253301206
1145.0, 0.005320457272919723
1146.0, 0.005075454861376789
1147.0, 0.00671345288390792
1148.0, 0.004068862879948228
1149.0, 0.003931637437342669
1150.0, 0.004434949877567327
1151.0, 0.004443313801362913
1152.0, 0.005232513889237964
1153.0, 0.005654583383245869
1154.0, 0.003869191528057688
1155.0, 0.0037527628881636873
1156.0, 0.005122795144049228
1157.0, 0.003339929395073324
1158.0, 0.0017943146503747883
1159.0, 0.0032722056878552097
1160.0, 0.004035286279177506
1161.0, 0.0029193134363352416
1162.0, 0.0009733419743244644
1163.0, 0.0044616651941855965
1164.0, 0.0026732998341894897
1165.0, 0.0027957596448857135
1166.0, 0.004388032649335118
1167.0, 0.004091408889398192
1168.0, 0.001258452648928216
1169.0, 0.0038435886028798747
1170.0, 0.0029413772516547376
1171.0, 0.0009521424376483191
1172.0, 0.0016017946147763155
1173.0, 0.0029712190064504684
1174.0, 0.0018692300158067447
1175.0, 0.0026999764717450577
1176.0, 0.002777234966097551
1177.0, 0.000912754074814623
1178.0, 0.0008326412111244832
1179.0, 0.0018813715822335484
1180.0, 0.0013260094538771869
1181.0, 0.0008853688164405005
1182.0, 0.0013820400551500921
1183.0, 0.002277909655776461
1184.0, 0.0007135818250830109
1185.0, 0.000613496870814007
1186.0, 0.000988523789249662
1187.0, 0.001172339026104235
1188.0, 0.0008670015758927543
1189.0, 0.0012484752523454822
1190.0, 0.0007754191446615149
1191.0, 0.000547932392220183
1192.0, 0.0011778776394706222
1193.0, 0.0023729238939672777
1194.0, 0.0004599063747711236
1195.0, 0.0008245036989376744
1196.0, 0.001586755207746226
1197.0, 0.0017150507430850842
1198.0, 0.001072575410099229
1199.0, 0.0012042161076850494
1200.0, 0.0004636043464508744
1201.0, 0.0008442441934425826
1202.0, 0.0008979512146509367
1203.0, 0.0004983165537800501
1204.0, 0.0011653300910941572
1205.0, 0.0003645743001819946
1206.0, 0.00161208456581893
1207.0, 0.001626137116198152
1208.0, 0.0005615893149435442
1209.0, 0.0005440708262849545
1210.0, 0.00324309400054234
1211.0, 0.0021513422547691985
1212.0, 0.0025024321265889175
1213.0, 0.0026214433075446163
1214.0, 0.0008202286488668345
1215.0, 0.0014280420378688448
1216.0, 0.0025844511764290747
1217.0, 0.0014087015410609615
1218.0, 0.00019884474137302137
1219.0, 0.0005855440363030941
1220.0, 0.0023372806155378878
1221.0, 0.0010975439849870772
1222.0, 0.0019853388545985895
1223.0, 0.003113428743388512
1224.0, 0.002912324594624568
1225.0, 0.0008164327201883735
1226.0, 0.002844347009756083
1227.0, 0.0018912736710332957
1228.0, 0.0012711396099237137
1229.0, 0.00204574702378693
1230.0, 0.0037241211264020494
1231.0, 0.0029674195830671646
1232.0, 0.0028171948508843906
1233.0, 0.0033536271221486598
1234.0, 0.003720828876105236
1235.0, 0.0035830690958188398
1236.0, 0.0035025786667327455
1237.0, 0.0030090883933228878
1238.0, 0.0014436590551848481
1239.0, 0.0030258746396022835
1240.0, 0.0046875336843708705
1241.0, 0.0008775301597084667
1242.0, 0.0021657688528126788
1243.0, 0.004110239566876577
1244.0, 0.003293394805160579
1245.0, 0.0028028346550300976
1246.0, 0.004205345796360321
1247.0, 0.0008254355324306321
1248.0, 0.0025773979092589424
1249.0, 0.0036988151029356676
1250.0, 0.003260508217353438
1251.0, 0.00263229211119847
1252.0, 0.004751117875039922
1253.0, 0.0036338567242661596
1254.0, 0.0016057085190979113
1255.0, 0.0028537277163323297
1256.0, 0.0037739852456655978
1257.0, 0.0006800079696915574
1258.0, 0.003895999400256032
1259.0, 0.004467334351734149
1260.0, 0.0036791490594050135
1261.0, 0.0035449544748571383
1262.0, 0.004604631810051599
1263.0, 0.0049602440263339116
1264.0, 0.0026923212306089062
1265.0, 0.0033977524183227146
1266.0, 0.0031892673535908194
1267.0, 0.00246243246275365
1268.0, 0.003775313942397228
1269.0, 0.006521425695705073
1270.0, 0.0035040094581590114
1271.0, 0.0017808119773995278
1272.0, 0.0029274470918281507
1273.0, 0.005047858381244917
1274.0, 0.001828778968390578
1275.0, 0.004013725715427138
1276.0, 0.0052707270334180776
1277.0, 0.004396253143560189
1278.0, 0.002905173838706789
1279.0, 0.0034547404041967503
1280.0, 0.002664219822335537
1281.0, 0.0024947951682908823
1282.0, 0.0023379740146502828
1283.0, 0.0025349041984285454
1284.0, 0.0031760006664103813
1285.0, 0.0033098566249598893
1286.0, 0.003069222042147433
1287.0, 0.002614703637822468
1288.0, 0.004459073649162943
1289.0, 0.005534718516863949
1290.0, 0.0005218696276773384
1291.0, 0.0023872185545363526
1292.0, 0.004369515583558136
1293.0, 0.004742107415440882
1294.0, 0.004070305238187472
1295.0, 0.0029387343428589102
1296.0, 0.0006055051962115562
1297.0, 0.0020740014654079615
1298.0, 0.004170046683201667
1299.0, 0.0050219956175333496
1300.0, 0.004832077015017346
1301.0, 0.005079844086090686
1302.0, 0.0051770723090286816
1303.0, 0.0038433195152686546
1304.0, 0.004350557080853847
1305.0, 0.005078337882947825
1306.0, 0.003968744205278354
1307.0, 0.000364828364468368
1308.0, 0.0047007295833345775
1309.0, 0.002890203477714909
1310.0, 0.0017160509041174268
1311.0, 0.003045477127482198
1312.0, 0.004789133698019995
1313.0, 0.0021065522348018236
1314.0, 0.0031020015882635603
1315.0, 0.005005663334863199
1316.0, 0.004119778348496047
1317.0, 0.0009549582499334128
1318.0, 0.0019412762376548854
1319.0, 0.0028217663141046636
1320.0, 0.003471512882506894
1321.0, 0.004748694538418525
1322.0, 0.004554167260572942
1323.0, 0.0017209489289873032
1324.0, 0.003097733318242659
1325.0, 0.005992995185259784
1326.0, 0.0040652756391923615
1327.0, 0.002648444045050774
1328.0, 0.0035795553792494685
1329.0, 0.003907601737044298
1330.0, 0.001008537566296035
1331.0, 0.005105919572111817
1332.0, 0.006041279579725501
1333.0, 0.003474991055398302
1334.0, 0.0012106923839121627
1335.0, 0.00534498598610411
1336.0, 0.0017447530340085433
1337.0, 0.0025609988941931025
1338.0, 0.004787867687479847
1339.0, 0.004768111953135118
1340.0, 0.0010798183312340083
1341.0, 0.0033818944664979994
1342.0, 0.004021913490917133
1343.0, 0.0036756865440313413
1344.0, 0.004360734368504872
1345.0, 0.005728691054801806
1346.0, 0.0046901199924770445
1347.0, 0.003881211739754981
1348.0, 0.005735688057226304
1349.0, 0.0038858086552436854
1350.0, 0.0029431185424311787
1351.0, 0.006179981678307459
1352.0, 0.0050380274136177915
1353.0, 0.0013661545135704
1354.0, 0.004998540889163062
1355.0, 0.006618486074343042
1356.0, 0.004226137194879919
1357.0, 0.0017013133274626458
1358.0, 0.005165804919727034
1359.0, 0.003959867981706747
1360.0, 0.0032258787973094088
1361.0, 0.0044260009735156616
1362.0, 0.005027324342828517
1363.0, 0.00016989984154129156
1364.0, 0.0025373672144834653
1365.0, 0.005763778705391553
1366.0, 0.003573866907306752
1367.0, 0.00259458230274046
1368.0, 0.006171885535757265
1369.0, 0.004703450224634383
1370.0, 0.00549206707221447
1371.0, 0.007820126751633847
1372.0, 0.00621122007080606
1373.0, 0.0025109441670318434
1374.0, 0.0018627515772359545
1375.0, 0.007873661282037762
1376.0, 0.0027438722450027976
1377.0, 0.001477829012040576
1378.0, 0.003068354463856762
1379.0, 0.003762457336792293
1380.0, 0.0010995938724896533
1381.0, 0.006869970648051354
1382.0, 0.0023696775886397894
1383.0, 0.0002587440315990542
1384.0, 0.0015260721113124457
1385.0, 0.00322173898978085
1386.0, 0.0011259391728779397
1387.0, 0.0032165738735187785
1388.0, 0.004515895831337949
1389.0, 0.003834710011016129
1390.0, 0.0036375462763322012
1391.0, 0.005077545772828414
1392.0, 0.005334465696599761
1393.0, 0.0036264863484958857
1394.0, 0.006841212034988171
1395.0, 0.006059980196622197
1396.0, 0.00391482486813596
1397.0, 0.00541964274811166
1398.0, 0.008983466113032145
1399.0, 0.0042875608852570544
1400.0, 0.004057601098920054
1401.0, 0.0060775672892612095
1402.0, 0.0066949890732796065
1403.0, 0.004625864412088073
1404.0, 0.008604088496849021
1405.0, 0.005577138517253144
1406.0, 0.0035540516965692588
1407.0, 0.0057804969830907256
1408.0, 0.008108822832992565
1409.0, 0.004256949659725957
1410.0, 0.004540862774791219
1411.0, 0.006848231147854493
1412.0, 0.005222885722329201
1413.0, 0.0056170360657209605
1414.0, 0.008243496749557292
1415.0, 0.007036958580704238
1416.0, 0.003465642568374448
1417.0, 0.0081512356068642
1418.0, 0.009297857542125266
1419.0, 0.0066612853833147795
1420.0, 0.004791545848997168
1421.0, 0.009146779459304259
1422.0, 0.004680628163650016
1423.0, 0.005391819707997178
1424.0, 0.009426058696247535
1425.0, 0.010315328516099728
1426.0, 0.007115203244673841
1427.0, 0.007707919188266634
1428.0, 0.007138875134209359
1429.0, 0.0038842348599966957
1430.0, 0.004388932954062328
1431.0, 0.00575065963930456
1432.0, 0.004847914729889024
1433.0, 0.0032733017009551396
1434.0, 0.007381482936314471
1435.0, 0.005412343132634501
1436.0, 0.004209081852741762
1437.0, 0.005904331835780937
1438.0, 0.008256849329365237
1439.0, 0.004865483845045283
1440.0, 0.005051530812851821
1441.0, 0.007654716783024351
1442.0, 0.005902451264687077
1443.0, 0.005785215198595541
1444.0, 0.010179534791257293
1445.0, 0.006508946570615471
1446.0, 0.003886154220900633
1447.0, 0.00836226384659837
1448.0, 0.008681651343558111
1449.0, 0.006952926057483155
1450.0, 0.00880382559493164
1451.0, 0.014754137403041517
1452.0, 0.007233412129046375
1453.0, 0.008552171331190222
1454.0, 0.011037224977223842
1455.0, 0.010625874296251574
1456.0, 0.007937145257394789
1457.0, 0.009279806194365955
1458.0, 0.01070213037350685
1459.0, 0.00573883817791056
1460.0, 0.0086867530873812
1461.0, 0.012059790171484775
1462.0, 0.007986368098053545
1463.0, 0.006738896229819804
1464.0, 0.011856925331569932
1465.0, 0.008332922807497783
1466.0, 0.007367943242754321
1467.0, 0.009602415752073004
1468.0, 0.010559931629490356
1469.0, 0.005414916867425023
1470.0, 0.010488901025642247
1471.0, 0.011100887286320756
1472.0, 0.008162218777446308
1473.0, 0.008114237964612586
1474.0, 0.011735031243830692
1475.0, 0.0076074419582561415
1476.0, 0.006286691965056283
1477.0, 0.011033176973667421
1478.0, 0.009817431564961045
1479.0, 0.006672769614423624
1480.0, 0.007138280525359641
1481.0, 0.010007734711924909
1482.0, 0.007275454066366169
1483.0, 0.007959720560836896
1484.0, 0.00925632169093599
1485.0, 0.008013680494800071
1486.0, 0.005576213434703048
1487.0, 0.007974673848992423
1488.0, 0.007257643390988469
1489.0, 0.0029239829265835923
1490.0, 0.006972882725598719
1491.0, 0.008986650283579775
1492.0, 0.005534664081284618
1493.0, 0.0056764603751638925
1494.0, 0.009461801520263984
1495.0, 0.004957976283272394
1496.0, 0.0053638736251221284
1497.0, 0.008048666911814424
1498.0, 0.007596807846310241
1499.0, 0.0021253535376309827
1500.0, 0.006848348169810024
1501.0, 0.006337881394300896
1502.0, 0.0036707858563612573
1503.0, 0.0056970451019488985
1504.0, 0.008604262408899156
1505.0, 0.004793285746907105
1506.0, 0.0026490477759616134
1507.0, 0.00932195597011059
1508.0, 0.005442186242055524
1509.0, 0.003254215146305822
1510.0, 0.0070567422000166816
1511.0, 0.011257344446784102
1512.0, 0.0013801091063095003
1513.0, 0.005527123675758163
1514.0, 0.008182182596542766
1515.0, 0.004935431044237532
1516.0, 0.00511957543275562
1517.0, 0.011219501062665066
1518.0, 0.004965693580681584
1519.0, 0.004598999566959897
1520.0, 0.007059149404298239
1521.0, 0.0061318460444198
1522.0, 0.0047988032343867755
1523.0, 0.00636081401201379
1524.0, 0.009531108028772987
1525.0, 0.0017624552342835548
1526.0, 0.004463950852597142
1527.0, 0.00781521399017572
1528.0, 0.006549512479878618
1529.0, 0.0038945638559340647
1530.0, 0.00670633987854492
1531.0, 0.006338519286299495
1532.0, 0.0013445260262350074
1533.0, 8.198779856152601e-06
1534, 0.0
1535, 0.0
1536, 0.0
1537, 0.0
1538, 0.0
1539, 0.0
1540, 0.0
1541, 0.0
1542, 0.0
1543, 0.0
1544, 0.0
1545, 0.0
1546, 0.0
1547, 0.0
1548, 0.0
1549, 0.0
1550, 0.0
1551, 0.0
1552, 0.0
1553, 0.0
1554, 0.0
1555, 0.0
1556, 0.0
1557, 0.0
1558, 0.0
1559, 0.0
1560, 0.0
1561, 0.0
1562, 0.0
1563, 0.0
1564, 0.0
1565, 0.0
1566, 0.0
1567, 0.0
1568, 0.0
1569, 0.0
1570, 0.0
1571, 0.0
1572, 0.0
1573, 0.0
1574, 0.0
1575, 0.0
1576, 0.0
1577, 0.0
1578, 0.0
1579, 0.0
1580, 0.0
1581, 0.0
1582, 0.0
1583, 0.0
1584, 0.0
1585, 0.0
1586, 0.0
1587, 0.0
1588, 0.0
1589, 0.0
1590, 0.0
1591, 0.0
1592, 0.0
1593, 0.0
1594, 0.0
1595, 0.0
1596, 0.0
1597, 0.0
1598, 0.0
1599, 0.0
