30, 0.0
31, 0.0
32, 0.0
33, 0.0
34, 0.0
35, 0.0
36, 0.0
37, 0.0
38, 0.0
39, 0.0
40, 0.0
41, 0.0
42, 0.0
43, 0.0
44, 0.0
45, 0.0
46, 0.0
47, 0.0
48, 0.0
49, 0.0
50, 0.0
51, 0.0
52, 0.0
53, 0.0
54, 0.0
55, 0.0
56, 0.0
57, 0.0
58, 0.0
59, 0.0
60, 0.0
61, 0.0
62, 0.0
63, 0.0
64, 0.0
65, 0.0
66, 0.0
67, 0.0
68, 0.0
69, 0.0
70, 0.0
71, 0.0
72, 0.0
73, 0.0
74, 0.0
75, 0.0
76, 0.0
77, 0.0
78, 0.0
79, 0.0
80, 0.0
81.0, 5.960328691205946e-07
82.0, 2.3137068435315597e-06
83.0, 0.0008830058589996295
84.0, 0.0008956568263063432
85.0, 0.00048061550610549713
86.0, 0.0019392069893761415
87.0, 0.004032115652081665
88.0, 0.006684083220238663
89.0, 0.009978800873353672
90.0, 0.012350115800924023
91.0, 0.01495466795982305
92.0, 0.017756750320141797
93.0, 0.020413292312474626
94.0, 0.022361741385838893
95.0, 0.02360679855407483
96.0, 0.02400695027369506
97.0, 0.02466285927174524
98.0, 0.025022336737178776
99.0, 0.024959231088295973
100.0, 0.023972932937123572
101.0, 0.023231974874503618
102.0, 0.022710236933123355
103.0, 0.022432744027170572
104.0, 0.024216667663628462
105.0, 0.025553245635222148
106.0, 0.02684374029783267
107.0, 0.029440956121427025
108.0, 0.028566565685590194
109.0, 0.02907062774714187
110.0, 0.03303674766422207
111.0, 0.03296439849763537
112.0, 0.03512206908208432
113.0, 0.03816459382925451
114.0, 0.03914183760869934
115.0, 0.0411186723832859
116.0, 0.042266689161245014
117.0, 0.04203950503313576
118.0, 0.04352187303906843
119.0, 0.042591596529830335
120.0, 0.040594501919031925
121.0, 0.039557047784960137
122.0, 0.03822740287374546
123.0, 0.03612331093610498
124.0, 0.03320214200104505
125.0, 0.03089291238002579
126.0, 0.029219913077942975
127.0, 0.027237139623366702
128.0, 0.023659270090652336
129.0, 0.021162494497421268
130.0, 0.019406981214157765
131.0, 0.018167429410578913
132.0, 0.016077511384207478
133.0, 0.014797023608278628
134.0, 0.013817989514514684
135.0, 0.012787659329514513
136.0, 0.01119762278066503
137.0, 0.01036367927532534
138.0, 0.010044497062244771
139.0, 0.008792272779413454
140.0, 0.007456027257081611
141.0, 0.006642268981072189
142.0, 0.006763329001476888
143.0, 0.005881324080936286
144.0, 0.006838001295653039
145.0, 0.008638241753164947
146.0, 0.008656074475615349
147.0, 0.008848263580984148
148.0, 0.01012344471491688
149.0, 0.012745175867280733
150.0, 0.013280911660896441
151.0, 0.014155545966961978
152.0, 0.01557471320846645
153.0, 0.018025837793561948
154.0, 0.020546908327772735
155.0, 0.023349178985136197
156.0, 0.02587541773169796
157.0, 0.023011293229341274
158.0, 0.026268311776174242
159.0, 0.03013640010929637
160.0, 0.02995699390040471
161.0, 0.03354749157503987
162.0, 0.036235696315571136
163.0, 0.0380498074224014
164.0, 0.040332201893039314
165.0, 0.04301337745210272
166.0, 0.04614987632304411
167.0, 0.04982291841292272
168.0, 0.0542969775856115
169.0, 0.05828949132316733
170.0, 0.06263483597262699
171.0, 0.06911733364066092
172.0, 0.07296368520989965
173.0, 0.07686413558945929
174.0, 0.08126435775914806
175.0, 0.08439896292422534
176.0, 0.0842091577810822
177.0, 0.08290734535078638
178.0, 0.08237408160184563
179.0, 0.07779519548522588
180.0, 0.07280195138732984
181.0, 0.06770005634300674
182.0, 0.062450306640204484
183.0, 0.056994007200938994
184.0, 0.05256173750581647
185.0, 0.049745651948021004
186.0, 0.043427175852053794
187.0, 0.03917410692891034
188.0, 0.03553730286320476
189.0, 0.030090992570497497
190.0, 0.026556975487316295
191.0, 0.023815755425080073
192.0, 0.021237888094870736
193.0, 0.015434267581925403
194.0, 0.015180560468409238
195.0, 0.015368181112905398
196.0, 0.012243609432839631
197.0, 0.00950298392770735
198.0, 0.008291435491959435
199.0, 0.007904616981699773
200.0, 0.006410282801199671
201.0, 0.005188480699207258
202.0, 0.0040669162002327395
203.0, 0.0029432729697694694
204.0, 0.00097935072351466
205.0, 0.00022803129944881298
206.0, 0.0004320367188011016
207.0, 0.0015275200170477084
208.0, 0.0007706620107713169
209.0, 0.0009355500868403752
210.0, 0.0017418478172991814
211.0, 0.0011816246886785886
212.0, 0.0018203832391906136
213.0, 0.0023022790454042086
214.0, 0.0020917703645222294
215.0, 0.0021676949293237095
216.0, 0.002280021799494837
217.0, 0.001907395725997986
218.0, 0.00020503424750052636
219.0, 0.0016350140412320115
220.0, 0.0025467565546424997
221.0, 0.0025484863348515185
222.0, 0.0019174591873278237
223.0, 0.002764873299478379
224.0, 0.0037953003301900833
225.0, 0.004402921260418921
226.0, 0.004152135882920593
227.0, 0.0030417206534303462
228.0, 0.0020513224714098525
229.0, 0.002743573174474172
230.0, 0.0025819452722000385
231.0, 0.0027989314970585854
232.0, 0.003328598196023254
233.0, 0.0029531884170925617
234.0, 0.0013462454554058825
235.0, 0.00043571317808220253
236.0, 0.0011955174434878058
237.0, 0.0010980708107963066
238.0, 0.0012898776233759778
239.0, 0.0017806576223087266
240.0, 0.0026474782954029543
241.0, 0.0016970148566982
242.0, 0.0017839267957178
243.0, 0.0031071437331506094
244.0, 0.004928567119220462
245.0, 0.0055134570613510495
246.0, 0.006658541151770935
247.0, 0.009107136931991446
248.0, 0.009832864483177953
249.0, 0.009150310782553241
250.0, 0.00896919306599348
251.0, 0.011852235817736829
252.0, 0.013137670202581034
253.0, 0.01329976271514122
254.0, 0.01302027861123415
255.0, 0.014565016765773063
256.0, 0.017442235203318734
257.0, 0.018843417693322484
258.0, 0.018109586297410458
259.0, 0.02145556260524105
260.0, 0.023605928726169057
261.0, 0.024638356438396885
262.0, 0.02443093674565858
263.0, 0.026317000916683965
264.0, 0.028052157414741267
265.0, 0.029768492790892723
266.0, 0.03212527288869085
267.0, 0.03357300446362561
268.0, 0.035773709502869205
269.0, 0.03881673315203474
270.0, 0.040203476811134266
271.0, 0.04461948755778819
272.0, 0.04783797545543661
273.0, 0.047107185699316684
274.0, 0.05157263844446686
275.0, 0.05489177915251031
276.0, 0.057377815234133045
277.0, 0.059416283260399445
278.0, 0.06220118982342064
279.0, 0.06386803708280392
280.0, 0.0649841522130559
281.0, 0.06879988489992338
282.0, 0.07166487609934011
283.0, 0.07246044868420018
284.0, 0.0709437378959231
285.0, 0.07132942458875943
286.0, 0.07132155090577542
287.0, 0.07082842976230701
288.0, 0.06969911818682008
289.0, 0.0687435200790239
290.0, 0.0687259427615068
291.0, 0.0681541150462817
292.0, 0.06372613301967657
293.0, 0.06229760146731105
294.0, 0.06002183951722629
295.0, 0.056791327746372425
296.0, 0.05551984173743402
297.0, 0.05396744816353602
298.0, 0.05223136377793422
299.0, 0.05036937262798121
300.0, 0.04891452414685188
301.0, 0.04707540672277466
302.0, 0.04543433727903456
303.0, 0.044585975156107086
304.0, 0.04228947392040334
305.0, 0.041031893294748135
306.0, 0.040650985519939564
307.0, 0.040685816895833615
308.0, 0.038593001865387076
309.0, 0.03636518478291293
310.0, 0.03456035155858181
311.0, 0.03419341487053973
312.0, 0.0329581938753829
313.0, 0.03212878727599723
314.0, 0.03212115956232358
315.0, 0.031163666089108085
316.0, 0.030615855956515073
317.0, 0.03052613180834048
318.0, 0.03098725544164487
319.0, 0.02976051304085834
320.0, 0.02864925011311802
321.0, 0.027490720251592406
322.0, 0.02592660139185721
323.0, 0.023588822003943348
324.0, 0.022369074230590175
325.0, 0.021848381119514787
326.0, 0.01978428880179857
327.0, 0.02065324609881722
328.0, 0.02021041078771981
329.0, 0.017819463236953558
330.0, 0.01856840675979261
331.0, 0.018374427212894888
332.0, 0.017906792075336443
333.0, 0.01751395841386534
334.0, 0.01676853127081729
335.0, 0.016306189488821884
336.0, 0.01605318781504677
337.0, 0.01595297659989129
338.0, 0.015954017609838705
339.0, 0.015298701549173005
340.0, 0.014793207483287187
341.0, 0.016208673870078894
342.0, 0.016204715461030524
343.0, 0.015902322509588826
344.0, 0.015705781076236446
345.0, 0.016511583580280743
346.0, 0.01779778405795446
347.0, 0.01952714078806976
348.0, 0.02133214568422648
349.0, 0.020254092201551905
350.0, 0.022987913397296944
351.0, 0.024668135292230206
352.0, 0.02283637350076856
353.0, 0.025876318345101342
354.0, 0.028715859606499382
355.0, 0.031491627373880456
356.0, 0.034330812065062964
357.0, 0.036925952032486484
358.0, 0.03859046744907409
359.0, 0.040145171346692494
360.0, 0.04301186597116068
361.0, 0.04395394346508175
362.0, 0.04687777445982873
363.0, 0.05078089200579167
364.0, 0.05166514833474786
365.0, 0.0544742204094294
366.0, 0.0576157621390539
367.0, 0.06059431011861493
368.0, 0.06265614625523167
369.0, 0.06469370336726553
370.0, 0.06692103392085172
371.0, 0.06936397301924092
372.0, 0.07143854708895415
373.0, 0.07415862298230146
374.0, 0.07662533659252144
375.0, 0.07837194332163921
376.0, 0.08202352653443389
377.0, 0.08551504787733111
378.0, 0.08820139151879615
379.0, 0.08940520765445735
380.0, 0.09243774612273829
381.0, 0.09466381610744194
382.0, 0.0964490897194157
383.0, 0.09838429005644359
384.0, 0.10241431029895864
385.0, 0.10590474733174106
386.0, 0.10881009720716685
387.0, 0.11145988396109749
388.0, 0.11381872440388102
389.0, 0.11833141121544882
390.0, 0.12409457163991604
391.0, 0.1267703216793577
392.0, 0.12941093351417435
393.0, 0.13105823674901637
394.0, 0.1326548240948792
395.0, 0.14052931395061088
396.0, 0.14391816270002672
397.0, 0.1467713752832742
398.0, 0.15052615271181882
399.0, 0.15485888536620243
400.0, 0.15800780212010662
401.0, 0.16211537817177318
402.0, 0.16824778180389868
403.0, 0.17390077958779718
404.0, 0.17988743804703822
405.0, 0.1870545955646111
406.0, 0.1960785013631236
407.0, 0.20487769423397822
408.0, 0.21550966738432592
409.0, 0.22771816491007763
410.0, 0.24132592730477073
411.0, 0.25539103946924746
412.0, 0.2697569652454442
413.0, 0.2858596562807333
414.0, 0.30589355325261885
415.0, 0.3233444958524319
416.0, 0.3394111373053771
417.0, 0.351713694802994
418.0, 0.35526085827768833
419.0, 0.3583932238665404
420.0, 0.3560636098992335
421.0, 0.3475699552112284
422.0, 0.33209554767608795
423.0, 0.31440453664835855
424.0, 0.29224840056063517
425.0, 0.26726693778551947
426.0, 0.24582159369712617
427.0, 0.22321297517957203
428.0, 0.202578803772184
429.0, 0.18440268520401207
430.0, 0.16777912953386429
431.0, 0.1554656976122112
432.0, 0.1426916367725112
433.0, 0.12936952538405525
434.0, 0.12260515384699822
435.0, 0.11366141196042995
436.0, 0.10715117897209905
437.0, 0.10432627590107454
438.0, 0.10174834957203062
439.0, 0.09823557695128315
440.0, 0.09543549765993928
441.0, 0.09428506294758973
442.0, 0.09647034048143688
443.0, 0.09571731184298485
444.0, 0.09519139031608706
445.0, 0.09640746056826259
446.0, 0.0971958241137562
447.0, 0.09800284027729869
448.0, 0.09960420958856697
449.0, 0.10255864510322414
450.0, 0.10777076919109006
451.0, 0.10971740500080614
452.0, 0.11298405662124242
453.0, 0.12048788336515495
454.0, 0.1208737895580928
455.0, 0.12477842973658837
456.0, 0.13039462985479827
457.0, 0.13626978290787806
458.0, 0.13988281812654418
459.0, 0.14396714096097984
460.0, 0.14945924088038567
461.0, 0.15718215533319674
462.0, 0.1578061503191646
463.0, 0.16043493542927947
464.0, 0.16237258410880803
465.0, 0.16092386905309272
466.0, 0.16269058568597333
467.0, 0.16173671615072924
468.0, 0.16003918610592674
469.0, 0.15974761675083207
470.0, 0.15490146866226956
471.0, 0.14909631388867445
472.0, 0.1437581662120213
473.0, 0.1404695307802631
474.0, 0.1349180661841681
475.0, 0.12991978991735506
476.0, 0.1240289247876358
477.0, 0.11543579374370334
478.0, 0.11202170443764342
479.0, 0.10651169757133022
480.0, 0.0998049569759217
481.0, 0.09319490369254868
482.0, 0.08980264170532595
483.0, 0.08629010292823813
484.0, 0.08215192774330801
485.0, 0.07685784727595078
486.0, 0.07831122448608246
487.0, 0.07424814299332087
488.0, 0.06687290697037773
489.0, 0.059263301872945456
490.0, 0.056117533190863954
491.0, 0.05511105906907797
492.0, 0.05395217469341201
493.0, 0.04993334657127315
494.0, 0.04613886335755471
495.0, 0.043786653409690714
496.0, 0.041531430631626856
497.0, 0.037767736293223705
498.0, 0.03569043948409644
499.0, 0.034847529896949024
500.0, 0.03390982313593246
501.0, 0.031397671980947055
502.0, 0.02797193274722581
503.0, 0.027070036619029132
504.0, 0.026206557677994895
505.0, 0.022748160064413877
506.0, 0.020725646861190435
507.0, 0.020100045917669153
508.0, 0.018664313633506804
509.0, 0.014359732802922867
510.0, 0.015701910225862262
511.0, 0.013066646262769623
512.0, 0.009327515352611887
513.0, 0.007097077080508628
514.0, 0.009578548684784423
515.0, 0.009244593990157453
516.0, 0.007907421343769799
517.0, 0.006917617568583572
518.0, 0.004277430208700736
519.0, 0.0029886683821999977
520.0, 0.0019417178648831492
521.0, 0.00048367554099747493
522.0, 0.0005843119936512813
523.0, 0.0012934306239613155
524.0, 0.0019402923379019227
525.0, 0.002256950897923918
526.0, 0.003918702268392642
527.0, 0.0024282339814266675
528.0, 0.0012676371415114153
529.0, 0.0020658613860278
530.0, 0.0031431431806186764
531.0, 0.0033275509989634557
532.0, 0.0028511954967773874
533.0, 0.001856485192685873
534.0, 0.0006754566772831356
535.0, 0.0003402074354958479
536.0, 0.0010799261455821537
537.0, 0.0027909763422578563
538.0, 0.004466002806990028
539.0, 0.0023053444804810603
540.0, 0.0017582367465194472
541.0, 0.0030098794662056895
542.0, 0.0005255985755342404
543.0, 0.0009510051747841869
544.0, 0.0016487715922272443
545.0, 0.0022622413403008317
546.0, 0.0035308850632814063
547.0, 0.0033588494527652026
548.0, 0.0038081599189631727
549.0, 0.0051040273633705755
550.0, 0.006967575175405323
551.0, 0.0065962080981523605
552.0, 0.006273518592459174
553.0, 0.006168767176308963
554.0, 0.006099833639484276
555.0, 0.007779675394534833
556.0, 0.009478696023575768
557.0, 0.01067765207244435
558.0, 0.010823698886264603
559.0, 0.01078997674628895
560.0, 0.013560786847439287
561.0, 0.016630086520045346
562.0, 0.01727512855957866
563.0, 0.020995063385725262
564.0, 0.02479406133471341
565.0, 0.02959568049393182
566.0, 0.035913977565865625
567.0, 0.03938342788278615
568.0, 0.046574657998162364
569.0, 0.055226205911090946
570.0, 0.06358796019257495
571.0, 0.06794727228218087
572.0, 0.06724472274990616
573.0, 0.06699809272057927
574.0, 0.06787219886213858
575.0, 0.060156284780722574
576.0, 0.05532778255962687
577.0, 0.049887768602351314
578.0, 0.04311517658810436
579.0, 0.036221144858789626
580.0, 0.03448762034486385
581.0, 0.031879842642620504
582.0, 0.028225464897724473
583.0, 0.02606286791646077
584.0, 0.02387626383494653
585.0, 0.022382501620949145
586.0, 0.021228815922872422
587.0, 0.019679291606079116
588.0, 0.021933908015241456
589.0, 0.02142613035617596
590.0, 0.020597853792009783
591.0, 0.02263045802163025
592.0, 0.022259263468253413
593.0, 0.024207072895266198
594.0, 0.025106940263157056
595.0, 0.02264412058442574
596.0, 0.022754196063107492
597.0, 0.02423743665651749
598.0, 0.02517605845208921
599.0, 0.024858130300421024
600.0, 0.025451993653393953
601.0, 0.025760817688202153
602.0, 0.026234901584492445
603.0, 0.026791765602322434
604.0, 0.026506099721607754
605.0, 0.028300459753463274
606.0, 0.03030337837845748
607.0, 0.03191615538415228
608.0, 0.03262216088317399
609.0, 0.03510777107753603
610.0, 0.037269113085816215
611.0, 0.03945974624906221
612.0, 0.04252984100543758
613.0, 0.04561895131014041
614.0, 0.04894733709005331
615.0, 0.053176479499345786
616.0, 0.058760746621263654
617.0, 0.06222747120791754
618.0, 0.06720363259371155
619.0, 0.07109693242741175
620.0, 0.0731072752551103
621.0, 0.07892987442658358
622.0, 0.07488685136939814
623.0, 0.07365083828177706
624.0, 0.07694003741015691
625.0, 0.07393067388359542
626.0, 0.06630952537478667
627.0, 0.06312951018788315
628.0, 0.0627063203623112
629.0, 0.05753536987656255
630.0, 0.05616561303887491
631.0, 0.05476638990628512
632.0, 0.05197425091299013
633.0, 0.04652499678108863
634.0, 0.04780064668290039
635.0, 0.04404406448179954
636.0, 0.04014814412997216
637.0, 0.03958374959881239
638.0, 0.038365973594319036
639.0, 0.039958688598891186
640.0, 0.040595840606650925
641.0, 0.039268379418027965
642.0, 0.039063746302936755
643.0, 0.03675802837309057
644.0, 0.03664739099601246
645.0, 0.03804296355492584
646.0, 0.036849417795893374
647.0, 0.03650109011098805
648.0, 0.03598226610566414
649.0, 0.035912145086069804
650.0, 0.037218410027875036
651.0, 0.03572452471497142
652.0, 0.03401307697532699
653.0, 0.033728089729706486
654.0, 0.035313058310457494
655.0, 0.03058296505841056
656.0, 0.031697509259627984
657.0, 0.03264805541901464
658.0, 0.03148065932036887
659.0, 0.030312810928951796
660.0, 0.03347996047728509
661.0, 0.03252134337779166
662.0, 0.02863723300994106
663.0, 0.02775313249242884
664.0, 0.029389576302096366
665.0, 0.02970909709477859
666.0, 0.02979922247305702
667.0, 0.03101473397954898
668.0, 0.030675467700414925
669.0, 0.031403427486581176
670.0, 0.03221865479382567
671.0, 0.03239226211885574
672.0, 0.030966155603384934
673.0, 0.033700873573537904
674.0, 0.032723959277129254
675.0, 0.029916465212144125
676.0, 0.03641707663576482
677.0, 0.03593458993015573
678.0, 0.03531622233178976
679.0, 0.03577475714671739
680.0, 0.03785905378187155
681.0, 0.03641048509097973
682.0, 0.037174632066934624
683.0, 0.038284607907325574
684.0, 0.038365230849125714
685.0, 0.03708225779383105
686.0, 0.03697522773393102
687.0, 0.0366292378033738
688.0, 0.03643831142944423
689.0, 0.039042821798131344
690.0, 0.03973208484241699
691.0, 0.03936534915534874
692.0, 0.03912036602169928
693.0, 0.040489972286712965
694.0, 0.038857447566466294
695.0, 0.038014815848939884
696.0, 0.03759093158757133
697.0, 0.03730026444846221
698.0, 0.03718042384303411
699.0, 0.03757304196793215
700.0, 0.036529351605695634
701.0, 0.034992516695786034
702.0, 0.03753166278550795
703.0, 0.03415092288476554
704.0, 0.03211469975205648
705.0, 0.03229848981508972
706.0, 0.03451948446642168
707.0, 0.028747884978185482
708.0, 0.027891565469416416
709.0, 0.02804942443165027
710.0, 0.027020291479647515
711.0, 0.026783851176471925
712.0, 0.025998866519533544
713.0, 0.02494665271113375
714.0, 0.022833090458844903
715.0, 0.01765256429129161
716.0, 0.01801250356671343
717.0, 0.017123519010161306
718.0, 0.014671981391995118
719.0, 0.011247814102218336
720.0, 0.012890480838771378
721.0, 0.01308318795883137
722.0, 0.012734989816611001
723.0, 0.011610965956938314
724.0, 0.006899838127555185
725.0, 0.0072776955860133965
726.0, 0.0063187466740036525
727.0, 0.004564997751767523
728.0, 0.004782701440785849
729.0, 0.0029347652459589947
730.0, 0.0023096751464425263
731.0, 0.0016281105614748069
732.0, 0.00017754306964003493
733.0, 5.280988567904315e-05
734.0, 0.0016152618275141503
735.0, 0.0028210471760433046
736.0, 0.003128879286308416
737.0, 0.002733354767922081
738.0, 0.003108735095560014
739.0, 0.003217730403895483
740.0, 0.0026664084822609745
741.0, 0.0013675446366408646
742.0, 0.002517838049192372
743.0, 0.002611094742671808
744.0, 0.002165631225759195
745.0, 0.002099495284295173
746.0, 0.004805637769238026
747.0, 0.004114195168828169
748.0, 0.002947776166746727
749.0, 0.002554448189066618
750.0, 0.003948033665721154
751.0, 0.0037737653301934578
752.0, 0.004314161988199491
753.0, 0.0047360805670822485
754.0, 0.00468563231278787
755.0, 0.004752478560717433
756.0, 0.004557761100577494
757.0, 0.0038995893388458582
758.0, 0.0033248535769106616
759.0, 0.003783747343613716
760.0, 0.004504935561687465
761.0, 0.003166234269569446
762.0, 0.0028781393704866397
763.0, 0.004918205235279279
764.0, 0.004092894623363642
765.0, 0.0033291268190993196
766.0, 0.0026700274593030003
767.0, 0.0020064145086830486
768.0, 0.0011144408815978984
769.0, 0.0006311649499828902
770.0, 0.0006564856030996146
771.0, 0.0005629430339486841
772.0, 4.403402633222197e-05
773.0, 0.0002903067173288629
774.0, 0.0008877908845856334
775.0, 0.0008434375081192768
776.0, 0.00038186986836333725
777.0, 0.0005078090467418004
778.0, 0.0003847870959892742
779.0, 0.0012019998843699367
780.0, 0.001640145663811316
781.0, 0.00087846961701119
782.0, 0.0006957073067148493
783.0, 0.0010816666140676591
784.0, 0.0019254577839722849
785.0, 0.003354663270110108
786.0, 0.005661644845074496
787.0, 0.005323272523007011
788.0, 0.004340236877366326
789.0, 0.0038837259736554473
790.0, 0.004825118420315462
791.0, 0.007423141828385889
792.0, 0.005116470265396935
793.0, 0.006263803707547456
794.0, 0.009253003861627966
795.0, 0.0070995878014392284
796.0, 0.007702058028881902
797.0, 0.007554863377977319
798.0, 0.007446396707782687
799.0, 0.00820235656254862
800.0, 0.01104764448730142
801.0, 0.01038358623223242
802.0, 0.011520947955296386
803.0, 0.013757378853675032
804.0, 0.014106265189229528
805.0, 0.01519824383288255
806.0, 0.016221754386044337
807.0, 0.0170416913122804
808.0, 0.017599988603541852
809.0, 0.01796646219703735
810.0, 0.01884533379138271
811.0, 0.019594638548142838
812.0, 0.020102218675294395
813.0, 0.020355688665729607
814.0, 0.01996018674651229
815.0, 0.022835687991588288
816.0, 0.024394455033111766
817.0, 0.024320333202029656
818.0, 0.028330334518764697
819.0, 0.027908694658144554
820.0, 0.02924310175988979
821.0, 0.0294974804138411
822.0, 0.026154540629821768
823.0, 0.029519022569494166
824.0, 0.02970788277776699
825.0, 0.030177624804987185
826.0, 0.03159962421816495
827.0, 0.03289491119633885
828.0, 0.03216888119749349
829.0, 0.035055418248289755
830.0, 0.03718080189804928
831.0, 0.03607149448937369
832.0, 0.03707931222734196
833.0, 0.036956375694767236
834.0, 0.03747262167966757
835.0, 0.038877556041282374
836.0, 0.04090216512312326
837.0, 0.041888673282031386
838.0, 0.041111252990271734
839.0, 0.041808986554141406
840.0, 0.04395776375488337
841.0, 0.04238645786635768
842.0, 0.04799823305724582
843.0, 0.04710631221722254
844.0, 0.04474038241079863
845.0, 0.046611067654882744
846.0, 0.04736203438833228
847.0, 0.04643747838046894
848.0, 0.04693936893118624
849.0, 0.048277895160412726
850.0, 0.047700982260777784
851.0, 0.04611835975595013
852.0, 0.04705851116722673
853.0, 0.04891213727108895
854.0, 0.05066248493886859
855.0, 0.05243339014346541
856.0, 0.051563496765278556
857.0, 0.05089594050982118
858.0, 0.05083529534453305
859.0, 0.05117004616683568
860.0, 0.04957929127405124
861.0, 0.048847761975164536
862.0, 0.05018365018033888
863.0, 0.05143091347533392
864.0, 0.047662016737164796
865.0, 0.04842651652640732
866.0, 0.050780118764832675
867.0, 0.05122509472926855
868.0, 0.04884767104026988
869.0, 0.04830192543396477
870.0, 0.04971573620742598
871.0, 0.05022790103684627
872.0, 0.04937385004986281
873.0, 0.047158075026721494
874.0, 0.0439241535718513
875.0, 0.045643133459628255
876.0, 0.04468861220333314
877.0, 0.042061484014493014
878.0, 0.04349599962365876
879.0, 0.040722840793495516
880.0, 0.03834004020816274
881.0, 0.03868943080213226
882.0, 0.0398978099593867
883.0, 0.032244722867819646
884.0, 0.03460786219898607
885.0, 0.03366285497001533
886.0, 0.031650901842332005
887.0, 0.03136950538290102
888.0, 0.031074520980521655
889.0, 0.028546446163884458
890.0, 0.02721801427275935
891.0, 0.02639951022514788
892.0, 0.024194665826144376
893.0, 0.022344507910257178
894.0, 0.024379273824453436
895.0, 0.023212245093615937
896.0, 0.019195715291808555
897.0, 0.01920347200824931
898.0, 0.020580668599064354
899.0, 0.019153272083839115
900.0, 0.017529013946540464
901.0, 0.01689073708688954
902.0, 0.01516998969228926
903.0, 0.014701950829915583
904.0, 0.01268873921102814
905.0, 0.011501686715381237
906.0, 0.013037683868188415
907.0, 0.01334773679823958
908.0, 0.010273377440886983
909.0, 0.008071498772634862
910.0, 0.00870692968863686
911.0, 0.01270473994292339
912.0, 0.008413608365182032
913.0, 0.008461070635840888
914.0, 0.00926852828232236
915.0, 0.009111920907047611
916.0, 0.007278014768309197
917.0, 0.009812859151659536
918.0, 0.008449315156613107
919.0, 0.007835471932073247
920.0, 0.009445795118923567
921.0, 0.009971310791783705
922.0, 0.011204651292912702
923.0, 0.013335525630384789
924.0, 0.014899702908167632
925.0, 0.015413204713978041
926.0, 0.017719830515683134
927.0, 0.019429661294575833
928.0, 0.021628067123196697
929.0, 0.023951693631037843
930.0, 0.026113405491929538
931.0, 0.030043077702724595
932.0, 0.033338350881467804
933.0, 0.03616194121654459
934.0, 0.0390938384663073
935.0, 0.04306197487404471
936.0, 0.05125102134720422
937.0, 0.053541648777229445
938.0, 0.058384362437592326
939.0, 0.06661705019693363
940.0, 0.07452461286993711
941.0, 0.07949832387428193
942.0, 0.08829944512283691
943.0, 0.09599591982047964
944.0, 0.10205518772374965
945.0, 0.11051161108718044
946.0, 0.1240616294626568
947.0, 0.1343591386902966
948.0, 0.14636529556729852
949.0, 0.1613595487265517
950.0, 0.17400591232618481
951.0, 0.18620201497189617
952.0, 0.20205072703272506
953.0, 0.21929608981925225
954.0, 0.2368969700054655
955.0, 0.2583749138950742
956.0, 0.2811896160214825
957.0, 0.2988855990448299
958.0, 0.32283149618776263
959.0, 0.35919220312644146
960.0, 0.3858391098273386
961.0, 0.4153085493720143
962.0, 0.45629906416272176
963.0, 0.4978372029507326
964.0, 0.5302880651893066
965.0, 0.5760932688244057
966.0, 0.6350810077972753
967.0, 0.6860907279679298
968.0, 0.7363045731187169
969.0, 0.7976936717950921
970.0, 0.852088648065823
971.0, 0.8924619907743963
972.0, 0.9501487623506698
973.0, 0.9969111689564534
974.0, 0.989840252263978
975.0, 0.9983778554034919
976.0, 0.964336517644232
977.0, 0.9140245303646242
978.0, 0.8608471754262822
979.0, 0.811098849989168
980.0, 0.7307125091183632
981.0, 0.6630066059245617
982.0, 0.597102986943951
983.0, 0.5334732999166353
984.0, 0.4788180591876353
985.0, 0.42935229716254203
986.0, 0.38928468692784957
987.0, 0.3492590883957908
988.0, 0.3123785194302179
989.0, 0.2897940852173882
990.0, 0.25973278646598136
991.0, 0.23838815678924558
992.0, 0.22117731694690232
993.0, 0.2066996364181082
994.0, 0.195855663350079
995.0, 0.1864611122161954
996.0, 0.16992707964964157
997.0, 0.15949780011690234
998.0, 0.15622977267585209
999.0, 0.15070231591495323
1000.0, 0.13761791899457368
1001.0, 0.13260914982367522
1002.0, 0.1291249068950698
1003.0, 0.12525080612892364
1004.0, 0.12312239892472582
1005.0, 0.11740097912830276
1006.0, 0.11098911049716854
1007.0, 0.10848965832705414
1008.0, 0.10805103540889986
1009.0, 0.10209550195840023
1010.0, 0.09997485417982728
1011.0, 0.10061428569922802
1012.0, 0.09833233312431061
1013.0, 0.09397747573657911
1014.0, 0.09396325650102794
1015.0, 0.09616489468153679
1016.0, 0.09167337619024944
1017.0, 0.09113498221891979
1018.0, 0.09387162667301675
1019.0, 0.09044116172934319
1020.0, 0.09000500707030915
1021.0, 0.09324315295176697
1022.0, 0.0933449141185599
1023.0, 0.09300879091540296
1024.0, 0.10087051572124403
1025.0, 0.09769330841308937
1026.0, 0.09300229911870093
1027.0, 0.09492292178197703
1028.0, 0.099547276474241
1029.0, 0.09653495824048534
1030.0, 0.09825859914648813
1031.0, 0.10005840767214139
1032.0, 0.10156454225088371
1033.0, 0.10415678350816962
1034.0, 0.10935173636135362
1035.0, 0.10922202096936069
1036.0, 0.1084497432345679
1037.0, 0.11351207385350437
1038.0, 0.11797525731704446
1039.0, 0.11365712142523614
1040.0, 0.12443708189823471
1041.0, 0.12733339579298666
1042.0, 0.1314671953598224
1043.0, 0.13772098952898118
1044.0, 0.14400327911456673
1045.0, 0.14634592722094075
1046.0, 0.1546556878471751
1047.0, 0.16236455713026904
1048.0, 0.1682254450258927
1049.0, 0.1747745601907997
1050.0, 0.19523986224841833
1051.0, 0.1997613598892976
1052.0, 0.20926269188832702
1053.0, 0.22400049236249037
1054.0, 0.23876800055332748
1055.0, 0.24247815981309406
1056.0, 0.25984700218405204
1057.0, 0.27397722038296973
1058.0, 0.2868464167279994
1059.0, 0.30018720150111017
1060.0, 0.3114151995867913
1061.0, 0.31017424137312494
1062.0, 0.3205851958603404
1063.0, 0.3309875132235489
1064.0, 0.33249515808653846
1065.0, 0.3225072760706015
1066.0, 0.32587092108069793
1067.0, 0.32144795500688084
1068.0, 0.3137931773515522
1069.0, 0.30766836965871697
1070.0, 0.3067932165326912
1071.0, 0.2925538670851599
1072.0, 0.28464994945456623
1073.0, 0.2728427988917006
1074.0, 0.2575768296990695
1075.0, 0.24505621116733284
1076.0, 0.23999896698256012
1077.0, 0.2303556060153902
1078.0, 0.21682405564495302
1079.0, 0.2064023154155538
1080.0, 0.20319204204641056
1081.0, 0.18723893537827754
1082.0, 0.17917108338515203
1083.0, 0.171259700419814
1084.0, 0.16054543534972035
1085.0, 0.1485556009303708
1086.0, 0.1465426688829888
1087.0, 0.1374376828348706
1088.0, 0.12749407340209928
1089.0, 0.12073895682513515
1090.0, 0.11586804031941807
1091.0, 0.10408698704606215
1092.0, 0.09844250650147347
1093.0, 0.09331112230919979
1094.0, 0.08900697977962806
1095.0, 0.08536746169806154
1096.0, 0.08165579911990316
1097.0, 0.07488678975334997
1098.0, 0.06972881055312855
1099.0, 0.0671728508865988
1100.0, 0.06429607192207981
1101.0, 0.05808425111846959
1102.0, 0.05595413193686223
1103.0, 0.052941183772991875
1104.0, 0.049548870181940985
1105.0, 0.04773236158129457
1106.0, 0.04733218917598475
1107.0, 0.04125343867510436
1108.0, 0.04141425709834052
1109.0, 0.03830453407916182
1110.0, 0.03496999736248447
1111.0, 0.033648914377592154
1112.0, 0.03380370408572321
1113.0, 0.03041776979544804
1114.0, 0.030704202166142197
1115.0, 0.029702049522056816
1116.0, 0.02691559841523093
1117.0, 0.02499104299296942
1118.0, 0.024883727125911657
1119.0, 0.02394276611533289
1120.0, 0.02134871636958662
1121.0, 0.019939173341137168
1122.0, 0.02135483316658056
1123.0, 0.01805927553939033
1124.0, 0.01933343237910418
1125.0, 0.01878573328066841
1126.0, 0.01596702450497616
1127.0, 0.012992786261633563
1128.0, 0.014758854373798059
1129.0, 0.014517910596550365
1130.0, 0.011577754368087473
1131.0, 0.011535250315402402
1132.0, 0.012753847862864862
1133.0, 0.009257360858787134
1134.0, 0.009640106727331642
1135.0, 0.010357852797890692
1136.0, 0.00946156119069117
1137.0, 0.009139046198295331
1138.0, 0.011011146301956473
1139.0, 0.009939157409918445
1140.0, 0.007571975615609509
1141.0, 0.008096946765319227
1142.0, 0.008523939603746438
1143.0, 0.007447259749336088
1144.0, 0.006891464803390122
1145.0, 0.009279437913020896
1146.0, 0.005619794117626413
1147.0, 0.006231197564263465
1148.0, 0.008782255908345476
1149.0, 0.005624778062521144
1150.0, 0.006023725655873703
1151.0, 0.006775874065144167
1152.0, 0.005510192073128792
1153.0, 0.004516837658448314
1154.0, 0.005372172024129714
1155.0, 0.005598649920286809
1156.0, 0.005359036968719802
1157.0, 0.006531778234653661
1158.0, 0.005527780809980867
1159.0, 0.003356211950565457
1160.0, 0.00467048536680391
1161.0, 0.0054184217724167795
1162.0, 0.004948179859539124
1163.0, 0.0053109289282998896
1164.0, 0.006015954743902697
1165.0, 0.0055974932352764436
1166.0, 0.0021910671113649074
1167.0, 0.004524497624174492
1168.0, 0.004647725417353757
1169.0, 0.003754875650731585
1170.0, 0.0033496321353166823
1171.0, 0.004078912882618474
1172.0, 0.0025042525434308283
1173.0, 0.0016760402083925336
1174.0, 0.0018013170642866543
1175.0, 0.0018120536733273536
1176.0, 0.0010520022080688664
1177.0, 0.002401610308089939
1178.0, 0.0012017130335194273
1179.0, 0.0005989739434623308
1180.0, 0.0004223323921803849
1181.0, 0.0008509852456267817
1182.0, 0.0026816333411812778
1183.0, 0.000556207414019063
1184.0, 0.00044164038904053674
1185.0, 0.0012801584128198176
1186.0, 0.00157706190332592
1187.0, 0.0008027479335349865
1188.0, 0.0026509013741736792
1189.0, 0.002908981076289348
1190.0, 0.001722709095432877
1191.0, 0.002039520547627823
1192.0, 0.003596794389360456
1193.0, 0.0024242035533313154
1194.0, 0.001392816558444022
1195.0, 0.001942805346444366
1196.0, 0.0022165897679189786
1197.0, 0.0020482020909615463
1198.0, 0.0016768739913566142
1199.0, 0.0005070781597291876
1200.0, 0.0008889984449525525
1201.0, 0.002598319826032358
1202.0, 0.0028256497853505337
1203.0, 0.0018002072260631028
1204.0, 0.002447840334949176
1205.0, 0.0029793419878352575
1206.0, 0.0011130845391957493
1207.0, 0.00126561164479419
1208.0, 0.0016898242268179404
1209.0, 0.0006065154972741561
1210.0, 0.0002459071939018867
1211.0, 0.0017155282366064172
1212.0, 0.002322673297536901
1213.0, 0.002442287960046404
1214.0, 0.002120163243466739
1215.0, 0.0012182564982181803
1216.0, 0.0002685788827882304
1217.0, 0.0011811684853113536
1218.0, 0.001602626580021146
1219.0, 0.0014336410033454013
1220.0, 0.0015436551065425188
1221.0, 0.0033485744196462726
1222.0, 0.00143158564860018
1223.0, 0.0010271576577646937
1224.0, 0.0007145348384223801
1225.0, 0.000559122635383276
1226.0, 0.001036262810849383
1227.0, 0.0018715279353518598
1228.0, 0.0009685755277404754
1229.0, 0.0009020654915031837
1230.0, 0.0006887008199802102
1231.0, 0.00034262493759495364
1232.0, 0.0006756634173495384
1233.0, 0.00032606593642813263
1234.0, 0.000449828621640504
1235.0, 0.0004301424464190962
1236.0, 0.0005227427579420454
1237.0, 0.0008243812620003018
1238.0, 0.0009370943020375189
1239.0, 0.0024956806294105837
1240.0, 0.0018715309865648651
1241.0, 0.0014267940443888735
1242.0, 0.0015509487403863249
1243.0, 0.0015378936975565215
1244.0, 0.0001571456106466806
1245.0, 0.0017748869559335498
1246.0, 0.0014003364440413604
1247.0, 0.0014075358878494926
1248.0, 0.002411036103597383
1249.0, 0.003246586761772226
1250.0, 0.00255044243879844
1251.0, 0.0023410492275777696
1252.0, 0.003597438500805362
1253.0, 0.004145798144216028
1254.0, 0.003707189797143291
1255.0, 0.004633150305003527
1256.0, 0.0035304469107885457
1257.0, 0.003379078050147498
1258.0, 0.004651463301865112
1259.0, 0.005076305726892155
1260.0, 0.003750488438309162
1261.0, 0.003979041432493696
1262.0, 0.0053656571347647205
1263.0, 0.005361236126531401
1264.0, 0.004856544553527304
1265.0, 0.004955655546079075
1266.0, 0.005891580082488121
1267.0, 0.00506396799725194
1268.0, 0.00693024520969941
1269.0, 0.006088321934480972
1270.0, 0.0057782224736532386
1271.0, 0.006654576947112481
1272.0, 0.007115622447210812
1273.0, 0.006118952259264574
1274.0, 0.007130364214323147
1275.0, 0.007336758527913776
1276.0, 0.006291695758520705
1277.0, 0.005638424536130502
1278.0, 0.0078067134715218926
1279.0, 0.007795840051204241
1280.0, 0.008034945032521761
1281.0, 0.008852554484482892
1282.0, 0.00842457842863472
1283.0, 0.00706398424054652
1284.0, 0.008074086369081373
1285.0, 0.008643038538007679
1286.0, 0.00834633631722773
1287.0, 0.009509109525772837
1288.0, 0.010251554298187237
1289.0, 0.009227964826178516
1290.0, 0.00824441540282858
1291.0, 0.009829776915201354
1292.0, 0.009452004869095415
1293.0, 0.009133025913181067
1294.0, 0.009465311481149036
1295.0, 0.009892839071647999
1296.0, 0.00878564371568711
1297.0, 0.011670425120753657
1298.0, 0.010593077213253756
1299.0, 0.009284747423467557
1300.0, 0.009608500147843068
1301.0, 0.010917548643317232
1302.0, 0.008956591011068042
1303.0, 0.011060503260993925
1304.0, 0.011063513579265978
1305.0, 0.010503678153008674
1306.0, 0.010774713096614137
1307.0, 0.011696921947824295
1308.0, 0.009242293257265702
1309.0, 0.009383142118035625
1310.0, 0.010107657755913829
1311.0, 0.010480906452836105
1312.0, 0.010851093672834333
1313.0, 0.011592962118451716
1314.0, 0.01053874282459845
1315.0, 0.010510493126012238
1316.0, 0.01136574406414664
1317.0, 0.010310596784377821
1318.0, 0.009102023235249125
1319.0, 0.01049520775159959
1320.0, 0.009664365872420734
1321.0, 0.009783355791356073
1322.0, 0.010276712564666553
1323.0, 0.011006835499568712
1324.0, 0.011555946838002
1325.0, 0.011502606158598024
1326.0, 0.011060742071031202
1327.0, 0.011534721213259446
1328.0, 0.01135638557051344
1329.0, 0.011015935062184
1330.0, 0.011133340768185852
1331.0, 0.011789723017054585
1332.0, 0.011345948716358942
1333.0, 0.012095192125433852
1334.0, 0.01067845047497974
1335.0, 0.010013715010277398
1336.0, 0.01067158667954029
1337.0, 0.011090505861011882
1338.0, 0.00888456903402009
1339.0, 0.01099291550380731
1340.0, 0.011279403255927476
1341.0, 0.009975265307516619
1342.0, 0.00922461190715775
1343.0, 0.010258708061444416
1344.0, 0.00924333014663273
1345.0, 0.008242545233694075
1346.0, 0.009686358723466397
1347.0, 0.009884294361087427
1348.0, 0.009019640319873911
1349.0, 0.008801195972528948
1350.0, 0.009098199751300213
1351.0, 0.008099223548724261
1352.0, 0.009083156368229863
1353.0, 0.009021881988818016
1354.0, 0.008047158065047586
1355.0, 0.0075825044393164325
1356.0, 0.008358845200393003
1357.0, 0.005255690846506327
1358.0, 0.006195692480550708
1359.0, 0.007888166883376475
1360.0, 0.00816542577735101
1361.0, 0.00687544792609524
1362.0, 0.006270084389606339
1363.0, 0.007143313840300597
1364.0, 0.005620032498046259
1365.0, 0.006418462336510057
1366.0, 0.006863222813664298
1367.0, 0.005789314535722887
1368.0, 0.006331052027183743
1369.0, 0.007710156575513668
1370.0, 0.005854509040791336
1371.0, 0.005094161837913784
1372.0, 0.005755104804221508
1373.0, 0.005973300082268247
1374.0, 0.003881665697421497
1375.0, 0.004944620070445649
1376.0, 0.004047482134159949
1377.0, 0.002720076229952531
1378.0, 0.003239865028472161
1379.0, 0.0038515295310654774
1380.0, 0.0020457564078658255
1381.0, 0.0035813980255289114
1382.0, 0.0037244837858909606
1383.0, 0.0037583151870112888
1384.0, 0.0042337207585806365
1385.0, 0.004944724052019475
1386.0, 0.005153916702668231
1387.0, 0.003958576209945726
1388.0, 0.004084293660094564
1389.0, 0.004452829808724978
1390.0, 0.00450296683914055
1391.0, 0.004513016866013992
1392.0, 0.004066923785362684
1393.0, 0.0018559483448260705
1394.0, 0.004206789743180412
1395.0, 0.004544465044197461
1396.0, 0.003465408994626705
1397.0, 0.0036429782325619244
1398.0, 0.005529433732627292
1399.0, 0.0064833642666850344
1400.0, 0.002420958027457312
1401.0, 0.004859059838690281
1402.0, 0.004717610552477884
1403.0, 0.0032146772922758645
1404.0, 0.0028162042322272918
1405.0, 0.004399060961745521
1406.0, 0.004377959930825797
1407.0, 0.0038209666070851923
1408.0, 0.004626280210823114
1409.0, 0.0036962304712331
1410.0, 0.0028223584279366883
1411.0, 0.0038513252027189593
1412.0, 0.004946361393796811
1413.0, 0.0021570143093312018
1414.0, 0.003793021652174251
1415.0, 0.004361020986418411
1416.0, 0.003397768546687897
1417.0, 0.003311724891916168
1418.0, 0.005910311585921235
1419.0, 0.0023601154038203976
1420.0, 0.0036692758536155962
1421.0, 0.004461806167410066
1422.0, 0.003628463410981121
1423.0, 0.0028615526694082223
1424.0, 0.003681399708093743
1425.0, 0.0038709370698210583
1426.0, 0.003266407655113852
1427.0, 0.0038306147783201045
1428.0, 0.0039032919482982435
1429.0, 0.0030979545826641916
1430.0, 0.0023596738958165634
1431.0, 0.003038650749272984
1432.0, 0.001954905640050966
1433.0, 0.0026613446107415072
1434.0, 0.004008851652353497
1435.0, 0.003545635404697679
1436.0, 0.0022617745106305086
1437.0, 0.002547306977229767
1438.0, 0.0034511045097895803
1439.0, 0.0013060916434830445
1440.0, 0.0022854081256228277
1441.0, 0.0028968043135472613
1442.0, 0.0026435669088074195
1443.0, 0.002560994633936659
1444.0, 0.003444283736538304
1445.0, 0.0012891828779320379
1446.0, 0.002608062030413961
1447.0, 0.0038235737660819945
1448.0, 0.0024064529633386236
1449.0, 0.0009485081111692787
1450.0, 0.002364222530966699
1451.0, 0.001184766892666522
1452.0, 0.001230600676390473
1453.0, 0.0012042029555689524
1454.0, 0.0020384773354261594
1455.0, 0.0017437742481473853
1456.0, 0.0007745783477518407
1457.0, 0.0023822101703363505
1458.0, 0.0006855216024863066
1459.0, 0.001403231136028269
1460.0, 0.002844387289586053
1461.0, 0.002691026146961949
1462.0, 0.0015816678415352722
1463.0, 0.001457102276983725
1464.0, 0.002649887920794952
1465.0, 0.0019402572505507441
1466.0, 0.0024746141142807368
1467.0, 0.0026672555913933534
1468.0, 0.0019221668205654575
1469.0, 0.0015209950855162619
1470.0, 0.0027522866714686602
1471.0, 0.0007336412705344552
1472.0, 0.0012936532803470712
1473.0, 0.0023753654670977667
1474.0, 0.0016089610014054696
1475.0, 0.0014614134719170859
1476.0, 0.0029493529861192753
1477.0, 0.0020469078431223212
1478.0, 0.0001842536500821681
1479.0, 0.00232561894789836
1480.0, 0.002604952055156848
1481.0, 0.0020805636186022993
1482.0, 0.0017208875963257827
1483.0, 0.001631593330160167
1484.0, 0.001749674902584915
1485.0, 0.001063403220641414
1486.0, 0.002561294288150583
1487.0, 0.0014524139139704662
1488.0, 0.0010133157708192633
1489.0, 0.002580606805816564
1490.0, 0.0032778670262620622
1491.0, 0.0001327193938813285
1492.0, 0.0013855356768769458
1493.0, 0.002809292880281933
1494.0, 0.0015814792246126403
1495.0, 0.0008744580563866994
1496.0, 0.001980724779833054
1497.0, 0.0013484489932691869
1498.0, 0.0006179337451649519
1499.0, 0.001866774329034144
1500.0, 0.0018924267761790481
1501.0, 0.0019637038848622076
1502.0, 0.0020807675953363304
1503.0, 0.0015127537545373839
1504.0, 0.0002408479856810462
1505.0, 0.0016052596732510705
1506.0, 0.002493458692037791
1507.0, 0.0010404729566889385
1508.0, 0.0012737840486377718
1509.0, 0.0020595710115024106
1510.0, 0.0008843600024973823
1511.0, 0.0011375570916506502
1512.0, 0.001713411945979913
1513.0, 0.001535079210985707
1514.0, 0.0008262609405969108
1515.0, 0.0017959930522559093
1516.0, 0.002461940996550012
1517.0, 0.0002390963363789799
1518.0, 0.0005873280973995535
1519.0, 0.001730674439481611
1520.0, 0.001259412360920577
1521.0, 0.0013702859374252105
1522.0, 0.0009703102663555227
1523.0, 8.470317070211894e-05
1524, 0.0
1525, 0.0
1526, 0.0
1527, 0.0
1528, 0.0
1529, 0.0
1530, 0.0
1531, 0.0
1532, 0.0
1533, 0.0
1534, 0.0
1535, 0.0
1536, 0.0
1537, 0.0
1538, 0.0
1539, 0.0
1540, 0.0
1541, 0.0
1542, 0.0
1543, 0.0
1544, 0.0
1545, 0.0
1546, 0.0
1547, 0.0
1548, 0.0
1549, 0.0
1550, 0.0
1551, 0.0
1552, 0.0
1553, 0.0
1554, 0.0
1555, 0.0
1556, 0.0
1557, 0.0
1558, 0.0
1559, 0.0
1560, 0.0
1561, 0.0
1562, 0.0
1563, 0.0
1564, 0.0
1565, 0.0
1566, 0.0
1567, 0.0
1568, 0.0
1569, 0.0
1570, 0.0
1571, 0.0
1572, 0.0
1573, 0.0
1574, 0.0
1575, 0.0
1576, 0.0
1577, 0.0
1578, 0.0
1579, 0.0
1580, 0.0
1581, 0.0
1582, 0.0
1583, 0.0
1584, 0.0
1585, 0.0
1586, 0.0
1587, 0.0
1588, 0.0
1589, 0.0
1590, 0.0
1591, 0.0
1592, 0.0
1593, 0.0
1594, 0.0
1595, 0.0
1596, 0.0
1597, 0.0
1598, 0.0
1599, 0.0
