30, 0.0
31, 0.0
32, 0.0
33, 0.0
34, 0.0
35, 0.0
36, 0.0
37, 0.0
38, 0.0
39, 0.0
40, 0.0
41, 0.0
42, 0.0
43, 0.0
44, 0.0
45, 0.0
46, 0.0
47, 0.0
48, 0.0
49, 0.0
50, 0.0
51, 0.0
52, 0.0
53, 0.0
54, 0.0
55, 0.0
56, 0.0
57, 0.0
58, 0.0
59, 0.0
60, 0.0
61, 0.0
62, 0.0
63, 0.0
64, 0.0
65, 0.0
66, 0.0
67, 0.0
68, 0.0
69, 0.0
70, 0.0
71, 0.0
72, 0.0
73, 0.0
74, 0.0
75, 0.0
76, 0.0
77, 0.0
78, 0.0
79, 0.0
80, 0.0
81, 0.0
82, 0.0
83, 0.0
84, 0.0
85, 0.0
86, 0.0
87, 0.0
88, 0.0
89, 0.0
90, 0.0
91, 0.0
92, 0.0
93, 0.0
94, 0.0
95, 0.0
96, 0.0
97, 0.0
98, 0.0
99, 0.0
100, 0.0
101, 0.0
102, 0.0
103, 0.0
104, 0.0
105, 0.0
106, 0.0
107, 0.0
108, 0.0
109, 0.0
110, 0.0
111, 0.0
112, 0.0
113, 0.0
114, 0.0
115, 0.0
116, 0.0
117, 0.0
118, 0.0
119, 0.0
120, 0.0
121, 0.0
122, 0.0
123, 0.0
124, 0.0
125, 0.0
126, 0.0
127, 0.0
128, 0.0
129, 0.0
130, 0.0
131, 0.0
132, 0.0
133, 0.0
134, 0.0
135, 0.0
136, 0.0
137, 0.0
138, 0.0
139, 0.0
140, 0.0
141, 0.0
142, 0.0
143, 0.0
144, 0.0
145, 0.0
146, 0.0
147, 0.0
148, 0.0
149, 0.0
150, 0.0
151, 0.0
152, 0.0
153, 0.0
154, 0.0
155, 0.0
156.0, 0.0001651630512117696
157.0, 0.0008533467368221174
158.0, 0.008690944768141825
159.0, 0.016731025799487362
160.0, 0.02433935168990765
161.0, 0.03240583785704916
162.0, 0.03903368517742706
163.0, 0.04395485638957079
164.0, 0.05033975464332973
165.0, 0.06005793083475151
166.0, 0.07174601933466074
167.0, 0.07561525110530613
168.0, 0.08391692691496579
169.0, 0.09451144255260756
170.0, 0.09629504246983081
171.0, 0.08927677160222756
172.0, 0.08354994373667982
173.0, 0.07741191994816504
174.0, 0.06920796912213661
175.0, 0.06032035120366681
176.0, 0.056821216499015254
177.0, 0.05147638376183428
178.0, 0.04254505552887424
179.0, 0.03540682596968068
180.0, 0.03185651148334066
181.0, 0.027233680048557418
182.0, 0.022511664463062204
183.0, 0.02047125433705108
184.0, 0.01883318470112351
185.0, 0.01806321677264093
186.0, 0.02042555140166468
187.0, 0.02401668648971038
188.0, 0.019926229675324376
189.0, 0.02217448733273401
190.0, 0.026527526069018603
191.0, 0.03010056128538419
192.0, 0.03360605650429149
193.0, 0.036955893043496904
194.0, 0.037527919285181933
195.0, 0.04023935876567874
196.0, 0.04699478031636772
197.0, 0.04840226730991776
198.0, 0.0505801368257653
199.0, 0.054632772455463954
200.0, 0.05993504134798566
201.0, 0.06584262938424101
202.0, 0.07290363021064357
203.0, 0.07900305485164488
204.0, 0.08630844966315208
205.0, 0.09589899178640952
206.0, 0.10006091049096405
207.0, 0.10513082254637905
208.0, 0.11257341847948132
209.0, 0.12082503743237626
210.0, 0.12750073648587748
211.0, 0.13408304714488753
212.0, 0.1376068954540158
213.0, 0.13902712637852632
214.0, 0.1413876054717588
215.0, 0.1444275631434288
216.0, 0.14343447214412428
217.0, 0.1401704103151927
218.0, 0.1370408122744269
219.0, 0.13360990919740057
220.0, 0.12771674135060876
221.0, 0.12010551725787448
222.0, 0.11247458590515728
223.0, 0.1061746692840662
224.0, 0.09931260248824582
225.0, 0.09464335882998001
226.0, 0.09054495072845702
227.0, 0.08544951716534147
228.0, 0.08119551694434714
229.0, 0.07819578690303665
230.0, 0.07579846418398425
231.0, 0.07371217250208151
232.0, 0.07178342340031502
233.0, 0.06902862869590314
234.0, 0.0674841851179396
235.0, 0.0678019227461706
236.0, 0.06858432477860577
237.0, 0.0666416382605918
238.0, 0.06701560036024817
239.0, 0.06757130120978333
240.0, 0.06747908833554121
241.0, 0.06731451074915269
242.0, 0.0708500650260616
243.0, 0.0684597318389091
244.0, 0.06684447856114215
245.0, 0.06928241905021894
246.0, 0.06853842742299858
247.0, 0.06816349934116873
248.0, 0.06792684311206866
249.0, 0.06803203633300675
250.0, 0.06810927407806007
251.0, 0.0648220667693904
252.0, 0.06377182395321601
253.0, 0.06074903969135063
254.0, 0.05516364212172848
255.0, 0.05181064101729078
256.0, 0.04527864950814844
257.0, 0.038052228382811075
258.0, 0.032543896782438235
259.0, 0.028916137847519188
260.0, 0.02289326946391745
261.0, 0.016275971393780623
262.0, 0.010360351157820328
263.0, 0.006422270848474062
264.0, 0.004965051209689482
265.0, 0.003245506517967319
266.0, 0.001913999714879677
267.0, 0.005068407168204982
268.0, 0.0036628052230373784
269.0, 0.0014992381004347876
270.0, 0.003780909571900563
271.0, 0.004405128897610363
272.0, 0.0036250144895355716
273.0, 0.004563430437368985
274.0, 0.003019348054551437
275.0, 0.0026649752877882737
276.0, 0.0033078929247083067
277.0, 0.0034929770353052114
278.0, 0.002315873024002213
279.0, 0.0006707355865768625
280.0, 0.0009877474022689954
281.0, 0.0011958253158439007
282.0, 0.00023334075383093134
283.0, 0.0008811717700236295
284.0, 0.0012330468893674946
285.0, 0.002494368807765473
286.0, 0.0019746606316101913
287.0, 0.002253861087181346
288.0, 0.0030312120769881096
289.0, 0.004481472514247352
290.0, 0.005685601374668674
291.0, 0.00588337763903566
292.0, 0.005288721491002211
293.0, 0.005899479658246021
294.0, 0.00569565753044802
295.0, 0.00592357290155597
296.0, 0.007584578641397263
297.0, 0.008137200299784082
298.0, 0.006647612634093797
299.0, 0.006320260308605478
300.0, 0.007132198884373313
301.0, 0.007299101687832047
302.0, 0.008309789635775
303.0, 0.00804512483428763
304.0, 0.007585757734642828
305.0, 0.007831290165475851
306.0, 0.0083606929417753
307.0, 0.009056324227180617
308.0, 0.008824626693906063
309.0, 0.00872366259657314
310.0, 0.0088158374879525
311.0, 0.006888851066188282
312.0, 0.007867312706602484
313.0, 0.00760520542400242
314.0, 0.006534085169071663
315.0, 0.007170581212963267
316.0, 0.008344023910274608
317.0, 0.006224508640436474
318.0, 0.006207176131465933
319.0, 0.007086273266995243
320.0, 0.004260574736539791
321.0, 0.005303505947772708
322.0, 0.005279488119561775
323.0, 0.005565225111227245
324.0, 0.00607335192905422
325.0, 0.003931506077912873
326.0, 0.002772099502693435
327.0, 0.003972407578496695
328.0, 0.004793537002400657
329.0, 0.0038010821236751802
330.0, 0.0030712862328457495
331.0, 0.0029660414944843996
332.0, 0.0031083552115375324
333.0, 0.003208792508010831
334.0, 0.0031248244700720867
335.0, 0.0026618833283758615
336.0, 0.0026241327211544915
337.0, 0.0014678413160872964
338.0, 0.000681554881061224
339.0, 0.002675630800336463
340.0, 0.0031817192265848108
341.0, 0.0036906471200260087
342.0, 0.004052840310075681
343.0, 0.004130863645077695
344.0, 0.004468502983158574
345.0, 0.004890599947465018
346.0, 0.004807217634230165
347.0, 0.005192928482574217
348.0, 0.006212053462958952
349.0, 0.006907149242136408
350.0, 0.00828153542867284
351.0, 0.008079396175062604
352.0, 0.00852189244369639
353.0, 0.010468396969506487
354.0, 0.010784818667629549
355.0, 0.012064466448045708
356.0, 0.013144917835454096
357.0, 0.013533153083415154
358.0, 0.014173073822726494
359.0, 0.01644091268741893
360.0, 0.015696937570782395
361.0, 0.015088364690982153
362.0, 0.016024321720968186
363.0, 0.017818211771941195
364.0, 0.0190116114668694
365.0, 0.01964050763642999
366.0, 0.020188512363218964
367.0, 0.021834783672635354
368.0, 0.024817726495643316
369.0, 0.02556972008329473
370.0, 0.026789606650358573
371.0, 0.029003919786400403
372.0, 0.030200801906738108
373.0, 0.0287868654020973
374.0, 0.029000534936947518
375.0, 0.031582885479994424
376.0, 0.032333989480616956
377.0, 0.031587999614715964
378.0, 0.032419032515643036
379.0, 0.03274355734414026
380.0, 0.032029740828270606
381.0, 0.03241623562841001
382.0, 0.03323774849879811
383.0, 0.0315193958683958
384.0, 0.02899580998013914
385.0, 0.02853074688296326
386.0, 0.02802454834456829
387.0, 0.02568792005715502
388.0, 0.02241704604198022
389.0, 0.022080418647762563
390.0, 0.019857353120682198
391.0, 0.016516681289142462
392.0, 0.01393055642711893
393.0, 0.012952912780220904
394.0, 0.011942077686763508
395.0, 0.010370886387003453
396.0, 0.00818566658627601
397.0, 0.006066620541312705
398.0, 0.004829325196766571
399.0, 0.0042665651938659215
400.0, 0.004413847883911579
401.0, 0.0020620082576959823
402.0, 0.0013467520686941629
403.0, 4.7510958590865496e-05
404.0, 0.0007307836611139105
405.0, 0.0007911621113812299
406.0, 0.00033418353321650545
407.0, 0.0013422258968497848
408.0, 0.0007354040480334813
409.0, 0.001430443829979352
410.0, 0.0031572832945206838
411.0, 0.003943992735698889
412.0, 0.003091929740930997
413.0, 0.0016190152167986729
414.0, 0.000602404429943858
415.0, 0.00030383493373215817
416.0, 0.0005682961373998302
417.0, 0.0005753108524835426
418.0, 0.0005471676480494876
419.0, 0.0018129357390394268
420.0, 0.002744005344300193
421.0, 0.003843071085632553
422.0, 0.005388580293734822
423.0, 0.007279039673250224
424.0, 0.009628078530862552
425.0, 0.00995477461992594
426.0, 0.012476250452180721
427.0, 0.017639203641599464
428.0, 0.022498011697487427
429.0, 0.024247960606101744
430.0, 0.026895472296124153
431.0, 0.03130911591547201
432.0, 0.0370720823890466
433.0, 0.04356594061318206
434.0, 0.050850443471579965
435.0, 0.05846770697582375
436.0, 0.06516436685336997
437.0, 0.07255033602758079
438.0, 0.08243187889193523
439.0, 0.09314327676195357
440.0, 0.10171226720579025
441.0, 0.11340300482008459
442.0, 0.12597854840889167
443.0, 0.13601499572771084
444.0, 0.14514080559216233
445.0, 0.15853573700241025
446.0, 0.1711424542002701
447.0, 0.18396438488610198
448.0, 0.19710826572442264
449.0, 0.20487411480969192
450.0, 0.2134381787392026
451.0, 0.2226775449147526
452.0, 0.2303782992018708
453.0, 0.23591325476207006
454.0, 0.24055709255849322
455.0, 0.24250975334274866
456.0, 0.24339561335059762
457.0, 0.24337281301076683
458.0, 0.24279260770519165
459.0, 0.2412663580127104
460.0, 0.23446002203643612
461.0, 0.22804053566980093
462.0, 0.22281446823261497
463.0, 0.21734861218349907
464.0, 0.21065187021108278
465.0, 0.20363110504370105
466.0, 0.19931105617139763
467.0, 0.1967641855907175
468.0, 0.19159922811887808
469.0, 0.1845445102343517
470.0, 0.1889520846823907
471.0, 0.18904967015887653
472.0, 0.1886330942835017
473.0, 0.18988903624676573
474.0, 0.19380849514050028
475.0, 0.20010547411920496
476.0, 0.20290598315323474
477.0, 0.20602032636344744
478.0, 0.2096878919049994
479.0, 0.21300955157182158
480.0, 0.21584231800462556
481.0, 0.21704268662619128
482.0, 0.21967987336823078
483.0, 0.22059813262355688
484.0, 0.21849508268364615
485.0, 0.21497019545101867
486.0, 0.21387097778941358
487.0, 0.20957909942022254
488.0, 0.2054851010216774
489.0, 0.20164275376675775
490.0, 0.1978590532593013
491.0, 0.19671873850618193
492.0, 0.19466270539126196
493.0, 0.19107141580910256
494.0, 0.1882048679516268
495.0, 0.18749085639612148
496.0, 0.1879792492336484
497.0, 0.18501321912590463
498.0, 0.1863403333968432
499.0, 0.18821397456024244
500.0, 0.18808342938697714
501.0, 0.18614816675442156
502.0, 0.18250137988333787
503.0, 0.1806695608611421
504.0, 0.17799980670541202
505.0, 0.17094688163649566
506.0, 0.16009069645841106
507.0, 0.1503874251823892
508.0, 0.13585740097163193
509.0, 0.12372999547576846
510.0, 0.11062254756606568
511.0, 0.09470465827591351
512.0, 0.07940792629434855
513.0, 0.06500700484863463
514.0, 0.054212534815330664
515.0, 0.042963791019681084
516.0, 0.03328757742265675
517.0, 0.02836780854382793
518.0, 0.024133182085619247
519.0, 0.017921883609032102
520.0, 0.013296335873893027
521.0, 0.010326634550053764
522.0, 0.007715498059930846
523.0, 0.004859035429596067
524.0, 0.004495517329447643
525.0, 0.0033976029436037286
526.0, 0.0018055584484882562
527.0, 0.0015271153141828068
528.0, 0.0021306566951711636
529.0, 0.0008491078351042214
530.0, 0.0008090431328030455
531.0, 0.0008307472592028972
532.0, 0.0007420069314717454
533.0, 0.0017772855486908688
534.0, 0.0002480993985122971
535.0, 0.0004623294352765557
536.0, 0.0017610140064463389
537.0, 0.0018851542609781956
538.0, 0.001463301997145137
539.0, 0.002165816700492541
540.0, 0.002707698384627227
541.0, 0.0025467047259029756
542.0, 0.0017109583931390962
543.0, 0.001637677219565364
544.0, 0.0020275397598498402
545.0, 0.0009579943552444041
546.0, 0.00019756465760937226
547.0, 0.00040458109571589245
548.0, 0.0015066650083389581
549.0, 0.001532548846911866
550.0, 0.0004447827514408129
551.0, 0.0007043086554541246
552.0, 0.0023503291128850186
553.0, 0.0025812069902381384
554.0, 0.00240492455511889
555.0, 0.0024620556106212475
556.0, 0.002545754524795759
557.0, 0.006030571198945806
558.0, 0.006299308654314206
559.0, 0.007065040175231414
560.0, 0.007225870894168197
561.0, 0.00635888733499891
562.0, 0.010376336974704489
563.0, 0.011380664442333512
564.0, 0.011193357448270755
565.0, 0.012032130001346451
566.0, 0.013076044408334755
567.0, 0.012623693211408346
568.0, 0.013450723411159306
569.0, 0.016344905693824793
570.0, 0.01776071472946995
571.0, 0.01826792768723092
572.0, 0.01810502298941364
573.0, 0.016350160691992566
574.0, 0.01968756274206799
575.0, 0.019547598130661415
576.0, 0.018655919966976523
577.0, 0.018535027377461946
578.0, 0.018565322531850705
579.0, 0.01891227926922132
580.0, 0.019354030570712773
581.0, 0.019738767532040947
582.0, 0.019149059374831218
583.0, 0.018490786851942588
584.0, 0.019365087874606814
585.0, 0.020375334895545036
586.0, 0.020065603928190377
587.0, 0.020536695418744786
588.0, 0.020827864869096786
589.0, 0.021106845449937586
590.0, 0.023236770031815495
591.0, 0.02536404026869993
592.0, 0.027624682304978467
593.0, 0.027360375651692193
594.0, 0.02800497249259178
595.0, 0.03125412267524653
596.0, 0.03179505408635454
597.0, 0.032962103424465664
598.0, 0.033837167348528575
599.0, 0.03724772959013912
600.0, 0.04064402998297795
601.0, 0.041436834724185044
602.0, 0.044317546207182305
603.0, 0.04503744081441852
604.0, 0.04853211838868968
605.0, 0.05135811502113985
606.0, 0.05329058709263468
607.0, 0.05708235529447033
608.0, 0.05993962400014611
609.0, 0.06249862211086083
610.0, 0.06586335104723098
611.0, 0.07040402320588736
612.0, 0.0746508579524003
613.0, 0.07711064230561297
614.0, 0.07981461891303246
615.0, 0.08211050729107704
616.0, 0.08599941342931573
617.0, 0.09121914047219626
618.0, 0.09599796315849803
619.0, 0.09941347535847528
620.0, 0.10500126171153419
621.0, 0.10836886979572798
622.0, 0.11453876488582677
623.0, 0.12334685030969288
624.0, 0.1305180669741632
625.0, 0.13374368858900415
626.0, 0.1394300669811852
627.0, 0.149601526973618
628.0, 0.15762806816735556
629.0, 0.16408085759491142
630.0, 0.1727018180976979
631.0, 0.18290667628544555
632.0, 0.18975209537123075
633.0, 0.19638401717572335
634.0, 0.20452010778790192
635.0, 0.21085473412272754
636.0, 0.2140466075400297
637.0, 0.2182104723578856
638.0, 0.21611339773667362
639.0, 0.2127135864646354
640.0, 0.20498873982725313
641.0, 0.19581513109582557
642.0, 0.18812555938794984
643.0, 0.17810195007820517
644.0, 0.16989536327734342
645.0, 0.1608324273566916
646.0, 0.1549560868910154
647.0, 0.1498024649268522
648.0, 0.14323767166703008
649.0, 0.14017478160451738
650.0, 0.1391028380084762
651.0, 0.13766705116056602
652.0, 0.13397218135613553
653.0, 0.13096150872876572
654.0, 0.12861685804359851
655.0, 0.12151061193892851
656.0, 0.11443833053800985
657.0, 0.1071583112831416
658.0, 0.0973086901274158
659.0, 0.0864282188046366
660.0, 0.07657022140942768
661.0, 0.06695883474559224
662.0, 0.055227835098489296
663.0, 0.046485501248369546
664.0, 0.04053659563247677
665.0, 0.035022882410068346
666.0, 0.030251830581339425
667.0, 0.028107543432189172
668.0, 0.023266478113766084
669.0, 0.019540352738645496
670.0, 0.016688458726177524
671.0, 0.013529104620667512
672.0, 0.010536145829864367
673.0, 0.009331691523385423
674.0, 0.009334772756420926
675.0, 0.007937245242330646
676.0, 0.007208112381565622
677.0, 0.005541796552905914
678.0, 0.003147230583949763
679.0, 0.0028315750872600315
680.0, 0.0034182266027014737
681.0, 0.003268084734826665
682.0, 0.0018561131523467085
683.0, 0.001723664137537457
684.0, 0.002071909478976676
685.0, 0.001072673248735074
686.0, 0.0016976561638240822
687.0, 0.00035487391453670485
688.0, 0.00043379225724383014
689.0, 0.0005721511354320272
690.0, 0.0006923266680048916
691.0, 0.0013932772322190472
692.0, 0.001193156208614967
693.0, 0.00034907361341719473
694.0, 0.00037800632107767016
695.0, 0.000574203047637893
696.0, 0.001038890224609774
697.0, 0.0012056257597551463
698.0, 0.0014112993976820565
699.0, 0.003916764853518376
700.0, 0.0012672413576425433
701.0, 0.0006425779395999024
702.0, 0.0004212232058338704
703.0, 0.00011821081192387605
704.0, 0.0002813164482446015
705.0, 0.0010185392805882798
706.0, 0.0010331717522572693
707.0, 0.0009477594253528176
708.0, 0.0011629733242622458
709.0, 0.0002451170537497878
710.0, 0.0011114536456913893
711.0, 0.0009810498316294124
712.0, 0.0006748882657585337
713.0, 0.000953114543509986
714.0, 0.00023085564715488065
715.0, 0.0004789723355576431
716.0, 0.0004077303430764386
717.0, 0.0009645721445881575
718.0, 0.0003779603139493013
719.0, 0.0001905530038244215
720.0, 0.0006019955798847671
721.0, 0.00031088771952332594
722.0, 0.000769485011159608
723.0, 8.692597712686237e-05
724.0, 0.0007050863796130834
725.0, 0.0022430934433601596
726.0, 0.0015381602067409028
727.0, 0.000253134623666752
728.0, 0.0004732061500879365
729.0, 0.001770363785119802
730.0, 0.0014569734312110433
731.0, 0.0010467185654514095
732.0, 0.002541049225172612
733.0, 0.002584303351877487
734.0, 0.0025041711912964556
735.0, 0.0027201977880723293
736.0, 0.0021444056745292747
737.0, 0.0028405116811809827
738.0, 0.0024505725662605847
739.0, 0.0009312180764929107
740.0, 0.0012852735899060363
741.0, 0.0017473237542785344
742.0, 0.0006153329976229989
743.0, 0.0005426475415851443
744.0, 0.0010226221128864141
745.0, 0.0015259246783240988
746.0, 0.001208552439483391
747.0, 0.00134685307044666
748.0, 0.0017401331011251602
749.0, 0.0014090037469056541
750.0, 0.001774577756407458
751.0, 0.003186179268845419
752.0, 0.003504111064039485
753.0, 0.0018466174709775708
754.0, 0.000732973866635408
755.0, 0.0014966067406523734
756.0, 0.0021263224169477506
757.0, 0.00201762305324191
758.0, 0.0005612108243861954
759.0, 0.0006935552855000756
760.0, 0.0005356149983871795
761.0, 0.001300564082844017
762.0, 0.0033462429883484852
763.0, 0.002286878880709073
764.0, 0.002134406156680848
765.0, 0.00010503812577172751
766.0, 0.00011477826959668184
767.0, 0.0011633034682706
768.0, 0.0012531608938194194
769.0, 0.0007714202071312083
770.0, 0.0017572738198667853
771.0, 0.0014420651357017337
772.0, 0.0008655454180239383
773.0, 0.0008335520372219368
774.0, 0.0013408240124993757
775.0, 0.0014080671756409072
776.0, 0.0006328104649038522
777.0, 0.0012353010804543906
778.0, 0.00046801639371045353
779.0, 0.0017370583780365232
780.0, 0.0016816278760739996
781.0, 0.00027384292716428377
782.0, 0.0004828741482939482
783.0, 0.000591284035602617
784.0, 0.00015527214807933314
785.0, 0.0022177299579479908
786.0, 0.001073257180432752
787.0, 0.00022907545308046662
788.0, 0.0005906677903339796
789.0, 0.0004124101685436019
790.0, 0.000946955380596737
791.0, 0.0003459396375286494
792.0, 0.00022915277734444523
793.0, 1.4849436681706494e-05
794.0, 0.0003746292993668904
795.0, 0.0009845476252648491
796.0, 0.0009951916421220765
797.0, 0.0023129012048480136
798.0, 0.0017868020551129419
799.0, 0.0009171857385170073
800.0, 0.00036887326704608276
801.0, 0.002120690920512258
802.0, 0.0035174604399792098
803.0, 0.0015665524967644249
804.0, 0.00020467522677437204
805.0, 0.0022693931309211287
806.0, 0.0021480814637473335
807.0, 0.000999049185642688
808.0, 0.0001741898775102139
809.0, 0.000496197639558573
810.0, 0.00027859221977479583
811.0, 0.0006816464749447857
812.0, 0.0003626800390093016
813.0, 0.0015121771129691325
814.0, 0.001386397430674666
815.0, 0.0012999463383572424
816.0, 0.0019534783289852087
817.0, 0.0018254125132002939
818.0, 0.0008679359558775765
819.0, 0.0019708125944842302
820.0, 0.0007533973330464165
821.0, 0.0008250236617581995
822.0, 0.001163819104865102
823.0, 0.0011136973724517058
824.0, 0.0016794969841777614
825.0, 0.003137671123126791
826.0, 0.004603829737835692
827.0, 0.003897769282529733
828.0, 0.0012957948311952499
829.0, 0.0025651280707248876
830.0, 0.004079840697768211
831.0, 0.002128854824765706
832.0, 0.002571278821300918
833.0, 0.0035307251607338973
834.0, 0.002048948819325562
835.0, 0.003984705822444577
836.0, 0.004129017383672232
837.0, 0.002878227474300277
838.0, 0.0028097862934302275
839.0, 0.0027636425282915487
840.0, 0.003972316453518536
841.0, 0.004225117759622971
842.0, 0.004180864976980577
843.0, 0.0041062657897709765
844.0, 0.004109011680834519
845.0, 0.0040885454849970875
846.0, 0.0036069105166888775
847.0, 0.002641902403416768
848.0, 0.003695965423239892
849.0, 0.00445108320328025
850.0, 0.004221635298939141
851.0, 0.0048554429367132475
852.0, 0.005898956609288736
853.0, 0.005652230399024077
854.0, 0.006158444610938584
855.0, 0.007254781043621532
856.0, 0.00655802941276529
857.0, 0.007188653440791696
858.0, 0.007905500124968764
859.0, 0.006689465724549221
860.0, 0.005812282699936681
861.0, 0.008766284743834866
862.0, 0.007812709186963668
863.0, 0.007063169744543823
864.0, 0.007743328576186811
865.0, 0.007348460004904499
866.0, 0.008006446443649711
867.0, 0.009161254694889952
868.0, 0.008413623642463623
869.0, 0.009940632949693396
870.0, 0.010360293458520402
871.0, 0.011037291234359578
872.0, 0.01226293671741889
873.0, 0.01228338287138267
874.0, 0.011611955195718216
875.0, 0.010891495409818566
876.0, 0.009540479082831323
877.0, 0.012306697241810903
878.0, 0.012719200540486728
879.0, 0.01188933446133962
880.0, 0.011680137108670061
881.0, 0.0126810609775525
882.0, 0.014264267692651333
883.0, 0.01535742440849601
884.0, 0.015235804385148198
885.0, 0.015094199122598339
886.0, 0.015477115464148594
887.0, 0.015107420346545915
888.0, 0.015552976766064567
889.0, 0.01538879493795939
890.0, 0.01416699029574616
891.0, 0.015041526919175655
892.0, 0.01583516266053041
893.0, 0.015360897051821821
894.0, 0.014771821300547284
895.0, 0.015930488314135738
896.0, 0.01576832305600129
897.0, 0.014566571976148968
898.0, 0.014606721521491865
899.0, 0.01453360342036847
900.0, 0.015639964400451064
901.0, 0.01484160279936177
902.0, 0.013529269085335107
903.0, 0.01452427129401389
904.0, 0.014988644511424327
905.0, 0.013724604271174086
906.0, 0.012861413513573778
907.0, 0.011866191200462155
908.0, 0.012131765358561208
909.0, 0.010815012920371292
910.0, 0.010411464171433897
911.0, 0.009981757180609714
912.0, 0.009237572218052811
913.0, 0.007917916031884506
914.0, 0.0062499362248959545
915.0, 0.007637778105172598
916.0, 0.00781294573357033
917.0, 0.007723566592735133
918.0, 0.00764480514894394
919.0, 0.00676641466288486
920.0, 0.006005939784517762
921.0, 0.006419557995234267
922.0, 0.006368232261889228
923.0, 0.004031067123818778
924.0, 0.005125210274913652
925.0, 0.0038486577695598227
926.0, 0.002655948689770716
927.0, 0.0020527064625120934
928.0, 0.0018770614030960285
929.0, 0.0020211014350313286
930.0, 0.0015402305726693489
931.0, 0.00017918224005876457
932.0, 0.0007390073178540781
933.0, 0.000427392260374336
934.0, 9.72475142654791e-05
935.0, 2.5625346754250343e-05
936.0, 0.00022506567406011793
937.0, 0.0009150339978074605
938.0, 0.0010671776335707999
939.0, 0.00068618467241054
940.0, 0.0027126671331149377
941.0, 0.002094949165015394
942.0, 0.0011280082026292042
943.0, 0.0014903193857420355
944.0, 0.0020138776194401514
945.0, 0.0020038421313802995
946.0, 0.002256149130339277
947.0, 0.0020671092095298728
948.0, 0.001208854519456497
949.0, 0.002165751795100586
950.0, 0.0012832924545958288
951.0, 0.0025304867614933456
952.0, 0.0032397597462185124
953.0, 0.0025503067057534913
954.0, 0.0026831697885616583
955.0, 0.0014826649402217384
956.0, 0.0003220656291012792
957.0, 0.00010341503716720836
958.0, 0.0010284121547344254
959.0, 0.0032141255311046203
960.0, 0.0044244715602709365
961.0, 0.004743879607475355
962.0, 0.005847296276516692
963.0, 0.007021631258292926
964.0, 0.008219074441907323
965.0, 0.010628435953769718
966.0, 0.014003721962063186
967.0, 0.015044137005706
968.0, 0.018223735798185155
969.0, 0.022888210229638047
970.0, 0.026295548283802907
971.0, 0.02971945528346282
972.0, 0.034703921044590906
973.0, 0.03893317059370562
974.0, 0.04442034789559046
975.0, 0.052646630368090315
976.0, 0.05906485733053865
977.0, 0.06783280925162997
978.0, 0.07792396957301549
979.0, 0.0861832457664215
980.0, 0.0974043875906236
981.0, 0.10957755787719642
982.0, 0.12414295770154078
983.0, 0.13843690978785422
984.0, 0.15378624839747873
985.0, 0.17224964374337035
986.0, 0.1920347860771841
987.0, 0.21313091480220242
988.0, 0.23749764402023238
989.0, 0.2627059218105713
990.0, 0.29014527779964017
991.0, 0.3189053483520738
992.0, 0.3478078450413962
993.0, 0.3821137014876054
994.0, 0.41774647299321227
995.0, 0.4517292710919161
996.0, 0.4864611480392109
997.0, 0.5232666613401816
998.0, 0.5557875371019634
999.0, 0.5843360653936969
1000.0, 0.605109662762216
1001.0, 0.6239172826103018
1002.0, 0.6386166074401989
1003.0, 0.6519885034293577
1004.0, 0.6641587257541824
1005.0, 0.674057882693933
1006.0, 0.6868415057067171
1007.0, 0.7048916809665858
1008.0, 0.7225025374707723
1009.0, 0.744045974549321
1010.0, 0.7680135866593242
1011.0, 0.7957669022408476
1012.0, 0.8228459741221159
1013.0, 0.8535090560360021
1014.0, 0.8917566752071822
1015.0, 0.926808403076362
1016.0, 0.9583176502060181
1017.0, 0.9861862113187999
1018.0, 0.9991402646931116
1019.0, 0.9954635487281241
1020.0, 0.9727049206544113
1021.0, 0.9261357286680995
1022.0, 0.8565592583828938
1023.0, 0.7692374127766284
1024.0, 0.6706475883758845
1025.0, 0.5707348499353851
1026.0, 0.4752289289438492
1027.0, 0.3928019344637096
1028.0, 0.31787383964579197
1029.0, 0.25594357084231456
1030.0, 0.2074101845776879
1031.0, 0.17203539881244362
1032.0, 0.14547132096279078
1033.0, 0.12063469980308594
1034.0, 0.10359869741565522
1035.0, 0.08861101674451752
1036.0, 0.08133557410577948
1037.0, 0.07354710169812693
1038.0, 0.06961201106601268
1039.0, 0.06655467729976443
1040.0, 0.06292138852371347
1041.0, 0.06202314045540824
1042.0, 0.06282548467240975
1043.0, 0.06163741379358536
1044.0, 0.06303076905300375
1045.0, 0.06484080016196404
1046.0, 0.06795666765049646
1047.0, 0.07158561632223213
1048.0, 0.07285337151168368
1049.0, 0.07581692365357603
1050.0, 0.08154420604649763
1051.0, 0.08443789658146841
1052.0, 0.0833704452791201
1053.0, 0.08722744562755068
1054.0, 0.08911308620630794
1055.0, 0.09104637156898712
1056.0, 0.09081110491225065
1057.0, 0.0897304151816764
1058.0, 0.08975610635089727
1059.0, 0.08751054619997543
1060.0, 0.08359255304996013
1061.0, 0.08117096593718037
1062.0, 0.0738274962012945
1063.0, 0.06796156835925621
1064.0, 0.06466960267761056
1065.0, 0.060058381440214914
1066.0, 0.05685956818314417
1067.0, 0.05311020803327734
1068.0, 0.04758581685145159
1069.0, 0.0435675567870321
1070.0, 0.04124275859136237
1071.0, 0.03747461311723964
1072.0, 0.03409118004602543
1073.0, 0.03134018580125591
1074.0, 0.03067231741292909
1075.0, 0.027682249353345588
1076.0, 0.02332857003932053
1077.0, 0.01928812057238932
1078.0, 0.0184526291154915
1079.0, 0.01853693276040785
1080.0, 0.015808421690694883
1081.0, 0.014297614253433729
1082.0, 0.0121467047216951
1083.0, 0.008763445690048404
1084.0, 0.008424221039963225
1085.0, 0.006571243513547422
1086.0, 0.00453494956356534
1087.0, 0.002191873145801313
1088.0, 0.001468256500394279
1089.0, 0.0016469286574307103
1090.0, 0.0007257556726254987
1091.0, 0.0036440173634555858
1092.0, 0.0009072815109645324
1093.0, 0.0003830650656691312
1094.0, 0.0022765093259215553
1095.0, 0.0006249455957704116
1096.0, 0.0021130183767448358
1097.0, 0.0035521080430194344
1098.0, 0.003239888441100035
1099.0, 0.0022773570619169102
1100.0, 0.0005124196430649387
1101.0, 0.0012479226820814725
1102.0, 0.001032181274483864
1103.0, 0.0020340799348312157
1104.0, 0.0018502166515012156
1105.0, 0.002160443829927202
1106.0, 0.0021429830185620154
1107.0, 0.0006533511046404063
1108.0, 0.002323452052538405
1109.0, 0.0024793419845342674
1110.0, 0.0014693747804162584
1111.0, 0.002528463078830135
1112.0, 0.004040248943615833
1113.0, 0.003932777554937019
1114.0, 0.006720629790819834
1115.0, 0.007670627548740345
1116.0, 0.010199049590956424
1117.0, 0.008445630668210139
1118.0, 0.008710763977839436
1119.0, 0.011978454813941563
1120.0, 0.013841084603946384
1121.0, 0.013805522721983928
1122.0, 0.01284844345884247
1123.0, 0.014173680824221822
1124.0, 0.01775314526499818
1125.0, 0.017861537344332632
1126.0, 0.017307697553921832
1127.0, 0.018916738951032276
1128.0, 0.020790724509744087
1129.0, 0.022674279596133884
1130.0, 0.0247766051271068
1131.0, 0.026737295912721473
1132.0, 0.02811817748634093
1133.0, 0.028361910996982126
1134.0, 0.029708460994988767
1135.0, 0.030270232303736194
1136.0, 0.03354809301467023
1137.0, 0.032557410628590744
1138.0, 0.03386168629893595
1139.0, 0.03477138549832646
1140.0, 0.03628507980810655
1141.0, 0.038272302992697516
1142.0, 0.03845107554617156
1143.0, 0.037969937003443185
1144.0, 0.03608732795468895
1145.0, 0.0354213647305378
1146.0, 0.035796879139054084
1147.0, 0.03504815978618509
1148.0, 0.033516993262013545
1149.0, 0.03185042617225368
1150.0, 0.031807977716422575
1151.0, 0.03096324298095786
1152.0, 0.028551876808216615
1153.0, 0.026312310891576075
1154.0, 0.024381773370427334
1155.0, 0.022995588070188127
1156.0, 0.019683738249985462
1157.0, 0.015614865454691087
1158.0, 0.016344117599118215
1159.0, 0.013420221837674004
1160.0, 0.012594956437748476
1161.0, 0.011478948221655684
1162.0, 0.009122189795575686
1163.0, 0.0067871782936172725
1164.0, 0.0055600385902436445
1165.0, 0.0038822696651899533
1166.0, 0.0007245878010641997
1167.0, 0.00150651162910662
1168.0, 0.0012723098023835542
1169.0, 0.0009577512964456562
1170.0, 0.0005951821301986804
1171.0, 0.000585184731712926
1172.0, 0.0006757340070247827
1173.0, 0.0008571667320558292
1174.0, 0.0006070586474517185
1175.0, 0.0018838309158596502
1176.0, 0.0021594697384085355
1177.0, 0.003915528525627264
1178.0, 0.0025666422438225347
1179.0, 0.004006512002464293
1180.0, 0.006720338533201564
1181.0, 0.006877581382314922
1182.0, 0.0076186853047662964
1183.0, 0.009219729571222673
1184.0, 0.008812473019519882
1185.0, 0.011039547014927221
1186.0, 0.012833631558806409
1187.0, 0.012724704264842172
1188.0, 0.013267408988286381
1189.0, 0.012963711748556086
1190.0, 0.013663252733177882
1191.0, 0.014440142468864959
1192.0, 0.0145265245108668
1193.0, 0.013417680730010926
1194.0, 0.011817466905275496
1195.0, 0.012442898597275364
1196.0, 0.012468440013420996
1197.0, 0.012223507150900887
1198.0, 0.012036242392418699
1199.0, 0.0091076961420053
1200.0, 0.008660726351572239
1201.0, 0.008853757090444192
1202.0, 0.007973130386206133
1203.0, 0.007768925053327961
1204.0, 0.005688258054862634
1205.0, 0.007083148916733112
1206.0, 0.005679065814728712
1207.0, 0.004315954576353957
1208.0, 0.004381716252510348
1209.0, 0.004111007828559651
1210.0, 0.004437269547426038
1211.0, 0.004388386505530542
1212.0, 0.0033939971062018027
1213.0, 0.0034317719486911657
1214.0, 0.003926797984762485
1215.0, 0.0028287065396309535
1216.0, 0.0023051580586875725
1217.0, 0.0026060220495728722
1218.0, 0.0028463790767985692
1219.0, 0.002108751766795987
1220.0, 0.003174397947524336
1221.0, 0.0013651902631769905
1222.0, 0.0018795749335092982
1223.0, 0.0039669313169268285
1224.0, 0.004151497976996855
1225.0, 0.003861894224918349
1226.0, 0.004130877788725241
1227.0, 0.003908268617938105
1228.0, 0.00442903906908451
1229.0, 0.004650574008186745
1230.0, 0.0025553254396687214
1231.0, 0.003628938210762678
1232.0, 0.003989363712464428
1233.0, 0.002821009963481041
1234.0, 0.002484585631663097
1235.0, 0.002021058564230691
1236.0, 0.0009481459993228006
1237.0, 0.0004177751790765229
1238.0, 0.0006928097334730363
1239.0, 0.0005816932756955803
1240.0, 0.0005495829107373456
1241.0, 0.000785959776318252
1242.0, 0.00021787494558766222
1243.0, 0.0006712830338232685
1244.0, 0.0006598713629173866
1245.0, 0.0019715895913691205
1246.0, 0.0018777556049628654
1247.0, 0.0008593722789797647
1248.0, 0.00032692879737283
1249.0, 0.00043412113851729945
1250.0, 0.0007466727194432479
1251.0, 7.924538459996643e-05
1252.0, 0.0004025719496801709
1253.0, 0.0025153808598621834
1254.0, 0.004124149307265218
1255.0, 0.00516611094343403
1256.0, 0.004453812276289549
1257.0, 0.003952050562903178
1258.0, 0.006257367359566149
1259.0, 0.007036033737570393
1260.0, 0.008957263618506966
1261.0, 0.008992149420814787
1262.0, 0.011082569192010241
1263.0, 0.01069800358421496
1264.0, 0.008784372102043964
1265.0, 0.009523426282235122
1266.0, 0.011236456270107989
1267.0, 0.012422318953214932
1268.0, 0.014733486010916152
1269.0, 0.015880630601437195
1270.0, 0.016612241696658186
1271.0, 0.01731097405709849
1272.0, 0.016383077556043374
1273.0, 0.016353527845930492
1274.0, 0.016180100094173342
1275.0, 0.015499815393250288
1276.0, 0.013108878323129212
1277.0, 0.01264380357382504
1278.0, 0.013424017456691013
1279.0, 0.012687173821358363
1280.0, 0.010652858370755235
1281.0, 0.010930279677856454
1282.0, 0.012100053508543157
1283.0, 0.009557370975333997
1284.0, 0.0104698503651379
1285.0, 0.007389694604126039
1286.0, 0.009137806348220211
1287.0, 0.008477940962295143
1288.0, 0.0076645504469170025
1289.0, 0.0067324080397051
1290.0, 0.006473581751473735
1291.0, 0.006730683142374168
1292.0, 0.006332333971503185
1293.0, 0.004851245699667625
1294.0, 0.003999635489914108
1295.0, 0.0038608991509988155
1296.0, 0.002858982151503597
1297.0, 0.002491342745636324
1298.0, 0.002753187641831837
1299.0, 0.002317851011430416
1300.0, 0.0012660045076550697
1301.0, 9.648884319520431e-05
1302.0, 0.0009071333880753855
1303, 0.0
1304, 0.0
1305, 0.0
1306, 0.0
1307, 0.0
1308, 0.0
1309, 0.0
1310, 0.0
1311, 0.0
1312, 0.0
1313, 0.0
1314, 0.0
1315, 0.0
1316, 0.0
1317, 0.0
1318, 0.0
1319, 0.0
1320, 0.0
1321, 0.0
1322, 0.0
1323, 0.0
1324, 0.0
1325, 0.0
1326, 0.0
1327, 0.0
1328, 0.0
1329, 0.0
1330, 0.0
1331, 0.0
1332, 0.0
1333, 0.0
1334, 0.0
1335, 0.0
1336, 0.0
1337, 0.0
1338, 0.0
1339, 0.0
1340, 0.0
1341, 0.0
1342, 0.0
1343, 0.0
1344, 0.0
1345, 0.0
1346, 0.0
1347, 0.0
1348, 0.0
1349, 0.0
1350, 0.0
1351, 0.0
1352, 0.0
1353, 0.0
1354, 0.0
1355, 0.0
1356, 0.0
1357, 0.0
1358, 0.0
1359, 0.0
1360, 0.0
1361, 0.0
1362, 0.0
1363, 0.0
1364, 0.0
1365, 0.0
1366, 0.0
1367, 0.0
1368, 0.0
1369, 0.0
1370, 0.0
1371, 0.0
1372, 0.0
1373, 0.0
1374, 0.0
1375, 0.0
1376, 0.0
1377, 0.0
1378, 0.0
1379, 0.0
1380, 0.0
1381, 0.0
1382, 0.0
1383, 0.0
1384, 0.0
1385, 0.0
1386, 0.0
1387, 0.0
1388, 0.0
1389, 0.0
1390, 0.0
1391, 0.0
1392, 0.0
1393, 0.0
1394, 0.0
1395, 0.0
1396, 0.0
1397, 0.0
1398, 0.0
1399, 0.0
1400, 0.0
1401, 0.0
1402, 0.0
1403, 0.0
1404, 0.0
1405, 0.0
1406, 0.0
1407, 0.0
1408, 0.0
1409, 0.0
1410, 0.0
1411, 0.0
1412, 0.0
1413, 0.0
1414, 0.0
1415, 0.0
1416, 0.0
1417, 0.0
1418, 0.0
1419, 0.0
1420, 0.0
1421, 0.0
1422, 0.0
1423, 0.0
1424, 0.0
1425, 0.0
1426, 0.0
1427, 0.0
1428, 0.0
1429, 0.0
1430, 0.0
1431, 0.0
1432, 0.0
1433, 0.0
1434, 0.0
1435, 0.0
1436, 0.0
1437, 0.0
1438, 0.0
1439, 0.0
1440, 0.0
1441, 0.0
1442, 0.0
1443, 0.0
1444, 0.0
1445, 0.0
1446, 0.0
1447, 0.0
1448, 0.0
1449, 0.0
1450, 0.0
1451, 0.0
1452, 0.0
1453, 0.0
1454, 0.0
1455, 0.0
1456, 0.0
1457, 0.0
1458, 0.0
1459, 0.0
1460, 0.0
1461, 0.0
1462, 0.0
1463, 0.0
1464, 0.0
1465, 0.0
1466, 0.0
1467, 0.0
1468, 0.0
1469, 0.0
1470, 0.0
1471, 0.0
1472, 0.0
1473, 0.0
1474, 0.0
1475, 0.0
1476, 0.0
1477, 0.0
1478, 0.0
1479, 0.0
1480, 0.0
1481, 0.0
1482, 0.0
1483, 0.0
1484, 0.0
1485, 0.0
1486, 0.0
1487, 0.0
1488, 0.0
1489, 0.0
1490, 0.0
1491, 0.0
1492, 0.0
1493, 0.0
1494, 0.0
1495, 0.0
1496, 0.0
1497, 0.0
1498, 0.0
1499, 0.0
1500, 0.0
1501, 0.0
1502, 0.0
1503, 0.0
1504, 0.0
1505, 0.0
1506, 0.0
1507, 0.0
1508, 0.0
1509, 0.0
1510, 0.0
1511, 0.0
1512, 0.0
1513, 0.0
1514, 0.0
1515, 0.0
1516, 0.0
1517, 0.0
1518, 0.0
1519, 0.0
1520, 0.0
1521, 0.0
1522, 0.0
1523, 0.0
1524, 0.0
1525, 0.0
1526, 0.0
1527, 0.0
1528, 0.0
1529, 0.0
1530, 0.0
1531, 0.0
1532, 0.0
1533, 0.0
1534, 0.0
1535, 0.0
1536, 0.0
1537, 0.0
1538, 0.0
1539, 0.0
1540, 0.0
1541, 0.0
1542, 0.0
1543, 0.0
1544, 0.0
1545, 0.0
1546, 0.0
1547, 0.0
1548, 0.0
1549, 0.0
1550, 0.0
1551, 0.0
1552, 0.0
1553, 0.0
1554, 0.0
1555, 0.0
1556, 0.0
1557, 0.0
1558, 0.0
1559, 0.0
1560, 0.0
1561, 0.0
1562, 0.0
1563, 0.0
1564, 0.0
1565, 0.0
1566, 0.0
1567, 0.0
1568, 0.0
1569, 0.0
1570, 0.0
1571, 0.0
1572, 0.0
1573, 0.0
1574, 0.0
1575, 0.0
1576, 0.0
1577, 0.0
1578, 0.0
1579, 0.0
1580, 0.0
1581, 0.0
1582, 0.0
1583, 0.0
1584, 0.0
1585, 0.0
1586, 0.0
1587, 0.0
1588, 0.0
1589, 0.0
1590, 0.0
1591, 0.0
1592, 0.0
1593, 0.0
1594, 0.0
1595, 0.0
1596, 0.0
1597, 0.0
1598, 0.0
1599, 0.0
