30, 0.0
31, 0.0
32, 0.0
33, 0.0
34, 0.0
35, 0.0
36, 0.0
37, 0.0
38, 0.0
39, 0.0
40, 0.0
41, 0.0
42, 0.0
43, 0.0
44, 0.0
45, 0.0
46, 0.0
47, 0.0
48, 0.0
49, 0.0
50, 0.0
51, 0.0
52, 0.0
53, 0.0
54, 0.0
55, 0.0
56, 0.0
57, 0.0
58, 0.0
59, 0.0
60, 0.0
61, 0.0
62, 0.0
63, 0.0
64, 0.0
65, 0.0
66, 0.0
67, 0.0
68, 0.0
69, 0.0
70, 0.0
71, 0.0
72, 0.0
73, 0.0
74, 0.0
75, 0.0
76, 0.0
77, 0.0
78, 0.0
79, 0.0
80, 0.0
81, 0.0
82, 0.0
83, 0.0
84, 0.0
85, 0.0
86, 0.0
87, 0.0
88, 0.0
89, 0.0
90, 0.0
91, 0.0
92, 0.0
93, 0.0
94, 0.0
95, 0.0
96, 0.0
97, 0.0
98, 0.0
99, 0.0
100, 0.0
101, 0.0
102, 0.0
103, 0.0
104, 0.0
105, 0.0
106, 0.0
107, 0.0
108, 0.0
109, 0.0
110, 0.0
111, 0.0
112, 0.0
113, 0.0
114, 0.0
115, 0.0
116, 0.0
117, 0.0
118, 0.0
119, 0.0
120, 0.0
121, 0.0
122, 0.0
123, 0.0
124, 0.0
125, 0.0
126, 0.0
127, 0.0
128, 0.0
129, 0.0
130, 0.0
131, 0.0
132, 0.0
133, 0.0
134, 0.0
135, 0.0
136, 0.0
137, 0.0
138, 0.0
139, 0.0
140, 0.0
141, 0.0
142, 0.0
143, 0.0
144, 0.0
145, 0.0
146, 0.0
147, 0.0
148, 0.0
149, 0.0
150, 0.0
151, 0.0
152, 0.0
153, 0.0
154, 0.0
155, 0.0
156, 0.0
157, 0.0
158, 0.0
159, 0.0
160, 0.0
161, 0.0
162, 0.0
163, 0.0
164, 0.0
165, 0.0
166, 0.0
167, 0.0
168, 0.0
169, 0.0
170, 0.0
171, 0.0
172, 0.0
173, 0.0
174, 0.0
175, 0.0
176, 0.0
177, 0.0
178, 0.0
179, 0.0
180, 0.0
181, 0.0
182, 0.0
183, 0.0
184, 0.0
185, 0.0
186, 0.0
187, 0.0
188, 0.0
189.0, 0.990793723064254
190.0, 0.9978770008170199
191.0, 0.9968570109382777
192.0, 0.9904462014542194
193.0, 0.9887964304170889
194.0, 0.9865420378840182
195.0, 0.9894766346237309
196.0, 0.9943671984255656
197.0, 0.9971416594479989
198.0, 0.9964702239140213
199.0, 0.9957860675505538
200.0, 0.9960700473540228
201.0, 0.9947903513588154
202.0, 0.9910436788098986
203.0, 0.9965782111762377
204.0, 0.9969629626983365
205.0, 0.9944082106956393
206.0, 0.9933145116953896
207.0, 0.9908390828880559
208.0, 0.9872766388750471
209.0, 0.9930239083152463
210.0, 0.9963825304391097
211.0, 0.9770171533222635
212.0, 0.9755609144882179
213.0, 0.9760744960438251
214.0, 0.9712643664315337
215.0, 0.9658089625404424
216.0, 0.9833744399933597
217.0, 0.9850294657291112
218.0, 0.9803706632733292
219.0, 0.9784288688208077
220.0, 0.9780624495486296
221.0, 0.9819711824113825
222.0, 0.9809413953741544
223.0, 0.9771875589959649
224.0, 0.9747919162143641
225.0, 0.969957401690621
226.0, 0.970255308269853
227.0, 0.9691578747084207
228.0, 0.9681040957837878
229.0, 0.9739751119700297
230.0, 0.9598691590730132
231.0, 0.9527808846536989
232.0, 0.9562112209819353
233.0, 0.9597921156625087
234.0, 0.9530171826828031
235.0, 0.9525943272231436
236.0, 0.9546475641253764
237.0, 0.9549323765180024
238.0, 0.953275979932721
239.0, 0.9436548424837206
240.0, 0.9420152523562095
241.0, 0.9471835337483481
242.0, 0.952374418584234
243.0, 0.9496199472614736
244.0, 0.948868734210019
245.0, 0.9478864714406302
246.0, 0.9454244101703131
247.0, 0.9453552079000964
248.0, 0.957901499864155
249.0, 0.9508816263624535
250.0, 0.9420899892594624
251.0, 0.9480983490174115
252.0, 0.9448422023381344
253.0, 0.9388842744595753
254.0, 0.9403039284299496
255.0, 0.9444960129443091
256.0, 0.9407619267377599
257.0, 0.9438001692715503
258.0, 0.94549079524791
259.0, 0.9435823376074407
260.0, 0.9397564496353589
261.0, 0.9370670805769489
262.0, 0.9342854081318535
263.0, 0.9286141197731637
264.0, 0.9252936670150882
265.0, 0.9303936116350258
266.0, 0.9326642446715341
267.0, 0.9363325203822741
268.0, 0.9385238163224381
269.0, 0.9387312493408558
270.0, 0.9403701456962749
271.0, 0.9353146747527566
272.0, 0.934959413905635
273.0, 0.9340579195149492
274.0, 0.9301530321556618
275.0, 0.9445386280731178
276.0, 0.9481726640037434
277.0, 0.9427464714963655
278.0, 0.935798489104416
279.0, 0.9315346576440937
280.0, 0.9322717005510548
281.0, 0.9274857427299578
282.0, 0.9221729287879805
283.0, 0.9220005067015977
284.0, 0.9252966006865405
285.0, 0.9290875021494307
286.0, 0.9295514740478549
287.0, 0.9286965087306356
288.0, 0.9288663566282286
289.0, 0.925521644106522
290.0, 0.9278709017723804
291.0, 0.925879282617913
292.0, 0.922231340259315
293.0, 0.9304922423255862
294.0, 0.9348115543517436
295.0, 0.9355680770384337
296.0, 0.9351927994078557
297.0, 0.9336197365363218
298.0, 0.9281381500765468
299.0, 0.9310326402181057
300.0, 0.9371688096820355
301.0, 0.9382921430804038
302.0, 0.933551262080801
303.0, 0.936439706984129
304.0, 0.9447006470066711
305.0, 0.9451342164893094
306.0, 0.937466397157843
307.0, 0.9322868671553363
308.0, 0.9301303279125106
309.0, 0.9359394076078603
310.0, 0.9403268136266207
311.0, 0.9376643717557661
312.0, 0.934883335172342
313.0, 0.9458820799168941
314.0, 0.9492486874646087
315.0, 0.9442588750559324
316.0, 0.9417634536589274
317.0, 0.9484556309703884
318.0, 0.9443762956200957
319.0, 0.9427005510545678
320.0, 0.9409706981852763
321.0, 0.9320527265970602
322.0, 0.946416233863243
323.0, 0.9555403836116184
324.0, 0.9534603543740025
325.0, 0.9447836047979984
326.0, 0.9389209432949996
327.0, 0.9475301429427472
328.0, 0.9518199999681005
329.0, 0.9469228375894015
330.0, 0.9409255837005666
331.0, 0.9514012576019452
332.0, 0.944707239406923
333.0, 0.9453231395622221
334.0, 0.9545127176872518
335.0, 0.9619959516816077
336.0, 0.9531861971444736
337.0, 0.9436309026329494
338.0, 0.9447796228957962
339.0, 0.9539842115152056
340.0, 0.9604727608558783
341.0, 0.9613217273139743
342.0, 0.9513534732009244
343.0, 0.9499346869326705
344.0, 0.9540261995550896
345.0, 0.9469154628304797
346.0, 0.9574913269968239
347.0, 0.9615612855614913
348.0, 0.9564464754790828
349.0, 0.9525401369175536
350.0, 0.9622216282124895
351.0, 0.9681611778465963
352.0, 0.9627384038991244
353.0, 0.9530067082003589
354.0, 0.9498425330034787
355.0, 0.9568302193350127
356.0, 0.9650551583639738
357.0, 0.9648175275770381
358.0, 0.9634059951205586
359.0, 0.9653158492645655
360.0, 0.9609501995202072
361.0, 0.9583857995161592
362.0, 0.9546206281941834
363.0, 0.9546261625226268
364.0, 0.9623216578951803
365.0, 0.9686499153336913
366.0, 0.9623286983867482
367.0, 0.9572158667519902
368.0, 0.9561984767054508
369.0, 0.9544240153964662
370.0, 0.9498354310526971
371.0, 0.9582304497445544
372.0, 0.9621092358332562
373.0, 0.9600505969185933
374.0, 0.9612478251715989
375.0, 0.9539044497779352
376.0, 0.9551355932222914
377.0, 0.955431229756749
378.0, 0.9513936069171126
379.0, 0.9501845804042965
380.0, 0.9536022896662726
381.0, 0.9563465572942301
382.0, 0.9604065685936343
383.0, 0.9621997546324504
384.0, 0.9560663379968143
385.0, 0.9545419981026945
386.0, 0.9546674447438084
387.0, 0.9528725284389272
388.0, 0.9517307133773995
389.0, 0.956743190739319
390.0, 0.960218342206266
391.0, 0.9529369402440067
392.0, 0.9492780756659077
393.0, 0.9525090180607937
394.0, 0.9508672418451004
395.0, 0.9509195832755954
396.0, 0.9560298003819253
397.0, 0.9526806509748844
398.0, 0.9448708648342434
399.0, 0.9522362533235871
400.0, 0.9519498854555033
401.0, 0.9493526567838805
402.0, 0.9476810461222827
403.0, 0.9471771121478108
404.0, 0.9465285061997886
405.0, 0.9485041351285162
406.0, 0.9480243112598703
407.0, 0.948150658581092
408.0, 0.9511692063023686
409.0, 0.9538965040938766
410.0, 0.9510782417223289
411.0, 0.9504575643217397
412.0, 0.9532337391827486
413.0, 0.9564419225985431
414.0, 0.9568582418371071
415.0, 0.955074121659115
416.0, 0.951668915175986
417.0, 0.9498457983397389
418.0, 0.9482992221208197
419.0, 0.942727930896737
420.0, 0.9400442113912901
421.0, 0.940655722017677
422.0, 0.9420910255682746
423.0, 0.9431404326908558
424.0, 0.9445853388998989
425.0, 0.9490138612824435
426.0, 0.949863148233217
427.0, 0.9501803869967529
428.0, 0.9520459201833876
429.0, 0.9541436300916913
430.0, 0.9468836371052872
431.0, 0.9537094385940014
432.0, 0.9520307713790137
433.0, 0.9443902818275755
434.0, 0.9530393066135875
435.0, 0.9505888204608696
436.0, 0.9460544615386706
437.0, 0.9459098131279398
438.0, 0.9479662694435853
439.0, 0.9492557001633154
440.0, 0.9548005267073284
441.0, 0.9594206654488141
442.0, 0.9586361301408283
443.0, 0.9572268043425428
444.0, 0.958941758111731
445.0, 0.955530605106035
446.0, 0.9500280080620536
447.0, 0.9554095272562881
448.0, 0.9611016329727643
449.0, 0.9577550618284667
450.0, 0.95925609179647
451.0, 0.9508599116529456
452.0, 0.9549566876733994
453.0, 0.9611185357061008
454.0, 0.956702852650626
455.0, 0.9512306246809946
456.0, 0.9575676071283856
457.0, 0.9581046927483906
458.0, 0.9561860877876883
459.0, 0.9579311009107819
460.0, 0.9605989998149767
461.0, 0.9590945408427103
462.0, 0.9572497527979654
463.0, 0.9492729685778158
464.0, 0.9470633357975887
465.0, 0.9627703167019502
466.0, 0.9585508125218005
467.0, 0.9544209997960582
468.0, 0.9528255222380164
469.0, 0.9530380578457749
470.0, 0.9546744260005915
471.0, 0.9544879301042304
472.0, 0.9577603167786717
473.0, 0.9537707059066034
474.0, 0.9514670985149413
475.0, 0.9575328724004043
476.0, 0.9531347553828883
477.0, 0.947887161863287
478.0, 0.9494293265153686
479.0, 0.950612340219546
480.0, 0.9489081953239731
481.0, 0.9521188646512324
482.0, 0.9478035113998811
483.0, 0.9522204260140158
484.0, 0.9567506346022763
485.0, 0.9553178388325261
486.0, 0.951012037352691
487.0, 0.9465891067588307
488.0, 0.9457029059898001
489.0, 0.9482545521698159
490.0, 0.9483120534999309
491.0, 0.9430739987801781
492.0, 0.9434159096064076
493.0, 0.9458075794532045
494.0, 0.9489752633467718
495.0, 0.9518841081511686
496.0, 0.950840069499633
497.0, 0.9415331024130756
498.0, 0.9401242898222142
499.0, 0.9441651447066622
500.0, 0.9437053270606536
501.0, 0.9377107685882005
502.0, 0.9333615419376254
503.0, 0.9297903678182645
504.0, 0.9323523143444649
505.0, 0.93438439560577
506.0, 0.9317203774111625
507.0, 0.9269809323963605
508.0, 0.9300227101803761
509.0, 0.9241385376734879
510.0, 0.9211318256074352
511.0, 0.919699802039336
512.0, 0.9177705529893819
513.0, 0.9190379974815301
514.0, 0.9089999336390641
515.0, 0.911665109593494
516.0, 0.9098489361487561
517.0, 0.9005509433745401
518.0, 0.8989470773929117
519.0, 0.8997924872395647
520.0, 0.8921716073167304
521.0, 0.8872046853628098
522.0, 0.8846918312815437
523.0, 0.8813739720992939
524.0, 0.8820795846545062
525.0, 0.8823312379762096
526.0, 0.8810972412308344
527.0, 0.8810589015788196
528.0, 0.8800709850787353
529.0, 0.8734373300180759
530.0, 0.8678108114297834
531.0, 0.8580188539568392
532.0, 0.8520065010256359
533.0, 0.8510182875847463
534.0, 0.8499521252427006
535.0, 0.8437965316017231
536.0, 0.8409211526512328
537.0, 0.8341804753475593
538.0, 0.8303216302867719
539.0, 0.8308910590723685
540.0, 0.827664872605867
541.0, 0.8264557239647518
542.0, 0.82607871132983
543.0, 0.8215278247279577
544.0, 0.8159047743738091
545.0, 0.8131320064164924
546.0, 0.8085482409099488
547.0, 0.8037940724733789
548.0, 0.8003162848585572
549.0, 0.7993585840801354
550.0, 0.7988677879718211
551.0, 0.794676056124092
552.0, 0.789182831440494
553.0, 0.7902691987694166
554.0, 0.788511465094914
555.0, 0.7840301378447441
556.0, 0.7799136290928713
557.0, 0.77138760645028
558.0, 0.7709163603709359
559.0, 0.7700774082905307
560.0, 0.7672201630140908
561.0, 0.7666976305007459
562.0, 0.7701084644633918
563.0, 0.765658928603403
564.0, 0.7600787886772121
565.0, 0.75939334756573
566.0, 0.7599308097373232
567.0, 0.7565380972699608
568.0, 0.7502649957140202
569.0, 0.7466829141633082
570.0, 0.7457909504245636
571.0, 0.7448212323829155
572.0, 0.7397254728379927
573.0, 0.7324723547356949
574.0, 0.7336516927340203
575.0, 0.7279362699068153
576.0, 0.730537619070042
577.0, 0.7250015492868531
578.0, 0.7146060441052763
579.0, 0.72283278372157
580.0, 0.722046552662202
581.0, 0.7166603053943833
582.0, 0.7057798214481708
583.0, 0.7006638922777617
584.0, 0.7031299281290745
585.0, 0.697507792833345
586.0, 0.695268774157858
587.0, 0.684119518773714
588.0, 0.6768320833328012
589.0, 0.6756002675674222
590.0, 0.6728869046012431
591.0, 0.6658116674831464
592.0, 0.6698906805662174
593.0, 0.6661276421213873
594.0, 0.6578276985333844
595.0, 0.6520545009712918
596.0, 0.6484517695747329
597.0, 0.6452931671984722
598.0, 0.6360243602992735
599.0, 0.6267476250115743
600.0, 0.6242375495786291
601.0, 0.6254308758589018
602.0, 0.621019930611466
603.0, 0.6130045198878895
604.0, 0.6072516478549483
605.0, 0.5987639391534209
606.0, 0.592722788411394
607.0, 0.5930530400574197
608.0, 0.5918547437493964
609.0, 0.5907347716066211
610.0, 0.5896375615127888
611.0, 0.5822135727629627
612.0, 0.5764834776421471
613.0, 0.5773487029739625
614.0, 0.5692768521844993
615.0, 0.5682177243469704
616.0, 0.5626130976854818
617.0, 0.558435383529929
618.0, 0.558655524709108
619.0, 0.5584493680878329
620.0, 0.5533240740541868
621.0, 0.5507921483337418
622.0, 0.5460191793013236
623.0, 0.5395314028871158
624.0, 0.5376299481978573
625.0, 0.541156567844604
626.0, 0.5344776768703926
627.0, 0.5328804507364931
628.0, 0.5299507702589812
629.0, 0.5275511186623898
630.0, 0.5277004663506999
631.0, 0.5276025609561436
632.0, 0.5256454502554735
633.0, 0.5283496610724888
634.0, 0.5263732498004076
635.0, 0.5250708292535576
636.0, 0.5262975076419536
637.0, 0.5235672524143384
638.0, 0.525530430374667
639.0, 0.5205814897425997
640.0, 0.5184426531995813
641.0, 0.516902541198301
642.0, 0.5125468821249686
643.0, 0.5088780384351205
644.0, 0.504093187204783
645.0, 0.5022705889353364
646.0, 0.5085906203867879
647.0, 0.5109718880555044
648.0, 0.502992994527062
649.0, 0.4959040272607138
650.0, 0.4982614080400561
651.0, 0.4972343594994131
652.0, 0.4917386558847741
653.0, 0.4924442089052787
654.0, 0.49489129414298805
655.0, 0.4863586963399251
656.0, 0.49012831806876234
657.0, 0.48149441417260225
658.0, 0.4792850442396984
659.0, 0.4829474513578546
660.0, 0.4847043120362209
661.0, 0.4820204324984252
662.0, 0.4808724203786837
663.0, 0.47034146873964916
664.0, 0.4641787818338076
665.0, 0.4647606512738777
666.0, 0.4651938320971085
667.0, 0.4626378920292667
668.0, 0.4652450894652967
669.0, 0.4548387098523379
670.0, 0.44900593633055946
671.0, 0.44640525479584453
672.0, 0.4448634316310482
673.0, 0.4466042765747871
674.0, 0.44517325657390994
675.0, 0.44129019215914533
676.0, 0.4354884594266429
677.0, 0.43320164462160965
678.0, 0.43351530822846607
679.0, 0.43080333250595715
680.0, 0.42581529666594853
681.0, 0.42479420714466226
682.0, 0.41871211162660044
683.0, 0.4138625599153335
684.0, 0.4112485058405109
685.0, 0.4084467237108217
686.0, 0.4106628694930148
687.0, 0.4020899731910899
688.0, 0.3956388713565901
689.0, 0.39358413941337606
690.0, 0.39654367449738503
691.0, 0.394885498619136
692.0, 0.3778171536469614
693.0, 0.3824947327313965
694.0, 0.37929706119050505
695.0, 0.3758819183346484
696.0, 0.37238345065674133
697.0, 0.3684410550291768
698.0, 0.3718752218012309
699.0, 0.3696844959146421
700.0, 0.361256474147852
701.0, 0.3592849434105975
702.0, 0.35765626598032874
703.0, 0.3531625513610291
704.0, 0.34987807369943785
705.0, 0.3414350945767752
706.0, 0.33954096544345025
707.0, 0.33761636483690144
708.0, 0.3413908415436807
709.0, 0.34291412614747907
710.0, 0.33490966595897376
711.0, 0.33146801588680413
712.0, 0.32131673066242233
713.0, 0.3192218403343562
714.0, 0.32225205851259076
715.0, 0.324248232822014
716.0, 0.32356926757213134
717.0, 0.321882086594179
718.0, 0.3165011070863193
719.0, 0.3091968693396962
720.0, 0.304804608193032
721.0, 0.30661259366594534
722.0, 0.30576455729394636
723.0, 0.2970962515740389
724.0, 0.3006800389615873
725.0, 0.29730174109166796
726.0, 0.29500162409961433
727.0, 0.29480907041310894
728.0, 0.2930689873486726
729.0, 0.28974509029746237
730.0, 0.29044363397620593
731.0, 0.290584578023089
732.0, 0.2889226984175247
733.0, 0.28309272374295347
734.0, 0.27802093004212525
735.0, 0.27738404263560457
736.0, 0.27843900143062905
737.0, 0.2744705442249955
738.0, 0.2747872418525284
739.0, 0.2725909366990393
740.0, 0.2724975406139094
741.0, 0.26986471958459757
742.0, 0.2633844442936389
743.0, 0.26678767138519793
744.0, 0.2646873140363997
745.0, 0.26308088819055286
746.0, 0.25968087304896725
747.0, 0.25694031254379196
748.0, 0.25518348158124776
749.0, 0.2519356795419573
750.0, 0.25017194940154724
751.0, 0.2480184754463667
752.0, 0.24572194723672858
753.0, 0.24444631477236226
754.0, 0.24454670203672646
755.0, 0.2455562063719661
756.0, 0.24614955142622766
757.0, 0.24363402749279275
758.0, 0.2406442109366104
759.0, 0.23878642045701345
760.0, 0.23683659996607326
761.0, 0.23659941427552575
762.0, 0.2377607611345337
763.0, 0.2332838258374091
764.0, 0.23075590547978247
765.0, 0.2300447597041996
766.0, 0.2285744361988844
767.0, 0.22705006020257995
768.0, 0.22445628756823352
769.0, 0.21954117607175974
770.0, 0.22027868155990174
771.0, 0.2247360871484589
772.0, 0.21747083758726707
773.0, 0.21611787616113762
774.0, 0.21703228231028832
775.0, 0.21327775947812408
776.0, 0.21487829078805093
777.0, 0.20665528308817102
778.0, 0.20539107240539592
779.0, 0.20483218072320705
780.0, 0.2050887478959462
781.0, 0.200297204345911
782.0, 0.19226658686706416
783.0, 0.1996389626366438
784.0, 0.19744253993292554
785.0, 0.1914192999025706
786.0, 0.19137664295950232
787.0, 0.19175722325713485
788.0, 0.18960860347599712
789.0, 0.18829604179772275
790.0, 0.18562488605119226
791.0, 0.18203178457001362
792.0, 0.1788947657997527
793.0, 0.18097341604927175
794.0, 0.17787030996814232
795.0, 0.17182143396726124
796.0, 0.17320759089174115
797.0, 0.16614278689377646
798.0, 0.1645858448874302
799.0, 0.15991264535305652
800.0, 0.1593310562159873
801.0, 0.16055265860821186
802.0, 0.15870001183207327
803.0, 0.15564511816702434
804.0, 0.1527094351313394
805.0, 0.15567155505140318
806.0, 0.1495936711765319
807.0, 0.14310810739907928
808.0, 0.1423490566399943
809.0, 0.1425540771280984
810.0, 0.13988945737444544
811.0, 0.14767659402508423
812.0, 0.13763409950654562
813.0, 0.13434434119784985
814.0, 0.13354670962515233
815.0, 0.13591094379412152
816.0, 0.13803185638428267
817.0, 0.13139185404985707
818.0, 0.13203096131272682
819.0, 0.12966129688858158
820.0, 0.1285782839480454
821.0, 0.12864185239475087
822.0, 0.1296841340225982
823.0, 0.13038457850529012
824.0, 0.1284514916911105
825.0, 0.12537625667597396
826.0, 0.11738248596890727
827.0, 0.12032726911712295
828.0, 0.1231595389406934
829.0, 0.12364267284213436
830.0, 0.1245002840047376
831.0, 0.12651372885302184
832.0, 0.1336975747486917
833.0, 0.1267101176289476
834.0, 0.13007812627110885
835.0, 0.13618245145422286
836.0, 0.13792611558404513
837.0, 0.13477091222448326
838.0, 0.1317619607836399
839.0, 0.1362291913351236
840.0, 0.1400731759014191
841.0, 0.14723142497193076
842.0, 0.148675323688692
843.0, 0.14821496838737072
844.0, 0.15228435931700396
845.0, 0.1591611456942372
846.0, 0.16122257605712706
847.0, 0.1644612183492053
848.0, 0.16364189542682253
849.0, 0.1652393311318914
850.0, 0.17279466000783877
851.0, 0.17955506574403593
852.0, 0.18199431509448402
853.0, 0.18867029594119525
854.0, 0.2005274097286802
855.0, 0.20175981319652256
856.0, 0.20227731317063832
857.0, 0.2072886717949189
858.0, 0.21226381997027383
859.0, 0.21501033059183527
860.0, 0.21890427694170558
861.0, 0.22481481470137182
862.0, 0.22796475467484084
863.0, 0.235339317660439
864.0, 0.24629119399368724
865.0, 0.24986262859963887
866.0, 0.25287186934572287
867.0, 0.26070470346622254
868.0, 0.2582577960812742
869.0, 0.26811617339401334
870.0, 0.2765868057136308
871.0, 0.2783466925630152
872.0, 0.2836906856244934
873.0, 0.2903370677989675
874.0, 0.29320522825361245
875.0, 0.2982049988044243
876.0, 0.30911782639279634
877.0, 0.30983158140652367
878.0, 0.31460027753648667
879.0, 0.32252357607015
880.0, 0.3256111202485349
881.0, 0.3288316589407329
882.0, 0.33604503942510006
883.0, 0.33599261329136204
884.0, 0.3428948974594344
885.0, 0.352743516627111
886.0, 0.3623774757577136
887.0, 0.3667985087889849
888.0, 0.3707924401602417
889.0, 0.37832092542232465
890.0, 0.38491802530552827
891.0, 0.3870118258385312
892.0, 0.3871534001735072
893.0, 0.3956503029452538
894.0, 0.40297211642523
895.0, 0.40420771954831924
896.0, 0.41074252703205
897.0, 0.42172305300127716
898.0, 0.42029609151295283
899.0, 0.4284226549356663
900.0, 0.4320224703812214
901.0, 0.43732282917244913
902.0, 0.44073823416097374
903.0, 0.448787387392395
904.0, 0.4585872445851516
905.0, 0.4612801370094275
906.0, 0.46537435571175856
907.0, 0.46934158413301946
908.0, 0.4756547996352265
909.0, 0.4772483945518467
910.0, 0.4852577762490487
911.0, 0.491899144311456
912.0, 0.4944670615370645
913.0, 0.5024640292729369
914.0, 0.5066555474830902
915.0, 0.5037554488318103
916.0, 0.5191347419065999
917.0, 0.5188680595660701
918.0, 0.5242389671270151
919.0, 0.531705900533367
920.0, 0.5310260303747861
921.0, 0.5375110447645862
922.0, 0.5398194754923183
923.0, 0.5398476419910321
924.0, 0.5505694249678271
925.0, 0.5571257842657239
926.0, 0.5590428958024808
927.0, 0.5612368520901622
928.0, 0.5654047454433025
929.0, 0.5719147705176834
930.0, 0.5781885147835364
931.0, 0.5784095155919096
932.0, 0.5807151827295018
933.0, 0.5840508452757999
934.0, 0.5847841292988133
935.0, 0.5847483775315311
936.0, 0.5900495502386949
937.0, 0.6005555705259651
938.0, 0.6038383457762665
939.0, 0.6053984212027573
940.0, 0.6108344184286763
941.0, 0.613484750110174
942.0, 0.6147063448543629
943.0, 0.6191017927574718
944.0, 0.6241201717784817
945.0, 0.6263834077150213
946.0, 0.6354339642743564
947.0, 0.6376789933875301
948.0, 0.6358491362076188
949.0, 0.6399926875882777
950.0, 0.646662877197536
951.0, 0.6478637623112339
952.0, 0.64950495002809
953.0, 0.6580856904401642
954.0, 0.6579103463913237
955.0, 0.6597330767898293
956.0, 0.6642446514894207
957.0, 0.6631397237533175
958.0, 0.6685154312150005
959.0, 0.6760909961180892
960.0, 0.6804982020544843
961.0, 0.6820581090957532
962.0, 0.6783646464545692
963.0, 0.6853644337148257
964.0, 0.6871459296548966
965.0, 0.6928125311224357
966.0, 0.702550623341644
967.0, 0.706253434370186
968.0, 0.7063107783407204
969.0, 0.7068245519969842
970.0, 0.7008260632535505
971.0, 0.7002654517781247
972.0, 0.7090261746096221
973.0, 0.7127584534054258
974.0, 0.7118163098059617
975.0, 0.7143227596701767
976.0, 0.7159740857828678
977.0, 0.7184694155534083
978.0, 0.7248353803563442
979.0, 0.7216749339787364
980.0, 0.7297177461144813
981.0, 0.7402653892541851
982.0, 0.739925091413641
983.0, 0.737939745105303
984.0, 0.7384232662998803
985.0, 0.7425453491699762
986.0, 0.7460398119142058
987.0, 0.7441527364938558
988.0, 0.7491034572436792
989.0, 0.7462158894792172
990.0, 0.7505664744507021
991.0, 0.7592081294661521
992.0, 0.7584527514805378
993.0, 0.7557942415629465
994.0, 0.7573163408440517
995.0, 0.7589509350045396
996.0, 0.7623571571767772
997.0, 0.764292259698199
998.0, 0.7666722254763217
999.0, 0.768234210937198
1000.0, 0.7693430928281679
1001.0, 0.7684637434882553
1002.0, 0.7691868723792749
1003.0, 0.7744505636950382
1004.0, 0.7780465656154734
1005.0, 0.773476765708048
1006.0, 0.7777831706225765
1007.0, 0.7755328572486768
1008.0, 0.7764979190915104
1009.0, 0.777622440324851
1010.0, 0.7783499306345504
1011.0, 0.7743722145641141
1012.0, 0.7696859889816491
1013.0, 0.7737863147473119
1014.0, 0.7737134250967852
1015.0, 0.7767978367808251
1016.0, 0.7717952113229766
1017.0, 0.7691405669159543
1018.0, 0.7705812335222355
1019.0, 0.7728862726936386
1020.0, 0.769974587479934
1021.0, 0.7659025825657165
1022.0, 0.7715907484198661
1023.0, 0.7728584293186139
1024.0, 0.7657158495370603
1025.0, 0.7655590467803726
1026.0, 0.7562643170273641
1027.0, 0.7551582143994781
1028.0, 0.7607069628884048
1029.0, 0.7575586953577267
1030.0, 0.751293729237416
1031.0, 0.7525646189777033
1032.0, 0.7455672080273497
1033.0, 0.7503643341332698
1034.0, 0.7488791182269436
1035.0, 0.7445208187006707
1036.0, 0.7420524873430437
1037.0, 0.7308347975506088
1038.0, 0.7233025000660498
1039.0, 0.7251485623511197
1040.0, 0.7174340093150345
1041.0, 0.708843634529218
1042.0, 0.7110861836447143
1043.0, 0.7020927936526172
1044.0, 0.6975284922992288
1045.0, 0.6864627260044343
1046.0, 0.6874451602393741
1047.0, 0.6857291594797813
1048.0, 0.6751616073319261
1049.0, 0.6728801094979927
1050.0, 0.6696718049320928
1051.0, 0.6634088097144542
1052.0, 0.6601163988019364
1053.0, 0.6555978046914098
1054.0, 0.6468472533155126
1055.0, 0.638703971701118
1056.0, 0.6346635437275518
1057.0, 0.6299116613873814
1058.0, 0.6202321603853388
1059.0, 0.6097150619959515
1060.0, 0.6037820824813118
1061.0, 0.5979032145445073
1062.0, 0.5910557744382193
1063.0, 0.5861286735007808
1064.0, 0.583884497823786
1065.0, 0.5744779743414317
1066.0, 0.5637834624631651
1067.0, 0.5548790811713515
1068.0, 0.5445123631182279
1069.0, 0.541542273788665
1070.0, 0.5349882426931053
1071.0, 0.5312386191202783
1072.0, 0.5240360577893768
1073.0, 0.5150210519729014
1074.0, 0.5012857332572773
1075.0, 0.49580200539494274
1076.0, 0.4894322723608114
1077.0, 0.4786465514866711
1078.0, 0.4773186065639108
1079.0, 0.46550461421838807
1080.0, 0.45923053754797954
1081.0, 0.45821395724925607
1082.0, 0.448298974375897
1083.0, 0.4437580421184852
1084.0, 0.4340026537055684
1085.0, 0.4250120700914484
1086.0, 0.4180845214411206
1087.0, 0.4096951012316638
1088.0, 0.4046014632682398
1089.0, 0.39621258003226584
1090.0, 0.3877390464765379
1091.0, 0.3807774512575133
1092.0, 0.3788981305630671
1093.0, 0.37055062253388366
1094.0, 0.36333676777206564
1095.0, 0.3598990760338776
1096.0, 0.3507433686433418
1097.0, 0.34135686594456754
1098.0, 0.3391492769608304
1099.0, 0.32929125427463546
1100.0, 0.33473311454197074
1101.0, 0.3214699280112802
1102.0, 0.3119068887580657
1103.0, 0.3081662829785304
1104.0, 0.2992814501996246
1105.0, 0.29625369775177085
1106.0, 0.29544896799133746
1107.0, 0.28750580274469656
1108.0, 0.2790314202308906
1109.0, 0.2701992441358262
1110.0, 0.2683661269097378
1111.0, 0.2678893482042625
1112.0, 0.2526789693307968
1113.0, 0.24837586675370835
1114.0, 0.24955778471269632
1115.0, 0.24741196067885177
1116.0, 0.2408309151673313
1117.0, 0.23348136285659923
1118.0, 0.22909987747530064
1119.0, 0.22738533639362546
1120.0, 0.2255084345797289
1121.0, 0.2193812814038714
1122.0, 0.21450725209562332
1123.0, 0.20951508062153082
1124.0, 0.20155477872114003
1125.0, 0.19790939954860057
1126.0, 0.1933882815031883
1127.0, 0.1904654103418738
1128.0, 0.19059164035832007
1129.0, 0.1844555720657766
1130.0, 0.1781010979225324
1131.0, 0.1828636352365336
1132.0, 0.17169772063731073
1133.0, 0.17099468158598544
1134.0, 0.16513862429188572
1135.0, 0.1625057150615259
1136.0, 0.16044506732146288
1137.0, 0.16095013787981644
1138.0, 0.157103667328149
1139.0, 0.14670825467961332
1140.0, 0.14508268545428557
1141.0, 0.14760385245275645
1142.0, 0.14694446501495667
1143.0, 0.13890591097885088
1144.0, 0.1343249179497394
1145.0, 0.13754816802759237
1146.0, 0.13080724241135155
1147.0, 0.1277643751757431
1148.0, 0.13168096976451063
1149.0, 0.12714595671479303
1150.0, 0.11871229494009505
1151.0, 0.11840241124292648
1152.0, 0.11362948994171326
1153.0, 0.10972836783887516
1154.0, 0.10988059851699593
1155.0, 0.10760775356011007
1156.0, 0.10325713840436286
1157.0, 0.0988978321778023
1158.0, 0.09458272560706182
1159.0, 0.09241908761440584
1160.0, 0.0961148841067357
1161.0, 0.09911201885072864
1162.0, 0.09414743723519538
1163.0, 0.09202118076404095
1164.0, 0.08788789837585823
1165.0, 0.08381376406679615
1166.0, 0.08394964635658875
1167.0, 0.08359782598035848
1168.0, 0.07733671066988458
1169.0, 0.07643289655248578
1170.0, 0.07822546478098547
1171.0, 0.0757770819382508
1172.0, 0.07198430073526907
1173.0, 0.07284639366296473
1174.0, 0.07572971027758219
1175.0, 0.0739217545589555
1176.0, 0.07288883931689272
1177.0, 0.06513609491679277
1178.0, 0.06499605908211246
1179.0, 0.06222612711827794
1180.0, 0.06035285962490962
1181.0, 0.05936912820402646
1182.0, 0.05895682856441371
1183.0, 0.058481671278868386
1184.0, 0.0533943475036344
1185.0, 0.055844100778693895
1186.0, 0.06103669260552783
1187.0, 0.05507817064571641
1188.0, 0.05336849053051629
1189.0, 0.052319031355434094
1190.0, 0.05032339590490184
1191.0, 0.04666239247080124
1192.0, 0.046999572543609036
1193.0, 0.041354104830919156
1194.0, 0.03985805895940332
1195.0, 0.04303043704944239
1196.0, 0.04287213636672548
1197.0, 0.045952806235545963
1198.0, 0.04385937511440813
1199.0, 0.033618778320679985
1200.0, 0.04024264671749868
1201.0, 0.030554548640001816
1202.0, 0.030310950169503425
1203.0, 0.03271990645921924
1204.0, 0.036518002649734004
1205.0, 0.03627260876789738
1206.0, 0.0328620631891642
1207.0, 0.03417778371559531
1208.0, 0.03659966786690154
1209.0, 0.03275038595406532
1210.0, 0.028428342137395136
1211.0, 0.02336912597413646
1212.0, 0.027305286096709337
1213.0, 0.026446944983739357
1214.0, 0.028499126641878463
1215.0, 0.029924827737194258
1216.0, 0.02312636408447811
1217.0, 0.022493333472959395
1218.0, 0.02230442155190277
1219.0, 0.023472216133287014
1220.0, 0.02372021763635288
1221.0, 0.01802285798621565
1222.0, 0.019486664199805197
1223.0, 0.026324544528179603
1224.0, 0.022862734579353554
1225.0, 0.020220046983529857
1226.0, 0.016466584588886446
1227.0, 0.017721693608465434
1228.0, 0.01818201037687259
1229.0, 0.01547590976088613
1230.0, 0.019274361183859536
1231.0, 0.019967517454069796
1232.0, 0.015693518514821952
1233.0, 0.015119910341027646
1234.0, 0.014566578415941554
1235.0, 0.01295789360681916
1236.0, 0.017678224505078423
1237.0, 0.015693886496649382
1238.0, 0.00923889776013125
1239.0, 0.012677111972517991
1240.0, 0.014615413754330248
1241.0, 0.01353572857188398
1242.0, 0.009559313687191899
1243.0, 0.01043182210054528
1244.0, 0.014764478893121465
1245.0, 0.018857921997113957
1246.0, 0.018521152379192555
1247.0, 0.01387276742806219
1248.0, 0.010608836109151053
1249.0, 0.008157024562546132
1250.0, 0.012448065783391344
1251.0, 0.011063852889285018
1252.0, 0.015072971408989303
1253.0, 0.014649892832205458
1254.0, 0.011136483052625311
1255.0, 0.008663901154901288
1256.0, 0.008498143840411768
1257.0, 0.012130581961536536
1258.0, 0.009797618419108497
1259.0, 0.010832077834915835
1260.0, 0.013908145431008124
1261.0, 0.010371985055448089
1262.0, 0.014137027878220685
1263.0, 0.011808055388704747
1264.0, 0.008449437745640486
1265.0, 0.009048523114723211
1266.0, 0.010946705424319346
1267.0, 0.011815691761601483
1268.0, 0.013755773955492647
1269.0, 0.013893216168252658
1270.0, 0.011483594911374228
1271.0, 0.011933273705111436
1272.0, 0.01218976703882937
1273.0, 0.012635706017247525
1274.0, 0.013026528639809609
1275.0, 0.009264839729052525
1276.0, 0.006601957978810131
1277.0, 0.01112314221142973
1278.0, 0.013201200591711634
1279.0, 0.010858257792084625
1280.0, 0.010487620095100628
1281.0, 0.010188013890404022
1282.0, 0.009685042287405432
1283.0, 0.009989804678470448
1284.0, 0.008512047153831364
1285.0, 0.009354017075251998
1286.0, 0.008908608070662145
1287.0, 0.01217000051494956
1288.0, 0.013827715652831548
1289.0, 0.009093767427030363
1290.0, 0.005486857710880756
1291.0, 0.0041869959856713
1292.0, 0.014615573246454044
1293.0, 0.011233743249674355
1294.0, 0.006281577338309359
1295.0, 0.005525923616076958
1296.0, 0.0037183568782417353
1297.0, 0.00035363003686474445
1298.0, 0.006265223107620098
1299.0, 0.00932545098591668
1300.0, 0.008251617764485835
1301.0, 0.002490578758994383
1302.0, 0.0031115585934582326
1303.0, 0.007888236515060737
1304, 0.0
1305, 0.0
1306, 0.0
1307, 0.0
1308, 0.0
1309, 0.0
1310, 0.0
1311, 0.0
1312, 0.0
1313, 0.0
1314, 0.0
1315, 0.0
1316, 0.0
1317, 0.0
1318, 0.0
1319, 0.0
1320, 0.0
1321, 0.0
1322, 0.0
1323, 0.0
1324, 0.0
1325, 0.0
1326, 0.0
1327, 0.0
1328, 0.0
1329, 0.0
1330, 0.0
1331, 0.0
1332, 0.0
1333, 0.0
1334, 0.0
1335, 0.0
1336, 0.0
1337, 0.0
1338, 0.0
1339, 0.0
1340, 0.0
1341, 0.0
1342, 0.0
1343, 0.0
1344, 0.0
1345, 0.0
1346, 0.0
1347, 0.0
1348, 0.0
1349, 0.0
1350, 0.0
1351, 0.0
1352, 0.0
1353, 0.0
1354, 0.0
1355, 0.0
1356, 0.0
1357, 0.0
1358, 0.0
1359, 0.0
1360, 0.0
1361, 0.0
1362, 0.0
1363, 0.0
1364, 0.0
1365, 0.0
1366, 0.0
1367, 0.0
1368, 0.0
1369, 0.0
1370, 0.0
1371, 0.0
1372, 0.0
1373, 0.0
1374, 0.0
1375, 0.0
1376, 0.0
1377, 0.0
1378, 0.0
1379, 0.0
1380, 0.0
1381, 0.0
1382, 0.0
1383, 0.0
1384, 0.0
1385, 0.0
1386, 0.0
1387, 0.0
1388, 0.0
1389, 0.0
1390, 0.0
1391, 0.0
1392, 0.0
1393, 0.0
1394, 0.0
1395, 0.0
1396, 0.0
1397, 0.0
1398, 0.0
1399, 0.0
1400, 0.0
1401, 0.0
1402, 0.0
1403, 0.0
1404, 0.0
1405, 0.0
1406, 0.0
1407, 0.0
1408, 0.0
1409, 0.0
1410, 0.0
1411, 0.0
1412, 0.0
1413, 0.0
1414, 0.0
1415, 0.0
1416, 0.0
1417, 0.0
1418, 0.0
1419, 0.0
1420, 0.0
1421, 0.0
1422, 0.0
1423, 0.0
1424, 0.0
1425, 0.0
1426, 0.0
1427, 0.0
1428, 0.0
1429, 0.0
1430, 0.0
1431, 0.0
1432, 0.0
1433, 0.0
1434, 0.0
1435, 0.0
1436, 0.0
1437, 0.0
1438, 0.0
1439, 0.0
1440, 0.0
1441, 0.0
1442, 0.0
1443, 0.0
1444, 0.0
1445, 0.0
1446, 0.0
1447, 0.0
1448, 0.0
1449, 0.0
1450, 0.0
1451, 0.0
1452, 0.0
1453, 0.0
1454, 0.0
1455, 0.0
1456, 0.0
1457, 0.0
1458, 0.0
1459, 0.0
1460, 0.0
1461, 0.0
1462, 0.0
1463, 0.0
1464, 0.0
1465, 0.0
1466, 0.0
1467, 0.0
1468, 0.0
1469, 0.0
1470, 0.0
1471, 0.0
1472, 0.0
1473, 0.0
1474, 0.0
1475, 0.0
1476, 0.0
1477, 0.0
1478, 0.0
1479, 0.0
1480, 0.0
1481, 0.0
1482, 0.0
1483, 0.0
1484, 0.0
1485, 0.0
1486, 0.0
1487, 0.0
1488, 0.0
1489, 0.0
1490, 0.0
1491, 0.0
1492, 0.0
1493, 0.0
1494, 0.0
1495, 0.0
1496, 0.0
1497, 0.0
1498, 0.0
1499, 0.0
1500, 0.0
1501, 0.0
1502, 0.0
1503, 0.0
1504, 0.0
1505, 0.0
1506, 0.0
1507, 0.0
1508, 0.0
1509, 0.0
1510, 0.0
1511, 0.0
1512, 0.0
1513, 0.0
1514, 0.0
1515, 0.0
1516, 0.0
1517, 0.0
1518, 0.0
1519, 0.0
1520, 0.0
1521, 0.0
1522, 0.0
1523, 0.0
1524, 0.0
1525, 0.0
1526, 0.0
1527, 0.0
1528, 0.0
1529, 0.0
1530, 0.0
1531, 0.0
1532, 0.0
1533, 0.0
1534, 0.0
1535, 0.0
1536, 0.0
1537, 0.0
1538, 0.0
1539, 0.0
1540, 0.0
1541, 0.0
1542, 0.0
1543, 0.0
1544, 0.0
1545, 0.0
1546, 0.0
1547, 0.0
1548, 0.0
1549, 0.0
1550, 0.0
1551, 0.0
1552, 0.0
1553, 0.0
1554, 0.0
1555, 0.0
1556, 0.0
1557, 0.0
1558, 0.0
1559, 0.0
1560, 0.0
1561, 0.0
1562, 0.0
1563, 0.0
1564, 0.0
1565, 0.0
1566, 0.0
1567, 0.0
1568, 0.0
1569, 0.0
1570, 0.0
1571, 0.0
1572, 0.0
1573, 0.0
1574, 0.0
1575, 0.0
1576, 0.0
1577, 0.0
1578, 0.0
1579, 0.0
1580, 0.0
1581, 0.0
1582, 0.0
1583, 0.0
1584, 0.0
1585, 0.0
1586, 0.0
1587, 0.0
1588, 0.0
1589, 0.0
1590, 0.0
1591, 0.0
1592, 0.0
1593, 0.0
1594, 0.0
1595, 0.0
1596, 0.0
1597, 0.0
1598, 0.0
1599, 0.0
