30, 0.0
31, 0.0
32, 0.0
33, 0.0
34, 0.0
35, 0.0
36, 0.0
37, 0.0
38, 0.0
39, 0.0
40, 0.0
41, 0.0
42, 0.0
43, 0.0
44, 0.0
45, 0.0
46, 0.0
47, 0.0
48, 0.0
49, 0.0
50, 0.0
51, 0.0
52, 0.0
53, 0.0
54, 0.0
55, 0.0
56, 0.0
57, 0.0
58, 0.0
59, 0.0
60, 0.0
61, 0.0
62, 0.0
63, 0.0
64, 0.0
65, 0.0
66, 0.0
67, 0.0
68, 0.0
69, 0.0
70, 0.0
71, 0.0
72, 0.0
73, 0.0
74, 0.0
75, 0.0
76, 0.0
77, 0.0
78, 0.0
79, 0.0
80, 0.0
81, 0.0
82, 0.0
83, 0.0
84, 0.0
85, 0.0
86, 0.0
87, 0.0
88, 0.0
89, 0.0
90, 0.0
91, 0.0
92, 0.0
93, 0.0
94, 0.0
95, 0.0
96, 0.0
97, 0.0
98, 0.0
99, 0.0
100, 0.0
101, 0.0
102, 0.0
103, 0.0
104, 0.0
105, 0.0
106, 0.0
107, 0.0
108, 0.0
109, 0.0
110, 0.0
111, 0.0
112, 0.0
113, 0.0
114, 0.0
115, 0.0
116, 0.0
117, 0.0
118, 0.0
119, 0.0
120, 0.0
121, 0.0
122, 0.0
123, 0.0
124, 0.0
125, 0.0
126, 0.0
127, 0.0
128, 0.0
129, 0.0
130, 0.0
131, 0.0
132, 0.0
133, 0.0
134, 0.0
135, 0.0
136, 0.0
137, 0.0
138, 0.0
139, 0.0
140, 0.0
141, 0.0
142, 0.0
143, 0.0
144, 0.0
145, 0.0
146, 0.0
147, 0.0
148, 0.0
149, 0.0
150, 0.0
151, 0.0
152, 0.0
153, 0.0
154, 0.0
155, 0.0
156.0, 0.0004691980655738262
157.0, 0.005761368605597185
158.0, 0.005953634693047581
159.0, 0.008602702009816363
160.0, 0.010337195820979828
161.0, 0.007691694925822582
162.0, 0.0031324810772990837
163.0, 0.00042047516662578344
164.0, 0.001412026345701926
165.0, 0.0005687807199290611
166.0, 0.004484725583619323
167.0, 0.011043829326999257
168.0, 0.023203945624635316
169.0, 0.03301286065824408
170.0, 0.04646194238695361
171.0, 0.06500039956036195
172.0, 0.08060633272136368
173.0, 0.09972261105443576
174.0, 0.12121422978080855
175.0, 0.14468652467027834
176.0, 0.17074183105795526
177.0, 0.19610045808474963
178.0, 0.21968772452530372
179.0, 0.23925612814236824
180.0, 0.25261649764869876
181.0, 0.2596752438632777
182.0, 0.25303799381948244
183.0, 0.23915166074218677
184.0, 0.22359943147968708
185.0, 0.20571947428728515
186.0, 0.18344293468693096
187.0, 0.1611557979445839
188.0, 0.14173109129787198
189.0, 0.1252798938066101
190.0, 0.11180257620892632
191.0, 0.10097473563153249
192.0, 0.09264162130669637
193.0, 0.08615972934357459
194.0, 0.07830100377195968
195.0, 0.0741577284701184
196.0, 0.07180973214944561
197.0, 0.06917495266625724
198.0, 0.06689327264962892
199.0, 0.06777444641168498
200.0, 0.06748319123993057
201.0, 0.06702580001446416
202.0, 0.07066467126584605
203.0, 0.07296918376232456
204.0, 0.07636809756807032
205.0, 0.08118336555961882
206.0, 0.08559036637932863
207.0, 0.08649548354023766
208.0, 0.09289722913467648
209.0, 0.1018709630925404
210.0, 0.10975804887247363
211.0, 0.1146621808674462
212.0, 0.11998332935591369
213.0, 0.1259423951379285
214.0, 0.13032453591866283
215.0, 0.13100557274362998
216.0, 0.131053430702312
217.0, 0.1255659497501599
218.0, 0.11717229255801022
219.0, 0.10850875712021135
220.0, 0.09856567775344316
221.0, 0.08827483202095215
222.0, 0.07804915479723595
223.0, 0.06911926641984428
224.0, 0.06249683207297546
225.0, 0.05880414850777274
226.0, 0.0572657326697407
227.0, 0.054306900811470264
228.0, 0.04869989405099021
229.0, 0.04495802394458509
230.0, 0.04314394384154758
231.0, 0.04182456304929071
232.0, 0.03913876004629772
233.0, 0.03371466355285832
234.0, 0.02834823121896462
235.0, 0.026411214967756298
236.0, 0.025172893092894763
237.0, 0.022014490710694272
238.0, 0.018988112202906044
239.0, 0.016492473409276526
240.0, 0.014416130893803527
241.0, 0.013082713751567
242.0, 0.012773740678237396
243.0, 0.01086702239819095
244.0, 0.008551454790615053
245.0, 0.007998649520627997
246.0, 0.009641866103644483
247.0, 0.010194411910376367
248.0, 0.007944365621625801
249.0, 0.007992625056812613
250.0, 0.010620235497859579
251.0, 0.01167359844954828
252.0, 0.01189807272389728
253.0, 0.010717311162677885
254.0, 0.009772341765853983
255.0, 0.009817795607548469
256.0, 0.007698540837167639
257.0, 0.00711593945480942
258.0, 0.004753639425334575
259.0, 0.0013423671216628477
260.0, 0.001098587157604233
261.0, 0.000703993889263467
262.0, 0.0016283074573616037
263.0, 0.002215297144720006
264.0, 0.0033320993237990217
265.0, 0.004080345631656521
266.0, 0.002607890666090142
267.0, 0.0030757450273253854
268.0, 0.0049426968299881285
269.0, 0.004105132817114116
270.0, 0.004475463845998758
271.0, 0.0023987774527766898
272.0, 0.001073055878896481
273.0, 0.002235562744915281
274.0, 0.0013198646702266934
275.0, 0.0010029746594054567
276.0, 0.004118923415662049
277.0, 0.006099398161346593
278.0, 0.005838366976346579
279.0, 0.009081457395508677
280.0, 0.014094019209997616
281.0, 0.01738002231892254
282.0, 0.018168176795145024
283.0, 0.01918325704487965
284.0, 0.020155740470402878
285.0, 0.02451066624556529
286.0, 0.028358435588393332
287.0, 0.028381426548709586
288.0, 0.0319532947283215
289.0, 0.03568743954983741
290.0, 0.03820278759099549
291.0, 0.04062513606017243
292.0, 0.04517049634926749
293.0, 0.0502621108218399
294.0, 0.05450428714197312
295.0, 0.05759894917166307
296.0, 0.05981747881881317
297.0, 0.06170337511879448
298.0, 0.06539807980105113
299.0, 0.0641374866524762
300.0, 0.05932010230420183
301.0, 0.056224881458353713
302.0, 0.05506951139764377
303.0, 0.05175072744865303
304.0, 0.049535236168672905
305.0, 0.04867667510384457
306.0, 0.04596210362849035
307.0, 0.04526165351453534
308.0, 0.04701902539209954
309.0, 0.04805854879393493
310.0, 0.047409839836920604
311.0, 0.04873758794177271
312.0, 0.049014288510417135
313.0, 0.04738686089258826
314.0, 0.04613636885888471
315.0, 0.04652581765577631
316.0, 0.04307984371285511
317.0, 0.037895264164305484
318.0, 0.03351649778306219
319.0, 0.03092514132534689
320.0, 0.02959216004977178
321.0, 0.02475821405888992
322.0, 0.02188653721416786
323.0, 0.020503455547983076
324.0, 0.019647667261535225
325.0, 0.020962822380519955
326.0, 0.022782328913764038
327.0, 0.023921306834128707
328.0, 0.023557832545391576
329.0, 0.022358072071692228
330.0, 0.02452687698542511
331.0, 0.02354979961553981
332.0, 0.024060617484191058
333.0, 0.026528534062323236
334.0, 0.02734807648696379
335.0, 0.02886624411302759
336.0, 0.031160799457931116
337.0, 0.03264650893416758
338.0, 0.03505258627428164
339.0, 0.04315964705664904
340.0, 0.04795683889673964
341.0, 0.05273758815032898
342.0, 0.0572338106981964
343.0, 0.06076586448563677
344.0, 0.0669756164344674
345.0, 0.07155774255298579
346.0, 0.07231211944828586
347.0, 0.07124908745690386
348.0, 0.07137259783929058
349.0, 0.07106334145635533
350.0, 0.07184032713499343
351.0, 0.06804978908392789
352.0, 0.06068839235136022
353.0, 0.05482894435204483
354.0, 0.04675465067122341
355.0, 0.040642185727969626
356.0, 0.03781227583173601
357.0, 0.037047470752645424
358.0, 0.03629771668322536
359.0, 0.03695482683731559
360.0, 0.03852505365996402
361.0, 0.03934995258226682
362.0, 0.03929840418813693
363.0, 0.04012595986098666
364.0, 0.03835411065413683
365.0, 0.035569846723447374
366.0, 0.033268761273163014
367.0, 0.031171092600536462
368.0, 0.026458478274154096
369.0, 0.023291857591418618
370.0, 0.01863013648556116
371.0, 0.013770555004003295
372.0, 0.011038699979758367
373.0, 0.007371029587215212
374.0, 0.0058203759382808315
375.0, 0.005329304635959924
376.0, 0.005021643229949731
377.0, 0.004518805321713569
378.0, 0.002951171776000114
379.0, 0.0033464376618674834
380.0, 0.004659268641241844
381.0, 0.006411051236741511
382.0, 0.008927592654075214
383.0, 0.010755065034231194
384.0, 0.012297248550831924
385.0, 0.016012495635338086
386.0, 0.02101839529888077
387.0, 0.024282414283151556
388.0, 0.02781899313671649
389.0, 0.031092226955082312
390.0, 0.03484244098096658
391.0, 0.039089430520907346
392.0, 0.04280069875483983
393.0, 0.0487757830631744
394.0, 0.05046255295562069
395.0, 0.05186953222892949
396.0, 0.0548510946485499
397.0, 0.05432238958487086
398.0, 0.0536676553589954
399.0, 0.0512060020660897
400.0, 0.04735752306966653
401.0, 0.04330243175334704
402.0, 0.0397971615031102
403.0, 0.036521876896981595
404.0, 0.03242133204500141
405.0, 0.028894890260913412
406.0, 0.026443425433392606
407.0, 0.023690332713696402
408.0, 0.02379814410455604
409.0, 0.023271401616482182
410.0, 0.021875521294831668
411.0, 0.02066185888131728
412.0, 0.01943277769315861
413.0, 0.02048259059732835
414.0, 0.021204974483823656
415.0, 0.021872511762984357
416.0, 0.023210327452211854
417.0, 0.02403159614530395
418.0, 0.024944950454545887
419.0, 0.024714040413287324
420.0, 0.024577357798903316
421.0, 0.02574506204835863
422.0, 0.027707352146970073
423.0, 0.02686668669235483
424.0, 0.025864037642130265
425.0, 0.023348124278761487
426.0, 0.01821548217714687
427.0, 0.013150635332598998
428.0, 0.00947176897470132
429.0, 0.008947249699356485
430.0, 0.0072024458878676735
431.0, 0.0026989027214270106
432.0, 0.0020202716254994974
433.0, 0.0008011216411328893
434.0, 0.0009146865218269327
435.0, 0.00030348406100943147
436.0, 0.0017125584294972235
437.0, 0.0010476550452475511
438.0, 0.00129547208089732
439.0, 0.001099060664160023
440.0, 0.0017002028920754361
441.0, 0.0031566085976938423
442.0, 0.0027296899684690055
443.0, 0.0005762341031822845
444.0, 0.0003916184324782808
445.0, 0.00035723488422953313
446.0, 0.0006081070780602808
447.0, 0.0008879633047881591
448.0, 0.0015072447325925832
449.0, 0.002570847589931547
450.0, 0.0018171910378056006
451.0, 0.00023780898824468853
452.0, 0.0010046042017345905
453.0, 0.0005819148618257231
454.0, 0.0005249074292105387
455.0, 0.0004321463058214772
456.0, 0.0006640813862662024
457.0, 0.0004387371283955346
458.0, 0.00012645063206057205
459.0, 0.0001509914464774826
460.0, 0.0008970018267845868
461.0, 0.0008639645065213132
462.0, 0.00031924512086108244
463.0, 0.0015781736567956196
464.0, 0.0001684943637485449
465.0, 0.0006734487206014153
466.0, 0.00022082631502627566
467.0, 0.0014231533969141811
468.0, 0.0009608482281626814
469.0, 0.0025693482451786664
470.0, 0.0034354089110585346
471.0, 0.0027689666727080983
472.0, 0.002567884434354047
473.0, 0.0048668906442271625
474.0, 0.004994436049742137
475.0, 0.0047088183497162915
476.0, 0.005600210544587234
477.0, 0.00660744122350896
478.0, 0.005084124030435519
479.0, 0.00771427434435394
480.0, 0.007858187807048706
481.0, 0.007261859140587838
482.0, 0.008604846325728163
483.0, 0.010951226361910786
484.0, 0.010722747160435213
485.0, 0.011495915514278244
486.0, 0.011911182704827708
487.0, 0.011899974118573095
488.0, 0.012957621991977732
489.0, 0.013265720530722551
490.0, 0.012054227999089092
491.0, 0.013312143715959096
492.0, 0.015556420239681592
493.0, 0.015167017604405779
494.0, 0.013892490694974146
495.0, 0.013671459007334642
496.0, 0.015878868522544633
497.0, 0.017394203625758074
498.0, 0.016653783695369417
499.0, 0.017215107670754556
500.0, 0.01833776944917553
501.0, 0.019181083271522636
502.0, 0.0197702345269935
503.0, 0.020669396144849212
504.0, 0.022415409115997133
505.0, 0.022047436792605415
506.0, 0.021874620284272343
507.0, 0.022411644280112098
508.0, 0.022563155373698164
509.0, 0.021306289780348098
510.0, 0.021153833357970026
511.0, 0.02193499886971018
512.0, 0.022475499523228595
513.0, 0.021952882529895794
514.0, 0.02145106735239889
515.0, 0.023925119206063508
516.0, 0.025277894301373775
517.0, 0.02667398456385235
518.0, 0.027784364636045084
519.0, 0.02901435154205204
520.0, 0.032772179743770995
521.0, 0.03417466589925284
522.0, 0.034421130631668545
523.0, 0.03621232128582383
524.0, 0.038059575485420896
525.0, 0.037042747253223374
526.0, 0.03741012121611799
527.0, 0.03950182907109718
528.0, 0.03827759250602926
529.0, 0.035244223340279435
530.0, 0.03271375494649742
531.0, 0.028968866768271265
532.0, 0.025382830408846355
533.0, 0.02335840345969867
534.0, 0.02294310258275847
535.0, 0.021898655456032798
536.0, 0.017852198298126166
537.0, 0.017091754707961086
538.0, 0.014762784829618266
539.0, 0.013550368500049191
540.0, 0.01418378902883342
541.0, 0.014372243856271982
542.0, 0.012794817140816596
543.0, 0.012499946975995322
544.0, 0.013495223021894421
545.0, 0.013349763969172465
546.0, 0.01190741106130024
547.0, 0.011425568694605146
548.0, 0.012319194021048188
549.0, 0.01300059016373798
550.0, 0.013071469492501998
551.0, 0.012937667200066146
552.0, 0.01333046248015031
553.0, 0.014372266568811564
554.0, 0.01443112276096739
555.0, 0.01544617488473544
556.0, 0.016240827391296547
557.0, 0.015100034081838281
558.0, 0.01258109102239304
559.0, 0.01295763410217364
560.0, 0.012953137783485547
561.0, 0.011964726023006186
562.0, 0.010471260345176958
563.0, 0.00928458598662682
564.0, 0.00872024296428146
565.0, 0.004161713681541482
566.0, 0.004651286326147575
567.0, 0.004538142768901246
568.0, 0.0012820546018769466
569.0, 0.0013446376974904982
570.0, 0.0018273881614265684
571.0, 0.0010571044753604614
572.0, 0.0003437654545486353
573.0, 0.00024793495872859163
574.0, 0.00030364242729972264
575.0, 0.0014207358402528274
576.0, 0.0006653085983373383
577.0, 0.0007771793863445156
578.0, 0.0009292619171344856
579.0, 0.0008275555016175723
580.0, 0.0015615588334097865
581.0, 0.0019825151409210225
582.0, 0.0005265092469273761
583.0, 0.0010386158015743367
584.0, 0.0006704861113832469
585.0, 0.0012916510768741184
586.0, 0.00039984133471945886
587.0, 0.001214495323551835
588.0, 0.0003398296430418727
589.0, 0.00013577425011057325
590.0, 0.00016674665177227667
591.0, 0.00021298609223356293
592.0, 0.0007919748195401807
593.0, 0.0006231868218292825
594.0, 0.0018007353637727371
595.0, 0.0015738480950761586
596.0, 0.0013853621007979646
597.0, 0.002785100042989265
598.0, 0.005203183395399284
599.0, 0.0039611742280306434
600.0, 0.004904725460661795
601.0, 0.006175663800635244
602.0, 0.005684846559343663
603.0, 0.006034651763169383
604.0, 0.00615967171354442
605.0, 0.007907875596530875
606.0, 0.008411325503391721
607.0, 0.008667869194063508
608.0, 0.01039460714771991
609.0, 0.010808405440333402
610.0, 0.012910441884682336
611.0, 0.013077852433289978
612.0, 0.014575156672741217
613.0, 0.01719848924510763
614.0, 0.017982437750794156
615.0, 0.01984070639481734
616.0, 0.022805848941527436
617.0, 0.024207800248993612
618.0, 0.026153108478786793
619.0, 0.029293948461841034
620.0, 0.03121941237145921
621.0, 0.03338376652844888
622.0, 0.0385670031357739
623.0, 0.040791886837080356
624.0, 0.04288971296804826
625.0, 0.047894835112969256
626.0, 0.05297235424703216
627.0, 0.0557087783789453
628.0, 0.060910591651162936
629.0, 0.06467225249275017
630.0, 0.06794907400394824
631.0, 0.07426971961924193
632.0, 0.08290953666108423
633.0, 0.0915794163482667
634.0, 0.09579575603415437
635.0, 0.10152897604218318
636.0, 0.11113449395799492
637.0, 0.12284196723898497
638.0, 0.13539397745441614
639.0, 0.1465091383844507
640.0, 0.16281777624904673
641.0, 0.18110559140071592
642.0, 0.20213735398211458
643.0, 0.22844152116523736
644.0, 0.2562012140599182
645.0, 0.2917799432518005
646.0, 0.3299990847418658
647.0, 0.37478995708780427
648.0, 0.4269235511933103
649.0, 0.48290803312963193
650.0, 0.5434921973285458
651.0, 0.6042538629636176
652.0, 0.6717482877210355
653.0, 0.7452959843271358
654.0, 0.8189435684653478
655.0, 0.8870752813289533
656.0, 0.9449021371472396
657.0, 0.9835002981541895
658.0, 0.9994002398026716
659.0, 0.9869982577306106
660.0, 0.944481562785981
661.0, 0.8731343415654585
662.0, 0.7755206176386846
663.0, 0.6797303833778217
664.0, 0.5834413150997709
665.0, 0.49113926634672683
666.0, 0.41157903612794866
667.0, 0.34829408998840106
668.0, 0.2923965000599148
669.0, 0.2513356867427712
670.0, 0.21473342543021567
671.0, 0.18464966946602251
672.0, 0.1607279112777428
673.0, 0.13898037206808966
674.0, 0.12319025412598972
675.0, 0.10855798216691914
676.0, 0.09686532168916777
677.0, 0.08799643969890329
678.0, 0.07982685106555844
679.0, 0.07156753552064829
680.0, 0.06673589110172966
681.0, 0.05901543598508023
682.0, 0.0561003730607791
683.0, 0.05167389270350668
684.0, 0.046842782603466575
685.0, 0.04656645789456395
686.0, 0.043147579280370725
687.0, 0.03992950427934868
688.0, 0.03683520413547483
689.0, 0.03308420724524464
690.0, 0.03013319502216875
691.0, 0.028339154788229914
692.0, 0.02499969758352029
693.0, 0.024156447456216337
694.0, 0.024619413222330477
695.0, 0.02143312010151696
696.0, 0.017886646907380177
697.0, 0.01766720148944859
698.0, 0.01682614625197384
699.0, 0.01387495074154727
700.0, 0.011008917839145309
701.0, 0.009717249967957151
702.0, 0.00933812816972741
703.0, 0.008606274643914705
704.0, 0.006879680161651942
705.0, 0.0041211000058429485
706.0, 0.0030149560890562325
707.0, 0.004278626851804966
708.0, 0.004436222853479084
709.0, 0.003306140282821074
710.0, 0.0037832582000682916
711.0, 0.002718177266518131
712.0, 0.0007510923918927594
713.0, 0.0022443741526184586
714.0, 0.0020731112808973487
715.0, 0.00025441454107233446
716.0, 0.0004368805016440617
717.0, 0.0007206306104387302
718.0, 0.0007948036865006352
719.0, 0.0015024801303979837
720.0, 0.0005631985312691054
721.0, 0.0001161855464464245
722.0, 0.0013789389263563529
723.0, 0.0014975596808792758
724.0, 0.0022763832721282903
725.0, 0.00115591980832476
726.0, 0.0005426932887556824
727.0, 0.0009607853951445575
728.0, 0.001297638066927759
729.0, 0.0011569988249035968
730.0, 0.0007391819826511642
731.0, 0.0005659207365496724
732.0, 0.001999007025140723
733.0, 0.0028137904787874984
734.0, 0.002922311229393404
735.0, 0.003509596223693394
736.0, 0.006151813544393449
737.0, 0.005817441609309131
738.0, 0.006962927166336907
739.0, 0.007615341428430804
740.0, 0.008966193391898835
741.0, 0.010950529919585589
742.0, 0.010188289935114411
743.0, 0.012079368205890407
744.0, 0.010727913996010969
745.0, 0.01085061913699719
746.0, 0.010232588437566015
747.0, 0.008108058952151316
748.0, 0.007146094682886211
749.0, 0.0051900567560273034
750.0, 0.006953196187370669
751.0, 0.0047354115523111666
752.0, 0.003512544227357642
753.0, 0.004635638643864009
754.0, 0.005814527384778125
755.0, 0.007204177138257872
756.0, 0.006569557933569272
757.0, 0.004781505835118094
758.0, 0.005337037036702428
759.0, 0.006125137446230428
760.0, 0.0059104042923468145
761.0, 0.005815704225288538
762.0, 0.005462075665579973
763.0, 0.005736359508854891
764.0, 0.0064732404090068274
765.0, 0.005943826816355971
766.0, 0.006442869078458701
767.0, 0.008294546917962442
768.0, 0.00803939147599382
769.0, 0.00875258948219641
770.0, 0.009351931838678535
771.0, 0.009068644001905346
772.0, 0.009061712954152621
773.0, 0.009525930325774874
774.0, 0.008882917579425918
775.0, 0.005352396001810926
776.0, 0.006183540083264838
777.0, 0.006858487718225503
778.0, 0.0064211225705107
779.0, 0.007023712326307874
780.0, 0.007009482164426869
781.0, 0.003765710355664329
782.0, 0.0027584918731642315
783.0, 0.003119391824238319
784.0, 0.0029682138836280396
785.0, 0.0019286690210487325
786.0, 0.001326450194840924
787.0, 0.00146475303866894
788.0, 0.0015550786201254754
789.0, 0.0029040213993246893
790.0, 0.0002940678117647638
791.0, 0.0006945419067636939
792.0, 0.00014840654663765134
793.0, 0.00017133233257614672
794.0, 0.0014469692318173815
795.0, 0.0032978629875451662
796.0, 0.0012999867366880326
797.0, 0.0009509403480347326
798.0, 0.0012532760172835075
799.0, 0.0009918054405657773
800.0, 0.0003778056354707944
801.0, 0.00037621983042824614
802.0, 0.0009961890531465787
803.0, 0.0002777736157821458
804.0, 0.0010399305024499752
805.0, 0.0005692587770136032
806.0, 0.00032938251628625954
807.0, 0.001009698874047038
808.0, 0.0006323986154305081
809.0, 0.0022572868495537935
810.0, 0.002401720254351658
811.0, 0.002387765592031972
812.0, 0.002155441962961754
813.0, 0.0020234220093370554
814.0, 0.0018894983730770396
815.0, 0.0012240441012123173
816.0, 0.0011393633834157805
817.0, 0.002805377028128821
818.0, 0.0026856372664041265
819.0, 0.0020552026439791915
820.0, 0.002221232194355377
821.0, 0.002367847561746334
822.0, 0.0012326953280549992
823.0, 0.0005960431677255771
824.0, 0.0018880799407546911
825.0, 0.0015420457547011628
826.0, 0.0010379422599064586
827.0, 0.0007056257898828491
828.0, 0.0005525074343802933
829.0, 0.0013477243318693116
830.0, 0.0016303265157308778
831.0, 0.0007378311640228794
832.0, 0.0017699065354557044
833.0, 0.0024161873844104737
834.0, 0.0017348547573423374
835.0, 0.0014075987804491486
836.0, 0.0022426517532448814
837.0, 0.0020253916586251016
838.0, 0.003589968583539083
839.0, 0.002800071631120817
840.0, 0.0015285778817770276
841.0, 0.002083230306797384
842.0, 0.0023151622435010647
843.0, 9.695441552135144e-05
844.0, 0.0010162107876110227
845.0, 0.0013852933862909683
846.0, 0.001328725467418417
847.0, 0.0019022363269750294
848.0, 0.0015225815912095963
849.0, 0.00018718402811995218
850.0, 0.00015618263550700113
851.0, 0.000440652567967836
852.0, 0.0009003097539567109
853.0, 0.00091865122474097
854.0, 0.0028552581435548163
855.0, 0.00206806806164624
856.0, 0.00016642533489596179
857.0, 0.00017634127051441469
858.0, 0.0001993015257005561
859.0, 0.00044488743743551856
860.0, 0.00013828684221345343
861.0, 0.0002320458253805036
862.0, 0.0002842679559446421
863.0, 0.0006270428333361709
864.0, 0.00020895392501307412
865.0, 0.00024296419436429964
866.0, 0.000915159627267882
867.0, 0.0011247098335539494
868.0, 0.00048288695479842096
869.0, 0.0003312294638243748
870.0, 0.000790382866277946
871.0, 0.0010492014774346147
872.0, 0.001588130649977753
873.0, 0.0003312021199767503
874.0, 0.0004953890565505941
875.0, 0.000994426767201658
876.0, 0.0011530603968237577
877.0, 0.002314372941038555
878.0, 0.004076323971118144
879.0, 0.004747151870638648
880.0, 0.004492310956317319
881.0, 0.005309050608377332
882.0, 0.006858630246021364
883.0, 0.009049364529507699
884.0, 0.009534836978978825
885.0, 0.009627274855431318
886.0, 0.010375772261518935
887.0, 0.010268891990737711
888.0, 0.011073649288849578
889.0, 0.013451260968831785
890.0, 0.014508799354989745
891.0, 0.014792751275357497
892.0, 0.015700839539114105
893.0, 0.017225439709725728
894.0, 0.018674085720835187
895.0, 0.019859736577560894
896.0, 0.019825560173256377
897.0, 0.02329929716215073
898.0, 0.024887578598074035
899.0, 0.02449922112106618
900.0, 0.026082114651641262
901.0, 0.029612301072175905
902.0, 0.03079257047456141
903.0, 0.030542320605952664
904.0, 0.03063848362860632
905.0, 0.029950791489130723
906.0, 0.028604180946646515
907.0, 0.02762111190051971
908.0, 0.026652043542743645
909.0, 0.02536751910389235
910.0, 0.02499733560954627
911.0, 0.02518904246311068
912.0, 0.02341195983208215
913.0, 0.022994682387870093
914.0, 0.021352931595227113
915.0, 0.01871007117531166
916.0, 0.017146711661179107
917.0, 0.015921509254306174
918.0, 0.012808280611873042
919.0, 0.011695671708037765
920.0, 0.00959400660688382
921.0, 0.007521302592920796
922.0, 0.006028865419021537
923.0, 0.005835620887003873
924.0, 0.0060477799481794305
925.0, 0.004826534885506203
926.0, 0.002883796933152967
927.0, 0.0028383286630157874
928.0, 0.003596134513416236
929.0, 0.0027245072894083494
930.0, 0.0017073967030672187
931.0, 0.0005784258888761727
932.0, 0.00035529552707696854
933.0, 0.0001989357667497272
934.0, 0.0014704514784898738
935.0, 0.001607798656937594
936.0, 0.0018643118343565498
937.0, 0.002803157741453779
938.0, 0.0010537880370797845
939.0, 0.0007886160915291875
940.0, 0.0020010149655455335
941.0, 8.645140155267684e-05
942.0, 0.0006092886867655113
943.0, 0.0007245138620761528
944.0, 0.00034553411838432376
945.0, 0.00179844640914727
946.0, 0.0018913482925049358
947.0, 0.0013511155517235483
948.0, 0.002959158196157727
949.0, 0.0062903382815100006
950.0, 0.005809828862937286
951.0, 0.008280376291777376
952.0, 0.010091050968753026
953.0, 0.00986323191625708
954.0, 0.010809815706073308
955.0, 0.01332301966448827
956.0, 0.015475012460831399
957.0, 0.017587859177566494
958.0, 0.0204196922325007
959.0, 0.02459146411588352
960.0, 0.027033865693174477
961.0, 0.027752074263391234
962.0, 0.030143753485694827
963.0, 0.0335341226236845
964.0, 0.035504833247526124
965.0, 0.03623151650338327
966.0, 0.03767090274284842
967.0, 0.0386366468064214
968.0, 0.03805679274266021
969.0, 0.03890070716641571
970.0, 0.03986883607903666
971.0, 0.03866739978188411
972.0, 0.03610071491099506
973.0, 0.034832161784494525
974.0, 0.03530584234075019
975.0, 0.03313594125947642
976.0, 0.030505633061279205
977.0, 0.02921095780082352
978.0, 0.027963102983426445
979.0, 0.02502798033647081
980.0, 0.023873756490665345
981.0, 0.026035576998416736
982.0, 0.025953216007676073
983.0, 0.027920693428659445
984.0, 0.027351306457085316
985.0, 0.030596198226421668
986.0, 0.03192197360185908
987.0, 0.03358642854259047
988.0, 0.036965049593062724
989.0, 0.039529249967047736
990.0, 0.0406914098886642
991.0, 0.04333279748104727
992.0, 0.04706512586168075
993.0, 0.049966891979233985
994.0, 0.05159134846165053
995.0, 0.0562090486534386
996.0, 0.05940572566902736
997.0, 0.059780090401610274
998.0, 0.06129373930644498
999.0, 0.06488128994286178
1000.0, 0.07445488823110269
1001.0, 0.07679588884278746
1002.0, 0.07936492099653969
1003.0, 0.08603790175460091
1004.0, 0.09556962392895693
1005.0, 0.1052109953475862
1006.0, 0.11401072772586977
1007.0, 0.12375373219285321
1008.0, 0.1374035175564367
1009.0, 0.15296194671264768
1010.0, 0.16931063235243712
1011.0, 0.18367723157209717
1012.0, 0.20144424054367718
1013.0, 0.2202328713621812
1014.0, 0.2362588975447168
1015.0, 0.2526790000631562
1016.0, 0.27175143168844873
1017.0, 0.2845664588761418
1018.0, 0.2924612281094988
1019.0, 0.30288525297525154
1020.0, 0.3037278483763456
1021.0, 0.297587037543384
1022.0, 0.2874120199359862
1023.0, 0.2739160117139461
1024.0, 0.2579464232378619
1025.0, 0.2390395585217549
1026.0, 0.21691730109953009
1027.0, 0.19640156723570112
1028.0, 0.18102405608184902
1029.0, 0.16018452703094696
1030.0, 0.14146868259319978
1031.0, 0.1258612705770198
1032.0, 0.11038629391669696
1033.0, 0.0964987396013484
1034.0, 0.08632550723776379
1035.0, 0.0767484422092652
1036.0, 0.06894508140436452
1037.0, 0.06201984266675288
1038.0, 0.053387012341695
1039.0, 0.04639590481232181
1040.0, 0.041684467764677255
1041.0, 0.03738440927709021
1042.0, 0.03392841008080769
1043.0, 0.03205276740194198
1044.0, 0.027891250409773725
1045.0, 0.02453141495953261
1046.0, 0.019886418635971917
1047.0, 0.01894846752427714
1048.0, 0.018745451466636656
1049.0, 0.017485122714482104
1050.0, 0.014655450178825209
1051.0, 0.011298448784919706
1052.0, 0.010396010514692524
1053.0, 0.010264433024930263
1054.0, 0.006796110546326678
1055.0, 0.005087657762965997
1056.0, 0.003462253457796708
1057.0, 0.0025731408058253208
1058.0, 0.0018297288219342922
1059.0, 0.0015722930717141344
1060.0, 0.0010847098685496997
1061.0, 0.000538793403151044
1062.0, 0.002296956273799579
1063.0, 0.0005040093751553621
1064.0, 0.0011942990607492056
1065.0, 0.002156858611974371
1066.0, 0.0008339365711536203
1067.0, 0.0009082479456220683
1068.0, 0.0008287445295468998
1069.0, 0.00034499088166843063
1070.0, 0.0008640256388674143
1071.0, 0.000659400712681471
1072.0, 0.0005602972090516714
1073.0, 0.0011682578318208232
1074.0, 0.0021435947800306845
1075.0, 0.0005250160367466127
1076.0, 0.0001254732472604046
1077.0, 0.00042032745462569653
1078.0, 0.0014294643091458674
1079.0, 0.0017009099913917643
1080.0, 0.0024370682169275624
1081.0, 0.0036179161912520946
1082.0, 0.004171912559376624
1083.0, 0.006451333638186916
1084.0, 0.006747516910970211
1085.0, 0.008457193234978204
1086.0, 0.01129602494758629
1087.0, 0.013430389766064579
1088.0, 0.015063402246562387
1089.0, 0.01777919919226062
1090.0, 0.02061219069748018
1091.0, 0.02189811265183552
1092.0, 0.02315148616016735
1093.0, 0.023150700245201918
1094.0, 0.024302497046743962
1095.0, 0.023381545459673452
1096.0, 0.020688033678661056
1097.0, 0.01985183635994574
1098.0, 0.01799521171793221
1099.0, 0.013259786049695781
1100.0, 0.011501004591984547
1101.0, 0.008617089488780417
1102.0, 0.007765155647833538
1103.0, 0.0067633378540507124
1104.0, 0.00685601428995764
1105.0, 0.006110597138733282
1106.0, 0.005813142991846029
1107.0, 0.00537006573785009
1108.0, 0.0041081409488973085
1109.0, 0.003374381616192468
1110.0, 0.0032342464210048036
1111.0, 0.0022028966197130853
1112.0, 0.0018701174650589995
1113.0, 0.00037954114841257233
1114.0, 0.00020592657930787337
1115.0, 0.000872794741583572
1116.0, 0.0017789117749706263
1117.0, 0.001309379827890291
1118.0, 0.0011637533918581735
1119.0, 0.0017601179547499042
1120.0, 0.0005493984596431217
1121.0, 0.0008951818817022487
1122.0, 0.0007986317280847116
1123.0, 0.0014465143058649409
1124.0, 0.0025808063152885936
1125.0, 0.0011669710174549294
1126.0, 0.0012416444597106112
1127.0, 0.00041276010603962215
1128.0, 0.0006292986753488857
1129.0, 0.0017863298784370689
1130.0, 0.0006480197572899018
1131.0, 0.000925025729504622
1132.0, 0.00177984783354582
1133.0, 0.0007755557566189021
1134.0, 0.0010165002699861706
1135.0, 0.0009940509418115623
1136.0, 0.0001906243916721202
1137.0, 0.0009125544774688562
1138.0, 0.0016413447768255564
1139.0, 0.0005121608444077302
1140.0, 0.002620698832954472
1141.0, 0.0005493343996274146
1142.0, 0.0023854118712722115
1143.0, 0.0005883784636103967
1144.0, 0.0008790524330076107
1145.0, 0.0005455407971729008
1146.0, 0.0011457821069692856
1147.0, 0.0017522358864497608
1148.0, 0.0022489474867786467
1149.0, 0.0015138014910846744
1150.0, 0.0022443437441470944
1151.0, 0.0020876584996791844
1152.0, 0.0022440298761613117
1153.0, 0.002096775997375332
1154.0, 0.0016550411663975606
1155.0, 0.001675880277115444
1156.0, 0.0013757502081024858
1157.0, 0.0025482470959347463
1158.0, 0.001195858264798508
1159.0, 0.0016371337003769557
1160.0, 0.0034277134745577574
1161.0, 0.002027764055764139
1162.0, 0.001070753443470237
1163.0, 0.0037310784195905464
1164.0, 0.003014824980125275
1165.0, 0.002169352030962875
1166.0, 0.002207532259629458
1167.0, 0.002632066452700584
1168.0, 0.002177113306780162
1169.0, 0.002369434641286249
1170.0, 0.0024241344777473305
1171.0, 0.002576309876248194
1172.0, 0.002387934138402313
1173.0, 0.0022958851793371386
1174.0, 0.0040415100719720575
1175.0, 0.003838224299852987
1176.0, 0.003754876446195686
1177.0, 0.00463002811741998
1178.0, 0.0016748164139998546
1179.0, 0.0038547361031096745
1180.0, 0.004163488660590525
1181.0, 0.0034009361518619646
1182.0, 0.003627575835709336
1183.0, 0.003188325484965452
1184.0, 0.0030497215019647268
1185.0, 0.004414470782764236
1186.0, 0.003684143243208646
1187.0, 0.004538226663144776
1188.0, 0.002312319460477922
1189.0, 0.004064027005778189
1190.0, 0.005934086825746771
1191.0, 0.002551581746102563
1192.0, 0.0028079057654152965
1193.0, 0.003767078496161512
1194.0, 0.0034005408619878067
1195.0, 0.0033052888276374633
1196.0, 0.003936844491111518
1197.0, 0.0046355283478545
1198.0, 0.0027589126779093164
1199.0, 0.002363340598237488
1200.0, 0.004019729519464383
1201.0, 0.0016987996673600945
1202.0, 0.001803319101070928
1203.0, 0.0025265327201617668
1204.0, 0.004010142790584314
1205.0, 0.00427700442261728
1206.0, 0.002935781267166376
1207.0, 0.0014879316773150156
1208.0, 0.0014259444627708249
1209.0, 0.0028628675547842943
1210.0, 0.0019403231732796915
1211.0, 0.0030408504970201584
1212.0, 0.0028227198232107353
1213.0, 0.0005551766583538436
1214.0, 0.0010755895669309382
1215.0, 0.0022433318706091697
1216.0, 0.0028149864751301863
1217.0, 0.0014624750997923354
1218.0, 0.0013308405415043533
1219.0, 0.0037189561373156656
1220.0, 0.004455081741622416
1221.0, 0.00239722920960895
1222.0, 0.0023344314259038947
1223.0, 0.002641263947697037
1224.0, 0.0037590654415284477
1225.0, 0.0008081828877510269
1226.0, 0.0014682144651177495
1227.0, 0.0033925975165666595
1228.0, 0.00459103119679802
1229.0, 0.0036474729157805743
1230.0, 0.003084228340856163
1231.0, 0.0032118261475512513
1232.0, 0.0032861792251078995
1233.0, 0.0028565561615808742
1234.0, 0.001078046773407398
1235.0, 0.002380988773911422
1236.0, 0.0024697773057422417
1237.0, 0.002387089483733479
1238.0, 0.0024096318132462813
1239.0, 0.0036619402875186203
1240.0, 0.005178753177039143
1241.0, 0.004590594943726893
1242.0, 0.00408828013170726
1243.0, 0.004207904454541401
1244.0, 0.003372503666997379
1245.0, 0.002126894267097655
1246.0, 0.0021771991776067365
1247.0, 0.0037038998787977005
1248.0, 0.0049555935671207725
1249.0, 0.003508564437947139
1250.0, 0.004045534804791466
1251.0, 0.002529448018613871
1252.0, 0.0009499566504644702
1253.0, 0.00325444200825526
1254.0, 0.0034352463159340943
1255.0, 0.0035886736157691563
1256.0, 0.002402761544631997
1257.0, 0.0018571341915575674
1258.0, 0.002221133001075522
1259.0, 0.001824372658068053
1260.0, 0.0028088201493848834
1261.0, 0.0013937857750437582
1262.0, 0.003279506931821645
1263.0, 0.0019501297136809903
1264.0, 0.0028232229257450967
1265.0, 0.0014123245821824827
1266.0, 0.0017887842868447444
1267.0, 0.0012140594838381132
1268.0, 0.0008963239372985926
1269.0, 0.001876093440377158
1270.0, 0.001329549958370273
1271.0, 0.0011036197692979378
1272.0, 0.0017801152978250106
1273.0, 0.0018562289986060977
1274.0, 0.003167817517685036
1275.0, 0.0008737363295072318
1276.0, 0.0010365844914874793
1277.0, 0.0025902416487109557
1278.0, 0.003106055771813582
1279.0, 0.002912955680365934
1280.0, 0.00199189154017545
1281.0, 0.0012376247167636453
1282.0, 0.0008259344589332038
1283.0, 0.0019000048839530148
1284.0, 0.0021698077353794103
1285.0, 0.0018900013901677073
1286.0, 0.0008541319242153629
1287.0, 0.00047024859164611506
1288.0, 0.001714007847324795
1289.0, 0.001920905342081136
1290.0, 0.0027729072111339994
1291.0, 0.0016630527018809402
1292.0, 0.0017807734767141142
1293.0, 0.0013386846530879708
1294.0, 0.001757037290862076
1295.0, 0.0003786160545382663
1296.0, 0.0013247622823884294
1297.0, 0.0021881325270425036
1298.0, 0.0007599311041973911
1299.0, 0.0002936825125690104
1300.0, 0.0004288294592457055
1301.0, 1.4461972505801521e-05
1302.0, 0.00046568135800368054
1303.0, 0.0006389222143192438
1304, 0.0
1305, 0.0
1306, 0.0
1307, 0.0
1308, 0.0
1309, 0.0
1310, 0.0
1311, 0.0
1312, 0.0
1313, 0.0
1314, 0.0
1315, 0.0
1316, 0.0
1317, 0.0
1318, 0.0
1319, 0.0
1320, 0.0
1321, 0.0
1322, 0.0
1323, 0.0
1324, 0.0
1325, 0.0
1326, 0.0
1327, 0.0
1328, 0.0
1329, 0.0
1330, 0.0
1331, 0.0
1332, 0.0
1333, 0.0
1334, 0.0
1335, 0.0
1336, 0.0
1337, 0.0
1338, 0.0
1339, 0.0
1340, 0.0
1341, 0.0
1342, 0.0
1343, 0.0
1344, 0.0
1345, 0.0
1346, 0.0
1347, 0.0
1348, 0.0
1349, 0.0
1350, 0.0
1351, 0.0
1352, 0.0
1353, 0.0
1354, 0.0
1355, 0.0
1356, 0.0
1357, 0.0
1358, 0.0
1359, 0.0
1360, 0.0
1361, 0.0
1362, 0.0
1363, 0.0
1364, 0.0
1365, 0.0
1366, 0.0
1367, 0.0
1368, 0.0
1369, 0.0
1370, 0.0
1371, 0.0
1372, 0.0
1373, 0.0
1374, 0.0
1375, 0.0
1376, 0.0
1377, 0.0
1378, 0.0
1379, 0.0
1380, 0.0
1381, 0.0
1382, 0.0
1383, 0.0
1384, 0.0
1385, 0.0
1386, 0.0
1387, 0.0
1388, 0.0
1389, 0.0
1390, 0.0
1391, 0.0
1392, 0.0
1393, 0.0
1394, 0.0
1395, 0.0
1396, 0.0
1397, 0.0
1398, 0.0
1399, 0.0
1400, 0.0
1401, 0.0
1402, 0.0
1403, 0.0
1404, 0.0
1405, 0.0
1406, 0.0
1407, 0.0
1408, 0.0
1409, 0.0
1410, 0.0
1411, 0.0
1412, 0.0
1413, 0.0
1414, 0.0
1415, 0.0
1416, 0.0
1417, 0.0
1418, 0.0
1419, 0.0
1420, 0.0
1421, 0.0
1422, 0.0
1423, 0.0
1424, 0.0
1425, 0.0
1426, 0.0
1427, 0.0
1428, 0.0
1429, 0.0
1430, 0.0
1431, 0.0
1432, 0.0
1433, 0.0
1434, 0.0
1435, 0.0
1436, 0.0
1437, 0.0
1438, 0.0
1439, 0.0
1440, 0.0
1441, 0.0
1442, 0.0
1443, 0.0
1444, 0.0
1445, 0.0
1446, 0.0
1447, 0.0
1448, 0.0
1449, 0.0
1450, 0.0
1451, 0.0
1452, 0.0
1453, 0.0
1454, 0.0
1455, 0.0
1456, 0.0
1457, 0.0
1458, 0.0
1459, 0.0
1460, 0.0
1461, 0.0
1462, 0.0
1463, 0.0
1464, 0.0
1465, 0.0
1466, 0.0
1467, 0.0
1468, 0.0
1469, 0.0
1470, 0.0
1471, 0.0
1472, 0.0
1473, 0.0
1474, 0.0
1475, 0.0
1476, 0.0
1477, 0.0
1478, 0.0
1479, 0.0
1480, 0.0
1481, 0.0
1482, 0.0
1483, 0.0
1484, 0.0
1485, 0.0
1486, 0.0
1487, 0.0
1488, 0.0
1489, 0.0
1490, 0.0
1491, 0.0
1492, 0.0
1493, 0.0
1494, 0.0
1495, 0.0
1496, 0.0
1497, 0.0
1498, 0.0
1499, 0.0
1500, 0.0
1501, 0.0
1502, 0.0
1503, 0.0
1504, 0.0
1505, 0.0
1506, 0.0
1507, 0.0
1508, 0.0
1509, 0.0
1510, 0.0
1511, 0.0
1512, 0.0
1513, 0.0
1514, 0.0
1515, 0.0
1516, 0.0
1517, 0.0
1518, 0.0
1519, 0.0
1520, 0.0
1521, 0.0
1522, 0.0
1523, 0.0
1524, 0.0
1525, 0.0
1526, 0.0
1527, 0.0
1528, 0.0
1529, 0.0
1530, 0.0
1531, 0.0
1532, 0.0
1533, 0.0
1534, 0.0
1535, 0.0
1536, 0.0
1537, 0.0
1538, 0.0
1539, 0.0
1540, 0.0
1541, 0.0
1542, 0.0
1543, 0.0
1544, 0.0
1545, 0.0
1546, 0.0
1547, 0.0
1548, 0.0
1549, 0.0
1550, 0.0
1551, 0.0
1552, 0.0
1553, 0.0
1554, 0.0
1555, 0.0
1556, 0.0
1557, 0.0
1558, 0.0
1559, 0.0
1560, 0.0
1561, 0.0
1562, 0.0
1563, 0.0
1564, 0.0
1565, 0.0
1566, 0.0
1567, 0.0
1568, 0.0
1569, 0.0
1570, 0.0
1571, 0.0
1572, 0.0
1573, 0.0
1574, 0.0
1575, 0.0
1576, 0.0
1577, 0.0
1578, 0.0
1579, 0.0
1580, 0.0
1581, 0.0
1582, 0.0
1583, 0.0
1584, 0.0
1585, 0.0
1586, 0.0
1587, 0.0
1588, 0.0
1589, 0.0
1590, 0.0
1591, 0.0
1592, 0.0
1593, 0.0
1594, 0.0
1595, 0.0
1596, 0.0
1597, 0.0
1598, 0.0
1599, 0.0
