30, 0.0
31, 0.0
32, 0.0
33, 0.0
34, 0.0
35, 0.0
36, 0.0
37, 0.0
38, 0.0
39, 0.0
40, 0.0
41, 0.0
42, 0.0
43, 0.0
44, 0.0
45, 0.0
46, 0.0
47, 0.0
48, 0.0
49, 0.0
50, 0.0
51, 0.0
52, 0.0
53, 0.0
54, 0.0
55, 0.0
56, 0.0
57, 0.0
58, 0.0
59, 0.0
60, 0.0
61, 0.0
62, 0.0
63, 0.0
64, 0.0
65, 0.0
66, 0.0
67, 0.0
68, 0.0
69, 0.0
70, 0.0
71, 0.0
72, 0.0
73, 0.0
74, 0.0
75, 0.0
76, 0.0
77, 0.0
78, 0.0
79, 0.0
80, 0.0
81, 0.0
82, 0.0
83, 0.0
84, 0.0
85, 0.0
86, 0.0
87, 0.0
88, 0.0
89, 0.0
90, 0.0
91, 0.0
92, 0.0
93, 0.0
94, 0.0
95, 0.0
96, 0.0
97, 0.0
98, 0.0
99, 0.0
100, 0.0
101, 0.0
102, 0.0
103, 0.0
104, 0.0
105, 0.0
106, 0.0
107, 0.0
108, 0.0
109, 0.0
110, 0.0
111, 0.0
112, 0.0
113, 0.0
114, 0.0
115, 0.0
116, 0.0
117, 0.0
118, 0.0
119, 0.0
120, 0.0
121, 0.0
122, 0.0
123, 0.0
124, 0.0
125, 0.0
126, 0.0
127, 0.0
128, 0.0
129, 0.0
130, 0.0
131, 0.0
132, 0.0
133, 0.0
134, 0.0
135, 0.0
136, 0.0
137, 0.0
138, 0.0
139, 0.0
140, 0.0
141, 0.0
142, 0.0
143, 0.0
144, 0.0
145, 0.0
146, 0.0
147, 0.0
148, 0.0
149, 0.0
150, 0.0
151, 0.0
152, 0.0
153, 0.0
154, 0.0
155, 0.0
156.0, 0.0018732515472764406
157.0, 0.019535568233762884
158.0, 0.021301144659135778
159.0, 0.02967645893880164
160.0, 0.022984769027636364
161.0, 0.006137148054946999
162.0, 0.0031593603319145834
163.0, 0.007921341228003061
164.0, 0.018088024929120757
165.0, 0.01020437129991233
166.0, 0.03737056110854896
167.0, 0.05108085726616471
168.0, 0.05130622497866437
169.0, 0.0541266342632129
170.0, 0.07710724859555577
171.0, 0.10390814424681567
172.0, 0.12026610894480148
173.0, 0.12869139930632026
174.0, 0.1430145874197957
175.0, 0.16964175026541614
176.0, 0.19262551971768802
177.0, 0.21498066914099007
178.0, 0.24164976215603484
179.0, 0.2668411449022394
180.0, 0.2876358532287081
181.0, 0.31828837422425865
182.0, 0.34110916426031346
183.0, 0.3395136841203106
184.0, 0.34027984886062185
185.0, 0.3360311207353483
186.0, 0.31121698239030215
187.0, 0.27571944624755074
188.0, 0.2530175176504881
189.0, 0.22705556601836033
190.0, 0.2087892000937374
191.0, 0.1919139951830541
192.0, 0.1675031942267443
193.0, 0.1396424334190491
194.0, 0.12073034973300562
195.0, 0.11850743979967027
196.0, 0.1322842715189589
197.0, 0.14574379384583233
198.0, 0.15133065314270136
199.0, 0.13759374095179694
200.0, 0.1154299381329159
201.0, 0.10412221340915057
202.0, 0.10732308128367458
203.0, 0.10668135669868743
204.0, 0.10252657216180766
205.0, 0.10386158001100253
206.0, 0.10735329645552143
207.0, 0.08173433352512495
208.0, 0.09254564702467206
209.0, 0.11197996673789792
210.0, 0.106951322041098
211.0, 0.09046194384349113
212.0, 0.09985535941154977
213.0, 0.10721839152106982
214.0, 0.10440724218318646
215.0, 0.09479542129393914
216.0, 0.10326481739400628
217.0, 0.10076834998046963
218.0, 0.10459038696577687
219.0, 0.1017926923389366
220.0, 0.0648976992600753
221.0, 0.057571308282623815
222.0, 0.04772427562226598
223.0, 0.045293483458282005
224.0, 0.056940442798710196
225.0, 0.05029927276766508
226.0, 0.034893615648578694
227.0, 0.023392621900443812
228.0, 0.02188749933788701
229.0, 0.02866307876651875
230.0, 0.028241022995599642
231.0, 0.008112241895975453
232.0, 0.003080019646452179
233.0, 0.0008252877397950405
234.0, 0.0004899533506136445
235.0, 0.006164906009937224
236.0, 0.0076888966597931825
237.0, 0.0038554998873310594
238.0, 0.020911577695367053
239.0, 0.02988741574889906
240.0, 0.014739144685492736
241.0, 0.00766813898470583
242.0, 0.014018575842291797
243.0, 0.023504339608508767
244.0, 0.02411527487199941
245.0, 0.010834209946120289
246.0, 0.0044510316154715195
247.0, 0.010363661705969567
248.0, 0.020925660882498382
249.0, 0.012993515344317249
250.0, 0.019690105347481307
251.0, 0.026574915830799663
252.0, 0.025915624435418276
253.0, 0.025559555963005166
254.0, 0.02004221802206911
255.0, 0.02202832272803866
256.0, 0.020691560869747237
257.0, 0.008449658612987047
258.0, 0.0005891912059244019
259.0, 0.004345885975243734
260.0, 0.004458292428413113
261.0, 0.0030389376984846796
262.0, 0.0060879783757035975
263.0, 0.004404163252712198
264.0, 0.002261087874365559
265.0, 0.005398810722472782
266.0, 0.011915197174233613
267.0, 0.003051677933990109
268.0, 0.024645385340295867
269.0, 0.008142380351241239
270.0, 0.004915184825712195
271.0, 0.011690165530718647
272.0, 0.001948720485301922
273.0, 0.0012748721789946878
274.0, 0.01810037008319909
275.0, 0.02192480128330678
276.0, 0.01655563776471321
277.0, 0.029174498793413856
278.0, 0.011761817500311822
279.0, 0.014535740923046816
280.0, 0.030275955461067504
281.0, 0.0352032998187895
282.0, 0.016263447263555143
283.0, 0.013196213890048691
284.0, 0.021546394921904875
285.0, 0.0282372140047379
286.0, 0.026134639138575784
287.0, 0.018894083667429465
288.0, 0.031481748125104105
289.0, 0.032329378420838654
290.0, 0.03478223517229022
291.0, 0.044596010769128336
292.0, 0.018607807361113504
293.0, 0.02032800223119949
294.0, 0.026540119828661952
295.0, 0.02985834533131149
296.0, 0.03368166361483268
297.0, 0.03865393075023963
298.0, 0.03487135880857384
299.0, 0.02772123139161143
300.0, 0.030478130675286406
301.0, 0.04552248202125782
302.0, 0.05694645842861088
303.0, 0.05934694882168532
304.0, 0.049427227954652764
305.0, 0.04489803892417522
306.0, 0.05305561539390742
307.0, 0.058511841067840846
308.0, 0.055254916960972573
309.0, 0.047477742238885054
310.0, 0.042769435282820116
311.0, 0.0456123164748864
312.0, 0.054675745962062365
313.0, 0.04915769293794912
314.0, 0.051128875261100507
315.0, 0.05689356362585424
316.0, 0.0530712073269088
317.0, 0.037886094573413145
318.0, 0.031759236658916286
319.0, 0.02127234740712506
320.0, 0.0053006211306671
321.0, 0.005428693718328046
322.0, 0.025461382857618408
323.0, 0.02016306663075073
324.0, 0.005062070306346663
325.0, 0.0010115555851658699
326.0, 0.003467793955059573
327.0, 0.0008584332163503947
328.0, 0.00476195788021637
329.0, 0.0035268520901560753
330.0, 0.010521497280882919
331.0, 0.010653369547795584
332.0, 0.02713218032430705
333.0, 0.021836257701856203
334.0, 0.027380035094913616
335.0, 0.04076182774925292
336.0, 0.0503083737555146
337.0, 0.060963979770933485
338.0, 0.06926435891067083
339.0, 0.06317908340255636
340.0, 0.06360577641075857
341.0, 0.09238370525452261
342.0, 0.13256073757884787
343.0, 0.142332817826921
344.0, 0.14556316749020207
345.0, 0.15493883761110763
346.0, 0.1619714016466157
347.0, 0.15659806387072867
348.0, 0.15822434340668778
349.0, 0.16464194662114215
350.0, 0.15007921735101523
351.0, 0.12354497468452218
352.0, 0.11905243134629703
353.0, 0.13324054934427484
354.0, 0.12350045980243471
355.0, 0.11201275477542876
356.0, 0.11680965848835606
357.0, 0.12596193751670617
358.0, 0.11520101139503723
359.0, 0.10254386656552714
360.0, 0.10117185187947099
361.0, 0.0945253904021021
362.0, 0.08040156757928583
363.0, 0.08763504330370078
364.0, 0.08211483268159243
365.0, 0.08893220307908264
366.0, 0.09494382405161152
367.0, 0.09111605410463922
368.0, 0.09487120096422198
369.0, 0.0926100385031248
370.0, 0.08840857018890139
371.0, 0.08194060362363477
372.0, 0.07650774481045021
373.0, 0.07916177205991233
374.0, 0.06881435021968024
375.0, 0.05855211401349924
376.0, 0.056729482839605175
377.0, 0.05624830379924117
378.0, 0.050538650922784645
379.0, 0.061538762923541705
380.0, 0.053166262998351234
381.0, 0.046333699858614956
382.0, 0.04412684759181564
383.0, 0.04019985846375474
384.0, 0.04343133487330637
385.0, 0.04743321354053025
386.0, 0.061413638311254945
387.0, 0.06795690952925582
388.0, 0.05781783441154004
389.0, 0.058404054551758615
390.0, 0.06509201030065755
391.0, 0.07196717855166865
392.0, 0.07965489940508069
393.0, 0.08823078450247754
394.0, 0.08937363652485746
395.0, 0.0708414606193291
396.0, 0.08410663033208918
397.0, 0.09911967874635608
398.0, 0.09689867414359515
399.0, 0.08691252692145075
400.0, 0.09963732052611902
401.0, 0.10155612990389905
402.0, 0.10446011648148362
403.0, 0.10143577805733198
404.0, 0.08866944620392858
405.0, 0.08896615913663557
406.0, 0.08055328314646787
407.0, 0.08868302453737043
408.0, 0.09002301001605063
409.0, 0.07612182108410144
410.0, 0.07188866234489527
411.0, 0.08614653895148601
412.0, 0.06725336697743549
413.0, 0.06683413957158367
414.0, 0.06644043656065235
415.0, 0.05576037387716412
416.0, 0.08856404311699581
417.0, 0.10096872192580761
418.0, 0.08306947156075202
419.0, 0.06355337108089314
420.0, 0.06224157501359302
421.0, 0.06976750097478643
422.0, 0.07334785209104595
423.0, 0.08297512919369057
424.0, 0.09428025851644099
425.0, 0.08407568260267535
426.0, 0.05151451163591112
427.0, 0.027550099012539096
428.0, 0.04640868989898154
429.0, 0.03896088886086095
430.0, 0.024426655121312667
431.0, 0.019240353321473152
432.0, 0.013962287086903037
433.0, 0.015093134279253444
434.0, 0.007070568879895406
435.0, 0.0024671168583037142
436.0, 0.006197163053084696
437.0, 0.014813005171948015
438.0, 0.02402200715491094
439.0, 0.018556700015619414
440.0, 0.0025858594292259805
441.0, 0.005650902579484313
442.0, 0.003982232226012955
443.0, 0.006195511043443543
444.0, 0.007691396393404117
445.0, 0.011533635733259008
446.0, 0.009456522448160923
447.0, 0.002549270500518321
448.0, 0.008338970479744091
449.0, 0.011117300684993989
450.0, 0.003689515498373752
451.0, 0.004846988019836855
452.0, 0.005647646253999409
453.0, 0.010589028100383922
454.0, 0.0010652330561540858
455.0, 0.004112101875970046
456.0, 0.008988568758736364
457.0, 0.0031405276753425585
458.0, 0.011479347178215407
459.0, 0.01011242423359541
460.0, 0.009988047339955656
461.0, 0.003333098122265001
462.0, 0.004483091933680839
463.0, 0.011357535836655554
464.0, 0.015605152251320064
465.0, 0.00814609358896068
466.0, 0.001068773852856665
467.0, 0.022305120981202183
468.0, 0.016979727360834817
469.0, 0.016485265564398086
470.0, 0.022907402257430962
471.0, 0.020500098369326383
472.0, 0.011859332452379032
473.0, 0.01132685017960608
474.0, 0.008085966281743337
475.0, 0.006235302583168659
476.0, 0.01107431596925614
477.0, 0.02151126565176805
478.0, 0.02876813756978826
479.0, 0.020067782992171667
480.0, 0.03135745482019181
481.0, 0.03511539110767227
482.0, 0.03050324419145431
483.0, 0.038668948063607274
484.0, 0.02898596641753469
485.0, 0.03512773308565924
486.0, 0.05140795293797195
487.0, 0.05562000637125356
488.0, 0.047941498817062514
489.0, 0.04963234818599159
490.0, 0.06795641261072659
491.0, 0.07238382618930493
492.0, 0.06744986890192332
493.0, 0.060062967068847735
494.0, 0.06295585201105938
495.0, 0.08740643639082989
496.0, 0.09285847284304986
497.0, 0.08596083885270231
498.0, 0.09490860894735331
499.0, 0.10438330723191665
500.0, 0.10018877093610895
501.0, 0.10054257044683779
502.0, 0.13188964702589062
503.0, 0.11537683894079072
504.0, 0.14410952108787248
505.0, 0.1707102319157018
506.0, 0.13808889003817143
507.0, 0.14805896836728605
508.0, 0.14942939069179614
509.0, 0.1322030694727529
510.0, 0.13430182053542078
511.0, 0.13215497565154755
512.0, 0.11340284409053533
513.0, 0.12406652604006108
514.0, 0.1300733404235673
515.0, 0.15909441584962056
516.0, 0.16627878372791563
517.0, 0.1633659041943114
518.0, 0.1730622637828798
519.0, 0.16003167297892884
520.0, 0.16508940968813243
521.0, 0.18145938680284704
522.0, 0.16440400434605382
523.0, 0.16033123311985742
524.0, 0.18991805414468838
525.0, 0.1821459354065789
526.0, 0.1934180551619647
527.0, 0.2065080832488308
528.0, 0.20924214041838393
529.0, 0.20351733785577675
530.0, 0.19211978909880123
531.0, 0.17982382562160004
532.0, 0.18886039120567488
533.0, 0.17090210150326235
534.0, 0.15326502736651787
535.0, 0.13739083296245333
536.0, 0.12250781886768837
537.0, 0.13099288565356315
538.0, 0.12929766434259973
539.0, 0.12423331515120276
540.0, 0.11654898286453037
541.0, 0.10956758193791583
542.0, 0.10046683381961653
543.0, 0.08538683112886708
544.0, 0.08714617475322797
545.0, 0.08387325579188984
546.0, 0.07853558532992821
547.0, 0.08749472037458644
548.0, 0.08773095788085675
549.0, 0.05932988039693402
550.0, 0.09541742490089639
551.0, 0.09379469228988711
552.0, 0.09245471493677083
553.0, 0.08731158991884327
554.0, 0.07544091368487782
555.0, 0.07908063171183329
556.0, 0.07549663246439513
557.0, 0.07529112022500914
558.0, 0.06847190824490977
559.0, 0.0653082183518972
560.0, 0.06537624244390508
561.0, 0.057995031501479395
562.0, 0.044917586209259265
563.0, 0.03706736626350198
564.0, 0.050450774337548465
565.0, 0.049761181795715995
566.0, 0.040616474863309174
567.0, 0.03907435315429019
568.0, 0.022917276705026687
569.0, 0.03465562437073224
570.0, 0.04041309152620845
571.0, 0.04324201429381411
572.0, 0.03883760071715706
573.0, 0.030230770236570288
574.0, 0.028781908720794114
575.0, 0.00695610214946702
576.0, 0.020311288611544055
577.0, 0.022509578821999377
578.0, 0.007321136111537412
579.0, 0.004017396535317089
580.0, 0.01579563330911304
581.0, 0.024848149032555354
582.0, 0.006376826053318034
583.0, 0.0007581963253572142
584.0, 0.014604774413186597
585.0, 0.01425520005315943
586.0, 0.004295330000214344
587.0, 0.025694449020063192
588.0, 0.0036327902090036446
589.0, 0.002347044119052219
590.0, 0.0006903572523638152
591.0, 0.004680556349457568
592.0, 0.0042805523636878125
593.0, 0.0003912737446872018
594.0, 0.0018979585369097733
595.0, 0.018393648507871733
596.0, 0.01206703254653439
597.0, 0.0026167105766431173
598.0, 0.008920509757713148
599.0, 0.010887498543646996
600.0, 0.005871040708473933
601.0, 0.0004088354332223524
602.0, 0.016084461177889905
603.0, 0.008993681369250186
604.0, 0.0017208016456021888
605.0, 0.006197506405813861
606.0, 0.019766977723519392
607.0, 0.013191479602072204
608.0, 0.01717076642638363
609.0, 0.009503041613602208
610.0, 0.003275604827513709
611.0, 0.0028764299684138207
612.0, 0.004044449161039018
613.0, 0.0038355331286413575
614.0, 0.006921160447618711
615.0, 0.010623564012071622
616.0, 0.016211888649507372
617.0, 0.03359144610837227
618.0, 0.04064582749681271
619.0, 0.035981594868633185
620.0, 0.06025254999232331
621.0, 0.06302697608183509
622.0, 0.05622480239055069
623.0, 0.0460180627997036
624.0, 0.04827258804245895
625.0, 0.06667434987340064
626.0, 0.07783329913176866
627.0, 0.06153535927765849
628.0, 0.08639595982786771
629.0, 0.08677933777148199
630.0, 0.10101859403247493
631.0, 0.11639902224001084
632.0, 0.11974304863451034
633.0, 0.11827097919362499
634.0, 0.10606825771111396
635.0, 0.14563219846611744
636.0, 0.15099992026663922
637.0, 0.1614020195935771
638.0, 0.17587912912594808
639.0, 0.18498761242417475
640.0, 0.19941513080348697
641.0, 0.20604949954724655
642.0, 0.23255526194375192
643.0, 0.25658918380619666
644.0, 0.2907768763160715
645.0, 0.34010229274202003
646.0, 0.38296247689434837
647.0, 0.411688351937685
648.0, 0.46678761251327494
649.0, 0.5194741633369377
650.0, 0.568951054552512
651.0, 0.61496235149421
652.0, 0.6608878772574137
653.0, 0.7226590826565181
654.0, 0.8026650218922257
655.0, 0.8574660433954898
656.0, 0.903831464148129
657.0, 0.9567639888630013
658.0, 0.9764203283934856
659.0, 0.9868725850604958
660.0, 0.9966066460917249
661.0, 0.9635098816215347
662.0, 0.9132431674061313
663.0, 0.8777975254582373
664.0, 0.7549737059786364
665.0, 0.6478907132285876
666.0, 0.5788471434608442
667.0, 0.5092572816552361
668.0, 0.44831085623219535
669.0, 0.39530607781629334
670.0, 0.32312124623156235
671.0, 0.2955829073393992
672.0, 0.2866210934901006
673.0, 0.23911846952309226
674.0, 0.17943954184747646
675.0, 0.17666047529304704
676.0, 0.17508106933231832
677.0, 0.14713843249697478
678.0, 0.13046430415920124
679.0, 0.11765411981181734
680.0, 0.11245637682763313
681.0, 0.10792713675955612
682.0, 0.09575870923600699
683.0, 0.09411752720904783
684.0, 0.10746661772780651
685.0, 0.09968574885090685
686.0, 0.08791665087686557
687.0, 0.08011777226373189
688.0, 0.07856451000965925
689.0, 0.07287845567695045
690.0, 0.05380675003304721
691.0, 0.055034525824375256
692.0, 0.056563629839349795
693.0, 0.059584049896028994
694.0, 0.0393646470814169
695.0, 0.029001564380872258
696.0, 0.042170006928728236
697.0, 0.04393599936557825
698.0, 0.02860362904427504
699.0, 0.02246423396048706
700.0, 0.02790460147641971
701.0, 0.018896323925532844
702.0, 0.009684294518262623
703.0, 0.008166078063809293
704.0, 0.0064179482012604325
705.0, 0.01584337562714422
706.0, 0.013642151910765439
707.0, 0.0068846797834677
708.0, 0.009305632179542927
709.0, 0.008965506810723235
710.0, 0.003335444574349299
711.0, 0.0019529724557417593
712.0, 0.0026042301120908266
713.0, 0.01104027490070456
714.0, 0.009082335232229942
715.0, 0.033977093174940305
716.0, 0.015882886036734226
717.0, 0.0026273001035998296
718.0, 0.0015895365638249402
719.0, 0.010335807872704937
720.0, 0.01889973210757493
721.0, 0.005823826942128502
722.0, 0.0031751713389307616
723.0, 0.010051501085229187
724.0, 0.012108842587871186
725.0, 0.003031614905265244
726.0, 0.013163997841314619
727.0, 0.00918934995305013
728.0, 0.00956656504124574
729.0, 0.009747238185704128
730.0, 0.0020160774958492005
731.0, 0.0009071445108868877
732.0, 0.004213430832720685
733.0, 0.006699512372051282
734.0, 0.024978952636709306
735.0, 0.020914894319661894
736.0, 0.005573756090110769
737.0, 0.0056807010401858215
738.0, 0.011524552102286749
739.0, 0.015659065878415805
740.0, 0.01928875625518076
741.0, 0.017381413824276735
742.0, 0.01313697867615573
743.0, 0.017872449418948597
744.0, 0.02010890456541018
745.0, 0.009299412412275117
746.0, 0.01085318326240785
747.0, 0.03447937164617703
748.0, 0.04212381100074684
749.0, 0.030063699485930566
750.0, 0.024010296460191826
751.0, 0.02276084744323979
752.0, 0.0019931573627027604
753.0, 0.027957584730350333
754.0, 0.030693722261433576
755.0, 0.031291122761537185
756.0, 0.035027361648602415
757.0, 0.032671522363401456
758.0, 0.026465394276000954
759.0, 0.019293212776183524
760.0, 0.029036458774426777
761.0, 0.03217230087769129
762.0, 0.04164441063480513
763.0, 0.028063734812813868
764.0, 0.02443441504952482
765.0, 0.03650755673457548
766.0, 0.03075834746573764
767.0, 0.010900249783788571
768.0, 0.016120219063936094
769.0, 0.020179184795920423
770.0, 0.02105739190913595
771.0, 0.01917121949289866
772.0, 0.016522878789938595
773.0, 0.01644572199135134
774.0, 0.015316799223017158
775.0, 0.016998272337833294
776.0, 0.031861034739743686
777.0, 0.014442500199113544
778.0, 0.010123141048530739
779.0, 0.014784360749310605
780.0, 0.012382624091607957
781.0, 0.021898277949014854
782.0, 0.026550792242766547
783.0, 0.005430055718391635
784.0, 0.03511726194276305
785.0, 0.03184458220207238
786.0, 0.01600189912648915
787.0, 0.005755653762306843
788.0, 0.014953599660925286
789.0, 0.006014716414290319
790.0, 0.002654582100814069
791.0, 0.025503694556277816
792.0, 0.018533444835833395
793.0, 0.02333645692760222
794.0, 0.02156045170967841
795.0, 0.015135752959520181
796.0, 0.016067904628489043
797.0, 0.01772498494932447
798.0, 0.01980076652960706
799.0, 0.017721859445107437
800.0, 0.011356517495254482
801.0, 0.022973435273982816
802.0, 0.025695235396336166
803.0, 0.022075513879088942
804.0, 0.019051537855569244
805.0, 0.016262359781767623
806.0, 0.012367886680357522
807.0, 0.008713529010776816
808.0, 0.005144798192096996
809.0, 0.001382869098882903
810.0, 0.003839468336476248
811.0, 0.030706792552060873
812.0, 0.016811196926134052
813.0, 0.002723089866322593
814.0, 0.009765385243070121
815.0, 0.013653673013253976
816.0, 0.010334606524377793
817.0, 0.017246403374797697
818.0, 0.012298370769030531
819.0, 0.005961389599099955
820.0, 0.017490025887151858
821.0, 0.020933040198266927
822.0, 0.005519997399208415
823.0, 0.004395146711707393
824.0, 0.0086175175194844
825.0, 0.005477798428328644
826.0, 0.0030104827273020906
827.0, 0.017522936119472695
828.0, 0.019356753315616575
829.0, 0.020123648097821627
830.0, 0.0020909461997100608
831.0, 0.022787901717749307
832.0, 0.004581526264829581
833.0, 0.008331878383787492
834.0, 0.013524640254955287
835.0, 0.013126060406803874
836.0, 0.017326705446476545
837.0, 0.01604318507365817
838.0, 0.011572324492227103
839.0, 0.01650632135996443
840.0, 0.010471292127804135
841.0, 0.005354503874366199
842.0, 0.00798494135198624
843.0, 0.010845994416530568
844.0, 0.010227821672450656
845.0, 0.0066024510611199325
846.0, 0.0177325547523644
847.0, 0.017823058208422525
848.0, 0.008113726750668649
849.0, 0.010563452232508763
850.0, 0.01966855737397987
851.0, 0.018364362863391194
852.0, 0.019102596674405937
853.0, 0.012337994432851026
854.0, 0.0017353356007594601
855.0, 0.004447561350720801
856.0, 0.03134270987061278
857.0, 0.01869212741926341
858.0, 0.013698761745378287
859.0, 0.02021147293798011
860.0, 0.02138215006845287
861.0, 0.01737608536685528
862.0, 0.020308312844547968
863.0, 0.029950143010542503
864.0, 0.02756592949306485
865.0, 0.017747299488135686
866.0, 0.02637794385907289
867.0, 0.010777033169795525
868.0, 0.015838811342214192
869.0, 0.027678184631298865
870.0, 0.021266614489902712
871.0, 0.021552140756271144
872.0, 0.031977564664242876
873.0, 0.023730346584514624
874.0, 0.016041353498705276
875.0, 0.006539062039635437
876.0, 0.027709449639633912
877.0, 0.01482943181813814
878.0, 0.018663784923278606
879.0, 0.02729950047704631
880.0, 0.014998713969781806
881.0, 0.021008276536796874
882.0, 0.03093470476701029
883.0, 0.028142636095674474
884.0, 0.03259913200978669
885.0, 0.021907475569521592
886.0, 0.024737907649175675
887.0, 0.0300498374390441
888.0, 0.029844584932084292
889.0, 0.017447604464892835
890.0, 0.018629384112059177
891.0, 0.027381637724857633
892.0, 0.011987534425282435
893.0, 0.0034094607375308858
894.0, 0.017527226520000695
895.0, 0.0020365007480742407
896.0, 0.02181051895446735
897.0, 0.046358696295834466
898.0, 0.032921080085228926
899.0, 0.024542393219494373
900.0, 0.03085002485901891
901.0, 0.03154590249016543
902.0, 0.023166625594143408
903.0, 0.022053821928574927
904.0, 0.03508980062890774
905.0, 0.03930593048736524
906.0, 0.024829146316060466
907.0, 0.03138882611244766
908.0, 0.03168735296645181
909.0, 0.04461131361007931
910.0, 0.045191750589136374
911.0, 0.037650243382964306
912.0, 0.03818878223737477
913.0, 0.0327574855078679
914.0, 0.025263153851351444
915.0, 0.019939313272020146
916.0, 0.02597027064614982
917.0, 0.01791547640697639
918.0, 0.009436348032045221
919.0, 0.011137846366341886
920.0, 0.01122693505605972
921.0, 0.012813590601757758
922.0, 0.007411589952935546
923.0, 0.007882622303585616
924.0, 0.007391986817741664
925.0, 0.013670358641519512
926.0, 0.019958440032766648
927.0, 0.016882457964218132
928.0, 0.0050676656387111975
929.0, 0.0030220213921419055
930.0, 0.005881448779237123
931.0, 0.008269665861766019
932.0, 0.0042881504543609205
933.0, 0.003806563931041617
934.0, 0.00410019183452465
935.0, 0.006898070156174323
936.0, 0.0012040956978838727
937.0, 0.010197273761229024
938.0, 0.012493531246291224
939.0, 0.0012280362589120561
940.0, 0.004759227044017541
941.0, 0.0038840774520171074
942.0, 0.0010821885107151923
943.0, 0.007638242921295604
944.0, 0.014108601907060906
945.0, 0.014512618836403323
946.0, 0.01396083546372412
947.0, 0.02685105977584348
948.0, 0.01966371170286057
949.0, 0.018667538424912696
950.0, 0.008311167550692767
951.0, 0.022523571679529703
952.0, 0.012559293440593462
953.0, 0.01807320935387195
954.0, 0.02481382955563129
955.0, 0.025652000291819292
956.0, 0.031036399698549242
957.0, 0.03157826548615468
958.0, 0.03479982922204858
959.0, 0.03746878013763768
960.0, 0.04767622792877672
961.0, 0.0429385552321507
962.0, 0.04388085121221314
963.0, 0.04923303886456958
964.0, 0.047853088015586284
965.0, 0.054300419589497655
966.0, 0.050654745852943994
967.0, 0.05967385300150561
968.0, 0.058689802365460564
969.0, 0.056628067626918716
970.0, 0.06307080501799421
971.0, 0.06475146740545291
972.0, 0.052641210371640317
973.0, 0.059936640189286516
974.0, 0.05368187585536012
975.0, 0.05201180639842963
976.0, 0.05479053210327223
977.0, 0.0512172104519067
978.0, 0.055608191493847645
979.0, 0.04966492799955391
980.0, 0.05686850777174689
981.0, 0.05327738694697345
982.0, 0.04567431985274804
983.0, 0.04819648415451624
984.0, 0.04600072975860916
985.0, 0.0490633784119202
986.0, 0.04376799510623396
987.0, 0.03780590287057795
988.0, 0.0384051196198713
989.0, 0.03991045899084987
990.0, 0.036663694052308744
991.0, 0.04787390421359513
992.0, 0.054263690231208944
993.0, 0.04446891327973296
994.0, 0.04863526366679565
995.0, 0.04742767609135378
996.0, 0.05290847861348492
997.0, 0.053437035015815475
998.0, 0.057492095790685156
999.0, 0.07217243477463291
1000.0, 0.06901902181263031
1001.0, 0.07671621578116986
1002.0, 0.08641667233626057
1003.0, 0.08919026913393323
1004.0, 0.09464263466066081
1005.0, 0.09385311314107397
1006.0, 0.09406072311306861
1007.0, 0.11884594988071416
1008.0, 0.11836225322372507
1009.0, 0.11629116213653484
1010.0, 0.11941540177481808
1011.0, 0.1418815363265974
1012.0, 0.15266782225435443
1013.0, 0.16819940660333343
1014.0, 0.18754905441758668
1015.0, 0.20143480467155012
1016.0, 0.21461745396803375
1017.0, 0.20898002977459504
1018.0, 0.2071005081711049
1019.0, 0.23424401409861825
1020.0, 0.23468107018072648
1021.0, 0.2143286860668949
1022.0, 0.22559228270280854
1023.0, 0.2095975039764871
1024.0, 0.1813827932303593
1025.0, 0.171417507911079
1026.0, 0.15447084067177552
1027.0, 0.12080789214622123
1028.0, 0.10635740139176025
1029.0, 0.10798948486107719
1030.0, 0.0971465584759483
1031.0, 0.08951942029560521
1032.0, 0.0898681732955417
1033.0, 0.07064569846171836
1034.0, 0.05328864590697819
1035.0, 0.06078909614215536
1036.0, 0.04405070325457064
1037.0, 0.04674993127036329
1038.0, 0.03204871246790643
1039.0, 0.03273183111766989
1040.0, 0.038225192109806516
1041.0, 0.023362440728765196
1042.0, 0.011262896012556065
1043.0, 0.023047862955927458
1044.0, 0.021886588040323923
1045.0, 0.020755480228797533
1046.0, 0.030686731355364563
1047.0, 0.011761206882912448
1048.0, 0.0028470231268787785
1049.0, 0.019986845038117075
1050.0, 0.019134447243834618
1051.0, 0.014246337511855564
1052.0, 0.0008482730933603948
1053.0, 0.009358320951588308
1054.0, 0.008127521780540851
1055.0, 0.0021235983491281894
1056.0, 0.0038909174551565425
1057.0, 0.0017226080719134778
1058.0, 0.011006462729712464
1059.0, 0.005521803104551432
1060.0, 0.007420640708313452
1061.0, 0.02470275003084157
1062.0, 0.0034643971604610647
1063.0, 0.0074875684669124965
1064.0, 0.007739744893946413
1065.0, 0.004598444222129492
1066.0, 0.0033201404435924055
1067.0, 0.0019330086647260916
1068.0, 0.008588949561734373
1069.0, 0.01584058323848176
1070.0, 0.003806942464484351
1071.0, 0.0034578512239410004
1072.0, 0.0016310598155090644
1073.0, 0.0031462767374593687
1074.0, 0.017695689553491885
1075.0, 0.015577311068564557
1076.0, 0.0055907072427542025
1077.0, 0.009457110490670561
1078.0, 0.004681545296825054
1079.0, 0.0010792383549926628
1080.0, 0.0017378081776902726
1081.0, 0.009363529666020992
1082.0, 0.016287173830174605
1083.0, 0.015294721881469964
1084.0, 0.0026734311871686334
1085.0, 0.0021735276469916887
1086.0, 0.012744304406944596
1087.0, 0.016910933738708674
1088.0, 0.02985063605522154
1089.0, 0.030427496280202835
1090.0, 0.022790960800391197
1091.0, 0.027056185305691354
1092.0, 0.02280336336643143
1093.0, 0.015074963280647401
1094.0, 0.030164741168761878
1095.0, 0.02159675267577678
1096.0, 0.026927372733157
1097.0, 0.03057199121427516
1098.0, 0.017891043904061377
1099.0, 0.012981898468593952
1100.0, 0.04008448449220667
1101.0, 0.026049190739368806
1102.0, 0.011586981583042109
1103.0, 0.024377138780059517
1104.0, 0.020047272680096942
1105.0, 0.012777247439954424
1106.0, 0.023067320659832805
1107.0, 0.02570692627392286
1108.0, 0.026698850705358393
1109.0, 0.026170285107762526
1110.0, 0.023109203714421166
1111.0, 0.03374198217499195
1112.0, 0.03169450351168644
1113.0, 0.02022396420964431
1114.0, 0.012715154645186473
1115.0, 0.020922310954649342
1116.0, 0.017570550944040794
1117.0, 0.00885348870161552
1118.0, 0.022560855873127127
1119.0, 0.010389828111185941
1120.0, 0.0006302702286590455
1121.0, 0.005297555452876523
1122.0, 0.014346497799875364
1123.0, 0.01933675524429488
1124.0, 0.03719021368783329
1125.0, 0.020747229340706226
1126.0, 0.0029662580245568065
1127.0, 0.012444531217351843
1128.0, 0.01559822040102558
1129.0, 0.01651747336055172
1130.0, 0.012962402622776575
1131.0, 0.010545049424266317
1132.0, 0.010583830414832962
1133.0, 0.02885268482301076
1134.0, 0.019686917084958833
1135.0, 0.0034066932276402154
1136.0, 0.00440459652177691
1137.0, 0.007233773075722141
1138.0, 0.022983997920156214
1139.0, 0.035996584563254774
1140.0, 0.025288067074978517
1141.0, 0.03116592287929245
1142.0, 0.031234518984792913
1143.0, 0.02233465397393496
1144.0, 0.020972049911245908
1145.0, 0.024155760500160463
1146.0, 0.027661328284425975
1147.0, 0.028651277379820483
1148.0, 0.029580915285106577
1149.0, 0.020808808377197625
1150.0, 0.002700141871087773
1151.0, 0.017431250547130527
1152.0, 0.02434235319102825
1153.0, 0.0353054332806891
1154.0, 0.03979365486132765
1155.0, 0.01684972701792595
1156.0, 0.017720221134497106
1157.0, 0.028900488525954494
1158.0, 0.015701404146206563
1159.0, 0.017097089687397933
1160.0, 0.019766239492214007
1161.0, 0.009472757789124236
1162.0, 0.014563005859450142
1163.0, 0.028850797222936375
1164.0, 0.02107632166079191
1165.0, 0.01334278497411102
1166.0, 0.01921353656245097
1167.0, 0.027961162829216527
1168.0, 0.03185258426792823
1169.0, 0.020563593359791826
1170.0, 0.017642542116262403
1171.0, 0.03168965972806823
1172.0, 0.0335426477894883
1173.0, 0.03756776424020345
1174.0, 0.014917948148112273
1175.0, 0.033586452350648194
1176.0, 0.035846580893695856
1177.0, 0.017799556959082523
1178.0, 0.010383625895275507
1179.0, 0.009844397876701416
1180.0, 0.002707595115292147
1181.0, 0.017807438385184355
1182.0, 0.030391024927577604
1183.0, 0.02094669663402017
1184.0, 0.029092315916000238
1185.0, 0.014699993472088863
1186.0, 0.04062037046232568
1187.0, 0.0456962753821624
1188.0, 0.04032227264411729
1189.0, 0.018645161012942064
1190.0, 0.0037161224864037286
1191.0, 0.019425819239996804
1192.0, 0.02408632840823934
1193.0, 0.013640757411311015
1194.0, 0.006933373016105764
1195.0, 0.006496755270485809
1196.0, 0.012599643573548305
1197.0, 0.011411731266710601
1198.0, 0.022178849961132632
1199.0, 0.020877193568498757
1200.0, 0.022058791110045967
1201.0, 0.014763944873217014
1202.0, 0.017583586803141083
1203.0, 0.028351942242792482
1204.0, 0.015916547955967177
1205.0, 0.012299115380657892
1206.0, 0.00948693971193973
1207.0, 0.012098075693024856
1208.0, 0.008413996212861747
1209.0, 0.03746075170700839
1210.0, 0.02326663430157382
1211.0, 0.04027753918270069
1212.0, 0.03097871461158077
1213.0, 0.0189434120278155
1214.0, 0.022113805355213262
1215.0, 0.016874334070289054
1216.0, 0.03661605958182682
1217.0, 0.03700783494482454
1218.0, 0.011874290438863238
1219.0, 0.010194334415284906
1220.0, 0.017846046953394083
1221.0, 0.014273076397061154
1222.0, 0.0137211310612251
1223.0, 0.01815489701511709
1224.0, 0.022288353860345035
1225.0, 0.02028042353575766
1226.0, 0.013450971615653933
1227.0, 0.008875180373649552
1228.0, 0.0001542928661726229
1229.0, 0.0017327906653241856
1230.0, 0.0018635227359826197
1231.0, 0.005632424176867476
1232, 0.0
1233, 0.0
1234, 0.0
1235, 0.0
1236, 0.0
1237, 0.0
1238, 0.0
1239, 0.0
1240, 0.0
1241, 0.0
1242, 0.0
1243, 0.0
1244, 0.0
1245, 0.0
1246, 0.0
1247, 0.0
1248, 0.0
1249, 0.0
1250, 0.0
1251, 0.0
1252, 0.0
1253, 0.0
1254, 0.0
1255, 0.0
1256, 0.0
1257, 0.0
1258, 0.0
1259, 0.0
1260, 0.0
1261, 0.0
1262, 0.0
1263, 0.0
1264, 0.0
1265, 0.0
1266, 0.0
1267, 0.0
1268, 0.0
1269, 0.0
1270, 0.0
1271, 0.0
1272, 0.0
1273, 0.0
1274, 0.0
1275, 0.0
1276, 0.0
1277, 0.0
1278, 0.0
1279, 0.0
1280, 0.0
1281, 0.0
1282, 0.0
1283, 0.0
1284, 0.0
1285, 0.0
1286, 0.0
1287, 0.0
1288, 0.0
1289, 0.0
1290, 0.0
1291, 0.0
1292, 0.0
1293, 0.0
1294, 0.0
1295, 0.0
1296, 0.0
1297, 0.0
1298, 0.0
1299, 0.0
1300, 0.0
1301, 0.0
1302, 0.0
1303, 0.0
1304, 0.0
1305, 0.0
1306, 0.0
1307, 0.0
1308, 0.0
1309, 0.0
1310, 0.0
1311, 0.0
1312, 0.0
1313, 0.0
1314, 0.0
1315, 0.0
1316, 0.0
1317, 0.0
1318, 0.0
1319, 0.0
1320, 0.0
1321, 0.0
1322, 0.0
1323, 0.0
1324, 0.0
1325, 0.0
1326, 0.0
1327, 0.0
1328, 0.0
1329, 0.0
1330, 0.0
1331, 0.0
1332, 0.0
1333, 0.0
1334, 0.0
1335, 0.0
1336, 0.0
1337, 0.0
1338, 0.0
1339, 0.0
1340, 0.0
1341, 0.0
1342, 0.0
1343, 0.0
1344, 0.0
1345, 0.0
1346, 0.0
1347, 0.0
1348, 0.0
1349, 0.0
1350, 0.0
1351, 0.0
1352, 0.0
1353, 0.0
1354, 0.0
1355, 0.0
1356, 0.0
1357, 0.0
1358, 0.0
1359, 0.0
1360, 0.0
1361, 0.0
1362, 0.0
1363, 0.0
1364, 0.0
1365, 0.0
1366, 0.0
1367, 0.0
1368, 0.0
1369, 0.0
1370, 0.0
1371, 0.0
1372, 0.0
1373, 0.0
1374, 0.0
1375, 0.0
1376, 0.0
1377, 0.0
1378, 0.0
1379, 0.0
1380, 0.0
1381, 0.0
1382, 0.0
1383, 0.0
1384, 0.0
1385, 0.0
1386, 0.0
1387, 0.0
1388, 0.0
1389, 0.0
1390, 0.0
1391, 0.0
1392, 0.0
1393, 0.0
1394, 0.0
1395, 0.0
1396, 0.0
1397, 0.0
1398, 0.0
1399, 0.0
1400, 0.0
1401, 0.0
1402, 0.0
1403, 0.0
1404, 0.0
1405, 0.0
1406, 0.0
1407, 0.0
1408, 0.0
1409, 0.0
1410, 0.0
1411, 0.0
1412, 0.0
1413, 0.0
1414, 0.0
1415, 0.0
1416, 0.0
1417, 0.0
1418, 0.0
1419, 0.0
1420, 0.0
1421, 0.0
1422, 0.0
1423, 0.0
1424, 0.0
1425, 0.0
1426, 0.0
1427, 0.0
1428, 0.0
1429, 0.0
1430, 0.0
1431, 0.0
1432, 0.0
1433, 0.0
1434, 0.0
1435, 0.0
1436, 0.0
1437, 0.0
1438, 0.0
1439, 0.0
1440, 0.0
1441, 0.0
1442, 0.0
1443, 0.0
1444, 0.0
1445, 0.0
1446, 0.0
1447, 0.0
1448, 0.0
1449, 0.0
1450, 0.0
1451, 0.0
1452, 0.0
1453, 0.0
1454, 0.0
1455, 0.0
1456, 0.0
1457, 0.0
1458, 0.0
1459, 0.0
1460, 0.0
1461, 0.0
1462, 0.0
1463, 0.0
1464, 0.0
1465, 0.0
1466, 0.0
1467, 0.0
1468, 0.0
1469, 0.0
1470, 0.0
1471, 0.0
1472, 0.0
1473, 0.0
1474, 0.0
1475, 0.0
1476, 0.0
1477, 0.0
1478, 0.0
1479, 0.0
1480, 0.0
1481, 0.0
1482, 0.0
1483, 0.0
1484, 0.0
1485, 0.0
1486, 0.0
1487, 0.0
1488, 0.0
1489, 0.0
1490, 0.0
1491, 0.0
1492, 0.0
1493, 0.0
1494, 0.0
1495, 0.0
1496, 0.0
1497, 0.0
1498, 0.0
1499, 0.0
1500, 0.0
1501, 0.0
1502, 0.0
1503, 0.0
1504, 0.0
1505, 0.0
1506, 0.0
1507, 0.0
1508, 0.0
1509, 0.0
1510, 0.0
1511, 0.0
1512, 0.0
1513, 0.0
1514, 0.0
1515, 0.0
1516, 0.0
1517, 0.0
1518, 0.0
1519, 0.0
1520, 0.0
1521, 0.0
1522, 0.0
1523, 0.0
1524, 0.0
1525, 0.0
1526, 0.0
1527, 0.0
1528, 0.0
1529, 0.0
1530, 0.0
1531, 0.0
1532, 0.0
1533, 0.0
1534, 0.0
1535, 0.0
1536, 0.0
1537, 0.0
1538, 0.0
1539, 0.0
1540, 0.0
1541, 0.0
1542, 0.0
1543, 0.0
1544, 0.0
1545, 0.0
1546, 0.0
1547, 0.0
1548, 0.0
1549, 0.0
1550, 0.0
1551, 0.0
1552, 0.0
1553, 0.0
1554, 0.0
1555, 0.0
1556, 0.0
1557, 0.0
1558, 0.0
1559, 0.0
1560, 0.0
1561, 0.0
1562, 0.0
1563, 0.0
1564, 0.0
1565, 0.0
1566, 0.0
1567, 0.0
1568, 0.0
1569, 0.0
1570, 0.0
1571, 0.0
1572, 0.0
1573, 0.0
1574, 0.0
1575, 0.0
1576, 0.0
1577, 0.0
1578, 0.0
1579, 0.0
1580, 0.0
1581, 0.0
1582, 0.0
1583, 0.0
1584, 0.0
1585, 0.0
1586, 0.0
1587, 0.0
1588, 0.0
1589, 0.0
1590, 0.0
1591, 0.0
1592, 0.0
1593, 0.0
1594, 0.0
1595, 0.0
1596, 0.0
1597, 0.0
1598, 0.0
1599, 0.0
