30, 0.0
31, 0.0
32, 0.0
33, 0.0
34, 0.0
35, 0.0
36, 0.0
37, 0.0
38, 0.0
39, 0.0
40, 0.0
41, 0.0
42, 0.0
43, 0.0
44, 0.0
45, 0.0
46, 0.0
47, 0.0
48, 0.0
49, 0.0
50, 0.0
51, 0.0
52, 0.0
53, 0.0
54.0, 0.00012288301354977579
55.0, 0.0002621532597189034
56.0, 0.00036694388039052654
57.0, 0.0005438657628907501
58.0, 0.0009243547353961853
59.0, 0.0013705022960448345
60.0, 0.0012774547324076026
61.0, 0.0014778583495505735
62.0, 0.001725407724429861
63.0, 0.0018709778048421073
64.0, 0.0015859945773552782
65.0, 0.0012580343449171692
66.0, 0.0009227628230266121
67.0, 0.0006211159240193107
68.0, 0.00037303942308637657
69.0, 0.00017626320307478872
70.0, 4.493346376354498e-05
71.0, 0.00011810548688585783
72.0, 0.0001728146511518379
73.0, 0.00017834351268086594
74.0, 6.763853208570071e-05
75.0, 0.00037978001646131373
76.0, 0.0010644038094132985
77.0, 0.0021974013747393644
78.0, 0.003990795855249842
79.0, 0.007452136409012008
80.0, 0.013576893956179732
81.0, 0.029080847129211676
82.0, 0.06756399535478935
83.0, 0.11400163338892422
84.0, 0.15651210842004154
85.0, 0.16747230878796757
86.0, 0.14570573190267772
87.0, 0.09650357937485578
88.0, 0.061989132531208205
89.0, 0.04177860067499578
90.0, 0.0298124219847434
91.0, 0.022843298251121486
92.0, 0.01993594567229055
93.0, 0.017554077054553925
94.0, 0.015395404404957853
95.0, 0.014391210893770254
96.0, 0.01320586075065817
97.0, 0.011865937596671752
98.0, 0.010347404787522116
99.0, 0.009320739553069826
100.0, 0.008462976488621791
101.0, 0.007717276033253096
102.0, 0.006951903022734173
103.0, 0.006443989044211246
104.0, 0.006097467874090068
105.0, 0.0058779658006697655
106.0, 0.005600030338832562
107.0, 0.005596076673241965
108.0, 0.005807375791693492
109.0, 0.005784242010076064
110.0, 0.006451414843884515
111.0, 0.007528122686985221
112.0, 0.008916968224052706
113.0, 0.010682081690159561
114.0, 0.013088328611786118
115.0, 0.0157744474237665
116.0, 0.017164856698031278
117.0, 0.016677670858745986
118.0, 0.015042482662209578
119.0, 0.012446263989024162
120.0, 0.009656881949623724
121.0, 0.007523250974750968
122.0, 0.006023014571566709
123.0, 0.005169589911389016
124.0, 0.0045385047891448975
125.0, 0.004097213676028178
126.0, 0.003856405625805027
127.0, 0.003474929491817647
128.0, 0.003293391470950235
129.0, 0.003146658097733267
130.0, 0.0026478820076080026
131.0, 0.0027492493313209625
132.0, 0.0026733129898577753
133.0, 0.002208605211960654
134.0, 0.002300310447117984
135.0, 0.0021566929556389967
136.0, 0.0018686806614872926
137.0, 0.0015367456747676063
138.0, 0.0018351236155342097
139.0, 0.0020067873825779115
140.0, 0.0019039428375753334
141.0, 0.0015842589414457482
142.0, 0.0014677398514923571
143.0, 0.0014182564704974063
144.0, 0.0013109380587266663
145.0, 0.0010642574913934451
146.0, 0.0010363543640017363
147.0, 0.0011658383151392617
148.0, 0.0009051472023024278
149.0, 0.0009415428526330086
150.0, 0.000995348333703361
151.0, 0.0008883423298049569
152.0, 0.000770076362110182
153.0, 0.0008887636231405449
154.0, 0.0010853427323564186
155.0, 0.0008488902072848317
156.0, 0.0009328072084327367
157.0, 0.001040414519233135
158.0, 0.0010583882854973677
159.0, 0.000798741545310157
160.0, 0.0007941420718764977
161.0, 0.0008813377429878167
162.0, 0.0007995189245993615
163.0, 0.0010229742888573628
164.0, 0.0009268984043890451
165.0, 0.00047916422940021835
166.0, 0.0006581628497132762
167.0, 0.0008456846174697394
168.0, 0.0009105408967799814
169.0, 0.0006994279709231156
170.0, 0.0010163678667161032
171.0, 0.001116699211757513
172.0, 0.0010288647949260482
173.0, 0.001090788253124598
174.0, 0.0009057155565967078
175.0, 0.0006757090807165838
176.0, 0.0004907054752928074
177.0, 0.0006716915551643773
178.0, 0.0007061841861298021
179.0, 0.0006728357779680626
180.0, 0.0007121688163559883
181.0, 0.0005296752993635133
182.0, 0.0005693193648439388
183.0, 0.0008451964467258841
184.0, 0.0004705311835037461
185.0, 0.0007612191360477857
186.0, 0.0012902893755925744
187.0, 0.0017224117623592262
188.0, 0.0014996938515324067
189.0, 0.001429598260053904
190.0, 0.001549095175530373
191.0, 0.0018162680547652579
192.0, 0.0023556935634024964
193.0, 0.0029387276529550554
194.0, 0.0034822660338343215
195.0, 0.004106452708073831
196.0, 0.004769401520969089
197.0, 0.0055260483917144755
198.0, 0.006484436925806337
199.0, 0.00737953338542155
200.0, 0.008739074268795563
201.0, 0.010662239167646791
202.0, 0.013273552872445596
203.0, 0.01678581184342527
204.0, 0.02155197740068051
205.0, 0.027971665285866018
206.0, 0.039353793683919544
207.0, 0.05453691305610176
208.0, 0.07481821040722503
209.0, 0.10424099984336245
210.0, 0.12652142638810912
211.0, 0.14361962029057146
212.0, 0.1537183081005498
213.0, 0.13777880517999308
214.0, 0.11116995106956613
215.0, 0.08350415340226287
216.0, 0.06233634038604129
217.0, 0.04622954298623784
218.0, 0.03457115011011359
219.0, 0.026649616116133354
220.0, 0.021365833886510997
221.0, 0.017986701989638768
222.0, 0.015606136127587694
223.0, 0.013917325695052742
224.0, 0.011740561015392208
225.0, 0.01060885536317027
226.0, 0.009540274672749052
227.0, 0.007635851578273103
228.0, 0.006892733249033289
229.0, 0.006127970420213365
230.0, 0.005300290350893624
231.0, 0.00449203121264093
232.0, 0.0038794823048271206
233.0, 0.003246564953162445
234.0, 0.0025866019925189767
235.0, 0.002625779624079889
236.0, 0.002256441276323423
237.0, 0.0019331804310113486
238.0, 0.0020826451247268215
239.0, 0.0017345620626095606
240.0, 0.0014188637132019565
241.0, 0.0012223429739280588
242.0, 0.0013235120838940454
243.0, 0.001029243504216697
244.0, 0.000837762155651223
245.0, 0.0008707864211078872
246.0, 0.0009368945631024285
247.0, 0.0008164770332647444
248.0, 0.0006078278478570165
249.0, 0.00037558734537002005
250.0, 0.0005132105096242057
251.0, 0.0006568085258338189
252.0, 0.0007209819312496917
253.0, 0.0005251197373366136
254.0, 0.00043135763871770063
255.0, 0.0003438796422060394
256.0, 0.0002626668858473716
257.0, 0.00033059417249765746
258.0, 0.00043412808187576614
259.0, 0.0004837988444187337
260.0, 0.0004204551297617036
261.0, 0.0006087024496005133
262.0, 0.0005858021841075054
263.0, 0.0005046140863913012
264.0, 0.0006095052820468834
265.0, 0.0005221836671719448
266.0, 0.0005871167565292244
267.0, 0.0007734188074111016
268.0, 0.0007470133025310429
269.0, 0.0008807051558485265
270.0, 0.0009933203703396528
271.0, 0.0010233970282879567
272.0, 0.0012132384059687488
273.0, 0.0014441264398311114
274.0, 0.001603880742190383
275.0, 0.0015662217951589715
276.0, 0.0015967636941557639
277.0, 0.0017910696384940597
278.0, 0.0019336940989661737
279.0, 0.0014521401109863928
280.0, 0.0014683711547309685
281.0, 0.0016328242078280453
282.0, 0.0018531681526501678
283.0, 0.002020378067291529
284.0, 0.0022182448859770026
285.0, 0.002386243403365939
286.0, 0.0024935408010969707
287.0, 0.002889534409778628
288.0, 0.00309786313147494
289.0, 0.003274353359032382
290.0, 0.0036225239745548885
291.0, 0.004015049430934658
292.0, 0.004297951027713819
293.0, 0.004608039087834257
294.0, 0.005413725819610277
295.0, 0.005512597817566585
296.0, 0.005665689973805468
297.0, 0.006010928462627649
298.0, 0.005999264565043619
299.0, 0.006635520863384868
300.0, 0.007093266587135234
301.0, 0.006877406395128583
302.0, 0.007757168226115508
303.0, 0.008660002775768788
304.0, 0.009379218625201887
305.0, 0.009608877214212396
306.0, 0.010739929399611617
307.0, 0.011701841775009185
308.0, 0.01264107123390111
309.0, 0.01424382831248978
310.0, 0.014995618184536187
311.0, 0.015732103224714224
312.0, 0.01682016258517736
313.0, 0.01934185202455612
314.0, 0.020708150511522864
315.0, 0.022392082467975288
316.0, 0.025098047404428534
317.0, 0.02694348116374384
318.0, 0.02971089838479979
319.0, 0.03340575384588793
320.0, 0.03814721648877615
321.0, 0.04223871859027869
322.0, 0.04826467403480207
323.0, 0.055760420423366916
324.0, 0.06371644167005153
325.0, 0.0746063722513896
326.0, 0.08892797065126724
327.0, 0.10629435466156009
328.0, 0.124953414095966
329.0, 0.15519217486901857
330.0, 0.1851993185129498
331.0, 0.21248631553179329
332.0, 0.2509043201968735
333.0, 0.2690435608932889
334.0, 0.2723790072349274
335.0, 0.263344970344806
336.0, 0.24861156741368787
337.0, 0.21664743268899556
338.0, 0.1809714986293372
339.0, 0.1572670677201014
340.0, 0.12944368563195613
341.0, 0.10677608769912328
342.0, 0.089187434497347
343.0, 0.07599790769328482
344.0, 0.063400306510097
345.0, 0.054370302162694506
346.0, 0.048261471451077356
347.0, 0.04094497595825726
348.0, 0.03644927565262957
349.0, 0.032725251516614394
350.0, 0.029227362487171255
351.0, 0.02637987449370633
352.0, 0.024153528127816983
353.0, 0.021912955569139653
354.0, 0.019427151039105722
355.0, 0.018994797962597485
356.0, 0.017509872620456415
357.0, 0.016116027374757126
358.0, 0.015841079266662082
359.0, 0.015137143739614294
360.0, 0.01420414644487743
361.0, 0.013343364292763659
362.0, 0.01300820423400912
363.0, 0.011640963183424806
364.0, 0.01108875590623292
365.0, 0.011006817466559203
366.0, 0.010221822838176619
367.0, 0.009546580770357856
368.0, 0.00932558176001229
369.0, 0.009404506062040569
370.0, 0.008947264294506187
371.0, 0.008559506861892245
372.0, 0.008430232235511073
373.0, 0.008566494517552623
374.0, 0.008596321138956085
375.0, 0.008661233525852635
376.0, 0.008600190581176363
377.0, 0.008429699790833677
378.0, 0.009457400026229789
379.0, 0.009697552857292109
380.0, 0.010039538443845282
381.0, 0.011085165396029356
382.0, 0.011174504898926749
383.0, 0.012060884294600916
384.0, 0.013157403068657182
385.0, 0.013858684123041875
386.0, 0.015048397729051073
387.0, 0.016992487471156847
388.0, 0.019145196836875225
389.0, 0.02066767455207312
390.0, 0.02450386581716195
391.0, 0.028793734072384166
392.0, 0.03366071668201261
393.0, 0.03978034159658471
394.0, 0.05039880053403451
395.0, 0.0628883270236187
396.0, 0.07852996889531878
397.0, 0.10278566318116462
398.0, 0.13046473153998805
399.0, 0.15736714639752383
400.0, 0.1804090355096233
401.0, 0.18993302649632485
402.0, 0.17036423235626683
403.0, 0.14260936954683295
404.0, 0.11330743119403247
405.0, 0.08386291726684249
406.0, 0.0634859103886666
407.0, 0.048200745380303646
408.0, 0.036434686063860106
409.0, 0.02778750148849435
410.0, 0.022229068525274558
411.0, 0.018016708209001787
412.0, 0.014282693397523286
413.0, 0.012016353159007715
414.0, 0.010391524495899706
415.0, 0.008944957972725712
416.0, 0.007374361386395331
417.0, 0.0068668031731169595
418.0, 0.00591089822840515
419.0, 0.005060243188663931
420.0, 0.00483364946659542
421.0, 0.004461118882605613
422.0, 0.0038411433191116325
423.0, 0.003240839070102245
424.0, 0.002977239235022177
425.0, 0.002591326908154876
426.0, 0.00251866024525947
427.0, 0.0026030793889166956
428.0, 0.0026086322065264926
429.0, 0.002417684446352075
430.0, 0.0023636300257626488
431.0, 0.0022548168445188635
432.0, 0.0017222233581342331
433.0, 0.0016645272181278
434.0, 0.0016959149440603156
435.0, 0.0016920986536753972
436.0, 0.0014683925283231823
437.0, 0.0016068386504391227
438.0, 0.0014602091566368709
439.0, 0.0012008362786620202
440.0, 0.0014146083478536564
441.0, 0.0012809638110757072
442.0, 0.0010557030866706896
443.0, 0.0009121157535373173
444.0, 0.0012240894702344122
445.0, 0.0008100499910839181
446.0, 0.000602074067389869
447.0, 0.0006903940359497667
448.0, 0.0008676221431391206
449.0, 0.0008238455301277629
450.0, 0.0006159049778525596
451.0, 0.00033513078166743846
452.0, 0.0002549874145830577
453.0, 0.0004865304664371788
454.0, 0.0004620993431977336
455.0, 0.00022636519678969358
456.0, 0.00041677603872793416
457.0, 0.0006497482339232313
458.0, 0.0005522891760317808
459.0, 0.0001711225462912946
460.0, 6.150822809384489e-05
461.0, 2.4661501575984014e-05
462.0, 0.00014997627097878305
463.0, 0.00036064806133712535
464.0, 0.00023072523966731696
465.0, 0.0002021302402000872
466.0, 0.00012874401288738227
467.0, 9.37977511957617e-06
468.0, 1.451910844414828e-05
469.0, 0.00010049051564049243
470.0, 0.00019471372494717106
471.0, 0.00025597462344548866
472.0, 0.00018948229757782231
473.0, 0.00011296897283135466
474.0, 8.832921038247833e-05
475.0, 0.00011221329320783845
476.0, 9.143136530434317e-05
477.0, 0.00020827223647243063
478.0, 0.00028698186503189286
479.0, 0.00026413046509768726
480.0, 7.71250847702849e-05
481.0, 9.677714981723185e-05
482.0, 0.00015097768004972882
483.0, 0.00020141515287064982
484.0, 0.0002820183794877174
485.0, 0.00022067884344416974
486.0, 0.00011985018348877955
487.0, 8.181610739722763e-05
488.0, 0.00040655801705012163
489.0, 0.00037195081294234854
490.0, 0.00021228596623778696
491.0, 5.5175391953659476e-05
492.0, 0.00015896178514771507
493.0, 0.00013263191958279581
494.0, 0.00017405301237919074
495.0, 0.0002653872898351044
496.0, 0.0002030760025467705
497.0, 0.00034853905550983553
498.0, 0.0002785346999440685
499.0, 8.943864011254948e-05
500.0, 0.00031381604438848515
501.0, 0.00025169952807653696
502.0, 0.00013914423395761642
503.0, 6.315367390302419e-05
504.0, 0.00014527285154353417
505.0, 8.518533902432907e-05
506.0, 4.235043708156444e-05
507.0, 4.188865950132667e-05
508.0, 8.959792335190121e-05
509.0, 0.00010397705051959958
510.0, 8.507763128092739e-05
511.0, 7.735886566572434e-05
512.0, 0.00016858738288880485
513.0, 0.00012032040135485117
514.0, 0.00015049151142587685
515.0, 0.0002526530607290611
516.0, 0.0003849049118968045
517.0, 0.00025368836562456406
518.0, 0.0002833105704594547
519.0, 0.0003230675234732765
520.0, 0.00012676777805315789
521.0, 0.00013394248335179526
522.0, 0.00012392221083814617
523.0, 8.429011048379328e-05
524.0, 9.795879912940122e-06
525.0, 0.00015999338984618762
526.0, 0.00011130351585705743
527.0, 5.79704853012889e-05
528.0, 0.00018361526795716002
529.0, 0.00033343475743611005
530.0, 0.0002929043117000803
531.0, 0.00021632407100384066
532.0, 0.00021345650523204774
533.0, 0.00013992822411316313
534.0, 0.00011372820448549887
535.0, 9.836502468402025e-05
536.0, 7.510934855698196e-05
537.0, 7.577930819362226e-05
538.0, 4.490047691053784e-05
539.0, 9.995693983485041e-05
540.0, 0.00026298594336011743
541.0, 0.000312773869690441
542.0, 0.00024416280703571774
543.0, 0.00014591358983473486
544.0, 5.828924110715962e-05
545.0, 2.439341967259889e-05
546.0, 7.759297120871947e-05
547.0, 8.901601431047159e-05
548.0, 4.752277907632396e-05
549.0, 2.3131605204126474e-05
550.0, 0.0001336510831071571
551.0, 0.0001647445489746041
552.0, 0.00012576787559239892
553.0, 0.00012498507174423367
554.0, 0.0001706075743902146
555.0, 0.0001758803979973112
556.0, 0.00015002609753600557
557.0, 0.0001240993763436588
558.0, 6.253838510526768e-05
559.0, 2.278440258383474e-05
560.0, 0.00012005925915613223
561.0, 0.00048573539451518224
562.0, 0.00021756373623756862
563.0, 0.00024935838332757653
564.0, 0.00035127404646037304
565.0, 0.00031976682499515214
566.0, 0.00018112473467575356
567.0, 0.0003045353893496941
568.0, 0.00039957399434063903
569.0, 0.00032570176573358577
570.0, 0.0003998514641560299
571.0, 0.000463207432242176
572.0, 0.0004754165697255207
573.0, 0.00046597408130078074
574.0, 0.0006659216040931865
575.0, 0.0006604488772507402
576.0, 0.000576307711743191
577.0, 0.0004906776948909622
578.0, 0.0005399199263131915
579.0, 0.0005874718570256118
580.0, 0.0004938094658858393
581.0, 0.000406993216692722
582.0, 0.0006663506027600566
583.0, 0.00024319076735401806
584.0, 0.00021730498201769744
585.0, 0.00043955311303311994
586.0, 0.0006063776513211766
587.0, 0.0006665159688748783
588.0, 0.0005168173164995734
589.0, 0.00041220056672828576
590.0, 0.0005440282278302866
591.0, 0.00040323425706267495
592.0, 0.0004843662861723721
593.0, 0.00046323195177599
594.0, 0.00027196642059776756
595.0, 0.0006680283172491303
596.0, 0.00047420398758246765
597.0, 0.0004440141343506659
598.0, 0.000696202103882208
599.0, 0.0007422566090260097
600.0, 0.0006484908023423228
601.0, 0.0005808254425064372
602.0, 0.0005521388201718751
603.0, 0.000523739398300258
604.0, 0.0006108639454065523
605.0, 0.0006369244559487674
606.0, 0.0006123078269472398
607.0, 0.0005703021911543763
608.0, 0.0005282090884847209
609.0, 0.00047745015428929735
610.0, 0.000434479553261912
611.0, 0.00041024369116370095
612.0, 0.00037850470853034507
613.0, 0.00037348321508897016
614.0, 0.00033942735716805403
615.0, 0.0002750473634371965
616.0, 0.00030756238522173466
617.0, 0.00022545853456030246
618.0, 0.00029635404499127256
619.0, 0.0005100208056283424
620.0, 0.0006550897366224604
621.0, 0.0008569055856860833
622.0, 0.0009145847368445208
623.0, 0.000871385945303099
624.0, 0.0008281248326805948
625.0, 0.0007847326309861264
626.0, 0.0007667159641986137
627.0, 0.0007285596330471832
628.0, 0.0006503404316797548
629.0, 0.0008108678409893847
630.0, 0.0008607926712294445
631.0, 0.0008521284298988544
632.0, 0.0007864012225930837
633.0, 0.0005419595466540556
634.0, 0.0005278428640474038
635.0, 0.0005134365919843385
636.0, 0.0004089106607955561
637.0, 0.0001334616637563948
638.0, 0.0002487501263383132
639.0, 0.0005156004097836014
640.0, 0.0006329027473953783
641.0, 0.00025079532471788154
642.0, 0.00038160597528346513
643.0, 0.0003668830245072994
644.0, 0.000361983233850281
645.0, 0.00043867568974068164
646.0, 0.00022129154135293083
647.0, 0.0003852524404236382
648.0, 0.0003665429050398099
649.0, 0.00013240242385761865
650.0, 0.00030530529304942605
651.0, 0.0005076720522859729
652.0, 0.0005551791799580059
653.0, 0.00046829786666955384
654.0, 0.0003373243786977476
655.0, 0.00024035882390160566
656.0, 0.00017668665513898444
657.0, 0.0001291260748758917
658.0, 8.095646771068191e-05
659.0, 2.287060130326191e-05
660.0, 6.712691329905938e-05
661.0, 0.00010619139430618659
662.0, 0.00011214912449781093
663.0, 0.00017523221848915113
664.0, 0.00015694265390470556
665.0, 0.00014451051509315702
666.0, 0.00011870926160816039
667.0, 9.386259721158257e-06
668.0, 5.471565147137958e-05
669.0, 0.00012594231869872825
670.0, 0.00013892532410690017
671.0, 3.5933528946482205e-05
672.0, 5.4342720070605995e-05
673.0, 9.804273068981014e-05
674.0, 0.00012190685049910449
675.0, 0.00014882016620038465
676.0, 0.00036683902980825384
677.0, 0.0003563169715093565
678.0, 0.000294475996993101
679.0, 0.00027795291071086895
680.0, 0.00041924932120617907
681.0, 0.0005813971242769537
682.0, 0.0005111219724508412
683.0, 0.0004490690554895412
684.0, 0.0005603961100474593
685.0, 0.00017112040503032195
686.0, 0.000291627305052732
687.0, 0.0003968321783622257
688.0, 0.0003076429581383345
689.0, 0.00014579101434638393
690.0, 0.00032984553461557116
691.0, 0.00040432597419767037
692.0, 0.00029602481329483625
693.0, 7.060435110333292e-06
694.0, 0.00021068437993779096
695.0, 0.00019806134232419576
696.0, 0.00018204292749437136
697.0, 0.00028869616516059317
698.0, 0.0003165345640441253
699.0, 0.00013208566683004454
700.0, 7.559068864083825e-05
701.0, 0.0001851032348347926
702.0, 0.00030637877676708593
703.0, 0.00019644641461734135
704.0, 0.00021022208922928846
705.0, 0.0002612700676978123
706.0, 0.0002241077175607422
707.0, 7.306834862007705e-05
708.0, 0.00018923593214832467
709.0, 0.00020254242377783536
710.0, 4.204016628145102e-05
711.0, 0.00010970154143300122
712.0, 0.00015147557058444052
713.0, 0.000166758752891276
714.0, 0.00020551628017455631
715.0, 0.00034108341159152285
716.0, 0.00019973807871641664
717.0, 0.00014793019621465135
718.0, 0.00011369956817508474
719.0, 6.241593090293607e-05
720.0, 8.628782458111552e-05
721.0, 5.9776942236884726e-05
722.0, 9.026190711965997e-05
723.0, 0.00012664456306286915
724.0, 1.0753443247875995e-05
725.0, 4.145074201369505e-05
726.0, 8.413557728718564e-05
727.0, 0.0001421474546056711
728.0, 0.00022471479693459296
729.0, 0.000350358715580972
730.0, 0.00021187836918972825
731.0, 0.0001691760654201419
732.0, 0.0002263864726527758
733.0, 8.523596991580538e-05
734.0, 8.595687705392253e-05
735.0, 0.00018879446266187167
736.0, 0.0002108668775360537
737.0, 1.6407360280308646e-05
738.0, 0.00016814766965936073
739.0, 0.00018015861043211038
740.0, 0.00019531983080009273
741.0, 0.00024961871758107383
742.0, 0.00027982415680959945
743.0, 0.0001950707300722063
744.0, 0.0001717931193656371
745.0, 0.00016800132839843844
746.0, 0.00011799894087219107
747.0, 7.11135463683231e-05
748.0, 0.00012573687885393935
749.0, 0.0001996438748197306
750.0, 0.00021716966512183713
751.0, 5.210779526698338e-05
752.0, 1.2326277631830662e-05
753.0, 2.6321718233477817e-05
754.0, 5.410014977239943e-05
755.0, 5.806379851612074e-05
756.0, 3.367199611881357e-05
757.0, 4.6892174323631496e-05
758.0, 7.667074864628576e-05
759.0, 0.00012741511738682297
760.0, 0.00024294112654329975
761.0, 0.00012633220853659353
762.0, 5.832909995021212e-05
763.0, 0.00016844332793051835
764.0, 0.0005052364793176423
765.0, 0.0002756395648596143
766.0, 0.00025323245675211453
767.0, 0.00017893559830418725
768.0, 6.848402364011056e-05
769.0, 0.00027274344352035633
770.0, 0.0003690969890480625
771.0, 0.0005142927356443721
772.0, 0.0006592906750356887
773.0, 0.000723469628656302
774.0, 0.0005180529665248707
775.0, 0.0008007036708962657
776.0, 0.0008642630865333553
777.0, 0.0006900021675948515
778.0, 0.0008313988386135722
779.0, 0.0007061467007262687
780.0, 0.000890008558435946
781.0, 0.0011180788218868429
782.0, 0.0011665026064173452
783.0, 0.0012952315143151777
784.0, 0.0011182595197577426
785.0, 0.0011815653994839445
786.0, 0.0015260035598452105
787.0, 0.0019368509372573726
788.0, 0.0028132858162451097
789.0, 0.003329655810854217
790.0, 0.004036351652428857
791.0, 0.005309331351585102
792.0, 0.0071410404783050435
793.0, 0.010137972520813719
794.0, 0.014286627881461983
795.0, 0.019664792347908838
796.0, 0.026162847531625635
797.0, 0.028818458364300636
798.0, 0.02719783268285189
799.0, 0.022705713761524093
800.0, 0.017050287418039635
801.0, 0.013286074246079069
802.0, 0.009091746997287748
803.0, 0.006484109692493746
804.0, 0.005125092271443384
805.0, 0.004354915825526582
806.0, 0.003714212900097661
807.0, 0.003063207172622917
808.0, 0.002600252293541303
809.0, 0.0023060943510249273
810.0, 0.0020114953133221402
811.0, 0.0018289679502934315
812.0, 0.001982026308975096
813.0, 0.0019249266167859157
814.0, 0.0015220274054119048
815.0, 0.0018437689964648893
816.0, 0.0017717530889796878
817.0, 0.0016598414042999657
818.0, 0.0015214986948688541
819.0, 0.0013371544998307602
820.0, 0.0017520610208823966
821.0, 0.0018629785041263673
822.0, 0.0020136126434338957
823.0, 0.0022491854377142753
824.0, 0.0023416729779660735
825.0, 0.0025668515196868194
826.0, 0.0029092984941822076
827.0, 0.003238803981664079
828.0, 0.003572525752211183
829.0, 0.00455410959674371
830.0, 0.004904364120142939
831.0, 0.005749960665419533
832.0, 0.007032339897757784
833.0, 0.008377096720959269
834.0, 0.010352948493297305
835.0, 0.013301876897333996
836.0, 0.016278207121494095
837.0, 0.019018843661324655
838.0, 0.02186112169864692
839.0, 0.021782563820409658
840.0, 0.01941460037126392
841.0, 0.016678240742960374
842.0, 0.014620690070305198
843.0, 0.011269020267778094
844.0, 0.00987314470108352
845.0, 0.00899118752964729
846.0, 0.008160037645375758
847.0, 0.007197607252840618
848.0, 0.0073177651486585876
849.0, 0.007244118733473532
850.0, 0.006930620618508744
851.0, 0.006648280782165219
852.0, 0.006975614930305831
853.0, 0.007110510255587173
854.0, 0.007639725484211319
855.0, 0.007984765200527946
856.0, 0.00791685920675231
857.0, 0.007934294797285425
858.0, 0.008503231920503097
859.0, 0.008591527810780512
860.0, 0.008770111967351434
861.0, 0.009484407666376567
862.0, 0.009062376792567075
863.0, 0.00929910763362895
864.0, 0.010100478479313604
865.0, 0.01078599965359876
866.0, 0.010469128617176925
867.0, 0.010914340913801314
868.0, 0.011509129817660994
869.0, 0.011723167076224778
870.0, 0.011906280236745632
871.0, 0.013357174456799372
872.0, 0.013956945114926405
873.0, 0.014659504135757622
874.0, 0.015950451481665618
875.0, 0.017765221435499176
876.0, 0.018808026369664638
877.0, 0.021369340749279306
878.0, 0.023816972107798182
879.0, 0.026833455168707377
880.0, 0.03131587980065021
881.0, 0.03801695302054468
882.0, 0.042226136215983145
883.0, 0.04494003301441593
884.0, 0.04746520320191529
885.0, 0.050753567381924165
886.0, 0.0472800994357858
887.0, 0.04510520920750755
888.0, 0.04188811297281153
889.0, 0.03912693457808222
890.0, 0.04093262532520964
891.0, 0.04165965923213551
892.0, 0.042758421033755226
893.0, 0.04582920063750373
894.0, 0.05056939802817996
895.0, 0.05413691594811143
896.0, 0.0629808931267529
897.0, 0.07272014239617193
898.0, 0.08306517784766436
899.0, 0.0961325526148039
900.0, 0.12036996179027475
901.0, 0.13892700837348307
902.0, 0.1688584913362442
903.0, 0.21163061920090961
904.0, 0.26503486715211677
905.0, 0.3222588814144816
906.0, 0.42929297377251485
907.0, 0.539542851330959
908.0, 0.6606998198241574
909.0, 0.8087601684724331
910.0, 0.9670420557327337
911.0, 0.9980372350176254
912.0, 0.975090374043868
913.0, 0.8902003171598627
914.0, 0.7130252161677788
915.0, 0.5213854306609056
916.0, 0.39973831245334646
917.0, 0.2998150568773357
918.0, 0.21669818651518552
919.0, 0.1702114905053707
920.0, 0.13431307201403014
921.0, 0.10589582635074711
922.0, 0.08615162983467836
923.0, 0.07295226205582861
924.0, 0.060629737946568396
925.0, 0.051646224649955025
926.0, 0.04604169926962613
927.0, 0.041032702932913355
928.0, 0.036152890008308756
929.0, 0.034256162541415634
930.0, 0.031391736642270636
931.0, 0.029446305775822978
932.0, 0.028921876717099088
933.0, 0.02882827941319729
934.0, 0.025324081848512977
935.0, 0.02455102308292903
936.0, 0.02332477659996191
937.0, 0.021575099702829427
938.0, 0.019950816338875427
939.0, 0.020390928236122957
940.0, 0.017961769391133628
941.0, 0.01637931089044277
942.0, 0.015290671399145372
943.0, 0.014105409794516586
944.0, 0.012898191542523012
945.0, 0.012693832129028979
946.0, 0.011860469453789435
947.0, 0.010786831785312194
948.0, 0.010045818911514967
949.0, 0.00983271586263502
950.0, 0.008933179341341748
951.0, 0.008580319637722735
952.0, 0.008293888345832015
953.0, 0.007580411858524872
954.0, 0.007197292911414651
955.0, 0.006698930003369782
956.0, 0.006151888482686925
957.0, 0.005754531121979835
958.0, 0.005650459830888292
959.0, 0.0056267948460680395
960.0, 0.005429239815004464
961.0, 0.0052614099190511745
962.0, 0.005156429817553391
963.0, 0.005047965203012075
964.0, 0.004546495988290552
965.0, 0.0045696053765771506
966.0, 0.004175665133034624
967.0, 0.0037963640693659986
968.0, 0.003888837141826875
969.0, 0.0034227035437060394
970.0, 0.003405129362697425
971.0, 0.0034145470258191597
972.0, 0.003267901905206177
973.0, 0.0029662627031400543
974.0, 0.003161046529100928
975.0, 0.0030066512858728553
976.0, 0.002854283736323317
977.0, 0.0027680466191256077
978.0, 0.0027072374078264375
979.0, 0.002431419721660522
980.0, 0.002742968132244012
981.0, 0.002712214950217085
982.0, 0.0025483425147307067
983.0, 0.0025496845597498237
984.0, 0.00243539944270122
985.0, 0.0022378843773568284
986.0, 0.0022468563048884454
987.0, 0.0024305766922841044
988.0, 0.002613684717599992
989.0, 0.0023225759839396133
990.0, 0.002341050771785838
991.0, 0.002314701944275605
992.0, 0.002121612771865262
993.0, 0.0018305632735338942
994.0, 0.0019560895174491268
995.0, 0.0017713604741688871
996.0, 0.001833068922178944
997.0, 0.0018704468744686169
998.0, 0.0017355768368744443
999.0, 0.0017620960575436728
1000.0, 0.0017755245464554314
1001.0, 0.0018406047809581562
1002.0, 0.0017761117344419492
1003.0, 0.0015685730351590074
1004.0, 0.0015286312357760106
1005.0, 0.0011338718549116136
1006.0, 0.0011271823339698286
1007.0, 0.0011559816500266709
1008.0, 0.0010751417704265532
1009.0, 0.0010759202858423435
1010.0, 0.0008533214446481721
1011.0, 0.0009754283748762274
1012.0, 0.0011142319663109128
1013.0, 0.0011117892936841737
1014.0, 0.0009917891865956912
1015.0, 0.0008459311181456536
1016.0, 0.0009668668958293287
1017.0, 0.001051996979036719
1018.0, 0.0009381668612814126
1019.0, 0.0006168341565503856
1020.0, 0.0009468090622693962
1021.0, 0.0009882946144255536
1022.0, 0.000916768684497584
1023.0, 0.0009499422133117
1024.0, 0.0011859058365284157
1025.0, 0.0005908884043029099
1026.0, 0.0006585883315245313
1027.0, 0.0007235292674025773
1028.0, 0.0007977298084285314
1029.0, 0.0009512788797314113
1030.0, 0.000620188864725328
1031.0, 0.0006775260939067146
1032.0, 0.0006801954348520171
1033.0, 0.0006707376035314674
1034.0, 0.0006422292121912117
1035.0, 0.00021842394211113192
1036.0, 0.000647195516255175
1037.0, 0.0007882801340795031
1038.0, 0.0005518849486865593
1039.0, 0.0002222967477741922
1040.0, 0.0005154456180440326
1041.0, 0.00040478168766895547
1042.0, 0.00027598672174447027
1043.0, 0.0002443112117738841
1044.0, 0.0003324017307534448
1045.0, 0.00047755937741406095
1046.0, 0.000586152053521707
1047.0, 0.000630076684552374
1048.0, 0.000489564238091465
1049.0, 0.0002825217235714369
1050.0, 0.000235077030656757
1051.0, 0.0003816298780762458
1052.0, 0.0005059357803230468
1053.0, 0.00033383459423174435
1054.0, 0.00013097382361935018
1055.0, 0.00021469879497808944
1056.0, 0.00048097585487836457
1057.0, 0.000265986173793414
1058.0, 0.00015262742100783774
1059.0, 0.0002583182444299661
1060.0, 0.00046846787605938137
1061.0, 0.0003496027638334486
1062.0, 0.0004234922553614282
1063.0, 0.0003192477668942724
1064.0, 0.00027975055407987556
1065.0, 0.0003419739708922035
1066.0, 0.0003125177805222816
1067.0, 0.0001670715981034992
1068.0, 0.00021264794459699806
1069.0, 0.000265065331653963
1070.0, 0.0002197771895552002
1071.0, 9.33210288496698e-05
1072.0, 0.00044039069418419464
1073.0, 0.0004878772037937404
1074.0, 0.000522607410813832
1075.0, 0.00048606859008472304
1076.0, 0.00037475121293429096
1077.0, 0.0005622970976343399
1078.0, 0.00028764705184628435
1079.0, 0.00012069932711457503
1080.0, 0.00021732200432762695
1081.0, 0.0004889680157447455
1082.0, 0.0005912917613426969
1083.0, 0.00025895258459308706
1084.0, 8.31231847286636e-05
1085.0, 5.372856250210355e-05
1086.0, 0.0001380744267165567
1087.0, 0.0002676083113135674
1088.0, 0.00021533653131682897
1089.0, 0.00015158362821367317
1090.0, 0.00010287283655994835
1091.0, 0.00010146372815129494
1092.0, 0.00013620352744434086
1093.0, 7.586857735234567e-05
1094.0, 9.576169502119636e-05
1095.0, 4.487511003339467e-05
1096.0, 6.833641076043164e-05
1097.0, 0.0001551087978085158
1098.0, 0.00010706336956987793
1099.0, 0.00020173321668287542
1100.0, 0.00027503289514734197
1101.0, 0.00016485199194961076
1102.0, 3.944644683138402e-05
1103.0, 0.0001323496349796068
1104.0, 0.0001736074168266792
1105.0, 0.0002396127235034178
1106.0, 0.00017465277225105214
1107.0, 9.233625698715178e-05
1108.0, 0.0001114655978382483
1109.0, 0.0002633976565501025
1110.0, 0.00030664798191073247
1111.0, 0.000165856395366784
1112.0, 0.0001437385775977509
1113.0, 0.00024156513119992566
1114.0, 0.00024367629404529556
1115.0, 0.00012652197663279177
1116.0, 0.0001617021606062418
1117.0, 0.0001725109507948001
1118.0, 0.00011828288168846082
1119.0, 4.5295080855392686e-05
1120.0, 0.0001266197028592375
1121.0, 0.00011856260603124662
1122.0, 0.00012383468630570307
1123.0, 9.084945178095964e-05
1124.0, 7.894328055952367e-05
1125.0, 0.00021705154352719507
1126.0, 5.554129982768257e-05
1127.0, 9.074687213455571e-05
1128.0, 0.00017970550562255506
1129.0, 0.0002913759780422493
1130.0, 0.0003967248378529004
1131.0, 0.00035614327200774
1132.0, 0.00012665901458802056
1133.0, 0.00024991101883165874
1134.0, 0.00035868005701330727
1135.0, 0.00026867342063290306
1136.0, 8.799739957098493e-05
1137.0, 3.4255972264316105e-05
1138.0, 4.71613774137144e-05
1139.0, 0.00010597314390045946
1140.0, 0.000145717799742122
1141.0, 0.00012755546577336105
1142.0, 0.00013943017365458164
1143.0, 0.00016462935154687433
1144.0, 0.00021097131042241272
1145.0, 0.00023824890008709843
1146.0, 0.000200475466648808
1147.0, 7.676004652618541e-05
1148.0, 0.00014674918808595672
1149.0, 8.654239361888961e-05
1150.0, 5.36983151716687e-05
1151.0, 4.783507079071063e-05
1152.0, 4.069544834247002e-05
1153.0, 6.164483153326132e-05
1154.0, 5.352271395979502e-05
1155.0, 4.1373094286607396e-05
1156.0, 0.0001615295530717414
1157.0, 0.0002467705280923341
1158.0, 3.281144331512885e-05
1159.0, 0.00040957742154797296
1160.0, 0.0002950520441902533
1161.0, 0.0002284073967987473
1162.0, 0.00022764618334890813
1163.0, 0.0001977616048774275
1164.0, 6.215884897582135e-05
1165.0, 0.00038321038796778484
1166.0, 0.00042159849814073973
1167.0, 0.0002509526341446015
1168.0, 0.00021333139668793617
1169.0, 0.000571097756385247
1170.0, 0.0006236880982460943
1171.0, 0.0003562831852836463
1172.0, 0.00015207416567272305
1173.0, 0.00024127191749097565
1174.0, 0.000457947658590443
1175.0, 0.00027478560178766516
1176.0, 0.0002338085670163767
1177.0, 0.0003721593703121915
1178.0, 0.000562913350741891
1179.0, 0.0005462173813770766
1180.0, 0.00029342257050780457
1181.0, 0.0004132825259010216
1182.0, 0.0003495813380965612
1183.0, 0.00021892179329187323
1184.0, 0.00043676198588650067
1185.0, 0.0005997689397900252
1186.0, 0.00016824904989181722
1187.0, 0.0007744193845775945
1188.0, 0.0005265740373788403
1189.0, 0.00027994232763459457
1190.0, 0.00029408005092826497
1191.0, 0.0003961739403474967
1192.0, 0.00010558281149008485
1193.0, 0.0004960546715947242
1194.0, 0.00019502969352856795
1195.0, 9.837679635226711e-05
1196.0, 0.0003666238731214479
1197.0, 0.0006693687611691617
1198.0, 0.00019357337302821026
1199.0, 0.00021293908029172985
1200.0, 0.0002588436743631408
1201.0, 0.00037217392164885446
1202.0, 0.00051812978573055
1203.0, 0.0005778970833193268
1204.0, 0.00027913325813988147
1205.0, 0.0003198867621527734
1206.0, 0.0003559848009964423
1207.0, 0.00042332211666237194
1208.0, 0.00044104047172550297
1209.0, 0.00028087035959782267
1210.0, 0.0004410232161532265
1211.0, 0.00045784825308635874
1212.0, 0.0006231788115067974
1213.0, 0.0007429463522631666
1214.0, 0.0006243093282590922
1215.0, 0.0002686280415039637
1216.0, 0.0005101345445650501
1217.0, 0.0007289785885554043
1218.0, 0.0005361999895726174
1219.0, 0.00037075102393420114
1220.0, 0.000613286077638923
1221.0, 0.00096346304788227
1222.0, 0.0004446265326673106
1223.0, 0.00048506655308010595
1224.0, 0.00047370198814475914
1225.0, 0.0004745901947075089
1226.0, 0.0006641476274041304
1227.0, 0.0005388051258848377
1228.0, 0.0006495986432986414
1229.0, 0.0005225821182052625
1230.0, 0.0004201776749486045
1231.0, 0.0004452874036805287
1232.0, 0.0005342394789481078
1233.0, 0.0005174026743926059
1234.0, 0.0005005279258268405
1235.0, 0.0004048594071420013
1236.0, 0.00041598887078863787
1237.0, 0.0005568759234728148
1238.0, 0.0006739923561765344
1239.0, 0.0005481559802205164
1240.0, 0.0005449829435206704
1241.0, 0.0004604655030755376
1242.0, 0.00038612777046185886
1243.0, 0.0004169522506715345
1244.0, 0.0005780735675816436
1245.0, 0.0007541319859815112
1246.0, 0.00040102386018531195
1247.0, 0.0004717632717503517
1248.0, 0.0005835758755867316
1249.0, 0.0004723598324326932
1250.0, 0.0003895715493996382
1251.0, 0.0007450350829831868
1252.0, 0.0005446075449234609
1253.0, 0.00043186763335430173
1254.0, 0.0004933935968615654
1255.0, 0.0005806295039087495
1256.0, 0.0004551634627706422
1257.0, 0.00035910082113856627
1258.0, 0.0004457008559215023
1259.0, 0.00045082844503333046
1260.0, 0.00041714178734109287
1261.0, 0.00045143609443657764
1262.0, 0.0006039682434131403
1263.0, 0.0007226716120833439
1264.0, 0.0006119207682226464
1265.0, 0.0007893711878933234
1266.0, 0.000831085070260494
1267.0, 0.0006085402416235347
1268.0, 0.000852586508461803
1269.0, 0.000630010863893582
1270.0, 0.00047693580414756933
1271.0, 0.00046545154307723967
1272.0, 0.000480511476927031
1273.0, 0.0004580700363270972
1274.0, 0.0005035580240238323
1275.0, 0.0004192245032909561
1276.0, 0.0005480861776883951
1277.0, 0.000420159298988089
1278.0, 0.00026429891479890286
1279.0, 0.000276101912013191
1280.0, 0.000261683327267891
1281.0, 0.00043856874407569143
1282.0, 0.0005076796418876358
1283.0, 0.00035386695883078483
1284.0, 0.00032400023758998167
1285.0, 0.0004560564550924455
1286.0, 0.00024069635408717287
1287.0, 0.0005783748334220557
1288.0, 0.00044885844724521325
1289.0, 0.00031964179799160526
1290.0, 0.0002438334452577362
1291.0, 0.00024843001462993415
1292.0, 0.00041570717357781377
1293.0, 0.0003174208672854272
1294.0, 0.0005869499008941317
1295.0, 0.0003541120660374903
1296.0, 0.000150504523322383
1297.0, 0.0003400724722597828
1298.0, 0.0006338743563556418
1299.0, 0.00012028197525347262
1300.0, 0.00019397282686008934
1301.0, 0.00023378087962450372
1302.0, 0.00016458164581454931
1303.0, 9.260106847197152e-05
1304.0, 0.00014791336089627042
1305.0, 0.00013859395552954875
1306.0, 0.00018284369886662646
1307.0, 0.00019558378934886556
1308.0, 0.0002019189571413507
1309.0, 0.0002389702493054806
1310.0, 0.00030276801335250104
1311.0, 0.00024213427634393498
1312.0, 0.00028485454198987775
1313.0, 0.0003130010837734099
1314.0, 0.00041215454309606207
1315.0, 0.0004859967109942291
1316.0, 0.0004258886290627058
1317.0, 0.0004140277372629241
1318.0, 0.0003942843609599237
1319.0, 0.00018864553019309842
1320.0, 0.00013358173904496392
1321.0, 0.00023812504286124288
1322.0, 0.0003532329888567654
1323.0, 0.0003682364975332844
1324.0, 0.0006648838201139297
1325.0, 0.00032905022764607235
1326.0, 0.0004269463504721717
1327.0, 0.0006401551995994674
1328.0, 0.0005402687674823191
1329.0, 0.0002493747449660121
1330.0, 0.00037905896745997583
1331.0, 0.000510114183414866
1332.0, 0.00046688521887277147
1333.0, 0.0004526587489496518
1334.0, 0.0004845277356234204
1335.0, 0.0004094412661566487
1336.0, 0.0005247215086177606
1337.0, 0.0005261131344045514
1338.0, 0.000570713469712345
1339.0, 0.0005152856338574781
1340.0, 0.0004531194698803654
1341.0, 0.0005060667832527589
1342.0, 0.0003883562786767779
1343.0, 0.0003390123416531665
1344.0, 0.00024636354805085626
1345.0, 0.0003540542083430048
1346.0, 0.0003316527843528126
1347.0, 7.966461013768529e-05
1348.0, 0.00024137446021728728
1349.0, 0.00045509233622434636
1350.0, 0.00014548340586694963
1351.0, 0.0003485050771418426
1352.0, 0.00048795602963068446
1353.0, 0.00036401230360953393
1354.0, 0.000429178667432632
1355.0, 8.943312255724087e-05
1356.0, 0.0003543919425393865
1357.0, 0.0005521586304622217
1358.0, 0.0004640653364401357
1359.0, 0.00033385036761530756
1360.0, 0.00040560133339469326
1361.0, 0.00021833815827531882
1362.0, 0.00026600661876781775
1363.0, 0.00033633745985279373
1364.0, 0.00038565361256985114
1365.0, 0.0003701782051588881
1366.0, 0.0003196022735930663
1367.0, 0.00033862251054203704
1368.0, 0.00029936394046046376
1369.0, 0.00031302622760839496
1370.0, 0.00019586150483438258
1371.0, 0.00015305144713649994
1372.0, 0.0003189581749219873
1373.0, 0.0006068970892733722
1374.0, 0.0006130528900936265
1375.0, 0.0005358849356218935
1376.0, 0.00039348584541853694
1377.0, 0.00047082271007356605
1378.0, 0.0004074298413887807
1379.0, 0.00019355512600359025
1380.0, 0.0006780692333034605
1381.0, 0.0002964335929892362
1382.0, 0.0004385794022066455
1383.0, 0.00030499150092432747
1384.0, 0.00015388826177936942
1385.0, 0.00025644775143094186
1386.0, 0.0004882122547662407
1387.0, 1.9440234282098838e-05
1388.0, 0.00035287532540528735
1389.0, 0.00023475434500323293
1390.0, 6.756905041761788e-05
1391.0, 0.0001521104516368477
1392.0, 0.0003885771659717997
1393.0, 0.0002803604640653834
1394.0, 0.00028475275813515333
1395.0, 0.0004887321179057847
1396.0, 0.0004318642610929229
1397.0, 0.00019406979345563028
1398.0, 1.812343931176233e-05
1399.0, 6.191029741048912e-05
1400.0, 0.00011069776709936322
1401.0, 0.000517585653825354
1402.0, 0.0003279877431606365
1403.0, 0.00011185824669275157
1404.0, 0.0002891708679177735
1405.0, 0.0006372751510748215
1406.0, 0.0004052676339037475
1407.0, 0.00014678224647858107
1408.0, 0.0004275113452484337
1409.0, 0.00037090379426574016
1410.0, 0.00023738531224517704
1411.0, 0.00017824826141026327
1412.0, 0.00021832508715809948
1413.0, 0.00041814501185270494
1414.0, 0.00018859222518914209
1415.0, 0.00021062838606276891
1416.0, 0.00048329437248907273
1417.0, 0.0006203979402679917
1418.0, 0.0005710465445885524
1419.0, 0.0005510329888633207
1420.0, 0.00023772887144017256
1421.0, 0.0004286495807210083
1422.0, 0.0001698971632177142
1423.0, 0.0003700100620178913
1424.0, 0.0007010571983917304
1425.0, 0.0006661880852976708
1426.0, 0.0004169945868152101
1427.0, 0.0008575886235727139
1428.0, 0.0007149924063276035
1429.0, 0.0005165082481867311
1430.0, 0.00045180475692193197
1431.0, 0.0004803666701558352
1432.0, 0.0004675477855643395
1433.0, 0.0003585177257761665
1434.0, 0.0004042438342299608
1435.0, 0.00039697730267891987
1436.0, 0.00047522415591958123
1437.0, 0.0004897035146894042
1438.0, 0.0004855928363597966
1439.0, 0.00059601811340256
1440.0, 0.0006830867584555471
1441.0, 0.0005506284086233852
1442.0, 0.000655249471192605
1443.0, 0.0007640605419303273
1444.0, 0.0005449292989066851
1445.0, 0.0004884268661686942
1446.0, 0.0012372034748650766
1447.0, 0.001244774522647348
1448.0, 0.0009912487244297286
1449.0, 0.0007441640861401633
1450.0, 0.0007929459873744889
1451.0, 0.0009102745355673345
1452.0, 0.0009567259416655866
1453.0, 0.0010065729408756559
1454.0, 0.0006159203674852869
1455.0, 0.0005565315876996355
1456.0, 0.000588541351437382
1457.0, 0.0005081796578171561
1458.0, 0.0005498342378506302
1459.0, 0.0007566028277995977
1460.0, 0.0007663629048766317
1461.0, 0.0007717646308890638
1462.0, 0.0009085672005296407
1463.0, 0.000878738153935672
1464.0, 0.0008061399815129426
1465.0, 0.0007086928432876695
1466.0, 0.0005925764594801739
1467.0, 0.0005199287402637432
1468.0, 0.0003837589130096005
1469.0, 0.00039491755080273757
1470.0, 0.0006186800300294538
1471.0, 0.0005160795168072183
1472.0, 0.0006161278307538657
1473.0, 0.0010469164632188833
1474.0, 0.0007255183807421677
1475.0, 0.0005180879780885606
1476.0, 0.0005068894488642595
1477.0, 0.0005531595266086009
1478.0, 0.00047801711568883434
1479.0, 0.00047584053463677197
1480.0, 0.0006518027424660598
1481.0, 0.0006995968936497447
1482.0, 0.00053279328044935
1483.0, 0.0006291098989360486
1484.0, 0.00039831517411569994
1485.0, 0.00047947769007607063
1486.0, 0.0004589540597525159
1487.0, 8.311357479963642e-05
1488.0, 7.564998598398988e-05
1489.0, 0.00031944962894408743
1490.0, 6.806019077367429e-05
1491.0, 0.00036340965967433044
1492.0, 0.0003185353625153586
1493.0, 7.55746196645636e-05
1494.0, 0.00012132849249951308
1495.0, 0.0004646029226138956
1496.0, 0.00037135050150648483
1497.0, 0.00042702197678698065
1498.0, 0.00047256958488164165
1499.0, 0.0004784949641701542
1500.0, 0.0004078360624932145
1501.0, 0.00036297812564689704
1502.0, 0.00047410926644058586
1503.0, 0.000317983494765939
1504.0, 0.00051442378908953
1505.0, 0.00035161401073207873
1506.0, 0.0003468656756724402
1507.0, 0.00047289210365757085
1508.0, 0.000544586272346066
1509.0, 0.0004404941466937003
1510.0, 9.064264048776335e-05
1511.0, 0.0005532356958832668
1512.0, 0.0001679275656838502
1513.0, 0.00014001036792884083
1514.0, 0.00012723531917202102
1515, 0.0
1516, 0.0
1517, 0.0
1518, 0.0
1519, 0.0
1520, 0.0
1521, 0.0
1522, 0.0
1523, 0.0
1524, 0.0
1525, 0.0
1526, 0.0
1527, 0.0
1528, 0.0
1529, 0.0
1530, 0.0
1531, 0.0
1532, 0.0
1533, 0.0
1534, 0.0
1535, 0.0
1536, 0.0
1537, 0.0
1538, 0.0
1539, 0.0
1540, 0.0
1541, 0.0
1542, 0.0
1543, 0.0
1544, 0.0
1545, 0.0
1546, 0.0
1547, 0.0
1548, 0.0
1549, 0.0
1550, 0.0
1551, 0.0
1552, 0.0
1553, 0.0
1554, 0.0
1555, 0.0
1556, 0.0
1557, 0.0
1558, 0.0
1559, 0.0
1560, 0.0
1561, 0.0
1562, 0.0
1563, 0.0
1564, 0.0
1565, 0.0
1566, 0.0
1567, 0.0
1568, 0.0
1569, 0.0
1570, 0.0
1571, 0.0
1572, 0.0
1573, 0.0
1574, 0.0
1575, 0.0
1576, 0.0
1577, 0.0
1578, 0.0
1579, 0.0
1580, 0.0
1581, 0.0
1582, 0.0
1583, 0.0
1584, 0.0
1585, 0.0
1586, 0.0
1587, 0.0
1588, 0.0
1589, 0.0
1590, 0.0
1591, 0.0
1592, 0.0
1593, 0.0
1594, 0.0
1595, 0.0
1596, 0.0
1597, 0.0
1598, 0.0
1599, 0.0
