30, 0.0
31, 0.0
32, 0.0
33, 0.0
34, 0.0
35, 0.0
36, 0.0
37, 0.0
38, 0.0
39, 0.0
40, 0.0
41, 0.0
42, 0.0
43, 0.0
44, 0.0
45, 0.0
46, 0.0
47, 0.0
48, 0.0
49, 0.0
50, 0.0
51, 0.0
52, 0.0
53, 0.0
54, 0.0
55, 0.0
56, 0.0
57, 0.0
58, 0.0
59, 0.0
60, 0.0
61, 0.0
62, 0.0
63, 0.0
64, 0.0
65, 0.0
66, 0.0
67, 0.0
68, 0.0
69, 0.0
70, 0.0
71, 0.0
72, 0.0
73, 0.0
74, 0.0
75, 0.0
76, 0.0
77, 0.0
78, 0.0
79, 0.0
80, 0.0
81, 0.0
82, 0.0
83, 0.0
84, 0.0
85, 0.0
86, 0.0
87, 0.0
88, 0.0
89, 0.0
90, 0.0
91, 0.0
92, 0.0
93, 0.0
94, 0.0
95, 0.0
96, 0.0
97, 0.0
98, 0.0
99, 0.0
100, 0.0
101, 0.0
102, 0.0
103, 0.0
104, 0.0
105, 0.0
106, 0.0
107, 0.0
108, 0.0
109, 0.0
110, 0.0
111, 0.0
112, 0.0
113, 0.0
114, 0.0
115, 0.0
116, 0.0
117, 0.0
118, 0.0
119, 0.0
120, 0.0
121, 0.0
122, 0.0
123, 0.0
124.0, 4.74099970762201e-06
125.0, 0.0002661072105623348
126.0, 0.004476957531330856
127.0, 0.01047815025528259
128.0, 0.01489899901137207
129.0, 0.020070547996681697
130.0, 0.024360212478506078
131.0, 0.025580870861553417
132.0, 0.023866993166078355
133.0, 0.023141514530704673
134.0, 0.022276264123533777
135.0, 0.02137100667429241
136.0, 0.019894806461818387
137.0, 0.015720340700825293
138.0, 0.013289741661415203
139.0, 0.01172310285750068
140.0, 0.011143499434293568
141.0, 0.013202669894666903
142.0, 0.014315027512461614
143.0, 0.014595479669486915
144.0, 0.014822040013751097
145.0, 0.015566659631409907
146.0, 0.01635782839142071
147.0, 0.016989589201438594
148.0, 0.01798873901954933
149.0, 0.01990814443528794
150.0, 0.02082613843020055
151.0, 0.023759522576407604
152.0, 0.026622490740712153
153.0, 0.027804492632130116
154.0, 0.02829559342018748
155.0, 0.030557736366908905
156.0, 0.03261178032538741
157.0, 0.03377913336083019
158.0, 0.035309787145240384
159.0, 0.03632423323419426
160.0, 0.03687803720034559
161.0, 0.03709467112837765
162.0, 0.036439755351830354
163.0, 0.033464220178229
164.0, 0.029783574074638622
165.0, 0.025626124698427826
166.0, 0.020888508439053252
167.0, 0.0175215906340074
168.0, 0.01281970413788228
169.0, 0.00961169382798462
170.0, 0.00850810026146618
171.0, 0.005158082178740836
172.0, 0.0020279481293024194
173.0, 0.0005337025256706912
174.0, 0.001623763923099516
175.0, 0.00139189392864824
176.0, 3.429939985626968e-05
177.0, 0.00018927009966432698
178.0, 0.00015213157047008833
179.0, 0.001369640952365745
180.0, 0.0020589841467267274
181.0, 0.003653107810670279
182.0, 0.005263841525749125
183.0, 0.005699542116484451
184.0, 0.0064348868479364016
185.0, 0.006293195278275781
186.0, 0.004541517172126418
187.0, 0.0022882550429429854
188.0, 0.0018297111764703858
189.0, 0.002249920986945781
190.0, 0.0024405832112271335
191.0, 0.002612885898913084
192.0, 0.00319084117845835
193.0, 0.0021120569212570144
194.0, 0.0024586682585009396
195.0, 0.0031809887138601473
196.0, 0.0023439431903427743
197.0, 0.0006430187963880304
198.0, 0.0007680552233199315
199.0, 0.0012094546547522993
200.0, 0.0006362533826457605
201.0, 0.0005777892631789047
202.0, 0.0009918692681486286
203.0, 0.0003068123514179743
204.0, 0.0017063596609924263
205.0, 0.0010901350958086302
206.0, 0.001441552302228247
207.0, 0.0032880010607951086
208.0, 0.003760810692199778
209.0, 0.001802149929238087
210.0, 0.0020371870855921907
211.0, 0.0023519269855462378
212.0, 0.0032869662748206047
213.0, 0.004520859241810716
214.0, 0.004499623442423345
215.0, 0.0031316749178850697
216.0, 0.004291619906061402
217.0, 0.005398507137621669
218.0, 0.0026957386968909348
219.0, 0.002934299924166508
220.0, 0.0028432767603196424
221.0, 0.001622137835362482
222.0, 0.00022497664296672703
223.0, 0.0006438446219373786
224.0, 0.0003600264074061313
225.0, 0.001071385144040617
226.0, 0.0024429235979471064
227.0, 0.0028375602501865857
228.0, 0.002532634160934407
229.0, 0.0028466913969851654
230.0, 0.0028251585092877105
231.0, 0.0018786218884898637
232.0, 0.0024528581075856067
233.0, 0.0020800111390479525
234.0, 0.0022155342464465
235.0, 0.0030665023793918582
236.0, 0.0027199900300909894
237.0, 0.0005689602789700687
238.0, 0.0014071321771606737
239.0, 0.002384472463871498
240.0, 0.0027562871138738197
241.0, 0.0033065781948514953
242.0, 0.004682994718708913
243.0, 0.0055891562861675945
244.0, 0.005628493030956702
245.0, 0.005752283275263391
246.0, 0.007978364753393613
247.0, 0.008807680855047934
248.0, 0.008212070539697353
249.0, 0.007939435148666742
250.0, 0.008814189824276224
251.0, 0.009154317221295052
252.0, 0.009336559381897617
253.0, 0.010120306264465015
254.0, 0.011914050589774676
255.0, 0.015230701640513981
256.0, 0.01728619911894149
257.0, 0.019668078402447293
258.0, 0.025190212364457693
259.0, 0.02933137194935683
260.0, 0.033244515646380896
261.0, 0.03834319558433193
262.0, 0.04515205094012701
263.0, 0.05258699696840618
264.0, 0.05826671687832014
265.0, 0.06394587765615029
266.0, 0.068135920350026
267.0, 0.0690883424507242
268.0, 0.07125295341167405
269.0, 0.07099057069996413
270.0, 0.06983399358466132
271.0, 0.06860027188440465
272.0, 0.06560200118212625
273.0, 0.0630888779043766
274.0, 0.06110360632377789
275.0, 0.06061814333210673
276.0, 0.06199961485064236
277.0, 0.06233445703953283
278.0, 0.06311807319953165
279.0, 0.06395816787159352
280.0, 0.06537956223201126
281.0, 0.06870517905083516
282.0, 0.06837579901298813
283.0, 0.07008238186003941
284.0, 0.07248776148277829
285.0, 0.07250071021174971
286.0, 0.07216905279174678
287.0, 0.07476557332831865
288.0, 0.07876820377960486
289.0, 0.0823152382463051
290.0, 0.08401686251376797
291.0, 0.08376342375389845
292.0, 0.08667760692266871
293.0, 0.08920744422155086
294.0, 0.08857063470657395
295.0, 0.08891840697785677
296.0, 0.08922710273801608
297.0, 0.09040536342238842
298.0, 0.09086687800238802
299.0, 0.08853914354916681
300.0, 0.0865893436776368
301.0, 0.08349484333905086
302.0, 0.08000527369250689
303.0, 0.07631742650365311
304.0, 0.07147777307089838
305.0, 0.06750593572365716
306.0, 0.0658279943643084
307.0, 0.06319983962339622
308.0, 0.058256324960318046
309.0, 0.05681669503588933
310.0, 0.05495226702133293
311.0, 0.05268471345721371
312.0, 0.05145924670637164
313.0, 0.0521421050971272
314.0, 0.05174087856199139
315.0, 0.054257980111656785
316.0, 0.05594148846764552
317.0, 0.05566442711674428
318.0, 0.058184425569700396
319.0, 0.05754959458871724
320.0, 0.057221391790330964
321.0, 0.059176074786377666
322.0, 0.06284049920222219
323.0, 0.06710734365126916
324.0, 0.06856049867020525
325.0, 0.06948923603307677
326.0, 0.0714962086382781
327.0, 0.0749452156034355
328.0, 0.07753387256817199
329.0, 0.0794860137642106
330.0, 0.08145005339699989
331.0, 0.08421844880719478
332.0, 0.08803537856555624
333.0, 0.08913267427174383
334.0, 0.09254323494049631
335.0, 0.096818034747721
336.0, 0.09803644612864952
337.0, 0.09586503137175838
338.0, 0.09239793876402588
339.0, 0.08955235238287015
340.0, 0.08574131776300803
341.0, 0.07847452911738668
342.0, 0.07264386290442468
343.0, 0.06640245451081656
344.0, 0.05861613134096621
345.0, 0.05139385018594058
346.0, 0.04845815258672422
347.0, 0.04455431237394754
348.0, 0.03998974441387606
349.0, 0.036595712770223866
350.0, 0.0353235886678327
351.0, 0.035101403268615154
352.0, 0.03175060796183467
353.0, 0.03235687037681824
354.0, 0.03591129982401494
355.0, 0.038300404922731325
356.0, 0.041510286220573074
357.0, 0.044599843803372265
358.0, 0.04614365254890473
359.0, 0.0465918865261179
360.0, 0.047215554963549226
361.0, 0.04755991969171791
362.0, 0.050125843760040506
363.0, 0.05013335436024298
364.0, 0.04677366829258422
365.0, 0.04393183747353767
366.0, 0.04190548772104037
367.0, 0.03735121472372562
368.0, 0.03275677816926156
369.0, 0.029366638757537325
370.0, 0.024229540706109064
371.0, 0.02033517890240229
372.0, 0.01648876194688366
373.0, 0.012860826124860985
374.0, 0.010130440170954273
375.0, 0.008139662997665371
376.0, 0.004501836819040479
377.0, 0.00026397158174627094
378.0, 0.0026704017585691547
379.0, 0.00258468603615417
380.0, 0.0035610721518703294
381.0, 0.005545780739767758
382.0, 0.005572041476392794
383.0, 0.004303364518193208
384.0, 0.004334758581906597
385.0, 0.003937737817087772
386.0, 0.0025473312453354133
387.0, 0.0006034881814714212
388.0, 0.001959689207884584
389.0, 0.005186416928271046
390.0, 0.006702511914057383
391.0, 0.010237110411636408
392.0, 0.012871785246418665
393.0, 0.014698732371851195
394.0, 0.019355147038254892
395.0, 0.021668783512897454
396.0, 0.02211010259606734
397.0, 0.023224818856386647
398.0, 0.02387694253395818
399.0, 0.019419432714744174
400.0, 0.01822461588212868
401.0, 0.01693375537208574
402.0, 0.01668217404607837
403.0, 0.01774022489672671
404.0, 0.016890100536052582
405.0, 0.018898671924517788
406.0, 0.019948764171065198
407.0, 0.019228735767398773
408.0, 0.01879339616881499
409.0, 0.022740122461479086
410.0, 0.02540384844300644
411.0, 0.027707385926727765
412.0, 0.030628384759915243
413.0, 0.03392688390717022
414.0, 0.03713926560594523
415.0, 0.04354901207851878
416.0, 0.05120918852697278
417.0, 0.057095146299834094
418.0, 0.061366738778405205
419.0, 0.06866040738878848
420.0, 0.074420613911736
421.0, 0.07718875436805604
422.0, 0.07805060333367453
423.0, 0.07746933904749813
424.0, 0.07275527045003792
425.0, 0.06876518571641191
426.0, 0.06314394229693066
427.0, 0.054960870518560904
428.0, 0.045720745985802766
429.0, 0.038434590743367046
430.0, 0.031042688494249807
431.0, 0.023676943702754277
432.0, 0.018150862941102835
433.0, 0.015476187597704218
434.0, 0.012808124257084382
435.0, 0.01028512721151593
436.0, 0.006559866116882115
437.0, 0.003551556467935923
438.0, 0.0023412117919883136
439.0, 0.0004773780440054547
440.0, 0.0007361101544713432
441.0, 0.00033484577208624065
442.0, 0.00022891811914457408
443.0, 0.0011005765824300497
444.0, 0.002797468270095315
445.0, 0.0039293886258588585
446.0, 0.005944926507187843
447.0, 0.008486526445870668
448.0, 0.010815864312748473
449.0, 0.012831185796053945
450.0, 0.015214986889332285
451.0, 0.0170693664167768
452.0, 0.018053862000401516
453.0, 0.017655142486215667
454.0, 0.01508509567420093
455.0, 0.01324849140671117
456.0, 0.011896688104449087
457.0, 0.009483622521485597
458.0, 0.006829438690683968
459.0, 0.007026420856459839
460.0, 0.00537182277034555
461.0, 0.004725122856195105
462.0, 0.0041571744458065345
463.0, 0.0035328996590488237
464.0, 0.004585808321054016
465.0, 0.004566838013374833
466.0, 0.00457067986095086
467.0, 0.003837664102228308
468.0, 0.0028811190818148844
469.0, 0.0035169535006742436
470.0, 0.00384002233376838
471.0, 0.003738713212277918
472.0, 0.0035165305387220972
473.0, 0.0034649184512389594
474.0, 0.003699770941549264
475.0, 0.0038242496970324535
476.0, 0.0022407209351390307
477.0, 0.0006533870510233204
478.0, 8.492878356238374e-05
479.0, 0.0005443864657444407
480.0, 0.0012197166123010428
481.0, 0.0004036945912407426
482.0, 0.00029012512118266716
483.0, 0.0009773565931514
484.0, 0.0013522212150260799
485.0, 0.001244758310293091
486.0, 0.0004329447750505556
487.0, 6.666589945601885e-05
488.0, 1.8608017146371202e-05
489.0, 7.315252649192049e-05
490.0, 0.0002235907705870962
491.0, 0.0005273655602539393
492.0, 0.0018453189001210466
493.0, 0.003539479713095554
494.0, 0.0032796098926983776
495.0, 0.003991252158452825
496.0, 0.0027948583569658964
497.0, 0.003045501790663527
498.0, 0.004403430876144639
499.0, 0.005421405388534712
500.0, 0.005369764765838992
501.0, 0.005190539154037307
502.0, 0.004310024386128822
503.0, 0.004104163447737321
504.0, 0.005069970055031346
505.0, 0.006761183124933531
506.0, 0.008416439240325563
507.0, 0.010589603243579325
508.0, 0.014727515044881363
509.0, 0.018134649077980507
510.0, 0.020217733551354592
511.0, 0.025205392444897654
512.0, 0.02992243051210226
513.0, 0.03393692252476613
514.0, 0.03816989123749402
515.0, 0.042363141379564914
516.0, 0.045346268455586695
517.0, 0.048143692758910436
518.0, 0.0539658833762487
519.0, 0.05790964819523875
520.0, 0.059546751458481095
521.0, 0.061982135275432844
522.0, 0.06450648853798764
523.0, 0.06240019662558905
524.0, 0.05925253214127849
525.0, 0.05522779447375574
526.0, 0.05033483102339577
527.0, 0.04814849470762208
528.0, 0.04387232558869677
529.0, 0.04126812464972351
530.0, 0.03819655954111449
531.0, 0.03370092603721969
532.0, 0.030048125716565406
533.0, 0.02681496208224768
534.0, 0.022917138843646247
535.0, 0.020410836470610552
536.0, 0.019778983056403496
537.0, 0.02000580381510886
538.0, 0.019632972585790047
539.0, 0.017038692405311816
540.0, 0.015005431615602388
541.0, 0.013570802654673156
542.0, 0.012480482518079103
543.0, 0.012851920556729372
544.0, 0.01151045445091824
545.0, 0.010167756800041422
546.0, 0.010583964186762117
547.0, 0.010885358593409227
548.0, 0.009386742651640623
549.0, 0.011023363840531153
550.0, 0.01143144293091317
551.0, 0.011428855969775867
552.0, 0.012153577464018815
553.0, 0.0135323087750012
554.0, 0.014286103200167188
555.0, 0.015504707084888651
556.0, 0.017005730059032158
557.0, 0.01799696390779595
558.0, 0.018485358264706982
559.0, 0.018645171106899307
560.0, 0.017130770302049
561.0, 0.018219143244566072
562.0, 0.019343287071298492
563.0, 0.01975285497783798
564.0, 0.019531090751601702
565.0, 0.01745193751555387
566.0, 0.01634740273108052
567.0, 0.014343106037639615
568.0, 0.012597326055301047
569.0, 0.01144754020336976
570.0, 0.010120050034873568
571.0, 0.009752736050185035
572.0, 0.010226277435337544
573.0, 0.009567623897274112
574.0, 0.010596728572199326
575.0, 0.013812203603660249
576.0, 0.013735552681584445
577.0, 0.015253422567523831
578.0, 0.015266731947466333
579.0, 0.014648086367420146
580.0, 0.014255214215780874
581.0, 0.01383152797193005
582.0, 0.013006898706894969
583.0, 0.009693895356699522
584.0, 0.007597265045977419
585.0, 0.006408728199754294
586.0, 0.004348116227591155
587.0, 0.001832362541248465
588.0, 0.0018946972773844718
589.0, 0.0004026046292125036
590.0, 0.0002457900977835556
591.0, 0.00010184667867793402
592.0, 0.0011325548543150074
593.0, 0.0012688018353456624
594.0, 0.0027581055325324078
595.0, 0.003681400316408203
596.0, 0.0031768013631362736
597.0, 0.0026787159271492137
598.0, 0.003575497743164966
599.0, 0.0027816369589642983
600.0, 0.002041429610319972
601.0, 0.0016574467895462469
602.0, 0.0014965763580788859
603.0, 0.0012926016585510297
604.0, 0.0008968732874908837
605.0, 0.0013339826561553209
606.0, 0.0005026149469368876
607.0, 0.0003234154005119064
608.0, 0.0011633261807468395
609.0, 0.0024265655293278466
610.0, 0.002596370687387638
611.0, 0.002382426758979096
612.0, 0.003741236791398936
613.0, 0.004939800374284987
614.0, 0.0053331797037191025
615.0, 0.006495937857295885
616.0, 0.00924375739473659
617.0, 0.010171984443473546
618.0, 0.011243474221355533
619.0, 0.013334780626160884
620.0, 0.015158399102022725
621.0, 0.0157612421427979
622.0, 0.019678783936973625
623.0, 0.019579595946879875
624.0, 0.02093156175465587
625.0, 0.02392108899306497
626.0, 0.02629736020892189
627.0, 0.028490458427280457
628.0, 0.031210712207774004
629.0, 0.03444590780377408
630.0, 0.0391576083727378
631.0, 0.043802612180953375
632.0, 0.04720668296454298
633.0, 0.05157400599369111
634.0, 0.057402122711578685
635.0, 0.0637692297341674
636.0, 0.06933118990760115
637.0, 0.07562466003796901
638.0, 0.08483298288990099
639.0, 0.09502790440798194
640.0, 0.105368392168097
641.0, 0.11891804054735229
642.0, 0.13570662166289182
643.0, 0.1524935481412827
644.0, 0.16978271052062513
645.0, 0.19651150082947236
646.0, 0.2214960844556909
647.0, 0.2539744821879459
648.0, 0.2883248689436502
649.0, 0.324487715634087
650.0, 0.36812037249005614
651.0, 0.40715083704445054
652.0, 0.4471302743011457
653.0, 0.4845998096231238
654.0, 0.5187662342697538
655.0, 0.5498658293598789
656.0, 0.5775141835808951
657.0, 0.6035185564798351
658.0, 0.6345416722101315
659.0, 0.6657503394507936
660.0, 0.7015350943506415
661.0, 0.7425139928108001
662.0, 0.7827951792021761
663.0, 0.8300693995349391
664.0, 0.8748556234564603
665.0, 0.9195973557511693
666.0, 0.9629589609615734
667.0, 0.9940715967329038
668.0, 0.9987487054874037
669.0, 0.9836093362724025
670.0, 0.9367548639439411
671.0, 0.8640084467120994
672.0, 0.773633925582275
673.0, 0.6754823630319092
674.0, 0.5804143525791061
675.0, 0.4964388933120631
676.0, 0.4266389196206687
677.0, 0.36540651047830125
678.0, 0.31347026762366287
679.0, 0.2703968822755876
680.0, 0.23322001789654268
681.0, 0.20727202316032467
682.0, 0.1820738655133057
683.0, 0.1626643902769471
684.0, 0.14742192794832545
685.0, 0.1329581481142361
686.0, 0.12045628273911684
687.0, 0.11215813113294286
688.0, 0.10659989879135613
689.0, 0.10317065271321381
690.0, 0.10101434153961025
691.0, 0.1008944011001147
692.0, 0.10284321564706833
693.0, 0.10208954601412254
694.0, 0.10518103558536114
695.0, 0.11138661026730629
696.0, 0.11590237181149346
697.0, 0.11936897224477737
698.0, 0.12493119683606331
699.0, 0.12838284234885186
700.0, 0.12846773854808602
701.0, 0.12279005881761988
702.0, 0.11842999229771917
703.0, 0.11185937479800577
704.0, 0.09807909993725492
705.0, 0.08736184282955566
706.0, 0.07761652448750912
707.0, 0.06771318236687542
708.0, 0.05987646240837198
709.0, 0.052852614280024766
710.0, 0.044017282222979064
711.0, 0.0352806072318687
712.0, 0.03184133146146757
713.0, 0.029488954464719417
714.0, 0.02644150498025207
715.0, 0.023232047158389436
716.0, 0.02027663386662203
717.0, 0.017300325822918256
718.0, 0.01481153374359713
719.0, 0.014639692473953282
720.0, 0.012826195628477048
721.0, 0.01048794753501999
722.0, 0.009650922950755796
723.0, 0.009307594670771021
724.0, 0.007625747398536794
725.0, 0.006104182038059324
726.0, 0.006763050050124431
727.0, 0.006351285689612754
728.0, 0.005371977935129202
729.0, 0.005633430616743769
730.0, 0.00449062998783321
731.0, 0.0039049644681549223
732.0, 0.004112831465393206
733.0, 0.002803215455358472
734.0, 0.002452365648151526
735.0, 0.003764446903267402
736.0, 0.002741015553663957
737.0, 0.0019254037031821254
738.0, 0.0012984053755872897
739.0, 0.0019487716805712454
740.0, 0.002358735839041816
741.0, 0.0016273499585711746
742.0, 0.0010160277929493404
743.0, 0.0030532102522964418
744.0, 0.002145607690268142
745.0, 0.0022180229610708393
746.0, 0.002342791038801891
747.0, 0.00246095585191632
748.0, 0.00263493454406955
749.0, 0.0011173859529304336
750.0, 0.00027841100249970184
751.0, 0.0013610357209696247
752.0, 0.005733945917832987
753.0, 0.006170937188496286
754.0, 0.0018545898813375028
755.0, 0.00010507201203196383
756.0, 0.0004510635150283996
757.0, 0.0010987332288154884
758.0, 0.0017435141935596545
759.0, 0.001117779169246467
760.0, 0.000665320725700847
761.0, 0.0011896028531919053
762.0, 0.0012184551841087343
763.0, 0.0005719511025011879
764.0, 0.0016407494897902391
765.0, 0.0008933066131829655
766.0, 2.5357162956578544e-05
767.0, 0.0003190691513953029
768.0, 0.00037066323407283823
769.0, 0.00040279023544342104
770.0, 0.0007815982482534567
771.0, 0.001028158971002206
772.0, 0.000773480451883927
773.0, 0.0004011627778889775
774.0, 0.00045767253361917625
775.0, 0.0009052518939098054
776.0, 0.0021941912759188796
777.0, 0.0009521063884419456
778.0, 0.0016769318125503803
779.0, 0.0023958763450330485
780.0, 0.0011631919948774721
781.0, 0.00011061269178301114
782.0, 0.0019365287140376355
783.0, 0.0028036565452481095
784.0, 0.003044820194829197
785.0, 0.002675906927272228
786.0, 0.0029620719486674685
787.0, 0.003904580291620067
788.0, 0.00407582503805025
789.0, 0.0042078999591429935
790.0, 0.004111853117525558
791.0, 0.004821508888466584
792.0, 0.0047463510414169205
793.0, 0.004358001874919538
794.0, 0.004989764272965652
795.0, 0.006075205756241723
796.0, 0.006396626609467425
797.0, 0.006573320625472587
798.0, 0.007163791905397734
799.0, 0.00774947828709204
800.0, 0.007902542183503527
801.0, 0.007884795345777006
802.0, 0.008311094432492894
803.0, 0.008676723416957542
804.0, 0.008866659566186763
805.0, 0.00821025292281879
806.0, 0.008407175040005599
807.0, 0.00938653299464397
808.0, 0.00966662846019603
809.0, 0.009430199443252435
810.0, 0.00829114790063072
811.0, 0.009030525863181357
812.0, 0.010015529973921432
813.0, 0.00973317747945875
814.0, 0.008869640566723347
815.0, 0.008608394656608183
816.0, 0.008651186393983549
817.0, 0.009211083680724107
818.0, 0.008174805569587098
819.0, 0.007917597499717759
820.0, 0.00791927775986912
821.0, 0.007360958186739202
822.0, 0.00694026106512895
823.0, 0.007042795125733094
824.0, 0.006093370684005923
825.0, 0.005691280738525455
826.0, 0.005407628638297939
827.0, 0.005533163299882998
828.0, 0.005150522014676365
829.0, 0.003546909702264341
830.0, 0.004158079278524512
831.0, 0.0033751398300292997
832.0, 0.002358813262594283
833.0, 0.0023491601837186994
834.0, 0.003284383734312195
835.0, 0.00378437754665141
836.0, 0.00295363803467495
837.0, 0.0025123239383255413
838.0, 0.0028775844396737643
839.0, 0.0019838061006739096
840.0, 0.0010339495757088373
841.0, 0.0009002431063246178
842.0, 0.001322999919951572
843.0, 0.001454914950712675
844.0, 0.001105370497728051
845.0, 0.0014424667996705118
846.0, 0.0011799134021934356
847.0, 0.0007349273532944163
848.0, 0.0006821061749393381
849.0, 0.000944098659501171
850.0, 0.0011345799172876936
851.0, 0.0001919935200697637
852.0, 0.00016523729440936607
853.0, 0.0011923553571580783
854.0, 0.0013610265924926344
855.0, 0.0007306515233224435
856.0, 0.0011803840842673939
857.0, 0.002712542878575927
858.0, 0.002468311422652416
859.0, 0.003419380123927737
860.0, 0.00575930730916975
861.0, 0.006602651538917955
862.0, 0.008206691780219653
863.0, 0.008811927436004357
864.0, 0.008067032556397402
865.0, 0.010566893435075893
866.0, 0.011388852046916203
867.0, 0.01243099262642588
868.0, 0.013690130112749619
869.0, 0.01427217506756905
870.0, 0.015705710908858608
871.0, 0.018083258043005635
872.0, 0.019649388205210398
873.0, 0.021895403509448515
874.0, 0.0213718852178228
875.0, 0.021697832870183627
876.0, 0.022225602021609035
877.0, 0.02218989919659957
878.0, 0.0216098479841934
879.0, 0.020343161638529696
880.0, 0.018230862201811023
881.0, 0.017107309772312614
882.0, 0.014862100308833061
883.0, 0.01156061095514796
884.0, 0.009167372677396488
885.0, 0.008067268388041239
886.0, 0.007272755797762915
887.0, 0.006252540634023738
888.0, 0.004842213502920876
889.0, 0.004914741737546499
890.0, 0.004310766984582675
891.0, 0.0025308472307740584
892.0, 0.0012146919214646912
893.0, 0.0010781488633713862
894.0, 0.0012775963755471058
895.0, 0.0017520961777679328
896.0, 0.002625286337178362
897.0, 0.003309419878150947
898.0, 0.0036555955424299727
899.0, 0.004099447162162442
900.0, 0.0038560271346724864
901.0, 0.0024790265635147063
902.0, 0.0012667764026893197
903.0, 0.0011535447316820388
904.0, 0.0008351786988266467
905.0, 0.0004717324424895435
906.0, 0.0005953626836956036
907.0, 0.000725415399387546
908.0, 0.0008337056298755275
909.0, 0.0012072346049298325
910.0, 0.002754157516742565
911.0, 0.002098915059788421
912.0, 0.0036388988139102432
913.0, 0.0027793405385564355
914.0, 0.002973984226626088
915.0, 0.004267161931733105
916.0, 0.0041464840156994675
917.0, 0.0027847714181265942
918.0, 0.0028438767088978995
919.0, 0.004078763345976376
920.0, 0.003266857349008066
921.0, 0.0020653377421368784
922.0, 0.0006608909869195052
923.0, 0.00026312490804177523
924.0, 0.0001474392349670829
925.0, 0.000498551249436929
926.0, 0.002410077564173215
927.0, 0.0025340224935942596
928.0, 0.003589344843708955
929.0, 0.006145411094613267
930.0, 0.009537710911238798
931.0, 0.010820099373835143
932.0, 0.01067711569536317
933.0, 0.014374626793649183
934.0, 0.016785386133704467
935.0, 0.018514832625172523
936.0, 0.01941819737619599
937.0, 0.021177161826135448
938.0, 0.021912661723672257
939.0, 0.02235481047219479
940.0, 0.02417142619379909
941.0, 0.024712404328842193
942.0, 0.024257058017338323
943.0, 0.027270834515655543
944.0, 0.03078259369772697
945.0, 0.031937025453169274
946.0, 0.034508153808124574
947.0, 0.03837464062932459
948.0, 0.041148234888813376
949.0, 0.04537574318321487
950.0, 0.051856186933833426
951.0, 0.05814823625341297
952.0, 0.06412061585840653
953.0, 0.07150504507621201
954.0, 0.08045769752893128
955.0, 0.09035558741127302
956.0, 0.10200876472320657
957.0, 0.11650043992710778
958.0, 0.13051102389588104
959.0, 0.14966984842311526
960.0, 0.1693144592482833
961.0, 0.19418661084730104
962.0, 0.22335173016096385
963.0, 0.2530245768047632
964.0, 0.2842162113127718
965.0, 0.32173856115588334
966.0, 0.3630041423450418
967.0, 0.40608746899684406
968.0, 0.44959739706581386
969.0, 0.5009291730662093
970.0, 0.5488508721017045
971.0, 0.591634618347268
972.0, 0.6279106831147825
973.0, 0.6497396085705007
974.0, 0.6659537689599967
975.0, 0.6660325277146651
976.0, 0.6544827955774329
977.0, 0.6306425998877976
978.0, 0.6034333767760872
979.0, 0.5787360640501078
980.0, 0.5576255872584394
981.0, 0.5411785180444134
982.0, 0.5291181080745838
983.0, 0.522387304637222
984.0, 0.5206540752090654
985.0, 0.5302076399060942
986.0, 0.536262402847818
987.0, 0.5453503643816757
988.0, 0.5617124809985558
989.0, 0.5785057198603976
990.0, 0.5909753690118391
991.0, 0.6030717359522219
992.0, 0.6267753529747505
993.0, 0.6468242882476106
994.0, 0.6636816314094749
995.0, 0.6776200545152371
996.0, 0.6919578614493971
997.0, 0.7007770690187325
998.0, 0.6966200818485804
999.0, 0.6892089300578822
1000.0, 0.6702494852442191
1001.0, 0.6498379920723293
1002.0, 0.6194754695417899
1003.0, 0.5853372763001252
1004.0, 0.5481097500819141
1005.0, 0.5128916902518152
1006.0, 0.48159884235108186
1007.0, 0.4483884803080823
1008.0, 0.4214124853895517
1009.0, 0.3962932968843178
1010.0, 0.3769144190294889
1011.0, 0.3580920723926174
1012.0, 0.34855073237004125
1013.0, 0.3430897053891493
1014.0, 0.33628309425404523
1015.0, 0.33035276203930425
1016.0, 0.3242196285338092
1017.0, 0.3190047974254088
1018.0, 0.30915051262868637
1019.0, 0.2948934270141047
1020.0, 0.276990130183944
1021.0, 0.2568084787308359
1022.0, 0.2326481418871091
1023.0, 0.2083958142435923
1024.0, 0.18729959487934472
1025.0, 0.1633696852987531
1026.0, 0.1469286255952883
1027.0, 0.1319126281135533
1028.0, 0.119541643842267
1029.0, 0.1066926678182078
1030.0, 0.09370155988681428
1031.0, 0.0840752236764809
1032.0, 0.07784830966312145
1033.0, 0.07069163492398309
1034.0, 0.06243315945449305
1035.0, 0.05806004304781719
1036.0, 0.04941034145616937
1037.0, 0.044652482370240575
1038.0, 0.03995195779430134
1039.0, 0.03462926805449127
1040.0, 0.030465419044400463
1041.0, 0.0278764503062071
1042.0, 0.026331799468847072
1043.0, 0.024748232362226757
1044.0, 0.021630480605197216
1045.0, 0.01888831069636705
1046.0, 0.0183562417792847
1047.0, 0.018345701734287255
1048.0, 0.01681424159327494
1049.0, 0.013402898395929072
1050.0, 0.011046801411500736
1051.0, 0.01174219723576604
1052.0, 0.012441053288380419
1053.0, 0.00884163179367189
1054.0, 0.00599049766399844
1055.0, 0.00660476222322114
1056.0, 0.005575597018930326
1057.0, 0.0028884428460977515
1058.0, 0.0018589790366585618
1059.0, 0.0009250197402886057
1060.0, 0.001059408010736237
1061.0, 0.0008197966658352485
1062.0, 0.00043220801327591304
1063.0, 0.0007630035919656973
1064.0, 0.0014824124183374554
1065.0, 0.0012994980259881748
1066.0, 0.00042164032014419363
1067.0, 0.0019911456325100245
1068.0, 0.002150305988105727
1069.0, 0.0008766777671348897
1070.0, 0.0027552592461017517
1071.0, 0.002560066892709637
1072.0, 0.001910214236706666
1073.0, 0.00093751477723124
1074.0, 0.0014057378301943534
1075.0, 0.0010559329854822202
1076.0, 0.0018825203386247937
1077.0, 0.002774445818279676
1078.0, 0.0021275114747445418
1079.0, 0.0022156021310850036
1080.0, 0.004050542197850261
1081.0, 0.0012162715048418709
1082.0, 0.0008500264847269595
1083.0, 0.00038197328993262676
1084.0, 0.0003778676560548065
1085.0, 0.0006445308067078467
1086.0, 0.00036376000221888016
1087.0, 0.0007111401652196065
1088.0, 0.00039464722871894724
1089.0, 0.001471563341955938
1090.0, 0.0015204023487265788
1091.0, 0.0003335971786070253
1092.0, 0.0024448398139024904
1093.0, 0.0029994089851749324
1094.0, 0.0025943368997867417
1095.0, 0.002564057618385631
1096.0, 0.0024474680857497232
1097.0, 0.0023118449009921216
1098.0, 0.002768475560043522
1099.0, 0.00337437650805536
1100.0, 0.004015818319718509
1101.0, 0.006356429863541569
1102.0, 0.005133542832435753
1103.0, 0.00411201950959202
1104.0, 0.002671730285886146
1105.0, 0.00515855880920109
1106.0, 0.006392764207206908
1107.0, 0.00593950771093326
1108.0, 0.005491550213636868
1109.0, 0.004661993134426542
1110.0, 0.005249686264259849
1111.0, 0.0069629239492853545
1112.0, 0.0066641605466698645
1113.0, 0.005780238718629634
1114.0, 0.00678841128286523
1115.0, 0.00674534250526369
1116.0, 0.00638595621576863
1117.0, 0.006266339773996973
1118.0, 0.006405612600651667
1119.0, 0.006107313211789419
1120.0, 0.0041148074206642776
1121.0, 0.00462069693523662
1122.0, 0.007360391344358318
1123.0, 0.007005865193868307
1124.0, 0.005712348313944374
1125.0, 0.005999055870123035
1126.0, 0.00579084377418973
1127.0, 0.005518134293617961
1128.0, 0.005624184340453795
1129.0, 0.005529146249313348
1130.0, 0.005314887987907157
1131.0, 0.005437185317949918
1132.0, 0.0050585398906847975
1133.0, 0.004440013261677028
1134.0, 0.005898090835469944
1135.0, 0.005224711806184565
1136.0, 0.005139192001011957
1137.0, 0.004617734742106003
1138.0, 0.0032098330268128957
1139.0, 0.002802520475564612
1140.0, 0.0029626706572174542
1141.0, 0.002478499183628856
1142.0, 0.002366103842661722
1143.0, 0.0023570621579242284
1144.0, 0.0032754848530731464
1145.0, 0.0016755705328614036
1146.0, 0.002179366570805378
1147.0, 0.0021611048553004573
1148.0, 0.002339894942318098
1149.0, 0.0029809122515757503
1150.0, 0.0033786125246491913
1151.0, 0.0038331483602305557
1152.0, 0.004417861332696159
1153.0, 0.004071420263158992
1154.0, 0.0037894278868298805
1155.0, 0.005410452598883083
1156.0, 0.0033988299840504907
1157.0, 0.00422585329929467
1158.0, 0.004743923490552942
1159.0, 0.00408802965327036
1160.0, 0.003186882535921222
1161.0, 0.003142753169921582
1162.0, 0.004299216819016427
1163.0, 0.004458197247175941
1164.0, 0.004285055417348428
1165.0, 0.0029201683590060487
1166.0, 0.0012530858906437976
1167.0, 0.0014883963388212264
1168.0, 0.002408019224234333
1169.0, 0.0021569140859039747
1170.0, 0.002716375368181271
1171.0, 0.0024553366350845234
1172.0, 0.002150665443816942
1173.0, 0.003684647188218764
1174.0, 0.003483691486791424
1175.0, 0.0025013205981240095
1176.0, 0.0013364703763636462
1177.0, 0.003520979753766675
1178.0, 0.002949884246552182
1179.0, 0.0023794160009672233
1180.0, 0.0020830828020610556
1181.0, 0.0021322349083095567
1182.0, 0.0024384101546745178
1183.0, 0.0026515951037657144
1184.0, 0.002388730255962841
1185.0, 0.0016005528112862891
1186.0, 0.0007244754815106863
1187.0, 0.0003346189514836702
1188.0, 0.0028176809073315583
1189.0, 0.0019050172192269462
1190.0, 0.0011186224196887912
1191.0, 0.001163442508137434
1192.0, 0.0008336909459382234
1193.0, 0.001520416026834834
1194.0, 0.0022633319202500822
1195.0, 0.002111685792296372
1196.0, 0.0009598275471513028
1197.0, 0.0004356066658582021
1198.0, 0.001469441396520975
1199.0, 0.0013701343716335085
1200.0, 0.0004979850528520075
1201.0, 0.0020352362225182137
1202.0, 0.0024417926138697544
1203.0, 0.0021011211012477737
1204.0, 0.0014022916862339247
1205.0, 0.00030302078443656804
1206.0, 0.000397959084211096
1207.0, 0.0018350739953454424
1208.0, 0.002103110936016528
1209.0, 0.0014309039172142424
1210.0, 0.0011235517544764644
1211.0, 0.001785030541516506
1212.0, 0.0018612313251787824
1213.0, 0.0019425092645179787
1214.0, 0.0008233594083800001
1215.0, 0.0007174222516297149
1216.0, 0.000303522410242936
1217.0, 0.0010626811304685847
1218.0, 0.002057106453961565
1219.0, 0.003068404716690022
1220.0, 0.002227944792810312
1221.0, 0.0017677482228774315
1222.0, 0.002658717818583699
1223.0, 0.0020543868529071473
1224.0, 0.0012838874110841453
1225.0, 0.0007357771848122079
1226.0, 0.000967588725958202
1227.0, 0.0015364292571221972
1228.0, 0.0014629856850820386
1229.0, 0.0014369287829588194
1230.0, 0.0018068631499264102
1231.0, 0.0026026187949448488
1232.0, 0.002548111046153148
1233.0, 0.001616782878206791
1234.0, 0.0018802095679464684
1235.0, 0.0025359113337357474
1236.0, 0.002958260081558301
1237.0, 0.0015855784743891723
1238.0, 0.0016829669147725604
1239.0, 0.0017910332533860446
1240.0, 0.0017775451671063068
1241.0, 0.0013651664621644511
1242.0, 0.0019100564205439732
1243.0, 0.002087131170770724
1244.0, 0.0012823385016492196
1245.0, 0.0008734470933389968
1246.0, 0.0015000952318929422
1247.0, 0.0021103428511876866
1248.0, 0.0019055948841400273
1249.0, 0.0021321802571821185
1250.0, 0.0025571461449992
1251.0, 0.002044314421253448
1252.0, 0.001176207212144619
1253.0, 0.0013947745951074422
1254.0, 0.000571733490987269
1255.0, 0.0015714058176318694
1256.0, 0.002675760997867138
1257.0, 0.003695159318019384
1258.0, 0.0026948988432330297
1259.0, 0.0005289090017664993
1260.0, 0.000832283057300802
1261.0, 0.0002013849540451125
1262.0, 0.00026526980453754064
1263.0, 0.0005415042450365124
1264.0, 0.001022579698370032
1265.0, 0.000347248157236983
1266.0, 0.0005057572908421132
1267.0, 0.0005935358117389626
1268.0, 0.0006427072138687146
1269.0, 0.0018857417631354685
1270.0, 0.0010825285257249355
1271.0, 0.0015347285073856992
1272.0, 0.002695634238904363
1273.0, 0.0024607878596784537
1274.0, 0.0031850930535587537
1275.0, 0.0034407178935003425
1276.0, 0.002152308343122265
1277.0, 0.0018062843491359944
1278.0, 0.0012181955461368936
1279.0, 0.001841951930463941
1280.0, 0.002721679443609246
1281.0, 0.00016538406938819536
1282.0, 0.0007856200356902109
1283.0, 0.0016160929225021168
1284.0, 0.0021230422824553745
1285.0, 0.0025563995674648004
1286.0, 0.0020645276605457106
1287.0, 0.00168617063253198
1288.0, 0.0019838264048417393
1289.0, 0.0017113078114171499
1290.0, 0.0007121737695197112
1291.0, 0.0012027608786598577
1292.0, 0.0025580121921662748
1293.0, 0.00222037091677264
1294.0, 0.0028725683575332567
1295.0, 0.002606168187821766
1296.0, 0.0033157882443760993
1297.0, 0.000969182733498769
1298.0, 0.0009339796419920599
1299.0, 0.002828008348899822
1300.0, 0.0009987719947760676
1301, 0.0
1302, 0.0
1303, 0.0
1304, 0.0
1305, 0.0
1306, 0.0
1307, 0.0
1308, 0.0
1309, 0.0
1310, 0.0
1311, 0.0
1312, 0.0
1313, 0.0
1314, 0.0
1315, 0.0
1316, 0.0
1317, 0.0
1318, 0.0
1319, 0.0
1320, 0.0
1321, 0.0
1322, 0.0
1323, 0.0
1324, 0.0
1325, 0.0
1326, 0.0
1327, 0.0
1328, 0.0
1329, 0.0
1330, 0.0
1331, 0.0
1332, 0.0
1333, 0.0
1334, 0.0
1335, 0.0
1336, 0.0
1337, 0.0
1338, 0.0
1339, 0.0
1340, 0.0
1341, 0.0
1342, 0.0
1343, 0.0
1344, 0.0
1345, 0.0
1346, 0.0
1347, 0.0
1348, 0.0
1349, 0.0
1350, 0.0
1351, 0.0
1352, 0.0
1353, 0.0
1354, 0.0
1355, 0.0
1356, 0.0
1357, 0.0
1358, 0.0
1359, 0.0
1360, 0.0
1361, 0.0
1362, 0.0
1363, 0.0
1364, 0.0
1365, 0.0
1366, 0.0
1367, 0.0
1368, 0.0
1369, 0.0
1370, 0.0
1371, 0.0
1372, 0.0
1373, 0.0
1374, 0.0
1375, 0.0
1376, 0.0
1377, 0.0
1378, 0.0
1379, 0.0
1380, 0.0
1381, 0.0
1382, 0.0
1383, 0.0
1384, 0.0
1385, 0.0
1386, 0.0
1387, 0.0
1388, 0.0
1389, 0.0
1390, 0.0
1391, 0.0
1392, 0.0
1393, 0.0
1394, 0.0
1395, 0.0
1396, 0.0
1397, 0.0
1398, 0.0
1399, 0.0
1400, 0.0
1401, 0.0
1402, 0.0
1403, 0.0
1404, 0.0
1405, 0.0
1406, 0.0
1407, 0.0
1408, 0.0
1409, 0.0
1410, 0.0
1411, 0.0
1412, 0.0
1413, 0.0
1414, 0.0
1415, 0.0
1416, 0.0
1417, 0.0
1418, 0.0
1419, 0.0
1420, 0.0
1421, 0.0
1422, 0.0
1423, 0.0
1424, 0.0
1425, 0.0
1426, 0.0
1427, 0.0
1428, 0.0
1429, 0.0
1430, 0.0
1431, 0.0
1432, 0.0
1433, 0.0
1434, 0.0
1435, 0.0
1436, 0.0
1437, 0.0
1438, 0.0
1439, 0.0
1440, 0.0
1441, 0.0
1442, 0.0
1443, 0.0
1444, 0.0
1445, 0.0
1446, 0.0
1447, 0.0
1448, 0.0
1449, 0.0
1450, 0.0
1451, 0.0
1452, 0.0
1453, 0.0
1454, 0.0
1455, 0.0
1456, 0.0
1457, 0.0
1458, 0.0
1459, 0.0
1460, 0.0
1461, 0.0
1462, 0.0
1463, 0.0
1464, 0.0
1465, 0.0
1466, 0.0
1467, 0.0
1468, 0.0
1469, 0.0
1470, 0.0
1471, 0.0
1472, 0.0
1473, 0.0
1474, 0.0
1475, 0.0
1476, 0.0
1477, 0.0
1478, 0.0
1479, 0.0
1480, 0.0
1481, 0.0
1482, 0.0
1483, 0.0
1484, 0.0
1485, 0.0
1486, 0.0
1487, 0.0
1488, 0.0
1489, 0.0
1490, 0.0
1491, 0.0
1492, 0.0
1493, 0.0
1494, 0.0
1495, 0.0
1496, 0.0
1497, 0.0
1498, 0.0
1499, 0.0
1500, 0.0
1501, 0.0
1502, 0.0
1503, 0.0
1504, 0.0
1505, 0.0
1506, 0.0
1507, 0.0
1508, 0.0
1509, 0.0
1510, 0.0
1511, 0.0
1512, 0.0
1513, 0.0
1514, 0.0
1515, 0.0
1516, 0.0
1517, 0.0
1518, 0.0
1519, 0.0
1520, 0.0
1521, 0.0
1522, 0.0
1523, 0.0
1524, 0.0
1525, 0.0
1526, 0.0
1527, 0.0
1528, 0.0
1529, 0.0
1530, 0.0
1531, 0.0
1532, 0.0
1533, 0.0
1534, 0.0
1535, 0.0
1536, 0.0
1537, 0.0
1538, 0.0
1539, 0.0
1540, 0.0
1541, 0.0
1542, 0.0
1543, 0.0
1544, 0.0
1545, 0.0
1546, 0.0
1547, 0.0
1548, 0.0
1549, 0.0
1550, 0.0
1551, 0.0
1552, 0.0
1553, 0.0
1554, 0.0
1555, 0.0
1556, 0.0
1557, 0.0
1558, 0.0
1559, 0.0
1560, 0.0
1561, 0.0
1562, 0.0
1563, 0.0
1564, 0.0
1565, 0.0
1566, 0.0
1567, 0.0
1568, 0.0
1569, 0.0
1570, 0.0
1571, 0.0
1572, 0.0
1573, 0.0
1574, 0.0
1575, 0.0
1576, 0.0
1577, 0.0
1578, 0.0
1579, 0.0
1580, 0.0
1581, 0.0
1582, 0.0
1583, 0.0
1584, 0.0
1585, 0.0
1586, 0.0
1587, 0.0
1588, 0.0
1589, 0.0
1590, 0.0
1591, 0.0
1592, 0.0
1593, 0.0
1594, 0.0
1595, 0.0
1596, 0.0
1597, 0.0
1598, 0.0
1599, 0.0
