30, 0.0
31, 0.0
32, 0.0
33, 0.0
34, 0.0
35, 0.0
36, 0.0
37, 0.0
38, 0.0
39, 0.0
40, 0.0
41, 0.0
42, 0.0
43, 0.0
44, 0.0
45, 0.0
46, 0.0
47, 0.0
48, 0.0
49, 0.0
50, 0.0
51, 0.0
52, 0.0
53, 0.0
54, 0.0
55, 0.0
56, 0.0
57, 0.0
58, 0.0
59, 0.0
60, 0.0
61, 0.0
62, 0.0
63, 0.0
64, 0.0
65, 0.0
66, 0.0
67, 0.0
68, 0.0
69, 0.0
70, 0.0
71, 0.0
72, 0.0
73, 0.0
74, 0.0
75, 0.0
76, 0.0
77, 0.0
78, 0.0
79, 0.0
80, 0.0
81, 0.0
82, 0.0
83, 0.0
84, 0.0
85, 0.0
86, 0.0
87, 0.0
88, 0.0
89, 0.0
90, 0.0
91, 0.0
92, 0.0
93, 0.0
94, 0.0
95, 0.0
96, 0.0
97, 0.0
98, 0.0
99, 0.0
100, 0.0
101, 0.0
102, 0.0
103, 0.0
104, 0.0
105, 0.0
106, 0.0
107, 0.0
108, 0.0
109, 0.0
110, 0.0
111, 0.0
112, 0.0
113, 0.0
114, 0.0
115, 0.0
116, 0.0
117, 0.0
118, 0.0
119, 0.0
120, 0.0
121, 0.0
122, 0.0
123, 0.0
124, 0.0
125, 0.0
126, 0.0
127, 0.0
128, 0.0
129, 0.0
130, 0.0
131, 0.0
132, 0.0
133, 0.0
134, 0.0
135, 0.0
136, 0.0
137, 0.0
138, 0.0
139, 0.0
140, 0.0
141, 0.0
142, 0.0
143, 0.0
144, 0.0
145, 0.0
146, 0.0
147, 0.0
148, 0.0
149, 0.0
150, 0.0
151, 0.0
152, 0.0
153, 0.0
154, 0.0
155, 0.0
156, 0.0
157, 0.0
158, 0.0
159, 0.0
160, 0.0
161, 0.0
162, 0.0
163, 0.0
164, 0.0
165, 0.0
166, 0.0
167, 0.0
168, 0.0
169, 0.0
170, 0.0
171, 0.0
172, 0.0
173, 0.0
174, 0.0
175, 0.0
176, 0.0
177, 0.0
178, 0.0
179, 0.0
180, 0.0
181, 0.0
182, 0.0
183, 0.0
184, 0.0
185, 0.0
186, 0.0
187, 0.0
188, 0.0
189, 0.0
190, 0.0
191, 0.0
192, 0.0
193, 0.0
194, 0.0
195, 0.0
196, 0.0
197, 0.0
198, 0.0
199, 0.0
200, 0.0
201, 0.0
202, 0.0
203, 0.0
204, 0.0
205, 0.0
206, 0.0
207, 0.0
208, 0.0
209, 0.0
210, 0.0
211, 0.0
212, 0.0
213, 0.0
214, 0.0
215, 0.0
216, 0.0
217, 0.0
218, 0.0
219, 0.0
220, 0.0
221, 0.0
222, 0.0
223, 0.0
224, 0.0
225, 0.0
226, 0.0
227, 0.0
228, 0.0
229, 0.0
230, 0.0
231, 0.0
232, 0.0
233, 0.0
234.0, 0.0011793936780870626
235.0, 0.0015061813819288526
236.0, 0.00124275200953518
237.0, 0.0021533005074325443
238.0, 0.00436693324022149
239.0, 0.0032579111697508133
240.0, 0.0014599639441324217
241.0, 0.0011672762519643967
242.0, 0.0025269603080618794
243.0, 0.0025338994358425878
244.0, 0.002340004835368362
245.0, 0.0020363085933132663
246.0, 0.002762093481420564
247.0, 0.003300577960850881
248.0, 0.0024080937286703784
249.0, 0.0037993977127184124
250.0, 0.002204499913285524
251.0, 0.0016351263936355198
252.0, 0.0024418672805069275
253.0, 0.0037386686358490376
254.0, 0.00411309458377751
255.0, 0.006785558463015122
256.0, 0.008653528964269708
257.0, 0.009797300250160625
258.0, 0.009121668942476832
259.0, 0.007159526245621322
260.0, 0.009021757226536031
261.0, 0.00908467358041391
262.0, 0.009081737297286133
263.0, 0.010522663853957783
264.0, 0.011607027371332141
265.0, 0.009972785589800031
266.0, 0.012581926810773213
267.0, 0.012861824372951745
268.0, 0.012702618559408997
269.0, 0.01270565319736647
270.0, 0.0127960110836021
271.0, 0.012370775670469819
272.0, 0.012799298063785531
273.0, 0.011857992618548545
274.0, 0.011403954864403336
275.0, 0.011374730831007254
276.0, 0.01108875381921011
277.0, 0.010116603567166186
278.0, 0.010932421211864248
279.0, 0.011390978555187187
280.0, 0.009594193625403076
281.0, 0.007766762335136248
282.0, 0.009127390320543712
283.0, 0.008376525506234812
284.0, 0.006153598685353234
285.0, 0.005176331197401537
286.0, 0.005463470313360596
287.0, 0.00602424863613185
288.0, 0.005528839343069665
289.0, 0.006301336938917642
290.0, 0.006962429083589962
291.0, 0.008346255772823831
292.0, 0.008890652764741219
293.0, 0.008622431042338159
294.0, 0.011583747185854133
295.0, 0.010837876217891527
296.0, 0.011188114777854523
297.0, 0.01224752077436315
298.0, 0.012583525560736492
299.0, 0.011340501529201805
300.0, 0.010889030081267407
301.0, 0.012776697590772984
302.0, 0.01238008897184115
303.0, 0.01177372838064312
304.0, 0.011953751336838245
305.0, 0.012550415722119804
306.0, 0.012532867397367047
307.0, 0.016349098364839006
308.0, 0.016006294084870785
309.0, 0.01696695059170421
310.0, 0.020143214952719663
311.0, 0.020491398555224655
312.0, 0.02783880180550105
313.0, 0.034794456628033175
314.0, 0.033459310225193876
315.0, 0.029221704343943805
316.0, 0.027917175162286194
317.0, 0.030042132277011434
318.0, 0.031095367085531265
319.0, 0.030773615353093208
320.0, 0.02952942415862093
321.0, 0.0288922869773564
322.0, 0.029317561211025963
323.0, 0.028129315968202052
324.0, 0.028499851534280966
325.0, 0.026788233553864494
326.0, 0.02462310301716562
327.0, 0.022005595881391737
328.0, 0.01866186148832388
329.0, 0.01624763265200672
330.0, 0.012274903389915204
331.0, 0.0085860066030666
332.0, 0.006169872030807892
333.0, 0.005802934864763478
334.0, 0.0067538774773912595
335.0, 0.002810287514367602
336.0, 0.0020287147383331932
337.0, 0.0017772103551475665
338.0, 0.0014385286719684589
339.0, 0.0009220628578670632
340.0, 0.0005111311211254462
341.0, 0.0008446766664273536
342.0, 0.000478432240478936
343.0, 0.0021456266367069865
344.0, 0.00286006623712546
345.0, 0.0016247243720103575
346.0, 0.0005850948284486328
347.0, 0.004151417329492975
348.0, 0.0036301457701926206
349.0, 0.0031749988424159365
350.0, 0.003095674616793092
351.0, 0.003135925015693885
352.0, 0.0031189565917908134
353.0, 0.002423798483276965
354.0, 0.002494370991586792
355.0, 0.0020870340958271524
356.0, 0.00117069949136226
357.0, 0.000478406767884156
358.0, 0.0010608537983674486
359.0, 0.0012716477223852377
360.0, 0.0003886181395729373
361.0, 0.002020306464507048
362.0, 0.003380988450188916
363.0, 0.0033777497646497925
364.0, 0.004987879953988764
365.0, 0.006038088081780954
366.0, 0.005383502483443719
367.0, 0.006614388220898522
368.0, 0.007768664519307033
369.0, 0.0075781107420203305
370.0, 0.007841145836137034
371.0, 0.009736818021499305
372.0, 0.011541707352234119
373.0, 0.012593590426140852
374.0, 0.014499155383477437
375.0, 0.01686456024381625
376.0, 0.016302084135496806
377.0, 0.018169637308032473
378.0, 0.020871859922573566
379.0, 0.023399587837662935
380.0, 0.025342775551520737
381.0, 0.027063888287049698
382.0, 0.02948951502740528
383.0, 0.030393949832060244
384.0, 0.033696252884692884
385.0, 0.036703496678908556
386.0, 0.0397845627776754
387.0, 0.04368146166331511
388.0, 0.04845569147015182
389.0, 0.05292540066267692
390.0, 0.060132241598635755
391.0, 0.06342513286117656
392.0, 0.06902587554374888
393.0, 0.07769431740149563
394.0, 0.08225755043472105
395.0, 0.09373128909662623
396.0, 0.10205668730328389
397.0, 0.11335523185826375
398.0, 0.12553151281610764
399.0, 0.1370844726799842
400.0, 0.14888408213272988
401.0, 0.16143125416217685
402.0, 0.17545659745594444
403.0, 0.19306215675530192
404.0, 0.20976893989173417
405.0, 0.2233483490831012
406.0, 0.23488311568542936
407.0, 0.24576718439176307
408.0, 0.2543866071350775
409.0, 0.255555720157184
410.0, 0.2534278212989619
411.0, 0.25036283181936775
412.0, 0.24528457800305284
413.0, 0.23312261685142818
414.0, 0.2181242370747155
415.0, 0.2036449735991422
416.0, 0.18751681318838173
417.0, 0.17100404416556017
418.0, 0.15634951693503246
419.0, 0.14180431876144817
420.0, 0.13109273171369087
421.0, 0.1200081348483356
422.0, 0.10933896146064204
423.0, 0.09939849558326508
424.0, 0.09025415840874794
425.0, 0.082194998815838
426.0, 0.08154974783136311
427.0, 0.0775779746211699
428.0, 0.07285462490839878
429.0, 0.06953436212005787
430.0, 0.06772580424888372
431.0, 0.06508472390375858
432.0, 0.0648184223916329
433.0, 0.06325577687930974
434.0, 0.06352142354731714
435.0, 0.06487096809504764
436.0, 0.06634938919141144
437.0, 0.06777023609172379
438.0, 0.0678344899399349
439.0, 0.07269769582661174
440.0, 0.07603103661888883
441.0, 0.07995067100817077
442.0, 0.08416076778367852
443.0, 0.08696576211895193
444.0, 0.09293115595517402
445.0, 0.09717111155547581
446.0, 0.10340212139197566
447.0, 0.10959921989700884
448.0, 0.11660515016362631
449.0, 0.12570914914289594
450.0, 0.13481527083435182
451.0, 0.14607475098674486
452.0, 0.15702728084315645
453.0, 0.16931042410648758
454.0, 0.18290777795630173
455.0, 0.19717830676892534
456.0, 0.21163156239409128
457.0, 0.22644260852236592
458.0, 0.24222468236549266
459.0, 0.2601414852846541
460.0, 0.27760499290313223
461.0, 0.2927095274351061
462.0, 0.3061733589173618
463.0, 0.3234856677392242
464.0, 0.33792101356025295
465.0, 0.34944215624413827
466.0, 0.3593028653884121
467.0, 0.3673925447482354
468.0, 0.37456198909493227
469.0, 0.3864177170734901
470.0, 0.3958069181329516
471.0, 0.4072991285269603
472.0, 0.4184330184301601
473.0, 0.4306837134489521
474.0, 0.4454944027355953
475.0, 0.4620463411230905
476.0, 0.48201192079952554
477.0, 0.5036645060964721
478.0, 0.5304475894125532
479.0, 0.5587676947384769
480.0, 0.5893200420723018
481.0, 0.6242162219165572
482.0, 0.65089483867597
483.0, 0.6868681066405599
484.0, 0.720882628389673
485.0, 0.7561305988475261
486.0, 0.798439096283935
487.0, 0.8429615574564292
488.0, 0.8658277881014245
489.0, 0.8990279551513477
490.0, 0.9273618243515026
491.0, 0.9503060826365098
492.0, 0.9690842372022676
493.0, 0.9840946319368842
494.0, 0.9939445216280908
495.0, 0.9952155369280118
496.0, 0.9990180302883178
497.0, 0.9893821333052392
498.0, 0.9739646809491115
499.0, 0.953134767656681
500.0, 0.9239407511996103
501.0, 0.8892170611227264
502.0, 0.8491861931764485
503.0, 0.8123874841275911
504.0, 0.768491165391789
505.0, 0.722219119691052
506.0, 0.676526711395644
507.0, 0.6275429992927105
508.0, 0.5748647040989977
509.0, 0.5272956352355053
510.0, 0.48358918244364685
511.0, 0.4430965621976304
512.0, 0.4043434825376391
513.0, 0.36721565829135283
514.0, 0.33508250014697805
515.0, 0.304516455094088
516.0, 0.2757190910953622
517.0, 0.2505598227582886
518.0, 0.22838921893210412
519.0, 0.209057026902405
520.0, 0.1930329324943374
521.0, 0.17779810251437436
522.0, 0.1599115579258098
523.0, 0.14596348569180936
524.0, 0.1350279002779319
525.0, 0.12499015541976298
526.0, 0.11483448013445026
527.0, 0.10605294129712577
528.0, 0.10026405682341308
529.0, 0.09308328703157626
530.0, 0.08594998820791154
531.0, 0.07969228150263702
532.0, 0.0746382540482291
533.0, 0.07071031312240052
534.0, 0.06768405316467299
535.0, 0.06194177180114406
536.0, 0.05585769800260924
537.0, 0.05256046228619296
538.0, 0.050135678248373394
539.0, 0.04742432449178838
540.0, 0.04608010969796581
541.0, 0.042639637374151135
542.0, 0.042774285653555406
543.0, 0.03905017680259432
544.0, 0.03584368008752412
545.0, 0.033896623330879214
546.0, 0.03213744728323248
547.0, 0.0317822941157679
548.0, 0.03173618976772887
549.0, 0.0270953571814764
550.0, 0.024993384593663542
551.0, 0.02395476304954877
552.0, 0.02354582165959485
553.0, 0.024479157038162256
554.0, 0.02319601366633676
555.0, 0.022260786055159132
556.0, 0.020142085320177368
557.0, 0.019916781575218548
558.0, 0.019759396579504627
559.0, 0.018215898417751824
560.0, 0.016369063471850038
561.0, 0.014760303211268592
562.0, 0.013671091131521807
563.0, 0.013194880156997007
564.0, 0.012533242323425087
565.0, 0.01203108067720634
566.0, 0.01187756078777283
567.0, 0.011286749502030251
568.0, 0.011327075580307247
569.0, 0.011406204004759229
570.0, 0.010714149969552963
571.0, 0.009966319869791232
572.0, 0.009034000567202962
573.0, 0.00812863897101149
574.0, 0.009066236818963968
575.0, 0.006662252499377414
576.0, 0.007785034881476689
577.0, 0.00937059384537317
578.0, 0.008056857846414908
579.0, 0.006787552687599355
580.0, 0.00884505206279542
581.0, 0.006009166480886803
582.0, 0.004729201059437131
583.0, 0.005906903792814517
584.0, 0.005680168270257359
585.0, 0.005671217575701739
586.0, 0.005772024737341811
587.0, 0.004483979273480406
588.0, 0.0054217377877012266
589.0, 0.0061170647953486396
590.0, 0.006404223759890879
591.0, 0.006230983290944489
592.0, 0.006349127329345258
593.0, 0.006886014807175037
594.0, 0.007230552994229899
595.0, 0.007555728011521261
596.0, 0.007943380396978719
597.0, 0.008198151635766229
598.0, 0.00842420460519289
599.0, 0.008635324524457505
600.0, 0.008922750903424183
601.0, 0.009379761556945396
602.0, 0.009567355667954369
603.0, 0.009893155124239035
604.0, 0.009660713966572592
605.0, 0.008576516089819236
606.0, 0.009003195829316595
607.0, 0.010112099801651134
608.0, 0.007759766712259806
609.0, 0.005822406976266595
610.0, 0.0074998792554395914
611.0, 0.00621520050598506
612.0, 0.0067725491691508636
613.0, 0.007751608907281485
614.0, 0.007843665797521864
615.0, 0.008678498066318815
616.0, 0.008440618029539352
617.0, 0.006508264197977287
618.0, 0.00519601048183349
619.0, 0.005213551184336663
620.0, 0.0051730630009149976
621.0, 0.0051039701775581515
622.0, 0.006323410796087871
623.0, 0.004165761180405172
624.0, 0.005120214887509528
625.0, 0.005355175817185583
626.0, 0.006908430475949333
627.0, 0.006578150953367975
628.0, 0.004745354385207272
629.0, 0.006004397901140023
630.0, 0.006587629512692872
631.0, 0.005585283184330357
632.0, 0.0063132008284417784
633.0, 0.005583407049237604
634.0, 0.00558377354488409
635.0, 0.0075396957481132605
636.0, 0.009380460456052493
637.0, 0.008335718750354847
638.0, 0.010627484418739836
639.0, 0.01244040411557995
640.0, 0.014111405150902239
641.0, 0.015154235837596845
642.0, 0.01553514839018432
643.0, 0.015803609650757843
644.0, 0.016284010121507892
645.0, 0.01544958499929607
646.0, 0.016572967699214042
647.0, 0.016355036868951508
648.0, 0.01609015815108773
649.0, 0.017010728003227282
650.0, 0.018686365833537916
651.0, 0.01923563038695656
652.0, 0.01817809212130421
653.0, 0.017253626688160967
654.0, 0.015223557330750245
655.0, 0.014640714193564686
656.0, 0.01592012772241
657.0, 0.01685064084618358
658.0, 0.014925259683408966
659.0, 0.015184426870399887
660.0, 0.013207010087144292
661.0, 0.011860938283878944
662.0, 0.011887485912300705
663.0, 0.011479624580319177
664.0, 0.010052576306980632
665.0, 0.009256045486661025
666.0, 0.00706246087894685
667.0, 0.00791812206741534
668.0, 0.006748229828620798
669.0, 0.006470835156818664
670.0, 0.005435122550630562
671.0, 0.003928538739807501
672.0, 0.0036462568445124305
673.0, 0.0005088263432752463
674.0, 0.0018265493497925875
675.0, 0.003208666764044725
676.0, 0.002950165025732238
677.0, 0.002331684053802214
678.0, 0.0014188792736228438
679.0, 9.018776809829608e-05
680.0, 0.00025464212414804733
681.0, 0.0018404770029414072
682.0, 0.0010739991564650245
683.0, 0.0016235520587628885
684.0, 0.001488661037286902
685.0, 0.0012030272902955495
686.0, 0.0015487919677327183
687.0, 0.001575469132870325
688.0, 0.0006910652182219944
689.0, 0.0016420172106397246
690.0, 0.0010622974630308353
691.0, 0.0012772553533748733
692.0, 0.001987277647316764
693.0, 0.0020800403458114576
694.0, 0.0014237489580565482
695.0, 0.0017436730913434173
696.0, 0.0016328083702042261
697.0, 0.0012364835922536622
698.0, 0.0008478390406695172
699.0, 0.0006464503112866871
700.0, 0.0007491870209228435
701.0, 0.0012109584806971668
702.0, 0.0017237338753382046
703.0, 0.00041641234368935596
704.0, 0.00041696514217867974
705.0, 0.0019989333515692863
706.0, 0.001380385919161636
707.0, 0.0008986146511567991
708.0, 0.001367746675965007
709.0, 0.0011001169786698
710.0, 0.0009685777526714444
711.0, 0.0014197724425520745
712.0, 0.0005909797952174454
713.0, 0.0009360991347689524
714.0, 0.0010295810156037166
715.0, 0.0007519658186325851
716.0, 0.0006486309236581999
717.0, 0.0007337929333460137
718.0, 0.0015089368945329074
719.0, 0.0005333591622480769
720.0, 0.0024162806950407344
721.0, 0.002379984916594309
722.0, 0.002349043180152078
723.0, 0.0029260675547693247
724.0, 0.002796322130343143
725.0, 0.0025791897815968514
726.0, 0.0011082771407760527
727.0, 0.002090692612490431
728.0, 0.0016462402387428434
729.0, 0.0012997673633922053
730.0, 0.001576173982733745
731.0, 0.0021450009899778807
732.0, 0.0025810772402837835
733.0, 0.002590799040565736
734.0, 0.0032816215577442776
735.0, 0.0017019332615890888
736.0, 0.0016778642212386108
737.0, 0.002818113394510668
738.0, 0.004698892162689204
739.0, 0.005668710241940836
740.0, 0.0033816708538093056
741.0, 0.004444159603278998
742.0, 0.005082761964288988
743.0, 0.004693336083815212
744.0, 0.00519605807793184
745.0, 0.005265286101073801
746.0, 0.0055205655185421665
747.0, 0.0067073944980899376
748.0, 0.006059154731039544
749.0, 0.006884545979614572
750.0, 0.007377413732593847
751.0, 0.007790601430305836
752.0, 0.008370791506327732
753.0, 0.009220280853564126
754.0, 0.009903151998400401
755.0, 0.009937084177418344
756.0, 0.009845455807314954
757.0, 0.010367123603591717
758.0, 0.012057427864796067
759.0, 0.011238194415783831
760.0, 0.010418277516233835
761.0, 0.01118720301866301
762.0, 0.01201802226822199
763.0, 0.010820659031862967
764.0, 0.010839159462338516
765.0, 0.010507334039073064
766.0, 0.010150003485107213
767.0, 0.010023018692940937
768.0, 0.009904380879499991
769.0, 0.009898228107577308
770.0, 0.009903484236243062
771.0, 0.00970041630842049
772.0, 0.010223697365312848
773.0, 0.010495973710858097
774.0, 0.010974743376805693
775.0, 0.012248148118434304
776.0, 0.013318261595915204
777.0, 0.01437803662282668
778.0, 0.015583826078387363
779.0, 0.016464377675838405
780.0, 0.018203655524984316
781.0, 0.02133586428143851
782.0, 0.022595811445447873
783.0, 0.024732373954177028
784.0, 0.027999390354825838
785.0, 0.03215262958522391
786.0, 0.03564462562037828
787.0, 0.0369434523197644
788.0, 0.03993016723490109
789.0, 0.04876250739559106
790.0, 0.04966091635864405
791.0, 0.05280121559687273
792.0, 0.056904963125617054
793.0, 0.060023094825240764
794.0, 0.06156672062466933
795.0, 0.06253580867234809
796.0, 0.06619996558509812
797.0, 0.0684833876436541
798.0, 0.06781712447962375
799.0, 0.06392553525170035
800.0, 0.061450127587520255
801.0, 0.06062898928049694
802.0, 0.05926202132394144
803.0, 0.05636870826909335
804.0, 0.05310160811488714
805.0, 0.04534182251373495
806.0, 0.04159096856246974
807.0, 0.03906052984087852
808.0, 0.03440070132938087
809.0, 0.030836924539347464
810.0, 0.029244728894715497
811.0, 0.026456354197723006
812.0, 0.022702111038366415
813.0, 0.020315099821703833
814.0, 0.01848963785976162
815.0, 0.018536270537071044
816.0, 0.016621828906524434
817.0, 0.014858581332333112
818.0, 0.01421876024145511
819.0, 0.013457222504050174
820.0, 0.01275753646527218
821.0, 0.01243486756830975
822.0, 0.01020047117583441
823.0, 0.010574342749358706
824.0, 0.009280020012097741
825.0, 0.00804867113414694
826.0, 0.007575217266684133
827.0, 0.007787340282698571
828.0, 0.00900615158301202
829.0, 0.007080493077858133
830.0, 0.00705776269402244
831.0, 0.006732591986337817
832.0, 0.00551144009434184
833.0, 0.005845831420319042
834.0, 0.0061996442609432234
835.0, 0.005271876011409233
836.0, 0.004535305816698425
837.0, 0.0047893348677946505
838.0, 0.004798737055499897
839.0, 0.004682378458409467
840.0, 0.003709064228432692
841.0, 0.003192197865822718
842.0, 0.002679008184637155
843.0, 0.0017753973253712431
844.0, 0.0014999985673513978
845.0, 0.003024480689948207
846.0, 0.0020576096204269288
847.0, 0.002868376086724406
848.0, 0.0022547612528140333
849.0, 0.0023734970691946526
850.0, 0.0012300720632679807
851.0, 0.000540571570194847
852.0, 0.0009987617272395077
853.0, 0.0005750457374217138
854.0, 0.001978823714867379
855.0, 0.004006918544110258
856.0, 0.0024286366499436775
857.0, 0.0012681215147644686
858.0, 0.0005360061726889013
859.0, 0.0001505529249405022
860.0, 0.0001129546362320204
861.0, 0.0003464642522464813
862.0, 0.0006560599985833155
863.0, 0.0008335698684571845
864.0, 0.0008279177426831145
865.0, 0.0012089475091779838
866.0, 0.0015700339332190406
867.0, 0.0009524579402380511
868.0, 0.0007920322287675727
869.0, 0.0010360997416767605
870.0, 0.0004681038661975695
871.0, 0.0014283954375829935
872.0, 0.0002907363570448571
873.0, 0.0013770115226189022
874.0, 0.0015652408786109963
875.0, 0.0007807135408207867
876.0, 0.0005285255517095666
877.0, 0.0007663412850596552
878.0, 0.0007231967051728395
879.0, 0.0004923932118233278
880.0, 0.00033960773087772354
881.0, 0.0006313426984000119
882.0, 0.00019492215080087026
883.0, 7.02649017496459e-05
884.0, 0.0009562786838277946
885.0, 0.0012098705871708304
886.0, 0.0008349026075299595
887.0, 0.000802234516771082
888.0, 0.000680172884756912
889.0, 0.0010237612377502568
890.0, 0.0006765231572973551
891.0, 0.000999935806927766
892.0, 0.0012235242072276243
893.0, 0.000856666937166166
894.0, 0.000833728699428924
895.0, 0.0010091299323777391
896.0, 0.0009516385910178207
897.0, 0.0016380259071545871
898.0, 0.0005056566245809772
899.0, 0.0010551240591839181
900.0, 0.0012840822075057487
901.0, 0.0008443009057559967
902.0, 0.00035679219259492296
903.0, 0.0001596307648309353
904.0, 0.00043702969864349204
905.0, 0.0008261900151605522
906.0, 0.0003303526383485711
907.0, 0.00042794817311143983
908.0, 0.00033176242442199455
909.0, 0.001681609635551967
910.0, 0.0018949481052842204
911.0, 0.0012682536795801268
912.0, 0.0011754120865526698
913.0, 0.0012202529415871308
914.0, 0.00044437452780759785
915.0, 0.0004064095520904408
916.0, 0.0018900577423955648
917.0, 0.0015143451963096223
918.0, 0.0014095223039927453
919.0, 0.0010028704905563214
920.0, 0.0013967062636652062
921.0, 0.0015122413658736598
922.0, 0.0008734065257872587
923.0, 0.000443492058355062
924.0, 0.0008568238695806813
925.0, 0.0025426928621607556
926.0, 0.0009139843538714555
927.0, 0.0026550884129316367
928.0, 0.0023148631051884997
929.0, 0.0021089729390445368
930.0, 0.0016922467632640194
931.0, 0.0011622124092597347
932.0, 0.0013585588336318304
933.0, 0.0017259177417246867
934.0, 0.0019573288561217507
935.0, 0.0026635021128687784
936.0, 0.0016977492906016516
937.0, 0.0022832710126653053
938.0, 0.0032113509718564096
939.0, 0.0032202178538863263
940.0, 0.0032479314695200746
941.0, 0.003922038340468111
942.0, 0.0038821387805883494
943.0, 0.003028795347612369
944.0, 0.002174925976814296
945.0, 0.00243016984397985
946.0, 0.0022269204789795495
947.0, 0.0049158551263145285
948.0, 0.005819285348464793
949.0, 0.004482692734612377
950.0, 0.0035382794507427717
951.0, 0.003255204759609628
952.0, 0.0014542967822281066
953.0, 0.0019477587985623846
954.0, 0.005534076833327443
955.0, 0.003919378572013311
956.0, 0.00401166494645299
957.0, 0.005900120793856751
958.0, 0.006273425353024331
959.0, 0.0056570961879503605
960.0, 0.006555225686685186
961.0, 0.007569083370701029
962.0, 0.005781724319928396
963.0, 0.0073883266589374495
964.0, 0.009578428789998459
965.0, 0.00785474059519003
966.0, 0.008761824388001428
967.0, 0.010279146435441573
968.0, 0.010482584689310756
969.0, 0.010244381179942412
970.0, 0.0112968718513975
971.0, 0.013796106747050419
972.0, 0.01426911443278427
973.0, 0.01394199674570255
974.0, 0.017439732415852578
975.0, 0.018358907950486898
976.0, 0.019176321244952447
977.0, 0.020301834655936123
978.0, 0.020569045882747144
979.0, 0.02010033203243241
980.0, 0.020341362878220776
981.0, 0.0208627837285412
982.0, 0.022182195808527944
983.0, 0.021621917610553383
984.0, 0.022597083263347507
985.0, 0.02325907264854046
986.0, 0.0230072715193651
987.0, 0.024910195220018652
988.0, 0.026673722000603615
989.0, 0.02553104723015667
990.0, 0.026058646831218266
991.0, 0.02538088201897496
992.0, 0.02905182646739362
993.0, 0.027155449152278258
994.0, 0.027877964783367317
995.0, 0.02785447641897633
996.0, 0.02856117813777355
997.0, 0.029179580328551353
998.0, 0.029159990774010557
999.0, 0.02939647983173681
1000.0, 0.02951408866918292
1001.0, 0.030481431329974648
1002.0, 0.03087927822918393
1003.0, 0.031216904592744447
1004.0, 0.03476739174585075
1005.0, 0.03495842355449941
1006.0, 0.034508042920443266
1007.0, 0.034827104160872174
1008.0, 0.034175785640081474
1009.0, 0.03340129636571403
1010.0, 0.03667159050266099
1011.0, 0.03741422933426297
1012.0, 0.03760546078337935
1013.0, 0.03739988213081692
1014.0, 0.03597247196713877
1015.0, 0.037339655024479466
1016.0, 0.037953447708175214
1017.0, 0.038042987786116395
1018.0, 0.038979396297339805
1019.0, 0.0394757138416553
1020.0, 0.03820579142151649
1021.0, 0.03656241746890629
1022.0, 0.03974595841110014
1023.0, 0.038929496481265057
1024.0, 0.04001460736645972
1025.0, 0.04201914768235592
1026.0, 0.041535862814017326
1027.0, 0.039642763031107184
1028.0, 0.03959842681918147
1029.0, 0.04081369157278934
1030.0, 0.039528763605125125
1031.0, 0.03874052454909068
1032.0, 0.03727365302474065
1033.0, 0.04040236795371538
1034.0, 0.03895323006217386
1035.0, 0.03758704044993067
1036.0, 0.039652109118199545
1037.0, 0.038823164698098704
1038.0, 0.037439606527952335
1039.0, 0.03914595805419464
1040.0, 0.03852288150200964
1041.0, 0.036343998408430195
1042.0, 0.03793437960357026
1043.0, 0.037377514580975116
1044.0, 0.038295279710964615
1045.0, 0.038281157089892486
1046.0, 0.036961700802096376
1047.0, 0.03705021728562461
1048.0, 0.03763063310943004
1049.0, 0.03675784207237289
1050.0, 0.03556758270616874
1051.0, 0.036082454316543514
1052.0, 0.03590690061619219
1053.0, 0.037452439144165774
1054.0, 0.03747582931879528
1055.0, 0.03687254441697741
1056.0, 0.03605246482645151
1057.0, 0.03568059259878395
1058.0, 0.03591515175805116
1059.0, 0.036736106552912665
1060.0, 0.03776321514666803
1061.0, 0.03834092056598171
1062.0, 0.03880187569533941
1063.0, 0.04097760269360653
1064.0, 0.04127876419119923
1065.0, 0.04246926283373933
1066.0, 0.045116103359078015
1067.0, 0.045811703763575774
1068.0, 0.04783530158171834
1069.0, 0.04989794139613296
1070.0, 0.051336408427696364
1071.0, 0.05375016542618637
1072.0, 0.05608374835346058
1073.0, 0.05706250281761
1074.0, 0.05942568545567153
1075.0, 0.06294288724716889
1076.0, 0.06264870097702548
1077.0, 0.06561816131914189
1078.0, 0.06773479056142008
1079.0, 0.07047231272163994
1080.0, 0.07261579404590407
1081.0, 0.07263983621399366
1082.0, 0.0731402364242812
1083.0, 0.07680919200003661
1084.0, 0.07932141639370853
1085.0, 0.07875550556894766
1086.0, 0.08321648145528393
1087.0, 0.08429407429083405
1088.0, 0.0847808504470707
1089.0, 0.08742545248930136
1090.0, 0.0891240273755581
1091.0, 0.09017877271364544
1092.0, 0.0915405905228082
1093.0, 0.09351149363779923
1094.0, 0.09663646102583491
1095.0, 0.09545403931725
1096.0, 0.0969846004106281
1097.0, 0.09849720611360499
1098.0, 0.09809840687088965
1099.0, 0.09955348843313577
1100.0, 0.09928341795227971
1101.0, 0.10025053548765768
1102.0, 0.10122286752391262
1103.0, 0.10017770443820802
1104.0, 0.0988125005223509
1105.0, 0.09889550782909426
1106.0, 0.09822317066763624
1107.0, 0.09708944245226186
1108.0, 0.09654738211935729
1109.0, 0.09662428339596017
1110.0, 0.09465308360637165
1111.0, 0.09386015219363165
1112.0, 0.09283837539736282
1113.0, 0.09270608808899879
1114.0, 0.0922451210297538
1115.0, 0.09164711744024347
1116.0, 0.09326251642307863
1117.0, 0.09313269291138393
1118.0, 0.09183501054466282
1119.0, 0.09170443933090995
1120.0, 0.09072888331121692
1121.0, 0.08756564982731299
1122.0, 0.08660419034664855
1123.0, 0.0849132957709044
1124.0, 0.08277641457202799
1125.0, 0.08069960766703933
1126.0, 0.07818524834717434
1127.0, 0.07557722333494013
1128.0, 0.07403139067959863
1129.0, 0.07267291653122539
1130.0, 0.07081129503896881
1131.0, 0.07165033174202157
1132.0, 0.06863778375742828
1133.0, 0.06845007880839911
1134.0, 0.06674088615131081
1135.0, 0.06470192058115554
1136.0, 0.06362582982548994
1137.0, 0.06299749687180022
1138.0, 0.06198090471583395
1139.0, 0.060768180671788505
1140.0, 0.05974184465135587
1141.0, 0.05793150258797707
1142.0, 0.056925527635503265
1143.0, 0.054672238474910775
1144.0, 0.05182119180970011
1145.0, 0.05147330058205594
1146.0, 0.04879262073637465
1147.0, 0.04739983690792172
1148.0, 0.045559390331253065
1149.0, 0.04425162053058538
1150.0, 0.043501600059691725
1151.0, 0.04117724007472366
1152.0, 0.041107631368149246
1153.0, 0.03886371661409335
1154.0, 0.03956359966860351
1155.0, 0.036088084178895356
1156.0, 0.033997246141664494
1157.0, 0.03373317957169757
1158.0, 0.03284612050519629
1159.0, 0.030268065635152552
1160.0, 0.028731852560855562
1161.0, 0.027808424299325746
1162.0, 0.026974494987176745
1163.0, 0.02688102350426712
1164.0, 0.024773269953479927
1165.0, 0.02218791015174325
1166.0, 0.023771886169682257
1167.0, 0.022631932846211004
1168.0, 0.020897286148793794
1169.0, 0.020526082834220593
1170.0, 0.018049670063626354
1171.0, 0.01659437682647479
1172.0, 0.01636779161836272
1173.0, 0.015353669206256597
1174.0, 0.013605393809795094
1175.0, 0.012827824820232044
1176.0, 0.012688408475170502
1177.0, 0.011394566555146214
1178.0, 0.0110605501070541
1179.0, 0.008634191764887326
1180.0, 0.009957004164929457
1181.0, 0.008454283285428531
1182.0, 0.006860051685045609
1183.0, 0.006156561326300586
1184.0, 0.005963132319065955
1185.0, 0.006226947064298418
1186.0, 0.005427746799856546
1187.0, 0.004334765143133424
1188.0, 0.004618229617085354
1189.0, 0.003901465341979742
1190.0, 0.005669026580701141
1191.0, 0.00451945826086113
1192.0, 0.0045359023064372485
1193.0, 0.004250272005222699
1194.0, 0.002227171695398929
1195.0, 0.0017753213332662695
1196.0, 0.00323272877026353
1197.0, 0.0035032145244875525
1198.0, 0.0017448752584276043
1199.0, 0.0007169911792661195
1200.0, 0.0014386402639387005
1201.0, 0.001870129548636749
1202.0, 0.0018466501761847547
1203.0, 0.00043752529867979706
1204.0, 0.0009097885833171321
1205.0, 0.0014663161700075305
1206.0, 0.0011422291181578585
1207.0, 0.00026529692453034463
1208.0, 0.00016406290542998915
1209.0, 0.00019410687572204744
1210.0, 0.00041358452261991256
1211.0, 0.0003280989075678356
1212.0, 0.001035303976702666
1213.0, 0.0019893805407110833
1214.0, 0.0010595339468479762
1215.0, 0.0007872887839811236
1216.0, 0.0014862948352361179
1217.0, 0.0010568215654131498
1218.0, 0.0008560267726640044
1219.0, 0.0006746104119626545
1220.0, 0.0006346846189899007
1221.0, 0.0012605193085186092
1222.0, 0.001625286462353861
1223.0, 0.0021321789255353105
1224.0, 0.0016418626331105165
1225.0, 0.0011896593231994598
1226.0, 0.00125047380126276
1227.0, 0.0009937657056771805
1228.0, 0.0013395587000590715
1229.0, 0.0005185171420247939
1230.0, 0.0007387490140828304
1231.0, 0.0011667289059288436
1232.0, 0.0012215394722825202
1233.0, 0.0004533287306090925
1234.0, 0.000527449152204471
1235.0, 0.00020527857338293367
1236.0, 0.0010257107350673902
1237.0, 0.0009172073156674877
1238.0, 0.0005690190589270631
1239.0, 0.00048209496951963116
1240.0, 8.083796912935183e-05
1241.0, 0.00029194822135938437
1242.0, 0.0010151697845379717
1243.0, 0.0009348571245349683
1244.0, 0.0007951898672617546
1245.0, 0.0017733723593244322
1246.0, 0.0008414591952621484
1247.0, 0.0016233313379347399
1248.0, 0.0012912425149307438
1249.0, 0.0005867188580667168
1250.0, 0.0015984018348620813
1251.0, 0.001998585516240196
1252.0, 0.00105076048519708
1253.0, 0.0010060668859249436
1254.0, 0.002223465928818693
1255.0, 0.002110977209879415
1256.0, 0.0009010086112140429
1257.0, 0.0024098364766031105
1258.0, 0.0010433071333971293
1259.0, 0.0032871668656187644
1260.0, 0.001567354061142215
1261.0, 0.0015946554151494547
1262.0, 0.0009632535051739216
1263.0, 0.0021725206497337254
1264.0, 0.0031197182848320152
1265.0, 0.0025905872461915893
1266.0, 0.0040832574377566485
1267.0, 0.004937831708044554
1268.0, 0.003083998136851924
1269.0, 0.003088986921209418
1270.0, 0.0047829703730468305
1271.0, 0.004573967951366058
1272.0, 0.0037858430988977343
1273.0, 0.004815501398341194
1274.0, 0.004696751833820215
1275.0, 0.005077360773917293
1276.0, 0.003688801139392449
1277.0, 0.004947259814910077
1278.0, 0.004653415115896571
1279.0, 0.00559182537152134
1280.0, 0.006444478833698032
1281.0, 0.005729085322407231
1282.0, 0.005115500637166133
1283.0, 0.006027770700992863
1284.0, 0.007119809145764865
1285.0, 0.006975052069041767
1286.0, 0.007522302983210652
1287.0, 0.008524244598555678
1288.0, 0.007158580549205223
1289.0, 0.008487679672886158
1290.0, 0.00856892547317969
1291.0, 0.008167031058778022
1292.0, 0.00738137484506668
1293.0, 0.007833671643433232
1294.0, 0.009266125271203417
1295.0, 0.00983615745020483
1296.0, 0.01030115107194056
1297.0, 0.011165648885029252
1298.0, 0.01092312707548355
1299.0, 0.010496933240571537
1300.0, 0.01168077729415941
1301.0, 0.010647706588030218
1302.0, 0.013168722927072581
1303.0, 0.012662589116852646
1304.0, 0.013812270966207935
1305.0, 0.010478552568856945
1306.0, 0.011555547620978091
1307.0, 0.011780214385169498
1308.0, 0.012592449970342584
1309.0, 0.014243390124042766
1310.0, 0.013804040298416172
1311.0, 0.013843454254573765
1312.0, 0.013954395766176256
1313.0, 0.014270126026034936
1314.0, 0.014597551933957193
1315.0, 0.012567404188270107
1316.0, 0.013644299660562352
1317.0, 0.013362418718625828
1318.0, 0.012785091192246453
1319.0, 0.012517522782748099
1320.0, 0.013590708649514144
1321.0, 0.012320627631100638
1322.0, 0.011794642823709399
1323.0, 0.014208304991546811
1324.0, 0.013242898773477646
1325.0, 0.013432835410578362
1326.0, 0.012935715521221799
1327.0, 0.011918968149873805
1328.0, 0.010806719617836233
1329.0, 0.010429700757067553
1330.0, 0.011220899987151192
1331.0, 0.011651042039765934
1332.0, 0.012500794900780557
1333.0, 0.011759208862707787
1334.0, 0.01244624218033439
1335.0, 0.011383690955056999
1336.0, 0.009628257833021368
1337.0, 0.010973455082574815
1338.0, 0.01055389526187122
1339.0, 0.008520546032245859
1340.0, 0.009913437670333475
1341.0, 0.011665199912723181
1342.0, 0.010535430500548356
1343.0, 0.008890661491761069
1344.0, 0.009688954431970143
1345.0, 0.010362339663928636
1346.0, 0.009161156876228524
1347.0, 0.007874942816022008
1348.0, 0.00751627073858986
1349.0, 0.008867659110976136
1350.0, 0.004872422555549832
1351.0, 0.007644632785433468
1352.0, 0.00865493002620614
1353.0, 0.006466118769598426
1354.0, 0.007764314265665016
1355.0, 0.008025949875081019
1356.0, 0.008136230262216031
1357.0, 0.007784573697557871
1358.0, 0.00702577637591897
1359.0, 0.00633105445128345
1360.0, 0.004992095957547263
1361.0, 0.004293020468273195
1362.0, 0.0038719220485927304
1363.0, 0.002828126410718333
1364.0, 0.002851268770665933
1365.0, 0.0038905964976232656
1366.0, 0.004158712365728187
1367.0, 0.006059673419580686
1368.0, 0.004873468999657142
1369.0, 0.003488294282830684
1370.0, 0.004428258683522901
1371.0, 0.0026920863293359064
1372.0, 0.003378869905922189
1373.0, 0.0042091326338750176
1374.0, 0.003980865641491814
1375.0, 0.00117727845169118
1376.0, 0.0009946745639616006
1377.0, 0.0007046174389207579
1378.0, 0.0008131318564381991
1379.0, 0.001081913165266425
1380.0, 0.0019271465681833023
1381.0, 0.003693221186577511
1382.0, 0.0030260335698977436
1383.0, 0.00037329155784299265
1384.0, 0.0008889835474187811
1385.0, 0.001093612518587534
1386.0, 0.002444651481920887
1387.0, 0.0008037290941175787
1388.0, 0.002412913632524053
1389.0, 0.0032617999535701735
1390.0, 0.0017409879886278645
1391.0, 0.0004726263096714537
1392.0, 0.0014543164895468134
1393.0, 0.0010722777113501164
1394.0, 0.0018484388277632553
1395.0, 0.002595668242313622
1396.0, 0.001426249002946744
1397.0, 0.0014798839935821402
1398.0, 0.002105035669052149
1399.0, 0.002427065818642046
1400.0, 0.0035737198215329536
1401.0, 0.004289399293510869
1402.0, 0.0035882474578699825
1403.0, 0.002643129668778323
1404.0, 0.005086015904075142
1405.0, 0.001162334117981036
1406.0, 0.002882511093560955
1407.0, 0.002358834729024065
1408.0, 0.004614403985388819
1409.0, 0.0013125377718540476
1410.0, 0.0009046274538339631
1411.0, 0.00027896668719345694
1412.0, 0.0005864157270495989
1413.0, 0.00038254974953485404
1414.0, 0.000878174438275756
1415.0, 0.0017530818202332878
1416.0, 0.0010695450625004366
1417.0, 0.0008830384346599846
1418.0, 0.002619031393421229
1419.0, 0.0024777974888050593
1420.0, 0.0009400080254149835
1421.0, 0.0015544411005365079
1422.0, 0.0012809931201287028
1423.0, 0.0025783381655893924
1424.0, 0.002930231758141004
1425.0, 0.0034358927960267964
1426.0, 0.001025823706816008
1427.0, 0.001702745113647894
1428.0, 0.0013475235824307052
1429.0, 0.0007129042019915959
1430.0, 0.0025414850180796077
1431.0, 0.0012290329305320417
1432.0, 0.00020750643051560221
1433.0, 0.001406039094934527
1434.0, 0.001642462355609372
1435.0, 0.0012067955162422296
1436.0, 0.0012552406278645318
1437.0, 0.000822902751870922
1438.0, 0.00016527325177883304
1439.0, 9.891883245265049e-05
1440.0, 0.0013344540902584165
1441.0, 0.0026840842083179837
1442.0, 0.0022328143469962235
1443.0, 0.0026749247309494663
1444.0, 0.002926986268770404
1445.0, 0.002250664489354498
1446.0, 0.001427849026235794
1447.0, 0.003098739577724304
1448.0, 0.0022815711138318203
1449.0, 0.0017634401262970282
1450.0, 0.0022556395773598273
1451.0, 0.0024769738392859085
1452.0, 0.002623627745004563
1453.0, 0.0028116238413570453
1454.0, 0.0029886403354804658
1455.0, 0.00263989423921138
1456.0, 0.002735636975497318
1457.0, 0.0020698998014261256
1458.0, 0.0008027848304731557
1459.0, 0.0020260718319318268
1460.0, 0.003277737216279308
1461.0, 0.0021399269534221844
1462.0, 0.0019614953973793054
1463.0, 0.0027049245535026934
1464.0, 0.0022784465515153793
1465.0, 0.0030367370172498923
1466.0, 0.002064606213179544
1467.0, 0.0013350014914764547
1468.0, 0.0031484557391858537
1469.0, 0.001957222638761883
1470.0, 0.0011889678642553587
1471.0, 0.003495810661053903
1472.0, 0.002665604712138028
1473.0, 0.0006642030152401833
1474.0, 0.003303585445334124
1475.0, 0.0022055001008899813
1476.0, 0.003832235041554964
1477.0, 0.0030347500716332073
1478.0, 0.0038110915103247663
1479.0, 0.003218973657539386
1480.0, 0.0016394558575224
1481.0, 0.001531473526183375
1482.0, 0.0032400575459498844
1483.0, 0.002881371062752769
1484.0, 0.0014106524986487413
1485.0, 0.0015621601549075884
1486.0, 0.0012730406689949176
1487.0, 0.0005640763979733734
1488.0, 0.0006877888441230399
1489.0, 0.0005681942888471699
1490.0, 0.0010656230965206642
1491.0, 0.000820525534546428
1492.0, 0.0016729078552211658
1493.0, 0.0015771360022491393
1494.0, 0.0008963795719303046
1495.0, 0.001388899207401075
1496.0, 0.002841109180370107
1497.0, 0.0023849360839671902
1498.0, 0.00412740067369464
1499.0, 0.0032174097786391593
1500.0, 0.002290869741400055
1501.0, 0.0009346456563439316
1502.0, 0.0030732257876812394
1503.0, 0.003057465999576792
1504.0, 0.0018782828531091335
1505.0, 0.0013023211388682523
1506.0, 0.0005094185260550875
1507.0, 8.73947511568362e-05
1508.0, 0.00031538211623329286
1509.0, 0.0006262165203710229
1510.0, 0.0010227304385242153
1511.0, 0.0016963534005791235
1512.0, 0.00218824794798477
1513.0, 0.002108968713902427
1514.0, 0.002437654876549505
1515.0, 0.0030574371651104146
1516.0, 0.0026110438771717415
1517.0, 0.0022676304009267107
1518.0, 0.002771283841359957
1519.0, 0.00240957559412972
1520.0, 0.002747368097041831
1521.0, 0.001878154015094681
1522.0, 0.002830923265300222
1523.0, 0.00216451694946157
1524.0, 0.0012669280331297358
1525.0, 0.0041784511711711915
1526.0, 0.0030914894139072694
1527.0, 0.0007344546976519495
1528.0, 0.002046739168875428
1529.0, 0.0015927269126628121
1530.0, 0.0031539260363960923
1531.0, 0.002009553982266654
1532.0, 0.0008828869915074678
1533.0, 0.002422919321502626
1534.0, 0.004169314091991105
1535.0, 0.003936535963468041
1536.0, 0.0027649115310083637
1537.0, 0.0012485372999028906
1538.0, 0.0007351890908078236
1539.0, 0.0015982365215426542
1540.0, 0.0015951920319742855
1541.0, 0.0016287087434676173
1542.0, 0.002222228559093627
1543.0, 0.002226637028700485
1544.0, 0.0020471431496765675
1545.0, 0.0026321482083095753
1546.0, 0.0017814207233306874
1547.0, 0.0008778813968337547
1548.0, 0.0019492408655240531
1549.0, 0.0030494343642876016
1550.0, 0.001405868765743595
1551.0, 0.004118878598696963
1552.0, 0.003752195329592947
1553.0, 0.003561827631048921
1554.0, 0.006174914832676034
1555.0, 0.0042884696596423594
1556.0, 0.0015097324056736734
1557.0, 0.0014682603998939477
1558.0, 0.0011698652359964832
1559.0, 0.000285307229326926
1560.0, 0.001386833139950952
1561.0, 0.0006710077142060892
1562.0, 3.9700394059082304e-05
1563, 0.0
1564, 0.0
1565, 0.0
1566, 0.0
1567, 0.0
1568, 0.0
1569, 0.0
1570, 0.0
1571, 0.0
1572, 0.0
1573, 0.0
1574, 0.0
1575, 0.0
1576, 0.0
1577, 0.0
1578, 0.0
1579, 0.0
1580, 0.0
1581, 0.0
1582, 0.0
1583, 0.0
1584, 0.0
1585, 0.0
1586, 0.0
1587, 0.0
1588, 0.0
1589, 0.0
1590, 0.0
1591, 0.0
1592, 0.0
1593, 0.0
1594, 0.0
1595, 0.0
1596, 0.0
1597, 0.0
1598, 0.0
1599, 0.0
