30, 0.0
31, 0.0
32, 0.0
33, 0.0
34, 0.0
35, 0.0
36, 0.0
37, 0.0
38, 0.0
39, 0.0
40, 0.0
41, 0.0
42, 0.0
43, 0.0
44, 0.0
45, 0.0
46, 0.0
47, 0.0
48, 0.0
49, 0.0
50, 0.0
51, 0.0
52, 0.0
53, 0.0
54, 0.0
55, 0.0
56, 0.0
57, 0.0
58, 0.0
59, 0.0
60, 0.0
61, 0.0
62, 0.0
63, 0.0
64, 0.0
65, 0.0
66, 0.0
67, 0.0
68, 0.0
69, 0.0
70, 0.0
71, 0.0
72, 0.0
73, 0.0
74, 0.0
75, 0.0
76, 0.0
77, 0.0
78, 0.0
79, 0.0
80, 0.0
81, 0.0
82, 0.0
83, 0.0
84, 0.0
85, 0.0
86, 0.0
87, 0.0
88, 0.0
89, 0.0
90, 0.0
91, 0.0
92, 0.0
93, 0.0
94, 0.0
95, 0.0
96, 0.0
97, 0.0
98, 0.0
99, 0.0
100, 0.0
101, 0.0
102, 0.0
103, 0.0
104, 0.0
105, 0.0
106, 0.0
107, 0.0
108, 0.0
109, 0.0
110, 0.0
111, 0.0
112, 0.0
113, 0.0
114, 0.0
115, 0.0
116, 0.0
117, 0.0
118, 0.0
119, 0.0
120, 0.0
121, 0.0
122, 0.0
123, 0.0
124, 0.0
125, 0.0
126, 0.0
127, 0.0
128, 0.0
129, 0.0
130, 0.0
131, 0.0
132, 0.0
133, 0.0
134, 0.0
135, 0.0
136, 0.0
137, 0.0
138, 0.0
139, 0.0
140, 0.0
141.0, 0.001079427421550924
142.0, 0.00039587513194877776
143.0, 0.005478128710805802
144.0, 0.018034250694397975
145.0, 0.03497523250603246
146.0, 0.05727769473705226
147.0, 0.07738366693473728
148.0, 0.09061857855855344
149.0, 0.11778775323874731
150.0, 0.13860242011586915
151.0, 0.1468132166774297
152.0, 0.14596465361447664
153.0, 0.14759517034332573
154.0, 0.14054938464310515
155.0, 0.12947220028843448
156.0, 0.11675685644883736
157.0, 0.10382503819635869
158.0, 0.0997203883209307
159.0, 0.09441097400131987
160.0, 0.08773574085040915
161.0, 0.08441854682761735
162.0, 0.09105964847937507
163.0, 0.09116202325342844
164.0, 0.0917326567453701
165.0, 0.0943520344373499
166.0, 0.09633490402759957
167.0, 0.0976527046055726
168.0, 0.09208857533573611
169.0, 0.09061073649333194
170.0, 0.09632058092925934
171.0, 0.09390675346596561
172.0, 0.0931690697840694
173.0, 0.08850224687615
174.0, 0.0827952398008589
175.0, 0.08101963450287913
176.0, 0.07391644745866753
177.0, 0.07072575651641602
178.0, 0.07045550086698008
179.0, 0.0699043680397408
180.0, 0.06767339349648954
181.0, 0.058568227337181485
182.0, 0.058166112300339815
183.0, 0.062364490404174716
184.0, 0.06109421037584938
185.0, 0.056312969460753884
186.0, 0.05494674596598153
187.0, 0.05550527623889616
188.0, 0.05401026009767626
189.0, 0.05170667737132051
190.0, 0.05197253489543967
191.0, 0.05074079215854547
192.0, 0.0506550721529965
193.0, 0.05215661343122727
194.0, 0.04852555749951888
195.0, 0.060433522056783345
196.0, 0.06614720135146154
197.0, 0.06185353199442966
198.0, 0.06858402432179042
199.0, 0.05680483325058648
200.0, 0.05025656048134229
201.0, 0.05306446391440415
202.0, 0.05526866321760669
203.0, 0.05203452288655726
204.0, 0.051354937936849206
205.0, 0.050133300016893104
206.0, 0.04868197892959981
207.0, 0.04843167085232737
208.0, 0.04519904545540278
209.0, 0.04252415171676757
210.0, 0.035968243612622124
211.0, 0.027841374529844594
212.0, 0.028317675770388177
213.0, 0.027717984870026694
214.0, 0.019471498929758073
215.0, 0.012868897958354544
216.0, 0.01703461077960932
217.0, 0.014397460448275449
218.0, 0.012696065757944285
219.0, 0.011801350960537617
220.0, 0.011675318339432415
221.0, 0.012483992808576207
222.0, 0.008857367405381691
223.0, 0.005701965513466934
224.0, 0.003908260740642405
225.0, 0.0030303056599094804
226.0, 0.0033683991164138363
227.0, 0.0014487077882513288
228.0, 0.0030653009056103514
229.0, 0.003819613577923997
230.0, 0.00028510208547012617
231.0, 0.00022059116276668367
232.0, 0.0032562413556230974
233.0, 0.005390990579210662
234.0, 0.0046027589878555875
235.0, 0.0018050345197151898
236.0, 0.004325049511415439
237.0, 0.00692107998527159
238.0, 0.0062372895355446815
239.0, 0.002832405149174232
240.0, 0.0007348195391706141
241.0, 0.001997425400994242
242.0, 0.0010366531550315605
243.0, 0.0011503384695202878
244.0, 0.002619292822351511
245.0, 0.0001943609345910143
246.0, 0.0013239953255405146
247.0, 0.0010999463556121947
248.0, 0.0015170969988196137
249.0, 0.002471473533361159
250.0, 0.0020415663545753538
251.0, 0.0008962714347049509
252.0, 0.0007696101562356158
253.0, 0.0027570673403593446
254.0, 0.0033310898242838545
255.0, 0.0037132663424915948
256.0, 0.002313036924178753
257.0, 0.003949306951864993
258.0, 0.00735986787933266
259.0, 0.006664743892376022
260.0, 0.0062358339792672884
261.0, 0.008489918907519768
262.0, 0.010368478414171513
263.0, 0.010187106133414774
264.0, 0.010044258022582159
265.0, 0.011739296202869183
266.0, 0.012031980469785994
267.0, 0.01081431628855448
268.0, 0.010479424711797697
269.0, 0.015340507773132391
270.0, 0.020637817161209788
271.0, 0.016836370036287275
272.0, 0.012900258344434996
273.0, 0.018926149606299406
274.0, 0.01641952446950498
275.0, 0.015006458851531653
276.0, 0.013294997604638951
277.0, 0.013130260632342105
278.0, 0.017353376153564675
279.0, 0.018856582303869666
280.0, 0.019721739932899097
281.0, 0.014946416894361273
282.0, 0.012803037982284576
283.0, 0.026503171247640754
284.0, 0.022801034948758157
285.0, 0.02720782223807439
286.0, 0.031569922487841504
287.0, 0.029988619809042015
288.0, 0.03062922569231416
289.0, 0.0323060402073159
290.0, 0.03743763941298899
291.0, 0.041827427491821965
292.0, 0.04381154273294693
293.0, 0.04703406695147947
294.0, 0.047886850825554966
295.0, 0.04983808753933805
296.0, 0.05063166127111807
297.0, 0.051052130846045235
298.0, 0.055142777906714055
299.0, 0.05376786774305831
300.0, 0.05597772881290386
301.0, 0.05946046752852255
302.0, 0.060138669597248964
303.0, 0.057921635051074255
304.0, 0.06436142208104052
305.0, 0.06537507759994199
306.0, 0.0684735154935498
307.0, 0.07791948909900144
308.0, 0.08493360580864903
309.0, 0.08827051621333187
310.0, 0.09276344679945411
311.0, 0.09733689352816262
312.0, 0.10133826896104534
313.0, 0.10947452618280272
314.0, 0.11740976866989127
315.0, 0.12252894049059859
316.0, 0.12659209675644098
317.0, 0.1305954721794219
318.0, 0.13237758767670546
319.0, 0.14161480735213763
320.0, 0.14653781080047995
321.0, 0.14736483835460343
322.0, 0.1490965237950918
323.0, 0.1523465581513604
324.0, 0.14935785012241382
325.0, 0.14439004899241653
326.0, 0.14316024865507507
327.0, 0.14401870483371898
328.0, 0.13492921177262157
329.0, 0.12463322044865316
330.0, 0.11318880661893856
331.0, 0.10492533628759725
332.0, 0.10125496826299432
333.0, 0.09522462280243914
334.0, 0.08222636615151573
335.0, 0.07207101346880347
336.0, 0.06934298519290429
337.0, 0.06714149695783572
338.0, 0.05784163710452482
339.0, 0.04892627971708637
340.0, 0.04212044115046215
341.0, 0.03682743683968636
342.0, 0.033391500276698426
343.0, 0.03227027223493723
344.0, 0.029179461833390135
345.0, 0.024300170140055637
346.0, 0.020187885195094256
347.0, 0.01723174900490657
348.0, 0.014665081355967377
349.0, 0.01355958293457023
350.0, 0.012630771561404528
351.0, 0.012319570151889185
352.0, 0.010559321401539616
353.0, 0.006501488910714778
354.0, 0.0062805223037396204
355.0, 0.004829009067037098
356.0, 0.0038920195873291684
357.0, 0.0047544799591035395
358.0, 0.0046506281117652745
359.0, 0.0021670561172387314
360.0, 0.0039296764276615815
361.0, 0.0031682753718878334
362.0, 0.003539556765518111
363.0, 0.005505812332154228
364.0, 0.005588677099107316
365.0, 0.005565138802193403
366.0, 0.004610812912822332
367.0, 0.001798793588146869
368.0, 0.001233786852420228
369.0, 0.0028684830728788646
370.0, 0.0036647287347863376
371.0, 0.007633267845149354
372.0, 0.005497634073241228
373.0, 0.0004031487919717718
374.0, 0.004535060387606019
375.0, 0.007727718645065729
376.0, 0.0009291280164873223
377.0, 0.0011558872313404136
378.0, 0.000915517530068346
379.0, 0.004360951028458825
380.0, 0.001012856347161269
381.0, 0.006033025588974549
382.0, 0.01195775108508087
383.0, 0.014549715866724927
384.0, 0.012894114376394166
385.0, 0.009165393373536746
386.0, 0.017240727481719804
387.0, 0.0212245026891746
388.0, 0.024069173839146276
389.0, 0.030413398626199302
390.0, 0.03615492178941307
391.0, 0.04242297432118273
392.0, 0.05185705017754156
393.0, 0.06117306512511997
394.0, 0.06763308982195616
395.0, 0.07336106253929865
396.0, 0.08577914763926506
397.0, 0.09808753213025354
398.0, 0.10866100784514723
399.0, 0.12145790652047675
400.0, 0.13713839577320489
401.0, 0.15107584315488629
402.0, 0.1684401262207111
403.0, 0.1798267431711003
404.0, 0.19256790992298128
405.0, 0.2109551158393225
406.0, 0.23056462942524958
407.0, 0.24604532123467243
408.0, 0.252113745649331
409.0, 0.2590439874739136
410.0, 0.26600701224273976
411.0, 0.26969128623638866
412.0, 0.272426325885402
413.0, 0.2563184247090857
414.0, 0.2421289618816268
415.0, 0.22809498182379534
416.0, 0.21046999665364924
417.0, 0.19281904481361156
418.0, 0.17178308051649874
419.0, 0.15152304032188463
420.0, 0.130963420423887
421.0, 0.10807275149051795
422.0, 0.08895080454334534
423.0, 0.0852707197188751
424.0, 0.06757836032567893
425.0, 0.051211857868314815
426.0, 0.04392496326970064
427.0, 0.03939179598296214
428.0, 0.029147989627258137
429.0, 0.02146867336780144
430.0, 0.016743054145936073
431.0, 0.015829991425737114
432.0, 0.014647795213393775
433.0, 0.009801751498942954
434.0, 0.004386512625292828
435.0, 0.0027814028387034063
436.0, 0.008506477045268279
437.0, 0.012341495516032733
438.0, 0.011435308540288028
439.0, 0.012531648747600634
440.0, 0.018026982296082586
441.0, 0.021525062939192437
442.0, 0.02254855609712777
443.0, 0.028082711008436543
444.0, 0.03921824520655771
445.0, 0.04077873634190209
446.0, 0.046488594146349614
447.0, 0.05442018047509168
448.0, 0.06121476185404557
449.0, 0.06614968532183849
450.0, 0.07165956178766011
451.0, 0.08052450074700437
452.0, 0.09428337984527946
453.0, 0.10089871181974308
454.0, 0.10678558527019444
455.0, 0.11913589249753108
456.0, 0.1346540369353661
457.0, 0.14433342834429105
458.0, 0.15970112379231327
459.0, 0.17262278493026936
460.0, 0.18083596420888498
461.0, 0.19055044374865596
462.0, 0.20880804078935258
463.0, 0.21973090369229747
464.0, 0.23538085673947118
465.0, 0.25208854609631787
466.0, 0.26809679179270895
467.0, 0.28597751354317835
468.0, 0.29813824391613053
469.0, 0.3116787136067512
470.0, 0.33267420272129195
471.0, 0.34794969656538166
472.0, 0.35636689101092306
473.0, 0.379605707633078
474.0, 0.41306516159022627
475.0, 0.4249777652418181
476.0, 0.4452158996482372
477.0, 0.4810081941275151
478.0, 0.5155707592909429
479.0, 0.5397626887671451
480.0, 0.5641813696543737
481.0, 0.5971867287649456
482.0, 0.6333098659634013
483.0, 0.6681545877469802
484.0, 0.7019186632973113
485.0, 0.7374679267866991
486.0, 0.7731269917748236
487.0, 0.8148044066499373
488.0, 0.851761234087191
489.0, 0.8804655701483508
490.0, 0.909057836444467
491.0, 0.9389902641194987
492.0, 0.9582643177013723
493.0, 0.9857703863169451
494.0, 0.9999815755046979
495.0, 0.9953266295591352
496.0, 0.9920312816896978
497.0, 0.9972397230815158
498.0, 0.9884534736375074
499.0, 0.9762740515827923
500.0, 0.9503259501849471
501.0, 0.912028586148426
502.0, 0.8815836487393461
503.0, 0.8345320233937412
504.0, 0.7876903042402588
505.0, 0.7422702031314674
506.0, 0.6964958044964161
507.0, 0.6484413406296393
508.0, 0.596555361657343
509.0, 0.5432028851156285
510.0, 0.4926786807659397
511.0, 0.44109571811382486
512.0, 0.39543238906005007
513.0, 0.35903016112868735
514.0, 0.32396642226357425
515.0, 0.28704153089312856
516.0, 0.24942584962773223
517.0, 0.22197825622594938
518.0, 0.19960608972282204
519.0, 0.17407860356894475
520.0, 0.14745775323631372
521.0, 0.12920686285328556
522.0, 0.11465940821576641
523.0, 0.10027170679881967
524.0, 0.0899232706531105
525.0, 0.0823592266150611
526.0, 0.06996600024045073
527.0, 0.05891410143570014
528.0, 0.055910164453036794
529.0, 0.045331580321910044
530.0, 0.036873296076960514
531.0, 0.03405395703254604
532.0, 0.02839686072013499
533.0, 0.02809262211519112
534.0, 0.021581844251724602
535.0, 0.018437430171333598
536.0, 0.016468488694818102
537.0, 0.014460746604818874
538.0, 0.014691796702438965
539.0, 0.011364295057608735
540.0, 0.001892042870015837
541.0, 0.0029883716283966213
542.0, 0.0045796032856101135
543.0, 0.0033375812102998245
544.0, 0.0031895743317461966
545.0, 0.0003986082990775489
546.0, 0.0005732764921967923
547.0, 0.0015815768141890071
548.0, 0.0045262914316630855
549.0, 0.003208549677109646
550.0, 0.0001408544294489664
551.0, 0.003644145680851164
552.0, 0.003540596153996336
553.0, 0.0029125222581098194
554.0, 0.0027512650091662543
555.0, 0.0035655104106881
556.0, 0.005427147933071356
557.0, 0.006466578226378784
558.0, 0.0032262181029519394
559.0, 0.004152764093778415
560.0, 0.0014383186448912295
561.0, 0.001167858677797901
562.0, 0.0034740128228714037
563.0, 0.0025342763698594784
564.0, 0.0009424455479462498
565.0, 0.003134928224548061
566.0, 0.0031002821574032005
567.0, 0.0010778006512758489
568.0, 0.0015762124932021755
569.0, 0.00462821777764551
570.0, 0.005513629604261593
571.0, 0.001491135085015007
572.0, 0.0016331702734489403
573.0, 0.0049582599960799065
574.0, 0.003773494325286124
575.0, 0.0042072966140456886
576.0, 0.006380011565138121
577.0, 0.007583610893456302
578.0, 0.005276206515791757
579.0, 0.005099244906491478
580.0, 0.006088619075087102
581.0, 0.006921466282854501
582.0, 0.009552690396914967
583.0, 0.01100540504535695
584.0, 0.01031385775474924
585.0, 0.012284485133123937
586.0, 0.013147564603034664
587.0, 0.011004423384976144
588.0, 0.011293534943008948
589.0, 0.016533340398844146
590.0, 0.01663938803142908
591.0, 0.015229234383313023
592.0, 0.01496181109339983
593.0, 0.016757597215589667
594.0, 0.02037540985035152
595.0, 0.023982402819897723
596.0, 0.01991127316969501
597.0, 0.021156773785308853
598.0, 0.02709282446480196
599.0, 0.027459061659818363
600.0, 0.02442406612823727
601.0, 0.025103589480905224
602.0, 0.025815409205095747
603.0, 0.03089206278716316
604.0, 0.02970909523537962
605.0, 0.027566117373374978
606.0, 0.029018958698436775
607.0, 0.031233998105522867
608.0, 0.03084459569407986
609.0, 0.03785965603519247
610.0, 0.03544613448893436
611.0, 0.028461032470434324
612.0, 0.026284180056148434
613.0, 0.0258320207176952
614.0, 0.02281513869749852
615.0, 0.02098988446581686
616.0, 0.024554215767384622
617.0, 0.022943341706751517
618.0, 0.0212801401864908
619.0, 0.022501194980554997
620.0, 0.021757260422855213
621.0, 0.01815538888122145
622.0, 0.017529124396172442
623.0, 0.017493267617829027
624.0, 0.019108308423558342
625.0, 0.014620641333230473
626.0, 0.011491310123559815
627.0, 0.014044756528071554
628.0, 0.016237376649983058
629.0, 0.016842337820096087
630.0, 0.015297776078258087
631.0, 0.014054120648792724
632.0, 0.013233505336139614
633.0, 0.011892009437172963
634.0, 0.010478212661971006
635.0, 0.011303288508587755
636.0, 0.016856353395377433
637.0, 0.018596663783240243
638.0, 0.016595708324105486
639.0, 0.015613732197599034
640.0, 0.018407743481897405
641.0, 0.02123038445800965
642.0, 0.020474345982455865
643.0, 0.023326128905978325
644.0, 0.021518092483073775
645.0, 0.021618028868471383
646.0, 0.017841673464547205
647.0, 0.016660062607904622
648.0, 0.02255791808405745
649.0, 0.022699838570186013
650.0, 0.023734603011409672
651.0, 0.022551380194800807
652.0, 0.02231551636883489
653.0, 0.02245024886305604
654.0, 0.023013296788007166
655.0, 0.023652473422214833
656.0, 0.02250135621748515
657.0, 0.02021884144459132
658.0, 0.021822257720508293
659.0, 0.018436222122371785
660.0, 0.015205178779185091
661.0, 0.015770007481080237
662.0, 0.01781147925573429
663.0, 0.017684590012944503
664.0, 0.014171030515449793
665.0, 0.009273186469689445
666.0, 0.01260967732064443
667.0, 0.012746637553456385
668.0, 0.010797309467959636
669.0, 0.011143898630217091
670.0, 0.007678698610853123
671.0, 0.005510743813188682
672.0, 0.0059937891046494985
673.0, 0.006471933134158508
674.0, 0.006839387487612849
675.0, 0.007383178670434646
676.0, 0.006153202123855875
677.0, 0.001150381742125111
678.0, 0.0013410258819778944
679.0, 0.0036896016720093998
680.0, 0.0012557665784415097
681.0, 0.0010159388307722096
682.0, 0.00043173151174810074
683.0, 0.0006647728821069627
684.0, 0.0002134842281363483
685.0, 0.0014578283975374537
686.0, 0.0002481485125659591
687.0, 0.0022080677767613672
688.0, 0.001556569241161438
689.0, 0.0004013148344767867
690.0, 8.24058693962919e-05
691.0, 0.0007797497429124949
692.0, 0.00387126039846741
693.0, 0.0006659561953591071
694.0, 0.00070672010562376
695.0, 0.005127421564210295
696.0, 0.00676246558069055
697.0, 0.0038255815540669917
698.0, 0.0016807931336951466
699.0, 0.0024982686220435895
700.0, 0.0044481105022084085
701.0, 0.001087830662519152
702.0, 0.0037662622388133426
703.0, 0.004525480567394355
704.0, 0.0044111751802464435
705.0, 0.004463045437114474
706.0, 0.00394897064728918
707.0, 0.007353676997000613
708.0, 0.00301838465534167
709.0, 0.001419799854141671
710.0, 0.0015621214474256673
711.0, 0.0009192477994478629
712.0, 0.0003033971345596088
713.0, 0.0017493880583900683
714.0, 0.004852630022160357
715.0, 0.0009322516796342376
716.0, 0.0008596050201791197
717.0, 0.004415090144800345
718.0, 0.0029710454856776733
719.0, 0.0001457273534090369
720.0, 0.003689255160617904
721.0, 0.007545491855987602
722.0, 0.003438335451447986
723.0, 0.0032386116929931114
724.0, 0.002711049413908176
725.0, 0.0036776558667411985
726.0, 0.004264816880994885
727.0, 0.006115963958750562
728.0, 0.006934770156583349
729.0, 0.004530200238142139
730.0, 0.005576411042923471
731.0, 0.006768328291843437
732.0, 0.0041784948980402815
733.0, 0.0007093389900385027
734.0, 0.0020044457047971764
735.0, 0.004252770163501697
736.0, 0.0025648391154173586
737.0, 0.0019064812448983642
738.0, 0.0032098037583113176
739.0, 0.0007152745225167883
740.0, 0.004796922082281933
741.0, 0.004978965787349751
742.0, 0.005014195629546559
743.0, 0.00547174095436108
744.0, 0.003246188321648332
745.0, 0.0030682839211029875
746.0, 0.00296962447345218
747.0, 0.004827399399277883
748.0, 0.0054141778092271185
749.0, 0.006504717996303471
750.0, 0.006891452916337306
751.0, 0.006972209394917738
752.0, 0.007649658901938474
753.0, 0.009591281882255387
754.0, 0.014813779285782293
755.0, 0.008256796292279827
756.0, 0.0071639121200363426
757.0, 0.012144855480164855
758.0, 0.013089528029107391
759.0, 0.013744731500440662
760.0, 0.018269931559866334
761.0, 0.017306475103579803
762.0, 0.017912988072711515
763.0, 0.01721132496738643
764.0, 0.013858579845080076
765.0, 0.016986677152159103
766.0, 0.020900088489114513
767.0, 0.0205080556092397
768.0, 0.01763289033315956
769.0, 0.014735091037770615
770.0, 0.016344203012563226
771.0, 0.015355376520802738
772.0, 0.014939722472656677
773.0, 0.00809781310023384
774.0, 0.009265174630830167
775.0, 0.014184641185299393
776.0, 0.015140629728757928
777.0, 0.015894917348216804
778.0, 0.015006943111712094
779.0, 0.012654434844691002
780.0, 0.015303639528297979
781.0, 0.01607159407477169
782.0, 0.013999585633962926
783.0, 0.01486821736380711
784.0, 0.01645278424556172
785.0, 0.014815578991451358
786.0, 0.01783276002093482
787.0, 0.017194376540061007
788.0, 0.020566981373107102
789.0, 0.02540392797618245
790.0, 0.026415673143575413
791.0, 0.02616604874801243
792.0, 0.02603986243644537
793.0, 0.02580525012988005
794.0, 0.02783350178588338
795.0, 0.03252384104312839
796.0, 0.03195038453274361
797.0, 0.029439291515677864
798.0, 0.03003227743296698
799.0, 0.029001983138503475
800.0, 0.02790836611933695
801.0, 0.028558308592949246
802.0, 0.02712761838219008
803.0, 0.022369015433517735
804.0, 0.02064650587063648
805.0, 0.020104097163124106
806.0, 0.016928171633113893
807.0, 0.014227179017741572
808.0, 0.01404384478048575
809.0, 0.013520577816298144
810.0, 0.01150322735583395
811.0, 0.010056524716387827
812.0, 0.007492711285665774
813.0, 0.011315384823078535
814.0, 0.00804785892307028
815.0, 0.009419054297459257
816.0, 0.010843218995800076
817.0, 0.007094834597284304
818.0, 0.005096346600207322
819.0, 0.0052322686567472946
820.0, 0.0016071383260252193
821.0, 0.0036393994413931544
822.0, 0.0038425463868414166
823.0, 0.0037585245728854705
824.0, 0.0013967803969096339
825.0, 0.0028054431429968274
826.0, 0.004521966229809546
827.0, 0.004326440092444276
828.0, 0.0036127108646351698
829.0, 0.00045126412947655014
830.0, 0.00028428421726984056
831.0, 0.001182813016330455
832.0, 0.0002688082786554314
833.0, 0.00038415605601523165
834.0, 0.0019782573013626807
835.0, 0.0011379499096537068
836.0, 0.0014121391080426332
837.0, 0.0011832223415831524
838.0, 0.0034319776583154726
839.0, 0.000511380301829626
840.0, 0.0025647555780041464
841.0, 0.0007675400907448722
842.0, 0.001768958785709644
843.0, 0.0021623916468607816
844.0, 0.000490784951150234
845.0, 0.0012840942318164924
846.0, 0.0027017349100828293
847.0, 0.001986461025967729
848.0, 0.005873345561766221
849.0, 0.00551527931322623
850.0, 0.001222421379728392
851.0, 0.004086300755661223
852.0, 0.004184925204660949
853.0, 0.0009989766254801485
854.0, 0.0014899282080524138
855.0, 0.0015954164092591178
856.0, 0.0019008196589316653
857.0, 0.0026199693292182835
858.0, 0.0030750817162586365
859.0, 0.004578293030498092
860.0, 0.0034158551897904483
861.0, 0.002540494013569312
862.0, 0.006136343127677749
863.0, 0.00780763114674347
864.0, 0.004191530748674206
865.0, 0.00042367715724799367
866.0, 0.00138628722521908
867.0, 0.003597434496113901
868.0, 0.0048900053288493325
869.0, 0.0050120918103107835
870.0, 0.004853392777448789
871.0, 0.0051189408751687055
872.0, 0.004966318332568251
873.0, 0.005249538691080609
874.0, 0.003662198932284128
875.0, 0.0002451154457566345
876.0, 0.0016485916689848662
877.0, 0.004961446346096201
878.0, 0.0019942410406027333
879.0, 0.0031026990269085414
880.0, 0.0007919239690539211
881.0, 0.0020096935538408698
882.0, 0.007134286780392447
883.0, 0.0071668035152200145
884.0, 0.004657682647207798
885.0, 0.006566849341513795
886.0, 0.0051596569415195016
887.0, 0.0027732972935800783
888.0, 0.004036881568697053
889.0, 0.008324244294013865
890.0, 0.004008793912360913
891.0, 0.002343186547311132
892.0, 0.005605406145997719
893.0, 0.004589671738285989
894.0, 0.0045960414993446745
895.0, 0.008598202885945224
896.0, 0.0026366993578223735
897.0, 0.004220034611365644
898.0, 0.00642702811640221
899.0, 0.008676237813725318
900.0, 0.009365138828364736
901.0, 0.008665146182602675
902.0, 0.005620045791685235
903.0, 0.004253513131882748
904.0, 0.005002072254746869
905.0, 0.004670753125931891
906.0, 0.00546995726537881
907.0, 0.005130709689835296
908.0, 0.0051715629062492685
909.0, 0.003912499584356301
910.0, 0.005871286871974083
911.0, 0.00375163208957723
912.0, 0.0033224176609856952
913.0, 0.004861443786182423
914.0, 0.005630983657616638
915.0, 0.006740195491504625
916.0, 0.006866491372421527
917.0, 0.005633149589701817
918.0, 0.005222897702574554
919.0, 0.002267890716680594
920.0, 0.00859158910216646
921.0, 0.005350102920334255
922.0, 0.0033248436947788946
923.0, 0.0066004183832002565
924.0, 0.007067739284707211
925.0, 0.0050443940662420845
926.0, 0.004667275526485368
927.0, 0.004729692127546087
928.0, 0.00575802310105582
929.0, 0.004437084792753924
930.0, 0.0031821180977263407
931.0, 0.005971745175209659
932.0, 0.003422126469296785
933.0, 0.004675168523644039
934.0, 0.005768698547639195
935.0, 0.003552756451609003
936.0, 0.005384852229686565
937.0, 0.00936315056987951
938.0, 0.007074821835333139
939.0, 0.0041139955912410315
940.0, 0.003046894610053884
941.0, 0.0020591140039403536
942.0, 0.004410048845074751
943.0, 0.0005427175753685135
944.0, 0.0016506112760504763
945.0, 0.00018391711087852624
946.0, 0.0003848703555433855
947.0, 0.0014149986374464116
948.0, 0.00046387245124757256
949.0, 0.0006841725085457273
950.0, 0.0004510601475306489
951.0, 0.0030897750609514417
952.0, 0.0030482478119590707
953.0, 0.0012510517633798264
954.0, 0.0015190342000613896
955.0, 0.00048155338432236236
956.0, 0.0016560383170161515
957.0, 0.005033654370796982
958.0, 0.0023587921330285337
959.0, 0.0018203293690636873
960.0, 0.0007737158415939778
961.0, 0.0005701545397714172
962.0, 0.004140972974130163
963.0, 0.005135766057535882
964.0, 0.006046259759145167
965.0, 0.0014261898027332
966.0, 0.006966808134670373
967.0, 0.0017862240585907376
968.0, 0.0017019937818868913
969.0, 0.0030539282886098357
970.0, 0.0015158092110561482
971.0, 0.0019060028789931543
972.0, 0.003651232251302775
973.0, 0.004394420259120014
974.0, 0.003418561226662715
975.0, 0.0067640324315497834
976.0, 0.010087103757740905
977.0, 0.00767777330929759
978.0, 0.007777517314662149
979.0, 0.007870187903844575
980.0, 0.007114228154275309
981.0, 0.009143167221157832
982.0, 0.010440622130267151
983.0, 0.007574121625248962
984.0, 0.006722092333223509
985.0, 0.01085297360961005
986.0, 0.011072423381342943
987.0, 0.0064966416029623225
988.0, 0.010664723297588148
989.0, 0.008436490911102804
990.0, 0.011635979555008747
991.0, 0.011116275108599655
992.0, 0.008776735278740873
993.0, 0.012534407746158728
994.0, 0.013194406537638495
995.0, 0.011671668007716659
996.0, 0.01435747383212344
997.0, 0.012786281109766788
998.0, 0.011046737577494555
999.0, 0.013267173056045394
1000.0, 0.01658602288114553
1001.0, 0.017987978162759728
1002.0, 0.017823956665886532
1003.0, 0.013347432869632646
1004.0, 0.012863890773874263
1005.0, 0.013628901846813805
1006.0, 0.01616745355095526
1007.0, 0.016125107835014498
1008.0, 0.013165586249817082
1009.0, 0.014042459516891545
1010.0, 0.01568063178313257
1011.0, 0.015913568759536853
1012.0, 0.019053042577289146
1013.0, 0.01799964784365277
1014.0, 0.012442296748437939
1015.0, 0.014808258147680754
1016.0, 0.015280019698796212
1017.0, 0.014333416252082891
1018.0, 0.012509100287679556
1019.0, 0.01573142744115253
1020.0, 0.020419663916024608
1021.0, 0.018180102970552725
1022.0, 0.0145512469349828
1023.0, 0.01565881811177885
1024.0, 0.013897233911088352
1025.0, 0.008293790455346365
1026.0, 0.007878706990498112
1027.0, 0.008775101011903399
1028.0, 0.008389363249888726
1029.0, 0.008853091032423393
1030.0, 0.008149521635888609
1031.0, 0.010519183170141902
1032.0, 0.00809128582130003
1033.0, 0.004767490211831942
1034.0, 0.005132142461256079
1035.0, 0.00583504765491899
1036.0, 0.0046553018376322905
1037.0, 0.003308948005333237
1038.0, 0.005021151748640344
1039.0, 0.0008735620343860283
1040.0, 0.0031733120155622054
1041.0, 0.00383726233210199
1042.0, 0.00036210056121999834
1043.0, 0.0033528743208998614
1044.0, 0.001108267813802924
1045.0, 0.0036099144722232723
1046.0, 0.001639402475886877
1047.0, 0.0007675480315078393
1048.0, 0.0006678493549430299
1049.0, 4.208179753898408e-05
1050.0, 0.0010389056561673484
1051.0, 0.0024767375411932466
1052.0, 0.0021329115893615816
1053.0, 0.003077498645488048
1054.0, 0.0012995934122005713
1055.0, 0.0030281499587403267
1056.0, 0.00042373569169182156
1057.0, 0.0008530331212747765
1058.0, 0.0004619946047438771
1059.0, 0.0010553741795345673
1060.0, 0.0010215005278393684
1061.0, 0.000741502649043091
1062.0, 0.0020171041357729593
1063.0, 0.005041835719877364
1064.0, 0.004041797278243791
1065.0, 0.0001357791661913617
1066.0, 0.003261585312912891
1067.0, 0.004288464638999488
1068.0, 0.006856733133125075
1069.0, 0.00978667529222107
1070.0, 0.011095005587888498
1071.0, 0.008952158589142308
1072.0, 0.011640426649664396
1073.0, 0.013741930178629534
1074.0, 0.01870366126675227
1075.0, 0.02674902476852427
1076.0, 0.027938534864745377
1077.0, 0.023444072341763753
1078.0, 0.024950336937784964
1079.0, 0.026712354762734005
1080.0, 0.029961519109109682
1081.0, 0.035308203479133896
1082.0, 0.03233527296640997
1083.0, 0.0377041640647169
1084.0, 0.04193755607882413
1085.0, 0.041576252826775906
1086.0, 0.04040135314301004
1087.0, 0.04371950902328629
1088.0, 0.04355861012765276
1089.0, 0.045684221728285866
1090.0, 0.045785784442218716
1091.0, 0.04617309450949794
1092.0, 0.04713998022803225
1093.0, 0.051576115003669966
1094.0, 0.053683553770050095
1095.0, 0.0530251278045224
1096.0, 0.05524287023822799
1097.0, 0.05711145594552051
1098.0, 0.0566981233223338
1099.0, 0.0579300767600678
1100.0, 0.05661493923279041
1101.0, 0.05817411925008698
1102.0, 0.06307220135370514
1103.0, 0.05941940060257148
1104.0, 0.060396773483608404
1105.0, 0.068886856318077
1106.0, 0.06320347406442278
1107.0, 0.06346582040375573
1108.0, 0.06351649057699187
1109.0, 0.06512579054226407
1110.0, 0.06437624471853658
1111.0, 0.06425071520264679
1112.0, 0.061895378122007974
1113.0, 0.061556999652134965
1114.0, 0.06411948913974957
1115.0, 0.06323386562055985
1116.0, 0.062273297250563034
1117.0, 0.05685074581518205
1118.0, 0.05497265965466136
1119.0, 0.059957725432078286
1120.0, 0.05617636864676055
1121.0, 0.06124045193811663
1122.0, 0.05762110950961733
1123.0, 0.05671054336233132
1124.0, 0.05325738425647394
1125.0, 0.055940715385344224
1126.0, 0.056418999387345216
1127.0, 0.05355980284688076
1128.0, 0.056009658242300045
1129.0, 0.05200006014870198
1130.0, 0.04779879227114048
1131.0, 0.04850972585272584
1132.0, 0.05067400090170613
1133.0, 0.04703692424412065
1134.0, 0.04199000141366071
1135.0, 0.045998190280460836
1136.0, 0.045717147533281155
1137.0, 0.04135777120631187
1138.0, 0.04030721487662515
1139.0, 0.043975359403047316
1140.0, 0.039994136638844574
1141.0, 0.04142072660348981
1142.0, 0.038667219573129435
1143.0, 0.041763865194291386
1144.0, 0.036739001886764926
1145.0, 0.03656663529915567
1146.0, 0.03854722436907768
1147.0, 0.03406675347042115
1148.0, 0.030502970022387495
1149.0, 0.029571316592977803
1150.0, 0.03262867542558284
1151.0, 0.03464294422475483
1152.0, 0.03191089106670328
1153.0, 0.028928155798970404
1154.0, 0.02582709247501274
1155.0, 0.020803330341954543
1156.0, 0.01914191781657171
1157.0, 0.0204455054977367
1158.0, 0.019251177883486483
1159.0, 0.0199831487585283
1160.0, 0.019903944967230105
1161.0, 0.02228026204000555
1162.0, 0.017558475870599857
1163.0, 0.01620342510734268
1164.0, 0.017299719003939038
1165.0, 0.011329620449546992
1166.0, 0.010521503209125123
1167.0, 0.01171021408113601
1168.0, 0.00854336935564085
1169.0, 0.006994618803823536
1170.0, 0.0046854206736486525
1171.0, 0.006934801112526814
1172.0, 0.010145797361582908
1173.0, 0.0067900699774750195
1174.0, 0.003663876146505607
1175.0, 0.004090664212669914
1176.0, 0.004490178958734154
1177.0, 0.004171370221008412
1178.0, 0.00290643736412692
1179.0, 0.002352685803377819
1180.0, 0.0007153339847655916
1181.0, 0.0015184550130868028
1182.0, 0.0004834531634237479
1183.0, 0.0022462200721801062
1184.0, 0.001034463745775197
1185.0, 0.0015762762104418553
1186.0, 0.0010046873453162545
1187.0, 0.001096123606608015
1188.0, 0.00032932475479663284
1189.0, 0.0010396836130474824
1190.0, 0.0006323885647471292
1191.0, 0.0013712064825327141
1192.0, 0.0007450023574304799
1193.0, 0.0006831369147185499
1194.0, 0.0017338110368272743
1195.0, 0.0012304251263758998
1196.0, 0.003906190750861949
1197.0, 0.0029537167381428757
1198.0, 0.0007026634459726196
1199.0, 0.00287640303237239
1200.0, 0.00444255311112386
1201.0, 0.0020093175570764857
1202.0, 0.001098130616356618
1203.0, 0.0017472448018127878
1204.0, 0.0019277561514884317
1205.0, 0.00046633644122065536
1206.0, 0.001438519854790627
1207.0, 0.000423096306595604
1208.0, 0.0006167564165937241
1209.0, 0.0007893236505154921
1210.0, 0.0015014754088747604
1211.0, 0.0031687529930021076
1212.0, 0.0071084781684866505
1213.0, 0.003854063540639231
1214.0, 0.002170086149156039
1215.0, 0.003915020038766327
1216.0, 0.00844073139788343
1217.0, 0.005817526973206146
1218.0, 0.002124333244102386
1219.0, 0.003306226910750645
1220.0, 0.00607335027024462
1221.0, 0.004221295355304827
1222.0, 0.006999894541229337
1223.0, 0.006745882794945451
1224.0, 0.0035531395334345668
1225.0, 0.005467654211618542
1226.0, 0.007576873875038225
1227.0, 0.005469231515981094
1228.0, 0.00346707778611561
1229.0, 0.002452511745017565
1230.0, 0.003077292959442029
1231.0, 0.004203984541930195
1232.0, 0.0033965933960356963
1233.0, 0.003850160603801367
1234.0, 0.002970418997931631
1235.0, 0.0012038662754412007
1236.0, 0.00410524744453895
1237.0, 0.004429623523166844
1238.0, 0.002737061460804994
1239.0, 0.0017048082487564344
1240.0, 0.00387522470611683
1241.0, 0.005160860586593862
1242.0, 0.0001925900203371808
1243, 0.0
1244, 0.0
1245, 0.0
1246, 0.0
1247, 0.0
1248, 0.0
1249, 0.0
1250, 0.0
1251, 0.0
1252, 0.0
1253, 0.0
1254, 0.0
1255, 0.0
1256, 0.0
1257, 0.0
1258, 0.0
1259, 0.0
1260, 0.0
1261, 0.0
1262, 0.0
1263, 0.0
1264, 0.0
1265, 0.0
1266, 0.0
1267, 0.0
1268, 0.0
1269, 0.0
1270, 0.0
1271, 0.0
1272, 0.0
1273, 0.0
1274, 0.0
1275, 0.0
1276, 0.0
1277, 0.0
1278, 0.0
1279, 0.0
1280, 0.0
1281, 0.0
1282, 0.0
1283, 0.0
1284, 0.0
1285, 0.0
1286, 0.0
1287, 0.0
1288, 0.0
1289, 0.0
1290, 0.0
1291, 0.0
1292, 0.0
1293, 0.0
1294, 0.0
1295, 0.0
1296, 0.0
1297, 0.0
1298, 0.0
1299, 0.0
1300, 0.0
1301, 0.0
1302, 0.0
1303, 0.0
1304, 0.0
1305, 0.0
1306, 0.0
1307, 0.0
1308, 0.0
1309, 0.0
1310, 0.0
1311, 0.0
1312, 0.0
1313, 0.0
1314, 0.0
1315, 0.0
1316, 0.0
1317, 0.0
1318, 0.0
1319, 0.0
1320, 0.0
1321, 0.0
1322, 0.0
1323, 0.0
1324, 0.0
1325, 0.0
1326, 0.0
1327, 0.0
1328, 0.0
1329, 0.0
1330, 0.0
1331, 0.0
1332, 0.0
1333, 0.0
1334, 0.0
1335, 0.0
1336, 0.0
1337, 0.0
1338, 0.0
1339, 0.0
1340, 0.0
1341, 0.0
1342, 0.0
1343, 0.0
1344, 0.0
1345, 0.0
1346, 0.0
1347, 0.0
1348, 0.0
1349, 0.0
1350, 0.0
1351, 0.0
1352, 0.0
1353, 0.0
1354, 0.0
1355, 0.0
1356, 0.0
1357, 0.0
1358, 0.0
1359, 0.0
1360, 0.0
1361, 0.0
1362, 0.0
1363, 0.0
1364, 0.0
1365, 0.0
1366, 0.0
1367, 0.0
1368, 0.0
1369, 0.0
1370, 0.0
1371, 0.0
1372, 0.0
1373, 0.0
1374, 0.0
1375, 0.0
1376, 0.0
1377, 0.0
1378, 0.0
1379, 0.0
1380, 0.0
1381, 0.0
1382, 0.0
1383, 0.0
1384, 0.0
1385, 0.0
1386, 0.0
1387, 0.0
1388, 0.0
1389, 0.0
1390, 0.0
1391, 0.0
1392, 0.0
1393, 0.0
1394, 0.0
1395, 0.0
1396, 0.0
1397, 0.0
1398, 0.0
1399, 0.0
1400, 0.0
1401, 0.0
1402, 0.0
1403, 0.0
1404, 0.0
1405, 0.0
1406, 0.0
1407, 0.0
1408, 0.0
1409, 0.0
1410, 0.0
1411, 0.0
1412, 0.0
1413, 0.0
1414, 0.0
1415, 0.0
1416, 0.0
1417, 0.0
1418, 0.0
1419, 0.0
1420, 0.0
1421, 0.0
1422, 0.0
1423, 0.0
1424, 0.0
1425, 0.0
1426, 0.0
1427, 0.0
1428, 0.0
1429, 0.0
1430, 0.0
1431, 0.0
1432, 0.0
1433, 0.0
1434, 0.0
1435, 0.0
1436, 0.0
1437, 0.0
1438, 0.0
1439, 0.0
1440, 0.0
1441, 0.0
1442, 0.0
1443, 0.0
1444, 0.0
1445, 0.0
1446, 0.0
1447, 0.0
1448, 0.0
1449, 0.0
1450, 0.0
1451, 0.0
1452, 0.0
1453, 0.0
1454, 0.0
1455, 0.0
1456, 0.0
1457, 0.0
1458, 0.0
1459, 0.0
1460, 0.0
1461, 0.0
1462, 0.0
1463, 0.0
1464, 0.0
1465, 0.0
1466, 0.0
1467, 0.0
1468, 0.0
1469, 0.0
1470, 0.0
1471, 0.0
1472, 0.0
1473, 0.0
1474, 0.0
1475, 0.0
1476, 0.0
1477, 0.0
1478, 0.0
1479, 0.0
1480, 0.0
1481, 0.0
1482, 0.0
1483, 0.0
1484, 0.0
1485, 0.0
1486, 0.0
1487, 0.0
1488, 0.0
1489, 0.0
1490, 0.0
1491, 0.0
1492, 0.0
1493, 0.0
1494, 0.0
1495, 0.0
1496, 0.0
1497, 0.0
1498, 0.0
1499, 0.0
1500, 0.0
1501, 0.0
1502, 0.0
1503, 0.0
1504, 0.0
1505, 0.0
1506, 0.0
1507, 0.0
1508, 0.0
1509, 0.0
1510, 0.0
1511, 0.0
1512, 0.0
1513, 0.0
1514, 0.0
1515, 0.0
1516, 0.0
1517, 0.0
1518, 0.0
1519, 0.0
1520, 0.0
1521, 0.0
1522, 0.0
1523, 0.0
1524, 0.0
1525, 0.0
1526, 0.0
1527, 0.0
1528, 0.0
1529, 0.0
1530, 0.0
1531, 0.0
1532, 0.0
1533, 0.0
1534, 0.0
1535, 0.0
1536, 0.0
1537, 0.0
1538, 0.0
1539, 0.0
1540, 0.0
1541, 0.0
1542, 0.0
1543, 0.0
1544, 0.0
1545, 0.0
1546, 0.0
1547, 0.0
1548, 0.0
1549, 0.0
1550, 0.0
1551, 0.0
1552, 0.0
1553, 0.0
1554, 0.0
1555, 0.0
1556, 0.0
1557, 0.0
1558, 0.0
1559, 0.0
1560, 0.0
1561, 0.0
1562, 0.0
1563, 0.0
1564, 0.0
1565, 0.0
1566, 0.0
1567, 0.0
1568, 0.0
1569, 0.0
1570, 0.0
1571, 0.0
1572, 0.0
1573, 0.0
1574, 0.0
1575, 0.0
1576, 0.0
1577, 0.0
1578, 0.0
1579, 0.0
1580, 0.0
1581, 0.0
1582, 0.0
1583, 0.0
1584, 0.0
1585, 0.0
1586, 0.0
1587, 0.0
1588, 0.0
1589, 0.0
1590, 0.0
1591, 0.0
1592, 0.0
1593, 0.0
1594, 0.0
1595, 0.0
1596, 0.0
1597, 0.0
1598, 0.0
1599, 0.0
