30, 0.0
31, 0.0
32, 0.0
33, 0.0
34, 0.0
35, 0.0
36, 0.0
37, 0.0
38, 0.0
39, 0.0
40, 0.0
41, 0.0
42, 0.0
43, 0.0
44, 0.0
45, 0.0
46, 0.0
47, 0.0
48, 0.0
49, 0.0
50, 0.0
51, 0.0
52, 0.0
53, 0.0
54, 0.0
55, 0.0
56, 0.0
57, 0.0
58, 0.0
59, 0.0
60, 0.0
61, 0.0
62, 0.0
63, 0.0
64, 0.0
65, 0.0
66, 0.0
67, 0.0
68, 0.0
69, 0.0
70, 0.0
71, 0.0
72, 0.0
73, 0.0
74, 0.0
75, 0.0
76, 0.0
77, 0.0
78, 0.0
79, 0.0
80, 0.0
81, 0.0
82, 0.0
83, 0.0
84, 0.0
85, 0.0
86, 0.0
87, 0.0
88, 0.0
89, 0.0
90, 0.0
91, 0.0
92, 0.0
93, 0.0
94, 0.0
95, 0.0
96, 0.0
97, 0.0
98, 0.0
99, 0.0
100, 0.0
101, 0.0
102, 0.0
103, 0.0
104, 0.0
105, 0.0
106, 0.0
107, 0.0
108.0, 0.002741711570511091
109.0, 0.003190504761043994
110.0, 0.002379204129161312
111.0, 0.0012619992827923592
112.0, 0.00025435636645886544
113.0, 0.0006946675130341144
114.0, 0.0032401718810880836
115.0, 0.0032507618830707056
116.0, 0.0022753327019464833
117.0, 0.004041325211414359
118.0, 0.003985580214727838
119.0, 0.0032631033541313916
120.0, 0.004360710322683986
121.0, 0.0049844251428158275
122.0, 0.003808598037645678
123.0, 0.005168448895417052
124.0, 0.00811844871304367
125.0, 0.010281251461563373
126.0, 0.010825101162968165
127.0, 0.010619698630338967
128.0, 0.012267611843850189
129.0, 0.01527518005791727
130.0, 0.017859082773672895
131.0, 0.020430144872934146
132.0, 0.022344432099143472
133.0, 0.02293560554951778
134.0, 0.02488595517177857
135.0, 0.027390651878949512
136.0, 0.030356943655967698
137.0, 0.031921412204000375
138.0, 0.030816973168963924
139.0, 0.02797954287824867
140.0, 0.028992052174124268
141.0, 0.028257632481773483
142.0, 0.026760105777579084
143.0, 0.02594180434190925
144.0, 0.02681311220818111
145.0, 0.022024067894461985
146.0, 0.02167958895360579
147.0, 0.020218949642971946
148.0, 0.019152801557731216
149.0, 0.021211017780006603
150.0, 0.02195734038881101
151.0, 0.01917397470386994
152.0, 0.01793460322602863
153.0, 0.019149369354497105
154.0, 0.021676747747770734
155.0, 0.022221821839210017
156.0, 0.017628210486912124
157.0, 0.014539782743126263
158.0, 0.015190643179377376
159.0, 0.016773029327023726
160.0, 0.014780496979169519
161.0, 0.015735154681325317
162.0, 0.014828137412880006
163.0, 0.012251252278050047
164.0, 0.010453245742342139
165.0, 0.010487206132912853
166.0, 0.00898977694822154
167.0, 0.009872270709239416
168.0, 0.008339109511986709
169.0, 0.00631123155838735
170.0, 0.006015977306108896
171.0, 0.008836695019580466
172.0, 0.008150112824241575
173.0, 0.007463472485985375
174.0, 0.005310051791447558
175.0, 0.004218302268335721
176.0, 0.005895641350052805
177.0, 0.005926752888892951
178.0, 0.005402011757822018
179.0, 0.005219723231607165
180.0, 0.005185158445117295
181.0, 0.0047661192174404815
182.0, 0.0034345847927141054
183.0, 0.004505938617932273
184.0, 0.0042602803644361835
185.0, 0.0034293074264450715
186.0, 0.003222590516183046
187.0, 0.004309854259186299
188.0, 0.005040867270530167
189.0, 0.002630697272118109
190.0, 0.0017250371975746064
191.0, 0.002371640945779716
192.0, 0.0032795581336203324
193.0, 0.0025113772176629146
194.0, 0.002850553045788458
195.0, 0.003183630133423696
196.0, 0.00288357556402044
197.0, 0.002603894492595365
198.0, 0.003299443198811682
199.0, 0.005329870838237099
200.0, 0.006206763231334455
201.0, 0.005711977119567821
202.0, 0.0062632776509398405
203.0, 0.006689026449981178
204.0, 0.0027701683792155304
205.0, 0.0038240289249963054
206.0, 0.003349427132820745
207.0, 0.0033627935206112756
208.0, 0.004351626019063805
209.0, 0.005766735588004021
210.0, 0.00572294219336831
211.0, 0.0031140950655274215
212.0, 0.004024794204138978
213.0, 0.0033207789749994466
214.0, 0.001972775799969116
215.0, 0.0054462608178408745
216.0, 0.0027126331141402848
217.0, 0.006262617258942722
218.0, 0.005490512476770677
219.0, 0.0030624794728171395
220.0, 0.0035226444535677286
221.0, 0.007341889570492564
222.0, 0.008743431906384231
223.0, 0.007389441348559442
224.0, 0.006965763933469767
225.0, 0.00682475554346503
226.0, 0.0042865144636854225
227.0, 0.0032955957699921197
228.0, 0.0035902558297300643
229.0, 0.003431861367826675
230.0, 0.00493608310163903
231.0, 0.007629384760416852
232.0, 0.006442263686971006
233.0, 0.0056099088212895895
234.0, 0.00828184174155683
235.0, 0.009201882899434764
236.0, 0.008244247128328008
237.0, 0.007439692255906508
238.0, 0.007588917961060583
239.0, 0.008059420409280356
240.0, 0.007381896814614934
241.0, 0.007422053513874119
242.0, 0.008380977555822457
243.0, 0.008712220516524961
244.0, 0.008974445218358685
245.0, 0.009919396081247004
246.0, 0.009523319285710548
247.0, 0.009686394007695085
248.0, 0.0109631272121169
249.0, 0.00929867003119848
250.0, 0.008166899448918722
251.0, 0.007327267433991431
252.0, 0.007753030163454746
253.0, 0.00810118936541316
254.0, 0.007271978485422817
255.0, 0.010839753570437111
256.0, 0.013317777658115409
257.0, 0.013551238308471096
258.0, 0.013273484841971396
259.0, 0.014371078953089984
260.0, 0.017767786361153653
261.0, 0.017610232870347478
262.0, 0.017798614948761837
263.0, 0.01908709207969454
264.0, 0.020286204451362873
265.0, 0.019537867889717148
266.0, 0.014970542375449848
267.0, 0.015561332374606348
268.0, 0.016554220535428474
269.0, 0.01728929004519104
270.0, 0.017845408984850337
271.0, 0.0181915187611444
272.0, 0.0163754979448671
273.0, 0.014419599018916958
274.0, 0.013511704376036946
275.0, 0.011752594575705402
276.0, 0.009735693452223443
277.0, 0.009910214990681928
278.0, 0.010118462982901782
279.0, 0.008490423670017984
280.0, 0.00804561407908915
281.0, 0.008668525666235468
282.0, 0.009082662778061535
283.0, 0.007570259880706255
284.0, 0.00609686063503662
285.0, 0.009407340234250525
286.0, 0.008991890871435601
287.0, 0.008494277657293018
288.0, 0.010831064240083217
289.0, 0.006669348487648953
290.0, 0.007008665843541958
291.0, 0.008056679419038853
292.0, 0.007662943432376168
293.0, 0.0062698557088464195
294.0, 0.005947604493150089
295.0, 0.009084379463046162
296.0, 0.008569599508152424
297.0, 0.010501120857802453
298.0, 0.009825248987743777
299.0, 0.007968041062974593
300.0, 0.010960825120364118
301.0, 0.011917484138280775
302.0, 0.01007154642708878
303.0, 0.011208183634636111
304.0, 0.013542089519762759
305.0, 0.014646323144798561
306.0, 0.01349305700615925
307.0, 0.012818880024234936
308.0, 0.012395086288653013
309.0, 0.011576773019000593
310.0, 0.011153368822912752
311.0, 0.011047450155312517
312.0, 0.009248578920008051
313.0, 0.010732434628322289
314.0, 0.009719433850228183
315.0, 0.00746648557008287
316.0, 0.0070367511836819776
317.0, 0.008755838851849222
318.0, 0.005251179455240297
319.0, 0.003366617056563526
320.0, 0.005786613573317052
321.0, 0.005666446040882728
322.0, 0.0027729167629263678
323.0, 0.0005803660143020491
324.0, 0.0019131910338037036
325.0, 0.0021932867612337445
326.0, 0.0008530832057467379
327.0, 0.0011332684029523356
328.0, 0.002004765919342069
329.0, 0.000836635836574547
330.0, 0.0012889074547388297
331.0, 0.0023817002533210304
332.0, 0.0011706922723218763
333.0, 0.000902281290524704
334.0, 0.0015939121284115755
335.0, 0.0013324514453989917
336.0, 0.005520727387750699
337.0, 0.005079433192125956
338.0, 0.0036057358730913237
339.0, 0.002054378428246945
340.0, 0.0021468843034965733
341.0, 0.005324826919839382
342.0, 0.00476143302401477
343.0, 0.003160936829860807
344.0, 0.0012662845468063093
345.0, 0.0016314453855209238
346.0, 0.002927339871108667
347.0, 0.0005509838527608709
348.0, 0.0008061298917925206
349.0, 0.0032595055250773464
350.0, 0.0033036406013546905
351.0, 0.002272791171353898
352.0, 0.0021209437097823797
353.0, 0.0033697822057419348
354.0, 0.0007584634463160456
355.0, 0.0018438912012539073
356.0, 0.001701048628980142
357.0, 0.0016832771914545338
358.0, 0.0021491061178396213
359.0, 0.000879413150763695
360.0, 0.002749393328588612
361.0, 0.0010308536838567104
362.0, 0.0005018196282365746
363.0, 0.0023958583244329144
364.0, 0.0053333998966723925
365.0, 0.006111252038650388
366.0, 0.005812712872132458
367.0, 0.0017169929908401212
368.0, 0.0021685756256790084
369.0, 0.002748275345484041
370.0, 0.0008440388349724247
371.0, 0.0005585032744415655
372.0, 0.0023893581249336965
373.0, 0.0018302298116619777
374.0, 0.0025149673895702067
375.0, 0.00256192088070483
376.0, 0.0012838408658086887
377.0, 0.0012384718981912678
378.0, 0.003119258281423451
379.0, 0.0034078524912952244
380.0, 0.0037769137427511963
381.0, 0.002971664453861725
382.0, 0.0019256667123681696
383.0, 0.004233305845982399
384.0, 0.005343600537218039
385.0, 0.004614058687741703
386.0, 0.004826797566181647
387.0, 0.004160916533126347
388.0, 0.00309304336735255
389.0, 0.004937420535303192
390.0, 0.005768724826362562
391.0, 0.0043449780432932225
392.0, 0.0043178468963712725
393.0, 0.005429390582879204
394.0, 0.006618531553909099
395.0, 0.007088591986680223
396.0, 0.007772367226698673
397.0, 0.00799584725446782
398.0, 0.008345973978226354
399.0, 0.007671340832604598
400.0, 0.0061843221010969935
401.0, 0.004897199602161381
402.0, 0.0013721113385729222
403.0, 0.0018532636082526747
404.0, 0.005048012018233122
405.0, 0.004855640160697198
406.0, 0.0033175782666483213
407.0, 0.005867959657115176
408.0, 0.005077400726770307
409.0, 0.006411312164765811
410.0, 0.007505241361558128
411.0, 0.009288400991761765
412.0, 0.010764419375798254
413.0, 0.010443570270551199
414.0, 0.00930274095559975
415.0, 0.01709473238782567
416.0, 0.014746336567575477
417.0, 0.009863691969987655
418.0, 0.009932766887927654
419.0, 0.0163518115528744
420.0, 0.0194565602784935
421.0, 0.020469243295948392
422.0, 0.022904957860309622
423.0, 0.024110427836133035
424.0, 0.024810326548266325
425.0, 0.025836814623682012
426.0, 0.026177646108658786
427.0, 0.02802679067226342
428.0, 0.03404687434140023
429.0, 0.03445180838941897
430.0, 0.03416915021709177
431.0, 0.03555832334650836
432.0, 0.034529287584336564
433.0, 0.040819755239538395
434.0, 0.04239142083511807
435.0, 0.04586943467920079
436.0, 0.0461796475546919
437.0, 0.04628928313888742
438.0, 0.05280718445596657
439.0, 0.048286918639733584
440.0, 0.05248094880993276
441.0, 0.0573732561702577
442.0, 0.05672866988178888
443.0, 0.05487919382264959
444.0, 0.05750651448178312
445.0, 0.05530149227032701
446.0, 0.05521751263925535
447.0, 0.05305895026483712
448.0, 0.05105423043763168
449.0, 0.04984900996085263
450.0, 0.04697559507020152
451.0, 0.037425973885978174
452.0, 0.04172261381571476
453.0, 0.035920875791465474
454.0, 0.03228188713225838
455.0, 0.030949553250188132
456.0, 0.03074488350956221
457.0, 0.031593466314191285
458.0, 0.023909089902956152
459.0, 0.026478245788336338
460.0, 0.024967463350356656
461.0, 0.020446494527283608
462.0, 0.017353540857837538
463.0, 0.01845300839252675
464.0, 0.0183566387847075
465.0, 0.014002010861764102
466.0, 0.01236669611820268
467.0, 0.01104589234291519
468.0, 0.009926731137395563
469.0, 0.00947955049271152
470.0, 0.00871160626277695
471.0, 0.008326227489832768
472.0, 0.0082801863690019
473.0, 0.008275378927011636
474.0, 0.008973670265471414
475.0, 0.010103754910230819
476.0, 0.009709427331489362
477.0, 0.00367475936060208
478.0, 0.004934366572727244
479.0, 0.005860270155239788
480.0, 0.005967059679167901
481.0, 0.0071190896396623555
482.0, 0.009773079430450684
483.0, 0.007638163164284273
484.0, 0.00475435004542991
485.0, 0.004851470361675319
486.0, 0.00367416057284819
487.0, 0.004640371493822631
488.0, 0.00866848494619253
489.0, 0.008686091655853533
490.0, 0.0047454397996878495
491.0, 0.00164767005927526
492.0, 0.001485412851357726
493.0, 0.001151863394781882
494.0, 0.0010227143765052737
495.0, 0.0030479157536843085
496.0, 0.0003068369042813035
497.0, 0.00014198928046634652
498.0, 0.0006789247251212904
499.0, 0.0025105998959651546
500.0, 0.004403310119144527
501.0, 0.004671565534861839
502.0, 0.003080574859568553
503.0, 0.007049608342491954
504.0, 0.0033534750266115214
505.0, 0.005368790640004851
506.0, 0.0047738183196205965
507.0, 0.0008756401505243178
508.0, 0.0015078860098739857
509.0, 0.0007592454664833406
510.0, 0.0012819459931772607
511.0, 0.004398864511680391
512.0, 0.0030749475460093278
513.0, 0.0008900369200378077
514.0, 0.0018881413501081698
515.0, 0.0013844528623632886
516.0, 0.0009360288856021211
517.0, 0.003699381678575604
518.0, 0.005117216094365797
519.0, 0.0051353016284646485
520.0, 0.003823447099314502
521.0, 0.0012483813490934388
522.0, 4.4510329576016535e-05
523.0, 0.0011433265610274284
524.0, 0.000848884617324042
525.0, 0.0004805063682465544
526.0, 0.00024815997328805824
527.0, 0.00029101517787474086
528.0, 0.00117689628561689
529.0, 0.00013946956777872175
530.0, 0.0022231553099015993
531.0, 0.0012351895487311573
532.0, 0.00040758053034978725
533.0, 0.0008194047668751112
534.0, 0.0011766178521501862
535.0, 0.0015512074442482749
536.0, 0.0026142445853958975
537.0, 0.0010202108299292158
538.0, 0.001678866287349152
539.0, 0.00285687956515784
540.0, 0.0029815409864497933
541.0, 0.003025144365483086
542.0, 0.0015590046975870885
543.0, 0.0012801557253349037
544.0, 0.002223591718324119
545.0, 0.0019397242550593156
546.0, 0.0009386580703450436
547.0, 0.0011729249747644752
548.0, 0.0033236455307493916
549.0, 0.00112211766899903
550.0, 0.007169510499055167
551.0, 0.0039153453084009
552.0, 0.0010574888075911971
553.0, 0.0033410640491953816
554.0, 0.006363664310543011
555.0, 0.005112546353720567
556.0, 0.0035546569335912106
557.0, 0.0042591029094556435
558.0, 0.007455473479300091
559.0, 0.006304963628836648
560.0, 0.0033998632844553555
561.0, 0.009214140101923587
562.0, 0.008351298644057903
563.0, 0.0027884064995758306
564.0, 0.005467321353425934
565.0, 0.012360529848590688
566.0, 0.012821805050556549
567.0, 0.008620938932579184
568.0, 0.01974561722359754
569.0, 0.02599566165191779
570.0, 0.02486614157921997
571.0, 0.03358960375495247
572.0, 0.038988720760753284
573.0, 0.04227867647973588
574.0, 0.049620809806648916
575.0, 0.052352751318141814
576.0, 0.06195274279967798
577.0, 0.06877250901803052
578.0, 0.0716988898365999
579.0, 0.0738869881158041
580.0, 0.07094539804370509
581.0, 0.05981149541212854
582.0, 0.059483898363305164
583.0, 0.04696541854317239
584.0, 0.047869391417300934
585.0, 0.04334008226844504
586.0, 0.0372109136678376
587.0, 0.034054651871883355
588.0, 0.03177124278617859
589.0, 0.028245534354874417
590.0, 0.028492933146800018
591.0, 0.02457390838435112
592.0, 0.02522190605823896
593.0, 0.026316210850371214
594.0, 0.025017450803854247
595.0, 0.024615611357386425
596.0, 0.020920068402232816
597.0, 0.026238312022950332
598.0, 0.026597430548030272
599.0, 0.027950301300688932
600.0, 0.028410455276181447
601.0, 0.02921354951804747
602.0, 0.03781392390809606
603.0, 0.04336320338291161
604.0, 0.0449044216223937
605.0, 0.0490832585459146
606.0, 0.05049436077400583
607.0, 0.0484480958709583
608.0, 0.044599140099506676
609.0, 0.04046761470208405
610.0, 0.04276997046013782
611.0, 0.039076951770384165
612.0, 0.03952715202441706
613.0, 0.03431551501239289
614.0, 0.03226734427146893
615.0, 0.03562970063199704
616.0, 0.026018131507840696
617.0, 0.02843203709153071
618.0, 0.02201672942188766
619.0, 0.023493644107907156
620.0, 0.019616103000124393
621.0, 0.01726462950858229
622.0, 0.02134653864850324
623.0, 0.017143764634244794
624.0, 0.01380195329150223
625.0, 0.01772249610290226
626.0, 0.019620108121366123
627.0, 0.014867400065499687
628.0, 0.009503208029793979
629.0, 0.009571250669005549
630.0, 0.011938434540018342
631.0, 0.009505427585808607
632.0, 0.014695443743363273
633.0, 0.018112548885111553
634.0, 0.012587350207897717
635.0, 0.008915426316401461
636.0, 0.01371435358987185
637.0, 0.015631439580727224
638.0, 0.010160025637425909
639.0, 0.009432193143004837
640.0, 0.009837748012766082
641.0, 0.013508453720550454
642.0, 0.014527392584529033
643.0, 0.012796754061337913
644.0, 0.01680971888695035
645.0, 0.01606866384975652
646.0, 0.010729897260868764
647.0, 0.01583131311416018
648.0, 0.018751584925606666
649.0, 0.018847940610245143
650.0, 0.016368649106368878
651.0, 0.01068718043903126
652.0, 0.01726155022042204
653.0, 0.017110558644094685
654.0, 0.010700535032310051
655.0, 0.013514901829941266
656.0, 0.01591023197084879
657.0, 0.014593691100209182
658.0, 0.016271544512285636
659.0, 0.01402180525688844
660.0, 0.013794594696791234
661.0, 0.014818290539662587
662.0, 0.013124290598552335
663.0, 0.014098992900189936
664.0, 0.01372772364481862
665.0, 0.009833803420503717
666.0, 0.021194400592046466
667.0, 0.004869612101885854
668.0, 0.009289421490347078
669.0, 0.009658922276632759
670.0, 0.009609316114652277
671.0, 0.012356004850178522
672.0, 0.015713020661935816
673.0, 0.014937560119336736
674.0, 0.010406053902467145
675.0, 0.009859761822554542
676.0, 0.012192986076523317
677.0, 0.010519382999466533
678.0, 0.011625299600907772
679.0, 0.016236851472279244
680.0, 0.013356000684816405
681.0, 0.013449302279998682
682.0, 0.012492779475473703
683.0, 0.01770035550664069
684.0, 0.019393444174309656
685.0, 0.015864609561424988
686.0, 0.008767334029824363
687.0, 0.004583300430166255
688.0, 0.019062393543865897
689.0, 0.016930768702265044
690.0, 0.017761550290493623
691.0, 0.016595332227781617
692.0, 0.01688414686754819
693.0, 0.016688596434598975
694.0, 0.013341965671586693
695.0, 0.011313334307958108
696.0, 0.013081865318294103
697.0, 0.020513534472406843
698.0, 0.015191356688084542
699.0, 0.014501416440231882
700.0, 0.01638100316763035
701.0, 0.014632550762245566
702.0, 0.012401728643145784
703.0, 0.01692595888647248
704.0, 0.017218500487456927
705.0, 0.016766522582345313
706.0, 0.012109353932873011
707.0, 0.009211956996905237
708.0, 0.006298517378432094
709.0, 0.003509128264484956
710.0, 0.01769112618506896
711.0, 0.02018475802699167
712.0, 0.021587164279255482
713.0, 0.02141957663556055
714.0, 0.01743883661069183
715.0, 0.016609807170858783
716.0, 0.019502429166229487
717.0, 0.016206402375551064
718.0, 0.012336444723662946
719.0, 0.019382149173823957
720.0, 0.015558730193916395
721.0, 0.017526532718476345
722.0, 0.020037137103180884
723.0, 0.019830762826741417
724.0, 0.01815665044204113
725.0, 0.012600460053938863
726.0, 0.011397978488012984
727.0, 0.014311721760445333
728.0, 0.010625908665247983
729.0, 0.012871821144062651
730.0, 0.016289097012640145
731.0, 0.017652368802964148
732.0, 0.021847906651620026
733.0, 0.018125707615345633
734.0, 0.018472279539656522
735.0, 0.013247685013693016
736.0, 0.013187768524063502
737.0, 0.017992559524979253
738.0, 0.018098543231911002
739.0, 0.012592205630712262
740.0, 0.016708134981894295
741.0, 0.012132553547412179
742.0, 0.018146352773299332
743.0, 0.015667492493646386
744.0, 0.018221633441395605
745.0, 0.019328220485095488
746.0, 0.0174311873364971
747.0, 0.01960339264696804
748.0, 0.02419454709233788
749.0, 0.019244681001157223
750.0, 0.020924475917924727
751.0, 0.0159668367535002
752.0, 0.014217691904241188
753.0, 0.017897847375506214
754.0, 0.01934224679766151
755.0, 0.012629076318062763
756.0, 0.01351320968719038
757.0, 0.018948477254942062
758.0, 0.021676138665578788
759.0, 0.01867890479823695
760.0, 0.01864502135139396
761.0, 0.016673055648640127
762.0, 0.011247919890948773
763.0, 0.01572465388346266
764.0, 0.023270337952483077
765.0, 0.017793387068293476
766.0, 0.01827099628900594
767.0, 0.014933280898530191
768.0, 0.01460123587167768
769.0, 0.020078447081094804
770.0, 0.02259950700345113
771.0, 0.012414790601790016
772.0, 0.022986462037335877
773.0, 0.017441162138423817
774.0, 0.017003376906411682
775.0, 0.01503498212328886
776.0, 0.01688666049692366
777.0, 0.022606358896902667
778.0, 0.024864786132129144
779.0, 0.020136842964470915
780.0, 0.02054146520330163
781.0, 0.019054899080052128
782.0, 0.013764663309005758
783.0, 0.014494397977739942
784.0, 0.014628456555744209
785.0, 0.01335969634410443
786.0, 0.01572691912436378
787.0, 0.016613059446251185
788.0, 0.017421433266956936
789.0, 0.019891546352425297
790.0, 0.01966897958164938
791.0, 0.013406278984604891
792.0, 0.012093049147383045
793.0, 0.014922873028772028
794.0, 0.01394389454178495
795.0, 0.01850319709727177
796.0, 0.018279617048896503
797.0, 0.012020601975378896
798.0, 0.015198052452493883
799.0, 0.021643781640402145
800.0, 0.020415405945064864
801.0, 0.01442515658122094
802.0, 0.013349191057080356
803.0, 0.01334303979770451
804.0, 0.02045582521356707
805.0, 0.01926853592291167
806.0, 0.016256582145458946
807.0, 0.016151306403657115
808.0, 0.015492949359443507
809.0, 0.013755505313653646
810.0, 0.014685591661037748
811.0, 0.01976324216711879
812.0, 0.027454835150831056
813.0, 0.012767838754336616
814.0, 0.019507187235475662
815.0, 0.02020790409527685
816.0, 0.020652640464794633
817.0, 0.01987374825013782
818.0, 0.012948382181142833
819.0, 0.011371448464819946
820.0, 0.016346516097240575
821.0, 0.01399971867263632
822.0, 0.011160669544982987
823.0, 0.01679802366723175
824.0, 0.016632643299571415
825.0, 0.013499012759356704
826.0, 0.01157608599669268
827.0, 0.003307769561441693
828.0, 0.015536891758414578
829.0, 0.009653806486920751
830.0, 0.010324208083143428
831.0, 0.009445123012203648
832.0, 0.007096569161436678
833.0, 0.00529698741314353
834.0, 0.003999467010058716
835.0, 0.0027394539328571867
836.0, 0.00677515169803202
837.0, 0.012534680996838351
838.0, 0.01729037227274146
839.0, 0.01296386400562484
840.0, 0.014798840262271459
841.0, 0.015212566363416691
842.0, 0.009372639530140291
843.0, 0.005674416075222709
844.0, 0.009192760883122972
845.0, 0.0024417494710849185
846.0, 0.005460360771037636
847.0, 0.011565904526056027
848.0, 0.010765765358564947
849.0, 0.010108356407452104
850.0, 0.009328277312271
851.0, 0.007149339223135104
852.0, 0.009622748577930901
853.0, 0.004867598569065239
854.0, 0.004466137206655278
855.0, 0.0042960502155575415
856.0, 0.0031119451971325968
857.0, 0.001863904547799124
858.0, 0.0019717259350435575
859.0, 0.0022782425645811923
860.0, 0.0009876012472310567
861.0, 0.0011150552751328056
862.0, 0.0019479441047376893
863.0, 0.004299056243372337
864.0, 0.002846018478465134
865.0, 0.010340438752209887
866.0, 0.011203968227357846
867.0, 0.00805203224061287
868.0, 0.009198268675989633
869.0, 0.005153110185212635
870.0, 0.009278776757985689
871.0, 0.0061125285402604534
872.0, 0.007348693023165643
873.0, 0.004986936305429681
874.0, 0.004486035120421853
875.0, 0.006102064443725567
876.0, 0.006722114599504409
877.0, 0.005473925309248291
878.0, 0.005513087049345669
879.0, 0.008842630135655248
880.0, 0.00664007473022596
881.0, 0.012925998888085238
882.0, 0.01113370943561727
883.0, 0.0071482210639359
884.0, 0.008864684554628344
885.0, 0.01096835719284526
886.0, 0.004394895036395817
887.0, 0.005875062755059947
888.0, 0.0018405398916194033
889.0, 0.008884475813140696
890.0, 0.00910026222584352
891.0, 0.009520473345372631
892.0, 0.005371335480584362
893.0, 0.0027195223863035758
894.0, 0.006352902473649003
895.0, 0.004402886877163635
896.0, 0.005875162131592477
897.0, 0.0030216165841333983
898.0, 0.0013075201548940966
899.0, 0.0009067281271034255
900.0, 0.004128194951002386
901.0, 0.007728559218282979
902.0, 0.006288285021387336
903.0, 0.0025065956263861703
904.0, 0.007191894317402959
905.0, 0.003313907042375378
906.0, 0.003577297800252276
907.0, 0.010351596220323438
908.0, 0.004513871523740686
909.0, 0.0027824746246637652
910.0, 0.004356006121796246
911.0, 0.004403415991378372
912.0, 0.0044253537534782415
913.0, 0.0033482821772118448
914.0, 0.003391550225792973
915.0, 0.0017406428229648574
916.0, 0.006602534150946917
917.0, 0.0046867016029582325
918.0, 0.0035856421545155184
919.0, 0.002503253352232999
920.0, 0.0016596054758096874
921.0, 0.003470037665064309
922.0, 0.0019311868900049483
923.0, 0.007678503455287533
924.0, 0.0014447296599996093
925.0, 0.008834402099416834
926.0, 0.004741554478842729
927.0, 0.0023588699574201453
928.0, 0.006350779368547582
929.0, 0.009733256610472035
930.0, 0.008828421849602953
931.0, 0.01086086589580718
932.0, 0.012053622896226917
933.0, 0.01353395446596849
934.0, 0.005337839880569592
935.0, 0.006293993604267552
936.0, 0.01716262787781023
937.0, 0.020942899250412646
938.0, 0.021096837746456067
939.0, 0.026527549291479567
940.0, 0.020327208172228002
941.0, 0.026497633197590104
942.0, 0.02746671614735285
943.0, 0.03535876731780374
944.0, 0.04741854644560026
945.0, 0.051777309009361484
946.0, 0.0576709986646437
947.0, 0.06739453459981216
948.0, 0.0786206434693548
949.0, 0.09795113794134336
950.0, 0.11905187859654447
951.0, 0.1484832232582726
952.0, 0.18927181731392764
953.0, 0.23980404700344918
954.0, 0.3022823968246511
955.0, 0.3872843260894229
956.0, 0.48291631941374047
957.0, 0.5857377145345044
958.0, 0.7107147699306747
959.0, 0.8352606104787673
960.0, 0.918308023868361
961.0, 0.9741129762213546
962.0, 0.9957890626200816
963.0, 0.9445951969674342
964.0, 0.8493292920069352
965.0, 0.7415471406167563
966.0, 0.6325880935054261
967.0, 0.5208451150292173
968.0, 0.4087917411681082
969.0, 0.3124025309401589
970.0, 0.254437426762419
971.0, 0.1971678116889851
972.0, 0.15279539039950443
973.0, 0.11971976868823526
974.0, 0.09501691608434808
975.0, 0.07498350610768764
976.0, 0.06081071225502868
977.0, 0.05424737438360372
978.0, 0.04177175828117631
979.0, 0.03713477104271308
980.0, 0.03492949637488365
981.0, 0.016945572065551542
982.0, 0.020303904318072875
983.0, 0.01762971944569421
984.0, 0.013309595079824255
985.0, 0.010774820504907228
986.0, 0.002893549138673017
987.0, 0.00145108238663967
988.0, 0.005304708571035176
989.0, 0.0038459206210443384
990.0, 0.0025133528221099846
991.0, 0.006546954466770725
992.0, 0.004826064999444011
993.0, 0.0017844187424796104
994.0, 0.000638940755641504
995.0, 0.004606204087189141
996.0, 0.010438212278566558
997.0, 0.0015871785934335947
998.0, 0.008541764997401183
999.0, 0.001242540911517812
1000.0, 0.00914073770240592
1001.0, 0.018865783735793878
1002.0, 0.01615913095472038
1003.0, 0.010465111907657282
1004.0, 0.008750231568681141
1005.0, 0.010891207458392786
1006.0, 0.015635557845927923
1007.0, 0.018057736023708786
1008.0, 0.021743458383088693
1009.0, 0.01866110098290233
1010.0, 0.013933538149840738
1011.0, 0.017117267632706837
1012.0, 0.01422758806637224
1013.0, 0.010437212101517471
1014.0, 0.011019917588212276
1015.0, 0.010359089349014779
1016.0, 0.0036970268247023064
1017.0, 0.00048822121705439675
1018.0, 7.937335385248094e-05
1019.0, 0.008632777003352772
1020.0, 0.011206360361722581
1021.0, 0.013957257938486166
1022.0, 0.024176236490020375
1023.0, 0.031140288648907888
1024.0, 0.03459992861280288
1025.0, 0.033985432644578095
1026.0, 0.02741532716283013
1027.0, 0.0405250647149366
1028.0, 0.03874568537698976
1029.0, 0.028283632628324906
1030.0, 0.03330524038776002
1031.0, 0.0406986763765676
1032.0, 0.039440133567877886
1033.0, 0.03473433350042261
1034.0, 0.027374175282074115
1035.0, 0.021518479118878126
1036.0, 0.02562276101056155
1037.0, 0.030349410074571728
1038.0, 0.02319850734056938
1039.0, 0.020642788023339853
1040.0, 0.019252037562330456
1041.0, 0.0192343738322527
1042.0, 0.018628791091510215
1043.0, 0.02101809642117797
1044.0, 0.02249330514722599
1045.0, 0.020619773994410465
1046.0, 0.02089309491160096
1047.0, 0.025089841679674214
1048.0, 0.01941916544368757
1049.0, 0.02382824332090179
1050.0, 0.0329214124436612
1051.0, 0.026672451666930053
1052.0, 0.02814735442115996
1053.0, 0.02613904663049249
1054.0, 0.027276904248953154
1055.0, 0.02881630865776595
1056.0, 0.02944295422332475
1057.0, 0.0399047277098299
1058.0, 0.041372762141988075
1059.0, 0.04320455970618937
1060.0, 0.03974654373384598
1061.0, 0.027858394041696266
1062.0, 0.021831145154516913
1063.0, 0.016047026669224754
1064.0, 0.01267189960985131
1065.0, 0.011954656868637021
1066.0, 0.012568761502241944
1067.0, 0.014200430915267535
1068.0, 0.015454811329312429
1069.0, 0.015628158638825898
1070.0, 0.01948747922260109
1071.0, 0.019971842756888816
1072.0, 0.016950218813311033
1073.0, 0.022024173596090418
1074.0, 0.022700456214829072
1075.0, 0.020446582125193194
1076.0, 0.017837915960692417
1077.0, 0.015036274538093346
1078.0, 0.01306641300547513
1079.0, 0.01052409189505342
1080.0, 0.01076027085154513
1081.0, 0.010596953237003173
1082.0, 0.011210354183516279
1083.0, 0.00887511919888689
1084.0, 0.01822614315172465
1085.0, 0.010033297126675847
1086.0, 0.0014212296197497808
1087.0, 0.001982170577574655
1088.0, 0.004788120743182617
1089.0, 0.012614004289200722
1090.0, 0.020962613827423274
1091.0, 0.01899698488510295
1092.0, 0.00963888465455152
1093.0, 0.0055257241356630234
1094.0, 0.0032014852694665003
1095.0, 0.008323911658534638
1096.0, 0.004914429216464464
1097.0, 0.002973178013348493
1098.0, 0.00647282065598367
1099.0, 0.0071209469443186965
1100.0, 0.004537078389189937
1101.0, 0.003473376411008035
1102.0, 0.00143514663206852
1103.0, 0.011708154135220106
1104.0, 0.01074009483672934
1105.0, 0.01761585198684726
1106.0, 0.018332511759844128
1107.0, 0.01332159391853041
1108.0, 0.012891799102642983
1109.0, 0.012415404128169433
1110.0, 0.009881638532793124
1111.0, 0.013951854407235283
1112.0, 0.018084316431161023
1113.0, 0.01409027320303938
1114.0, 0.013374735067113983
1115.0, 0.010305407067333554
1116.0, 0.013144930198466334
1117.0, 0.00425109759624805
1118.0, 0.0066273176353127475
1119.0, 0.01616798770009571
1120.0, 0.015739548585736354
1121.0, 0.012387444824380558
1122.0, 0.021491471357130115
1123.0, 0.02926242042136095
1124.0, 0.01988787950953266
1125.0, 0.014476950471423262
1126.0, 0.013732947248647764
1127.0, 0.010102306044327557
1128.0, 0.01172505001321986
1129.0, 0.010865406988301048
1130.0, 0.007515034533772836
1131.0, 0.007355774613094948
1132.0, 0.012720508503581779
1133.0, 0.013287084101142885
1134.0, 0.006994946824658238
1135.0, 0.014513696240110913
1136.0, 0.007896940670804058
1137.0, 0.018340096647852227
1138.0, 0.03432743504971682
1139.0, 0.021485998289227176
1140.0, 0.009984654257283416
1141.0, 0.016071094491837037
1142.0, 0.02543032262069403
1143.0, 0.02292520768214994
1144.0, 0.016826905125049293
1145.0, 0.018668254370607224
1146.0, 0.02037083827877663
1147.0, 0.017326634293320063
1148.0, 0.026320729899949442
1149.0, 0.01846785073882027
1150.0, 0.018668321730337
1151.0, 0.014729791357404967
1152.0, 0.019287032544658196
1153.0, 0.014066460226893202
1154.0, 0.005915944582613077
1155.0, 0.01399535294845161
1156.0, 0.018844159597009132
1157.0, 0.007628038954455076
1158.0, 0.01097799781535634
1159.0, 0.019607026711502776
1160.0, 0.016047603532750372
1161.0, 0.017311112733144264
1162.0, 0.00212965472632487
1163.0, 0.020273285329979317
1164.0, 0.014744477232365646
1165.0, 0.013480561209892413
1166.0, 0.017877894570856874
1167.0, 0.019181147149828593
1168.0, 0.019351543312364508
1169.0, 0.02142971767609691
1170.0, 0.021154393131818734
1171.0, 0.018737391639190932
1172.0, 0.018056734161410473
1173.0, 0.01652039688874109
1174.0, 0.01477205572624226
1175.0, 0.013119320420295136
1176.0, 0.011132083800365095
1177.0, 0.009310234383503018
1178.0, 0.006481947666676653
1179.0, 0.00269193058362221
1180.0, 0.007488967673578245
1181.0, 0.010661486622807151
1182.0, 0.0036812113300794093
1183.0, 0.009431107313741883
1184.0, 0.005189366670402449
1185.0, 0.00133505805472734
1186.0, 0.014077156226415234
1187.0, 0.013051387896088843
1188.0, 0.008893039254317238
1189.0, 0.01108827903623638
1190.0, 0.008042002318144363
1191.0, 0.0024750239632751084
1192, 0.0
1193, 0.0
1194, 0.0
1195, 0.0
1196, 0.0
1197, 0.0
1198, 0.0
1199, 0.0
1200, 0.0
1201, 0.0
1202, 0.0
1203, 0.0
1204, 0.0
1205, 0.0
1206, 0.0
1207, 0.0
1208, 0.0
1209, 0.0
1210, 0.0
1211, 0.0
1212, 0.0
1213, 0.0
1214, 0.0
1215, 0.0
1216, 0.0
1217, 0.0
1218, 0.0
1219, 0.0
1220, 0.0
1221, 0.0
1222, 0.0
1223, 0.0
1224, 0.0
1225, 0.0
1226, 0.0
1227, 0.0
1228, 0.0
1229, 0.0
1230, 0.0
1231, 0.0
1232, 0.0
1233, 0.0
1234, 0.0
1235, 0.0
1236, 0.0
1237, 0.0
1238, 0.0
1239, 0.0
1240, 0.0
1241, 0.0
1242, 0.0
1243, 0.0
1244, 0.0
1245, 0.0
1246, 0.0
1247, 0.0
1248, 0.0
1249, 0.0
1250, 0.0
1251, 0.0
1252, 0.0
1253, 0.0
1254, 0.0
1255, 0.0
1256, 0.0
1257, 0.0
1258, 0.0
1259, 0.0
1260, 0.0
1261, 0.0
1262, 0.0
1263, 0.0
1264, 0.0
1265, 0.0
1266, 0.0
1267, 0.0
1268, 0.0
1269, 0.0
1270, 0.0
1271, 0.0
1272, 0.0
1273, 0.0
1274, 0.0
1275, 0.0
1276, 0.0
1277, 0.0
1278, 0.0
1279, 0.0
1280, 0.0
1281, 0.0
1282, 0.0
1283, 0.0
1284, 0.0
1285, 0.0
1286, 0.0
1287, 0.0
1288, 0.0
1289, 0.0
1290, 0.0
1291, 0.0
1292, 0.0
1293, 0.0
1294, 0.0
1295, 0.0
1296, 0.0
1297, 0.0
1298, 0.0
1299, 0.0
1300, 0.0
1301, 0.0
1302, 0.0
1303, 0.0
1304, 0.0
1305, 0.0
1306, 0.0
1307, 0.0
1308, 0.0
1309, 0.0
1310, 0.0
1311, 0.0
1312, 0.0
1313, 0.0
1314, 0.0
1315, 0.0
1316, 0.0
1317, 0.0
1318, 0.0
1319, 0.0
1320, 0.0
1321, 0.0
1322, 0.0
1323, 0.0
1324, 0.0
1325, 0.0
1326, 0.0
1327, 0.0
1328, 0.0
1329, 0.0
1330, 0.0
1331, 0.0
1332, 0.0
1333, 0.0
1334, 0.0
1335, 0.0
1336, 0.0
1337, 0.0
1338, 0.0
1339, 0.0
1340, 0.0
1341, 0.0
1342, 0.0
1343, 0.0
1344, 0.0
1345, 0.0
1346, 0.0
1347, 0.0
1348, 0.0
1349, 0.0
1350, 0.0
1351, 0.0
1352, 0.0
1353, 0.0
1354, 0.0
1355, 0.0
1356, 0.0
1357, 0.0
1358, 0.0
1359, 0.0
1360, 0.0
1361, 0.0
1362, 0.0
1363, 0.0
1364, 0.0
1365, 0.0
1366, 0.0
1367, 0.0
1368, 0.0
1369, 0.0
1370, 0.0
1371, 0.0
1372, 0.0
1373, 0.0
1374, 0.0
1375, 0.0
1376, 0.0
1377, 0.0
1378, 0.0
1379, 0.0
1380, 0.0
1381, 0.0
1382, 0.0
1383, 0.0
1384, 0.0
1385, 0.0
1386, 0.0
1387, 0.0
1388, 0.0
1389, 0.0
1390, 0.0
1391, 0.0
1392, 0.0
1393, 0.0
1394, 0.0
1395, 0.0
1396, 0.0
1397, 0.0
1398, 0.0
1399, 0.0
1400, 0.0
1401, 0.0
1402, 0.0
1403, 0.0
1404, 0.0
1405, 0.0
1406, 0.0
1407, 0.0
1408, 0.0
1409, 0.0
1410, 0.0
1411, 0.0
1412, 0.0
1413, 0.0
1414, 0.0
1415, 0.0
1416, 0.0
1417, 0.0
1418, 0.0
1419, 0.0
1420, 0.0
1421, 0.0
1422, 0.0
1423, 0.0
1424, 0.0
1425, 0.0
1426, 0.0
1427, 0.0
1428, 0.0
1429, 0.0
1430, 0.0
1431, 0.0
1432, 0.0
1433, 0.0
1434, 0.0
1435, 0.0
1436, 0.0
1437, 0.0
1438, 0.0
1439, 0.0
1440, 0.0
1441, 0.0
1442, 0.0
1443, 0.0
1444, 0.0
1445, 0.0
1446, 0.0
1447, 0.0
1448, 0.0
1449, 0.0
1450, 0.0
1451, 0.0
1452, 0.0
1453, 0.0
1454, 0.0
1455, 0.0
1456, 0.0
1457, 0.0
1458, 0.0
1459, 0.0
1460, 0.0
1461, 0.0
1462, 0.0
1463, 0.0
1464, 0.0
1465, 0.0
1466, 0.0
1467, 0.0
1468, 0.0
1469, 0.0
1470, 0.0
1471, 0.0
1472, 0.0
1473, 0.0
1474, 0.0
1475, 0.0
1476, 0.0
1477, 0.0
1478, 0.0
1479, 0.0
1480, 0.0
1481, 0.0
1482, 0.0
1483, 0.0
1484, 0.0
1485, 0.0
1486, 0.0
1487, 0.0
1488, 0.0
1489, 0.0
1490, 0.0
1491, 0.0
1492, 0.0
1493, 0.0
1494, 0.0
1495, 0.0
1496, 0.0
1497, 0.0
1498, 0.0
1499, 0.0
1500, 0.0
1501, 0.0
1502, 0.0
1503, 0.0
1504, 0.0
1505, 0.0
1506, 0.0
1507, 0.0
1508, 0.0
1509, 0.0
1510, 0.0
1511, 0.0
1512, 0.0
1513, 0.0
1514, 0.0
1515, 0.0
1516, 0.0
1517, 0.0
1518, 0.0
1519, 0.0
1520, 0.0
1521, 0.0
1522, 0.0
1523, 0.0
1524, 0.0
1525, 0.0
1526, 0.0
1527, 0.0
1528, 0.0
1529, 0.0
1530, 0.0
1531, 0.0
1532, 0.0
1533, 0.0
1534, 0.0
1535, 0.0
1536, 0.0
1537, 0.0
1538, 0.0
1539, 0.0
1540, 0.0
1541, 0.0
1542, 0.0
1543, 0.0
1544, 0.0
1545, 0.0
1546, 0.0
1547, 0.0
1548, 0.0
1549, 0.0
1550, 0.0
1551, 0.0
1552, 0.0
1553, 0.0
1554, 0.0
1555, 0.0
1556, 0.0
1557, 0.0
1558, 0.0
1559, 0.0
1560, 0.0
1561, 0.0
1562, 0.0
1563, 0.0
1564, 0.0
1565, 0.0
1566, 0.0
1567, 0.0
1568, 0.0
1569, 0.0
1570, 0.0
1571, 0.0
1572, 0.0
1573, 0.0
1574, 0.0
1575, 0.0
1576, 0.0
1577, 0.0
1578, 0.0
1579, 0.0
1580, 0.0
1581, 0.0
1582, 0.0
1583, 0.0
1584, 0.0
1585, 0.0
1586, 0.0
1587, 0.0
1588, 0.0
1589, 0.0
1590, 0.0
1591, 0.0
1592, 0.0
1593, 0.0
1594, 0.0
1595, 0.0
1596, 0.0
1597, 0.0
1598, 0.0
1599, 0.0
