30, 0.0
31, 0.0
32, 0.0
33, 0.0
34, 0.0
35, 0.0
36, 0.0
37, 0.0
38, 0.0
39, 0.0
40, 0.0
41, 0.0
42, 0.0
43, 0.0
44, 0.0
45, 0.0
46, 0.0
47, 0.0
48, 0.0
49, 0.0
50, 0.0
51, 0.0
52, 0.0
53, 0.0
54, 0.0
55, 0.0
56, 0.0
57, 0.0
58, 0.0
59, 0.0
60, 0.0
61, 0.0
62, 0.0
63, 0.0
64, 0.0
65, 0.0
66, 0.0
67, 0.0
68, 0.0
69, 0.0
70, 0.0
71, 0.0
72, 0.0
73, 0.0
74, 0.0
75, 0.0
76, 0.0
77, 0.0
78, 0.0
79, 0.0
80, 0.0
81, 0.0
82, 0.0
83, 0.0
84, 0.0
85, 0.0
86, 0.0
87, 0.0
88, 0.0
89, 0.0
90, 0.0
91, 0.0
92, 0.0
93, 0.0
94, 0.0
95, 0.0
96, 0.0
97, 0.0
98, 0.0
99, 0.0
100, 0.0
101, 0.0
102, 0.0
103, 0.0
104, 0.0
105, 0.0
106, 0.0
107, 0.0
108, 0.0
109, 0.0
110, 0.0
111, 0.0
112, 0.0
113, 0.0
114, 0.0
115, 0.0
116, 0.0
117, 0.0
118, 0.0
119, 0.0
120, 0.0
121, 0.0
122, 0.0
123, 0.0
124, 0.0
125, 0.0
126, 0.0
127, 0.0
128, 0.0
129, 0.0
130, 0.0
131, 0.0
132, 0.0
133, 0.0
134, 0.0
135, 0.0
136, 0.0
137, 0.0
138, 0.0
139, 0.0
140, 0.0
141, 0.0
142, 0.0
143, 0.0
144, 0.0
145, 0.0
146, 0.0
147, 0.0
148, 0.0
149, 0.0
150, 0.0
151, 0.0
152, 0.0
153, 0.0
154, 0.0
155, 0.0
156, 0.0
157, 0.0
158, 0.0
159, 0.0
160, 0.0
161, 0.0
162, 0.0
163, 0.0
164, 0.0
165, 0.0
166, 0.0
167, 0.0
168, 0.0
169, 0.0
170, 0.0
171, 0.0
172, 0.0
173, 0.0
174, 0.0
175, 0.0
176, 0.0
177, 0.0
178, 0.0
179, 0.0
180, 0.0
181, 0.0
182, 0.0
183, 0.0
184, 0.0
185, 0.0
186, 0.0
187, 0.0
188, 0.0
189, 0.0
190, 0.0
191, 0.0
192, 0.0
193, 0.0
194, 0.0
195, 0.0
196, 0.0
197, 0.0
198, 0.0
199, 0.0
200, 0.0
201, 0.0
202, 0.0
203.0, 0.015684184910256475
204.0, 0.07116735228771061
205.0, 0.09077128291053026
206.0, 0.07703818114799924
207.0, 0.07328109993810565
208.0, 0.06575440663359443
209.0, 0.04064213799560923
210.0, 0.03929087375979893
211.0, 0.011088961534414918
212.0, 0.012415942644995737
213.0, 0.04731999432540951
214.0, 0.08185599697094903
215.0, 0.06532093619957051
216.0, 0.0659945092741472
217.0, 0.09337458236787849
218.0, 0.10150843775442722
219.0, 0.09035826632440257
220.0, 0.0677937396763533
221.0, 0.030399995139843223
222.0, 0.08593610289679503
223.0, 0.07530584966498748
224.0, 0.0661359666260822
225.0, 0.09739765930438621
226.0, 0.1554834553829078
227.0, 0.06873301956183091
228.0, 0.032428728294945926
229.0, 0.02209583361806615
230.0, 0.017406305761844387
231.0, 0.010127843766857304
232.0, 0.011537755540902271
233.0, 0.08230264624397642
234.0, 0.06987246361391314
235.0, 0.0446648238519949
236.0, 0.04011224235455713
237.0, 0.051906129583078636
238.0, 0.009815831807673515
239.0, 0.059948121165900134
240.0, 0.04893494642178665
241.0, 0.05432156136308966
242.0, 0.09696244483138872
243.0, 0.12288160397663865
244.0, 0.10501618224483228
245.0, 0.04153700065641214
246.0, 0.029361165358693216
247.0, 0.030014598018244916
248.0, 0.013986507548698277
249.0, 0.04122693774139402
250.0, 0.09606797820446332
251.0, 0.09995855667730533
252.0, 0.07573110357398322
253.0, 0.06558327748368425
254.0, 0.09206589088664353
255.0, 0.05900401970638054
256.0, 0.09205957880927321
257.0, 0.09922109338068037
258.0, 0.10491767896810665
259.0, 0.11942749369349352
260.0, 0.12254181817981874
261.0, 0.08358125729125199
262.0, 0.10014597324178771
263.0, 0.1138255393026749
264.0, 0.10249750157776714
265.0, 0.07813352730782595
266.0, 0.09556412845579962
267.0, 0.05809548057134849
268.0, 0.09537807325241332
269.0, 0.13378076354249502
270.0, 0.12982983007740348
271.0, 0.07638983952741962
272.0, 0.023682385292837033
273.0, 0.1045230442300423
274.0, 0.08823091261810381
275.0, 0.05371430882850386
276.0, 0.05462769008375195
277.0, 0.08745722574789971
278.0, 0.10792669128599845
279.0, 0.10462651055615896
280.0, 0.11083997547233058
281.0, 0.10852376290063995
282.0, 0.08786140178111934
283.0, 0.0660805106417654
284.0, 0.04891833232231968
285.0, 0.08238981075676609
286.0, 0.09294563820945492
287.0, 0.08939002950809202
288.0, 0.1058711714373464
289.0, 0.16079557541016032
290.0, 0.0965709245820196
291.0, 0.0797527760470044
292.0, 0.051437986979024825
293.0, 0.02668445764955593
294.0, 0.04152941597699308
295.0, 0.02858366043112454
296.0, 0.0724706537246171
297.0, 0.11117138480452754
298.0, 0.11965666899449275
299.0, 0.08830952268305259
300.0, 0.03360233153289994
301.0, 0.0693916704722039
302.0, 0.0692799137539243
303.0, 0.05421086728285868
304.0, 0.0520060937567531
305.0, 0.06315600572719685
306.0, 0.05910844722184916
307.0, 0.09937255422057945
308.0, 0.16443778615564014
309.0, 0.16370102563184397
310.0, 0.13395655890137567
311.0, 0.12114779169778808
312.0, 0.12003828095092237
313.0, 0.07403594107857425
314.0, 0.17542613240722094
315.0, 0.16518074886590522
316.0, 0.08243189716140391
317.0, 0.05821248991447716
318.0, 0.13940817929764415
319.0, 0.04728883505570795
320.0, 0.03851104862590203
321.0, 0.1036842859309706
322.0, 0.1559169415023649
323.0, 0.12614804591241374
324.0, 0.11347760568161598
325.0, 0.06950072830927406
326.0, 0.04918805953232337
327.0, 0.051970427402454694
328.0, 0.05162527764260703
329.0, 0.023300343898892243
330.0, 0.006982974193272047
331.0, 0.012430123492918027
332.0, 0.03528499194324007
333.0, 0.06183796330077604
334.0, 0.08059462002611384
335.0, 0.08185501547060164
336.0, 0.042858451903315005
337.0, 0.012336498289573158
338.0, 0.04749869572069907
339.0, 0.060110869234519373
340.0, 0.037454087215173716
341.0, 0.04397167819511734
342.0, 0.01818881639387319
343.0, 0.021766919964078004
344.0, 0.06579934603749513
345.0, 0.10427567415820257
346.0, 0.09313042800179695
347.0, 0.029746955798175927
348.0, 0.12695388181172157
349.0, 0.08129100004933035
350.0, 0.07595657472381585
351.0, 0.12133532471623787
352.0, 0.15139999852975927
353.0, 0.08239773937599867
354.0, 0.11693642264516649
355.0, 0.07365601299202869
356.0, 0.055289431590444214
357.0, 0.08280925810602434
358.0, 0.11985883843397634
359.0, 0.09769465673382474
360.0, 0.11496826694672434
361.0, 0.05157221949892287
362.0, 0.033349758207287215
363.0, 0.03319727060464107
364.0, 0.03182098440300702
365.0, 0.06655535019325497
366.0, 0.09507798337218108
367.0, 0.0438058272000272
368.0, 0.04778218679807139
369.0, 0.09140364939012223
370.0, 0.10693954766660513
371.0, 0.03743618778711821
372.0, 0.12058412929962614
373.0, 0.137149409215843
374.0, 0.11812285564553113
375.0, 0.06782480639822205
376.0, 0.02540444030727767
377.0, 0.06131952398173271
378.0, 0.03345505788794188
379.0, 0.07348594666441122
380.0, 0.08094206866031232
381.0, 0.0988509606052215
382.0, 0.11419844380780238
383.0, 0.02966331607619746
384.0, 0.009790847898320203
385.0, 0.015076366398784732
386.0, 0.06284466198975033
387.0, 0.06638497631587437
388.0, 0.04675649413582854
389.0, 0.12535728795388634
390.0, 0.022912500786054252
391.0, 0.0700759043171551
392.0, 0.07174168518687843
393.0, 0.04313975036885556
394.0, 0.04867571119251527
395.0, 0.12866795200959202
396.0, 0.12394895628454056
397.0, 0.09886198962675555
398.0, 0.09828948674763317
399.0, 0.1024700459628612
400.0, 0.10025656420863654
401.0, 0.0978834464744093
402.0, 0.10128413561907526
403.0, 0.12520511024241773
404.0, 0.12044321212941712
405.0, 0.11039349192732557
406.0, 0.10546342598156079
407.0, 0.09678574177643025
408.0, 0.06711096703603234
409.0, 0.0731126372886274
410.0, 0.06107953613201626
411.0, 0.04494519336892796
412.0, 0.03781770344011062
413.0, 0.051155754342934484
414.0, 0.10345616022215494
415.0, 0.05795106172912148
416.0, 0.06068594613596985
417.0, 0.10694698772723384
418.0, 0.13057611107895464
419.0, 0.10860357944826206
420.0, 0.1643741827098445
421.0, 0.12450686847407316
422.0, 0.07749144069858958
423.0, 0.06044401350207577
424.0, 0.05896895543219661
425.0, 0.05010708781787976
426.0, 0.03219740613611017
427.0, 0.013663890312626006
428.0, 0.04646555448650752
429.0, 0.14642398026700207
430.0, 0.13129842888886994
431.0, 0.04604325395574398
432.0, 0.18121075925926128
433.0, 0.08488558085817685
434.0, 0.0757249072401251
435.0, 0.04630533728949933
436.0, 0.06190183126176657
437.0, 0.10484968612873775
438.0, 0.09703350797243872
439.0, 0.14345004886421406
440.0, 0.1248277142625718
441.0, 0.13740855640865832
442.0, 0.14211849377436178
443.0, 0.1669938383093386
444.0, 0.23220463020662158
445.0, 0.19972306454032945
446.0, 0.20776567930826728
447.0, 0.15359690775195106
448.0, 0.18690614023239896
449.0, 0.21742584818725394
450.0, 0.15094559512559008
451.0, 0.08617467837157822
452.0, 0.15259715424268777
453.0, 0.15086896507217618
454.0, 0.06902390566320844
455.0, 0.07165825184311285
456.0, 0.16675025233666926
457.0, 0.16454138986619513
458.0, 0.18487665503616582
459.0, 0.12592281511668577
460.0, 0.11550382102081777
461.0, 0.13345728848919727
462.0, 0.17708206962788348
463.0, 0.24279711584996036
464.0, 0.22268889587956478
465.0, 0.16736633726231823
466.0, 0.11791778581115801
467.0, 0.07704630125950022
468.0, 0.05331975139341859
469.0, 0.06129319720500059
470.0, 0.11209785897337418
471.0, 0.04376394917981359
472.0, 0.08852709880239851
473.0, 0.10424121822700293
474.0, 0.09293082309157107
475.0, 0.09735960344294808
476.0, 0.13016513015221143
477.0, 0.029250097881489502
478.0, 0.12526559672082027
479.0, 0.19152359897458154
480.0, 0.11622129559829714
481.0, 0.040647579232186815
482.0, 0.11366385808763582
483.0, 0.028586541203842977
484.0, 0.20124086639637762
485.0, 0.13307827486853266
486.0, 0.12295602955231126
487.0, 0.16416639490196258
488.0, 0.1759272669703845
489.0, 0.17372603579593576
490.0, 0.15489206989720933
491.0, 0.10232385798073827
492.0, 0.08131345575452725
493.0, 0.0888516523322439
494.0, 0.0929150454817939
495.0, 0.0870509733676312
496.0, 0.20356558520006904
497.0, 0.158479253920315
498.0, 0.08294290896477644
499.0, 0.11275404853878872
500.0, 0.1552936993398631
501.0, 0.11843331342701767
502.0, 0.10114549391573499
503.0, 0.023222321830886912
504.0, 0.022857664456453465
505.0, 0.08431473757186193
506.0, 0.12664932778996132
507.0, 0.12959299432846216
508.0, 0.13506572046561222
509.0, 0.1366865806085764
510.0, 0.12809767320577287
511.0, 0.1372000201363113
512.0, 0.11504077394445192
513.0, 0.0876315310170879
514.0, 0.09501008229840854
515.0, 0.122334936922675
516.0, 0.051895715123980994
517.0, 0.07748844593802803
518.0, 0.04592849273573043
519.0, 0.0671917716922796
520.0, 0.12649195775385635
521.0, 0.10604846089383257
522.0, 0.10163937515742502
523.0, 0.1002730802195292
524.0, 0.10598732536729723
525.0, 0.1127777521170175
526.0, 0.1311261109229841
527.0, 0.145522449967128
528.0, 0.1059023486346584
529.0, 0.10039648610731591
530.0, 0.15754365237406584
531.0, 0.10925060655207966
532.0, 0.06485894034244062
533.0, 0.053011065765395646
534.0, 0.03869253358569177
535.0, 0.07634925262567363
536.0, 0.06675625994086952
537.0, 0.11877992028587485
538.0, 0.12253034576540096
539.0, 0.12447531951306415
540.0, 0.13202526949803187
541.0, 0.07536062489812367
542.0, 0.05715925834711233
543.0, 0.047319806476321315
544.0, 0.10293021027949728
545.0, 0.09016323603367173
546.0, 0.08219514237607436
547.0, 0.1529993305673738
548.0, 0.160576879569671
549.0, 0.07901375214187223
550.0, 0.11587061004294577
551.0, 0.05832937190131998
552.0, 0.07357239928657583
553.0, 0.1169316130295873
554.0, 0.031017379396702772
555.0, 0.006812698435638303
556.0, 0.005148898789621614
557.0, 0.1312402007454016
558.0, 0.12539458697365274
559.0, 0.08159998910353135
560.0, 0.11064910717662119
561.0, 0.1693267175326507
562.0, 0.08848114643279742
563.0, 0.08484893052197531
564.0, 0.046065734470329495
565.0, 0.050638464277268556
566.0, 0.052408847256936654
567.0, 0.04433784456917832
568.0, 0.13976632166943015
569.0, 0.05531014658861415
570.0, 0.11057241496056434
571.0, 0.13693416686932883
572.0, 0.19210457558684318
573.0, 0.23163696214792262
574.0, 0.1779930958191996
575.0, 0.07818872880230707
576.0, 0.12368103402134266
577.0, 0.10289489451765756
578.0, 0.063810845562029
579.0, 0.08418168656585563
580.0, 0.13497417516799776
581.0, 0.15058055052563069
582.0, 0.22483591595516086
583.0, 0.2745288346292526
584.0, 0.1959598475015033
585.0, 0.1271198550127634
586.0, 0.1744441948220988
587.0, 0.22612595905758914
588.0, 0.1027812334191732
589.0, 0.12124935766802851
590.0, 0.044030295289497014
591.0, 0.022898004481813977
592.0, 0.04342757732979872
593.0, 0.08652566302945966
594.0, 0.09547088027214859
595.0, 0.02826386797549231
596.0, 0.1028612561714167
597.0, 0.13828423291425432
598.0, 0.1066037727090472
599.0, 0.1283368720027822
600.0, 0.12474833539629517
601.0, 0.11156651803688122
602.0, 0.24560729164852035
603.0, 0.061040705176685486
604.0, 0.05630725765262007
605.0, 0.22670603680909215
606.0, 0.1597884909618499
607.0, 0.056010045973688805
608.0, 0.14158662422311158
609.0, 0.20437415617450405
610.0, 0.09217256469261319
611.0, 0.14109296352074555
612.0, 0.2049520653054252
613.0, 0.12590283999965343
614.0, 0.1027743523774049
615.0, 0.20986122422461406
616.0, 0.12535626042092063
617.0, 0.142594117534105
618.0, 0.10747201353650154
619.0, 0.07900717179820861
620.0, 0.09533576710254844
621.0, 0.12958908002967
622.0, 0.13914329715370966
623.0, 0.11937423877405326
624.0, 0.11191103072510658
625.0, 0.14763260232880185
626.0, 0.15974580582114525
627.0, 0.18096262758036202
628.0, 0.21823409877105773
629.0, 0.23313982459571173
630.0, 0.16823853235094793
631.0, 0.08042093450313503
632.0, 0.03492075667954374
633.0, 0.07493018977579295
634.0, 0.1494880497640404
635.0, 0.1811615418658144
636.0, 0.13408145937823818
637.0, 0.06663589862486932
638.0, 0.1713723846235393
639.0, 0.1518867807427405
640.0, 0.14572552242474737
641.0, 0.15638493290824915
642.0, 0.1617042806600895
643.0, 0.15977763396200426
644.0, 0.17327193795317522
645.0, 0.16944733684809155
646.0, 0.20642930391225697
647.0, 0.2005124303150664
648.0, 0.21559898929886595
649.0, 0.21790474090036122
650.0, 0.18243503768159675
651.0, 0.13940485845011788
652.0, 0.10112554379306733
653.0, 0.062196553117629685
654.0, 0.05792355508421051
655.0, 0.08957041693638064
656.0, 0.10337788877161315
657.0, 0.10435432409140025
658.0, 0.12657114121133559
659.0, 0.07706353311945224
660.0, 0.1481437271665013
661.0, 0.10197723126380179
662.0, 0.15686846758995293
663.0, 0.13926756288883885
664.0, 0.06105095077911695
665.0, 0.07240097604831863
666.0, 0.1134412257505747
667.0, 0.1995300201791102
668.0, 0.1180662027379174
669.0, 0.07931767799400602
670.0, 0.12950346052727096
671.0, 0.19207978979442797
672.0, 0.19964771671483938
673.0, 0.20164549024566447
674.0, 0.2174053707113096
675.0, 0.20541556854015156
676.0, 0.1858145317806242
677.0, 0.18074233894380054
678.0, 0.1746201022949629
679.0, 0.16466232879239678
680.0, 0.17388069107106519
681.0, 0.16269816992731295
682.0, 0.14222538886711217
683.0, 0.1414713394635495
684.0, 0.11774271731179185
685.0, 0.08880574872396121
686.0, 0.07040452592949824
687.0, 0.06134467869883931
688.0, 0.07837187577589523
689.0, 0.19824246528727668
690.0, 0.13986149905999068
691.0, 0.10455654257049592
692.0, 0.06373565378817106
693.0, 0.12433051149881758
694.0, 0.24420241729345626
695.0, 0.03240185816676547
696.0, 0.06803214987756442
697.0, 0.19603734019619098
698.0, 0.10392262176464259
699.0, 0.058370213680088566
700.0, 0.06604741001224654
701.0, 0.08018911019822675
702.0, 0.1387275429306786
703.0, 0.17177876182568416
704.0, 0.07517611415087136
705.0, 0.11511204620761924
706.0, 0.21232455344828938
707.0, 0.18785185923539985
708.0, 0.0696331836370601
709.0, 0.04279619586217339
710.0, 0.17482267742450755
711.0, 0.08179725798103737
712.0, 0.21248880175387155
713.0, 0.24114583938447637
714.0, 0.1684960728765563
715.0, 0.10709663016899647
716.0, 0.09885679122712343
717.0, 0.07993502071371657
718.0, 0.11945307236518507
719.0, 0.09305213184122363
720.0, 0.0724216734031964
721.0, 0.11912408555106008
722.0, 0.13952819649566414
723.0, 0.17613554258578126
724.0, 0.25275196499493796
725.0, 0.11918475397432046
726.0, 0.05092330663381371
727.0, 0.23108306464454384
728.0, 0.2059716987526551
729.0, 0.14883523170157603
730.0, 0.14796587136540082
731.0, 0.1756362390920317
732.0, 0.16284317225516348
733.0, 0.07673816683540646
734.0, 0.16055948634020908
735.0, 0.10429747546449922
736.0, 0.1366624046377925
737.0, 0.19699719265499474
738.0, 0.21329560735291433
739.0, 0.17645125406081816
740.0, 0.13289755904345807
741.0, 0.22236525931430265
742.0, 0.14335126902385087
743.0, 0.09561623339951769
744.0, 0.09486727500210564
745.0, 0.0858802529745016
746.0, 0.08007391545996764
747.0, 0.1229517285367591
748.0, 0.14671454344517054
749.0, 0.07681018323864908
750.0, 0.15737229120605745
751.0, 0.2411706202415344
752.0, 0.22894695967330703
753.0, 0.18880512190263077
754.0, 0.15188816767234822
755.0, 0.06477130013912218
756.0, 0.04724004969426379
757.0, 0.06337346879793847
758.0, 0.030156625109596567
759.0, 0.09596211347923199
760.0, 0.0973251241178388
761.0, 0.12610102388847688
762.0, 0.20522136362853827
763.0, 0.10617269068076315
764.0, 0.19955686474752113
765.0, 0.1202344692536319
766.0, 0.08511576051328484
767.0, 0.18177565186933808
768.0, 0.2318084652006909
769.0, 0.21417637021179473
770.0, 0.24035406989662408
771.0, 0.30371576108938286
772.0, 0.12097056120245739
773.0, 0.12986259051814472
774.0, 0.09842623629795362
775.0, 0.14868834948873869
776.0, 0.1751651401104487
777.0, 0.1507909743916951
778.0, 0.12647642957572666
779.0, 0.0750637041294169
780.0, 0.19310393869649894
781.0, 0.15119257252034732
782.0, 0.27496873144994416
783.0, 0.2572220624252371
784.0, 0.19220520046729955
785.0, 0.18092515506562912
786.0, 0.17311563188969056
787.0, 0.12348081555285656
788.0, 0.13692452239983496
789.0, 0.23610524843049807
790.0, 0.18292362467772746
791.0, 0.14222323882784693
792.0, 0.0781622435503974
793.0, 0.03524256810464038
794.0, 0.102086638213496
795.0, 0.13641282185211803
796.0, 0.15861949656168403
797.0, 0.062163459937785034
798.0, 0.20443987580591327
799.0, 0.28942989744628067
800.0, 0.2407168478860788
801.0, 0.17434481110162914
802.0, 0.18167194854562385
803.0, 0.15616117689885553
804.0, 0.1267556071007242
805.0, 0.132076783582741
806.0, 0.07069817607106071
807.0, 0.09791823204541508
808.0, 0.2076270886055421
809.0, 0.24673805038167956
810.0, 0.16524171744478344
811.0, 0.18998036932567286
812.0, 0.17024433270748204
813.0, 0.08643423482835905
814.0, 0.1535303503100679
815.0, 0.0875011493117108
816.0, 0.07262895441322377
817.0, 0.13763263730393724
818.0, 0.15972945723834167
819.0, 0.1791431403961812
820.0, 0.20913364330552517
821.0, 0.2170925490883011
822.0, 0.1976377160178233
823.0, 0.22069401906149666
824.0, 0.22574652847287627
825.0, 0.2138629374621413
826.0, 0.20080790278105992
827.0, 0.15101333210975812
828.0, 0.11615276056585253
829.0, 0.06838484783165781
830.0, 0.0625348414654548
831.0, 0.04739331947930692
832.0, 0.1010644627113432
833.0, 0.16296177080122337
834.0, 0.15287020383338723
835.0, 0.1055017796461942
836.0, 0.12248100906405224
837.0, 0.17789814496307652
838.0, 0.13442836667603694
839.0, 0.10623315806698191
840.0, 0.21235741314994505
841.0, 0.2234088571981301
842.0, 0.1011908523641787
843.0, 0.07063318829964835
844.0, 0.17910715524960913
845.0, 0.1588766237138628
846.0, 0.24159835831902346
847.0, 0.1563787619933133
848.0, 0.0892126959705363
849.0, 0.057199641688541844
850.0, 0.047931150223257286
851.0, 0.08534289473183575
852.0, 0.18064686803234892
853.0, 0.21311042261423402
854.0, 0.21611762282784924
855.0, 0.09751532573767652
856.0, 0.08884316955979805
857.0, 0.10804953998080101
858.0, 0.11292316768013608
859.0, 0.12105574017284831
860.0, 0.13001331268653316
861.0, 0.09502647117784312
862.0, 0.2538393109746102
863.0, 0.3100437596263782
864.0, 0.29758958844315647
865.0, 0.22648206411714566
866.0, 0.19666965402270575
867.0, 0.23032046607354298
868.0, 0.2640493842622227
869.0, 0.25112826772883134
870.0, 0.2310382095129242
871.0, 0.16916804507731173
872.0, 0.09869576423474061
873.0, 0.13267014702731622
874.0, 0.24879170713927
875.0, 0.24717520938383003
876.0, 0.14258976056492764
877.0, 0.1645599892902808
878.0, 0.3083894953121707
879.0, 0.22063892131999668
880.0, 0.2143706640524127
881.0, 0.21036562561136107
882.0, 0.16737994595206984
883.0, 0.11968495344761836
884.0, 0.0822505120516067
885.0, 0.04914705143047328
886.0, 0.02360567919948414
887.0, 0.015761707039366392
888.0, 0.021704819432289232
889.0, 0.009093574567048367
890.0, 0.05295580140329571
891.0, 0.09631871628975891
892.0, 0.15554434239357046
893.0, 0.1676017871653031
894.0, 0.13204762288370914
895.0, 0.21522858736507003
896.0, 0.304995767720523
897.0, 0.22764945543688206
898.0, 0.2963510330330068
899.0, 0.13976571296145626
900.0, 0.19847480598516629
901.0, 0.28208861148779274
902.0, 0.20330439583854745
903.0, 0.10885813900958002
904.0, 0.14850715682738824
905.0, 0.2622663938987344
906.0, 0.18580697050355355
907.0, 0.13874892521086513
908.0, 0.19888528807118938
909.0, 0.2108513610598329
910.0, 0.11385090462609683
911.0, 0.1337006672958536
912.0, 0.34606149323590507
913.0, 0.23658428918852714
914.0, 0.07987767811517285
915.0, 0.11531759838967263
916.0, 0.07315177895834579
917.0, 0.0698729372234476
918.0, 0.07537367026096632
919.0, 0.06543955582556797
920.0, 0.061515438699715846
921.0, 0.09771071943825055
922.0, 0.1631714822336416
923.0, 0.1691637362856498
924.0, 0.21682673866484148
925.0, 0.1962182939115514
926.0, 0.0847483326552883
927.0, 0.038342470869652666
928.0, 0.027194930296292778
929.0, 0.015968550083740433
930.0, 0.048744634306369314
931.0, 0.10480498437356738
932.0, 0.1260459674710058
933.0, 0.13727059009038672
934.0, 0.0633554083469795
935.0, 0.1410174257460817
936.0, 0.13943898324685614
937.0, 0.05777133511983176
938.0, 0.044082527951065514
939.0, 0.09611366191584819
940.0, 0.04519359451640899
941.0, 0.14712396255059412
942.0, 0.17201586278034517
943.0, 0.32557135636715295
944.0, 0.365682599813147
945.0, 0.25273993796768746
946.0, 0.2606503013495814
947.0, 0.32761341319191284
948.0, 0.2347668691777456
949.0, 0.12929455261789174
950.0, 0.24866150307133442
951.0, 0.2993554727764954
952.0, 0.1208241751931376
953.0, 0.27166312395972664
954.0, 0.2921816456564257
955.0, 0.285633006446063
956.0, 0.27136348705199337
957.0, 0.23488542511923832
958.0, 0.3148806434768161
959.0, 0.4859874529249943
960.0, 0.5993217346114553
961.0, 0.5880507501652638
962.0, 0.7097765636652856
963.0, 0.9142261604986106
964.0, 0.9144881360116434
965.0, 0.8463093764807528
966.0, 0.8340620982365603
967.0, 0.7422464019277422
968.0, 0.5317970353975214
969.0, 0.5577644343547433
970.0, 0.41993155489119055
971.0, 0.2534774568687223
972.0, 0.3119208878701176
973.0, 0.24053228498418783
974.0, 0.2843872949112942
975.0, 0.25292023380720763
976.0, 0.05794202237405461
977.0, 0.1483046785603341
978.0, 0.22996698604897717
979.0, 0.17073313410333935
980.0, 0.16158425036725035
981.0, 0.14680085417582206
982.0, 0.1783886458083806
983.0, 0.1351160650999588
984.0, 0.1186604623127366
985.0, 0.15458942391787667
986.0, 0.13805883691934528
987.0, 0.11675866918406036
988.0, 0.23679639920444073
989.0, 0.1704472897826595
990.0, 0.07522355721281582
991.0, 0.016592891523386687
992.0, 0.11591715384044846
993.0, 0.14922341045925316
994.0, 0.16387218188058933
995.0, 0.19247230911939328
996.0, 0.1063072971471618
997.0, 0.04106373967410048
998.0, 0.1443636581427009
999.0, 0.1817904103563656
1000.0, 0.290535595170947
1001.0, 0.17108322458732667
1002.0, 0.09447856723016097
1003.0, 0.18667710459786763
1004.0, 0.23391009068265944
1005.0, 0.16397026040831336
1006.0, 0.1605746529975733
1007.0, 0.08553885707241779
1008.0, 0.08399178455686211
1009.0, 0.2887677410429716
1010.0, 0.23134761037162865
1011.0, 0.08531984929430253
1012.0, 0.09088072220117606
1013.0, 0.06768061717470394
1014.0, 0.057596323221021345
1015.0, 0.1696704491733148
1016.0, 0.23479340807375682
1017.0, 0.18032347028080667
1018.0, 0.1541693928975397
1019.0, 0.13301083245624212
1020.0, 0.25501431985776046
1021.0, 0.21421671909087386
1022.0, 0.25228918367048075
1023.0, 0.22524297902285334
1024.0, 0.2048900342569025
1025.0, 0.2018511481970247
1026.0, 0.06127490417972293
1027.0, 0.19070279855310268
1028.0, 0.11910192372615652
1029.0, 0.08004098303767784
1030.0, 0.04320610589116284
1031.0, 0.011421909705171015
1032.0, 0.007170311101864675
1033.0, 0.049943215699110456
1034.0, 0.091654161344773
1035.0, 0.16600171350670168
1036.0, 0.32069733253908284
1037.0, 0.3528320273056973
1038.0, 0.24894165747208546
1039.0, 0.259989167326424
1040.0, 0.17107908325650806
1041.0, 0.07471886691496994
1042.0, 0.19746967457556835
1043.0, 0.18137890620005717
1044.0, 0.2684709346100061
1045.0, 0.32577383712921737
1046.0, 0.0825086932465758
1047.0, 0.15616153887435885
1048.0, 0.029394302243388487
1049.0, 0.301702596336046
1050.0, 0.2982977837655877
1051.0, 0.13492797879771604
1052.0, 0.06631582788666678
1053.0, 0.07151033373244206
1054.0, 0.15624240973243225
1055.0, 0.30951318354479573
1056.0, 0.3010315361833674
1057.0, 0.05853633450077837
1058.0, 0.26201914909687646
1059.0, 0.22316752610554402
1060.0, 0.024092556331217443
1061.0, 0.05347692722798812
1062.0, 0.05954088652812116
1063.0, 0.04867649033604965
1064.0, 0.07882545396334827
1065.0, 0.12309617582602161
1066.0, 0.1863563287596234
1067.0, 0.23830380369093576
1068.0, 0.1513979254590619
1069.0, 0.1618145186566581
1070.0, 0.09425653307766808
1071.0, 0.02461156756424024
1072.0, 0.19339812994172353
1073.0, 0.132122382568491
1074.0, 0.2051593939517301
1075.0, 0.14138740663514743
1076.0, 0.01735848096172503
1077.0, 0.05233553341432131
1078.0, 0.12967548826946568
1079.0, 0.2356210426488606
1080.0, 0.18102807162122753
1081.0, 0.18242084434568873
1082.0, 0.12784796378875557
1083.0, 0.283555057486074
1084.0, 0.2405682883320716
1085.0, 0.16138772411701605
1086.0, 0.1553179511663868
1087.0, 0.11548435643098683
1088.0, 0.021282497258685952
1089.0, 0.020765036435759696
1090.0, 0.07382470733333621
1091.0, 0.043163871960796504
1092.0, 0.03632690171416688
1093.0, 0.08034951313237633
1094.0, 0.048404338311032614
1095.0, 0.05679919289682875
1096.0, 0.1302650804495998
1097.0, 0.14887626430799597
1098.0, 0.17002006497577524
1099.0, 0.20010038007971773
1100.0, 0.09880090459451549
1101.0, 0.02888747555260049
1102.0, 0.024441940663195987
1103.0, 0.022336332412301818
1104.0, 0.19431769795723322
1105.0, 0.12218275117365918
1106.0, 0.14744215806739652
1107.0, 0.14320326295888464
1108.0, 0.09653050824335788
1109.0, 0.07505703936673597
1110.0, 0.10244626071018721
1111.0, 0.1595554157496229
1112.0, 0.18433780156231172
1113.0, 0.04442398850686863
1114.0, 0.20120856786052546
1115.0, 0.0858988200138813
1116.0, 0.25314155894411217
1117.0, 0.12149066508886158
1118.0, 0.03692568519212271
1119.0, 0.0679586447746686
1120.0, 0.14649414389258356
1121.0, 0.1805999532908706
1122.0, 0.15111628720740114
1123.0, 0.17159850815681793
1124.0, 0.23688469813102936
1125.0, 0.23615309964735282
1126.0, 0.20987576542236522
1127.0, 0.23467171665926653
1128.0, 0.21884739289468175
1129.0, 0.220601158139813
1130.0, 0.21008300678467057
1131.0, 0.21050049393424686
1132.0, 0.2341903599893838
1133.0, 0.23695312750389624
1134.0, 0.21148263396433797
1135.0, 0.2307045199792825
1136.0, 0.23164868424110108
1137.0, 0.27006830000665344
1138.0, 0.22154785803505445
1139.0, 0.26710602667720096
1140.0, 0.24739122558219895
1141.0, 0.19391610448300758
1142.0, 0.15205022829331838
1143.0, 0.12043275625143536
1144.0, 0.08946031453884505
1145.0, 0.080929824453341
1146.0, 0.11676687378493371
1147.0, 0.1614777904558877
1148.0, 0.17995843829671848
1149.0, 0.16500433020889496
1150.0, 0.1648492013852195
1151.0, 0.16718711699557895
1152.0, 0.10204326671080156
1153.0, 0.11299813666473218
1154.0, 0.1020318827724071
1155.0, 0.1772885818329809
1156.0, 0.24411750610638525
1157.0, 0.19780090427693783
1158.0, 0.1846112344379066
1159.0, 0.03751135592577462
1160.0, 0.16276975296551116
1161.0, 0.00964465389941542
1162.0, 0.05756474706299189
1163.0, 0.06514723715081831
1164.0, 0.09029169114791735
1165.0, 0.1759147190175186
1166.0, 0.12890187518003027
1167.0, 0.12299978371434087
1168.0, 0.16950602635992454
1169.0, 0.11864713977885727
1170.0, 0.15887590300113727
1171.0, 0.4434046094954994
1172.0, 0.3395681419835608
1173.0, 0.3079584381399438
1174.0, 0.15816428846789518
1175.0, 0.46734451457803666
1176.0, 0.4223796378969229
1177.0, 0.27062306274572245
1178.0, 0.2095064426626416
1179.0, 0.12035405947073156
1180.0, 0.11408466553658793
1181.0, 0.163469974954771
1182.0, 0.13586686671846426
1183.0, 0.19623843496315668
1184.0, 0.027625294946010057
1185.0, 0.14559467732947057
1186.0, 0.3123105872208528
1187.0, 0.23335890275074284
1188.0, 0.23318071148857125
1189.0, 0.27263437457561407
1190.0, 0.32660062945219354
1191.0, 0.14932614785476028
1192.0, 0.1456995817671912
1193.0, 0.17160649638082476
1194.0, 0.04819762984933086
1195.0, 0.14269062668357826
1196.0, 0.16025445379372671
1197.0, 0.21823268546285618
1198.0, 0.4801611179314154
1199.0, 0.08944426641006112
1200.0, 0.1925889859964919
1201.0, 0.09932529430112377
1202.0, 0.21224843244779906
1203.0, 0.32264469861793854
1204.0, 0.2306776679717268
1205.0, 0.2746791662411674
1206.0, 0.37158508099676935
1207.0, 0.3200680336966027
1208.0, 0.3760430228997477
1209.0, 0.4120345337277599
1210.0, 0.299456767680532
1211.0, 0.36036059293963935
1212.0, 0.23789682111870689
1213.0, 0.3597501959240995
1214.0, 0.24969739719974413
1215.0, 0.10623662202875644
1216.0, 0.1907575465698346
1217.0, 0.2318546189559755
1218.0, 0.30341141775066877
1219.0, 0.32994801532924317
1220.0, 0.2804594061865181
1221.0, 0.34237350159341534
1222.0, 0.35414119310894937
1223.0, 0.3734888351958515
1224.0, 0.25050526169775666
1225.0, 0.2054907672229843
1226.0, 0.13915476851553263
1227.0, 0.1631232735085674
1228.0, 0.29395983196556463
1229.0, 0.30037560076207986
1230.0, 0.2958144452722774
1231.0, 0.3060753841942122
1232.0, 0.2931576774561244
1233.0, 0.30035846944044947
1234.0, 0.317562454591096
1235.0, 0.30416930019769206
1236.0, 0.3369284155490498
1237.0, 0.05748474764842201
1238.0, 0.34014221821629076
1239.0, 0.15330958060950634
1240.0, 0.27834385557776703
1241.0, 0.3270438632210428
1242.0, 0.29652752724180664
1243.0, 0.46902958681031115
1244.0, 0.3211769902250259
1245.0, 0.24092848915377102
1246.0, 0.3535528731280873
1247.0, 0.4361209517277094
1248.0, 0.49462222857993143
1249.0, 0.4376751047054488
1250.0, 0.25968438991159815
1251.0, 0.4592420458101572
1252.0, 0.35104865271944846
1253.0, 0.29369842727280976
1254.0, 0.42869254983971994
1255.0, 0.23133067623715117
1256.0, 0.19577806321879285
1257.0, 0.14158855257831132
1258.0, 0.07420440455664899
1259.0, 0.14628493576789128
1260.0, 0.13261293017774997
1261.0, 0.08524598923549029
1262.0, 0.1465883262919257
1263.0, 0.14096511962971192
1264.0, 0.2867782163292802
1265.0, 0.3226086279354226
1266.0, 0.4444875864216793
1267.0, 0.25760191711117314
1268.0, 0.19675494180367115
1269.0, 0.25755960987174
1270.0, 0.24827884124866098
1271.0, 0.2836634574357068
1272.0, 0.1084151163988228
1273.0, 0.10571509392117173
1274.0, 0.10452190832215169
1275.0, 0.02015958547520323
1276.0, 0.037737713314912304
1277.0, 0.12518843231943844
1278.0, 0.18006127741395134
1279.0, 0.12407875555230027
1280.0, 0.05080854222913385
1281.0, 0.1974422123798707
1282.0, 0.05148271448448839
1283.0, 0.06152062240140645
1284.0, 0.12039894112105978
1285.0, 0.06525539391555268
1286.0, 0.1418613882841694
1287.0, 0.08562763880294091
1288.0, 0.11294365088368472
1289.0, 0.2045333463928892
1290.0, 0.33204151592413794
1291.0, 0.3378397925570391
1292.0, 0.13660215527773956
1293.0, 0.13601666928755657
1294.0, 0.23217741457940028
1295.0, 0.03415793200091507
1296.0, 0.18427930526919495
1297.0, 0.28027591750288944
1298.0, 0.12218429287007931
1299.0, 0.02484545274295917
1300.0, 0.04232293702663643
1301.0, 0.15133499551276527
1302.0, 0.06352989254119451
1303.0, 0.09223022686586037
1304.0, 0.1854536213596822
1305.0, 0.18947510281827804
1306.0, 0.13831989606921824
1307.0, 0.07943098414457413
1308.0, 0.04561658100246434
1309.0, 0.11682376942330994
1310.0, 0.2336019800206377
1311.0, 0.2311186316560222
1312.0, 0.1030031873009808
1313.0, 0.11619465087254498
1314.0, 0.1176914530592953
1315.0, 0.11078223244660303
1316.0, 0.26476059666311585
1317.0, 0.37369053148159875
1318.0, 0.3572902406812059
1319.0, 0.3017374715988132
1320.0, 0.29329324647198124
1321.0, 0.3640971364386496
1322.0, 0.33503764533975144
1323.0, 0.3327339390896116
1324.0, 0.4268475099335771
1325.0, 0.23044726287226505
1326.0, 0.43085879298871865
1327.0, 0.25616464746488865
1328.0, 0.6464008398774993
1329.0, 0.6530600965430083
1330.0, 0.6556611871775218
1331.0, 0.5258361934177762
1332.0, 0.31975496657604835
1333.0, 0.20922083513240766
1334.0, 0.30959164455269694
1335.0, 0.40552961386875636
1336.0, 0.4601025377687879
1337.0, 0.46552734453249794
1338.0, 0.36693548267598325
1339.0, 0.43940602427036723
1340.0, 0.7251368608569703
1341.0, 0.6885653416990907
1342.0, 0.40408206356663995
1343.0, 0.320288358821345
1344.0, 0.26134031586711326
1345.0, 0.5475129450298286
1346.0, 0.4555513700077345
1347.0, 0.48212819270538865
1348.0, 0.5981643011220058
1349.0, 0.5415970845685141
1350.0, 0.405436891662918
1351.0, 0.3669031596615973
1352.0, 0.36276351889671277
1353.0, 0.3184576924500642
1354.0, 0.2531332079080033
1355.0, 0.3377777866275941
1356.0, 0.3963771667446584
1357.0, 0.44956913094971374
1358.0, 0.5830833686257925
1359.0, 0.311461560043032
1360.0, 0.2667594908744887
1361.0, 0.45962051159647466
1362.0, 0.3782138573797459
1363.0, 0.6617505914029665
1364.0, 0.33970763865996245
1365.0, 0.32585942925376404
1366.0, 0.28570499647319586
1367.0, 0.3233996411437528
1368.0, 0.2645059627582059
1369.0, 0.4527021230142992
1370.0, 0.5284165101261348
1371.0, 0.38742279665959767
1372.0, 0.4296888135509287
1373.0, 0.5093162358905566
1374.0, 0.4020200718223046
1375.0, 0.38720699022447325
1376.0, 0.40881685059529965
1377.0, 0.1724845100156359
1378.0, 0.20228432003112323
1379.0, 0.3676506618124108
1380.0, 0.14314510824728321
1381.0, 0.4014739032197132
1382.0, 0.47310610890577587
1383.0, 0.3497907275089912
1384.0, 0.3995525048547659
1385.0, 0.381804882416096
1386.0, 0.5128201027616053
1387.0, 0.31970561612020354
1388.0, 0.3347843946708101
1389.0, 0.6173451431727642
1390.0, 0.562013853093356
1391.0, 0.46193813146214463
1392.0, 0.47482173550216766
1393.0, 0.4254493278822714
1394.0, 0.39995426833291553
1395.0, 0.3909560110387329
1396.0, 0.3815011321451547
1397.0, 0.4639747017800653
1398.0, 0.2318604746946955
1399.0, 0.3079053535926294
1400.0, 0.5263504645909695
1401.0, 0.4885999723581916
1402.0, 0.6269631677990165
1403.0, 0.368327323475527
1404.0, 0.2883521274144097
1405.0, 0.51166740476675
1406.0, 0.38391720626124937
1407.0, 0.29802662934636215
1408.0, 0.3826377719464737
1409.0, 0.44942488863567587
1410.0, 0.5372538803973191
1411.0, 0.39733740292271374
1412.0, 0.2549908039982423
1413.0, 0.27882366454514923
1414.0, 0.22806844349374525
1415.0, 0.2531465348801007
1416.0, 0.3906302335472628
1417.0, 0.27623722618025764
1418.0, 0.3288736595151524
1419.0, 0.6018535020817573
1420.0, 0.35990048027796556
1421.0, 0.35864201879716445
1422.0, 0.613177434264538
1423.0, 0.16275215071965285
1424.0, 0.3606442638795367
1425.0, 0.5003753718687105
1426.0, 0.20173998002956753
1427.0, 0.520849468580529
1428.0, 0.5172829480309254
1429.0, 0.4316677440217261
1430.0, 0.4543482419748696
1431.0, 0.5541811611094466
1432.0, 0.31214821182768265
1433.0, 0.2732833814839601
1434.0, 0.40529432934835996
1435.0, 0.36327861678014406
1436.0, 0.44513566225715057
1437.0, 0.4062266166251846
1438.0, 0.39021996199893727
1439.0, 0.45077045887754114
1440.0, 0.30425006894033946
1441.0, 0.450151346820275
1442.0, 0.6127856571428398
1443.0, 0.5983452406598321
1444.0, 0.834903163207954
1445.0, 0.5276020618844609
1446.0, 0.3271800201061601
1447.0, 0.38945291284712225
1448.0, 0.4808447935603075
1449.0, 0.5573102848895471
1450.0, 0.48405282162253394
1451.0, 0.48165941967066955
1452.0, 0.4246747303273089
1453.0, 0.3357216513936281
1454.0, 0.3799269287114813
1455.0, 0.48566320376501837
1456.0, 0.5163598999449075
1457.0, 0.4523260765906486
1458.0, 0.3833166893209989
1459.0, 0.40753985914143265
1460.0, 0.509380269354994
1461.0, 0.5618160752399785
1462.0, 0.46536466182028347
1463.0, 0.5933222619525563
1464.0, 0.5939671348992439
1465.0, 0.3648933868477365
1466.0, 0.41043413138403856
1467.0, 0.17577854866896875
1468.0, 0.3610784863331077
1469.0, 0.4458543082405863
1470.0, 0.6761764582247938
1471.0, 0.5243810213938604
1472.0, 0.5126216460812353
1473.0, 0.4138877669907716
1474.0, 0.5568355865555369
1475.0, 0.35611914628621766
1476.0, 0.3127327110570013
1477.0, 0.30792111611500056
1478.0, 0.5284496729152708
1479.0, 0.549947760146192
1480.0, 0.4075884266762317
1481.0, 0.2983235042415196
1482.0, 0.18696694629207614
1483.0, 0.24257263690373365
1484.0, 0.3123765571004706
1485.0, 0.3004898083789671
1486.0, 0.4996143583153006
1487.0, 0.5815743164275062
1488.0, 0.3896603011517879
1489.0, 0.6079809486266018
1490.0, 0.4360312351987507
1491.0, 0.49942404847172794
1492.0, 0.49556639620393705
1493.0, 0.47918075812712346
1494.0, 0.4283585421231452
1495.0, 0.5613733355743878
1496.0, 0.3885492688285385
1497.0, 0.3361935989025961
1498.0, 0.24988636090147945
1499.0, 0.45361060629113376
1500.0, 0.5396695088992091
1501.0, 0.5371505473793784
1502.0, 0.4019723036281317
1503.0, 0.46246127422192296
1504.0, 0.5865506279162792
1505.0, 0.43030428021110584
1506.0, 0.3664792584699221
1507.0, 0.3919717740003433
1508.0, 0.3723953207819539
1509.0, 0.4807115092609721
1510.0, 0.38622268187650793
1511.0, 0.2710858903642326
1512.0, 0.4220013085531801
1513.0, 0.19507224604594725
1514.0, 0.3037255477665869
1515.0, 0.2920466014093769
1516.0, 0.4012899395627968
1517.0, 0.40005652277941994
1518.0, 0.36773109152505845
1519.0, 0.5413157252860666
1520.0, 0.21608419982318425
1521.0, 0.2078424526464637
1522.0, 0.6064211308864362
1523.0, 0.41563621447934895
1524.0, 0.24495402045131115
1525.0, 0.4264916639519712
1526.0, 0.2104096480711179
1527.0, 0.2750885327695649
1528.0, 0.4223874393495455
1529.0, 0.4319313011941916
1530.0, 0.3717627703851493
1531.0, 0.33368448896933706
1532.0, 0.3446083111820563
1533.0, 0.32666843293921777
1534.0, 0.3670992402654131
1535.0, 0.4637925199349295
1536.0, 0.29664415005142236
1537.0, 0.06663774515128414
1538.0, 0.1762773681228088
1539.0, 0.3438466228223476
1540.0, 0.22287997171237173
1541.0, 0.12446936246070082
1542.0, 0.17022906964031465
1543.0, 0.2501586715344056
1544.0, 0.4328233120036212
1545.0, 0.3249089033147935
1546.0, 0.1669223621461945
1547.0, 0.14965199317040154
1548.0, 0.4652192697850774
1549.0, 0.37697841634940227
1550.0, 0.4881799439808065
1551.0, 0.27923890468011164
1552.0, 0.32429765435947044
1553.0, 0.1608092842517151
1554.0, 0.3230901912767679
1555.0, 0.33778398864386594
1556.0, 0.23963510893507914
1557.0, 0.3626985445273797
1558.0, 0.1555194459970239
1559.0, 0.25300874057377476
1560.0, 0.10029992644813059
1561.0, 0.09216710167539151
1562.0, 0.2909999012232491
1563.0, 0.24726973497420676
1564.0, 0.2920993384482153
1565.0, 0.08078718310802215
1566.0, 0.16705496530055075
1567.0, 0.19212791528676637
1568.0, 0.17963718314451582
1569.0, 0.1443977043073806
1570.0, 0.049755695048100415
1571.0, 0.0019142448052612148
1572, 0.0
1573, 0.0
1574, 0.0
1575, 0.0
1576, 0.0
1577, 0.0
1578, 0.0
1579, 0.0
1580, 0.0
1581, 0.0
1582, 0.0
1583, 0.0
1584, 0.0
1585, 0.0
1586, 0.0
1587, 0.0
1588, 0.0
1589, 0.0
1590, 0.0
1591, 0.0
1592, 0.0
1593, 0.0
1594, 0.0
1595, 0.0
1596, 0.0
1597, 0.0
1598, 0.0
1599, 0.0
