30, 0.0
31, 0.0
32, 0.0
33, 0.0
34, 0.0
35, 0.0
36, 0.0
37, 0.0
38, 0.0
39, 0.0
40, 0.0
41, 0.0
42, 0.0
43, 0.0
44, 0.0
45, 0.0
46, 0.0
47, 0.0
48, 0.0
49, 0.0
50, 0.0
51, 0.0
52, 0.0
53, 0.0
54, 0.0
55, 0.0
56, 0.0
57, 0.0
58, 0.0
59, 0.0
60, 0.0
61, 0.0
62, 0.0
63, 0.0
64, 0.0
65, 0.0
66, 0.0
67, 0.0
68, 0.0
69, 0.0
70, 0.0
71, 0.0
72, 0.0
73, 0.0
74, 0.0
75, 0.0
76, 0.0
77, 0.0
78, 0.0
79, 0.0
80, 0.0
81, 0.0
82, 0.0
83, 0.0
84, 0.0
85, 0.0
86, 0.0
87, 0.0
88, 0.0
89, 0.0
90, 0.0
91, 0.0
92, 0.0
93, 0.0
94, 0.0
95, 0.0
96, 0.0
97, 0.0
98, 0.0
99, 0.0
100, 0.0
101, 0.0
102, 0.0
103, 0.0
104, 0.0
105, 0.0
106, 0.0
107, 0.0
108, 0.0
109, 0.0
110, 0.0
111, 0.0
112, 0.0
113, 0.0
114, 0.0
115, 0.0
116, 0.0
117, 0.0
118, 0.0
119, 0.0
120, 0.0
121, 0.0
122, 0.0
123, 0.0
124, 0.0
125, 0.0
126, 0.0
127, 0.0
128, 0.0
129, 0.0
130, 0.0
131, 0.0
132, 0.0
133, 0.0
134, 0.0
135, 0.0
136, 0.0
137.0, 2.668687516755241e-05
138.0, 7.284346550476032e-05
139.0, 3.95732051543715e-05
140.0, 0.05470157504522241
141.0, 0.040250774132295566
142.0, 0.02808246875565255
143.0, 0.03977624196838117
144.0, 0.03856793582220383
145.0, 0.0493147316936617
146.0, 0.020352230072814
147.0, 0.005929980297754382
148.0, 0.018380670575415183
149.0, 0.05009049377218121
150.0, 0.08721679791056128
151.0, 0.07710860126035327
152.0, 0.05485700789239392
153.0, 0.04158412107267621
154.0, 0.042423797952314726
155.0, 0.03987001027380346
156.0, 0.019581685680980544
157.0, 0.0848669452296719
158.0, 0.0902069192939701
159.0, 0.04227723894611168
160.0, 0.03535772503937539
161.0, 0.05383943968823923
162.0, 0.01901259812250723
163.0, 0.022122420156667693
164.0, 0.03365465265153601
165.0, 0.024395364735752895
166.0, 0.03143579207543232
167.0, 0.04258695628374464
168.0, 0.08177993208417152
169.0, 0.06816353621442073
170.0, 0.03485276639031097
171.0, 0.09024487567597672
172.0, 0.019841127730273342
173.0, 0.005058723812790808
174.0, 0.0260150642083377
175.0, 0.03914662440548992
176.0, 0.020671886871877224
177.0, 0.02819796012327703
178.0, 0.031211599111766575
179.0, 0.03162552652626252
180.0, 0.036492781740362995
181.0, 0.04990962827802046
182.0, 0.06991739434215608
183.0, 0.05653629657023047
184.0, 0.05200895940192009
185.0, 0.048523543487907106
186.0, 0.05522365500541018
187.0, 0.07204300504838868
188.0, 0.047600496033599
189.0, 0.07373534045490213
190.0, 0.08081590892628505
191.0, 0.05756033540743868
192.0, 0.027737519064702537
193.0, 0.03997000328256845
194.0, 0.03432788024726921
195.0, 0.04792590134960057
196.0, 0.0660667809179976
197.0, 0.07535571719925982
198.0, 0.07575701286021408
199.0, 0.1088649794506638
200.0, 0.08479243159612626
201.0, 0.06212234320813362
202.0, 0.06469773752399563
203.0, 0.07442487783085106
204.0, 0.0433430087344082
205.0, 0.07527337950790904
206.0, 0.0637033395372121
207.0, 0.07179965305644893
208.0, 0.09060949782493725
209.0, 0.10029799332001361
210.0, 0.12194227964927701
211.0, 0.06787086615153368
212.0, 0.05965779445611544
213.0, 0.05396077552124446
214.0, 0.030897734847042765
215.0, 0.008625248716636044
216.0, 0.06689198790454003
217.0, 0.0588994946794902
218.0, 0.0683381210005586
219.0, 0.09207391811073132
220.0, 0.09101012534982314
221.0, 0.002405189795556602
222.0, 0.09103841482857757
223.0, 0.04765989954103958
224.0, 0.02842502603001503
225.0, 0.05284425071658091
226.0, 0.0473971482953445
227.0, 0.024408239066942186
228.0, 0.027888159934224093
229.0, 0.0539422734893061
230.0, 0.0749545325904328
231.0, 0.0786247611235766
232.0, 0.08206033948337751
233.0, 0.027007992404059697
234.0, 0.05620064772294042
235.0, 0.07057243590909501
236.0, 0.05835866846969852
237.0, 0.05505641962855236
238.0, 0.11271434354760795
239.0, 0.0832218711949185
240.0, 0.04968392209248165
241.0, 0.04716420056526552
242.0, 0.05650614620411126
243.0, 0.02222745676103222
244.0, 0.008296093323958136
245.0, 0.046833835571070785
246.0, 0.07243798790769268
247.0, 0.06317008211576194
248.0, 0.02672627516338573
249.0, 0.003656577808864931
250.0, 0.02160160169018008
251.0, 0.01777962183472477
252.0, 0.012468984919386042
253.0, 0.01801724585305119
254.0, 0.03867816373952778
255.0, 0.07106385828134656
256.0, 0.06843000096591269
257.0, 0.04577902658932694
258.0, 0.03761402915071587
259.0, 0.0438340104365933
260.0, 0.03174412513794214
261.0, 0.0507813795721271
262.0, 0.01981157598713719
263.0, 0.027133368733651044
264.0, 0.05991596945446657
265.0, 0.07653515412945525
266.0, 0.03956900160974299
267.0, 0.04218965412763699
268.0, 0.041654687393460316
269.0, 0.03779057744503333
270.0, 0.034533289509880646
271.0, 0.034762995206768524
272.0, 0.03022338627580973
273.0, 0.03692493363061002
274.0, 0.03296711261072241
275.0, 0.036941889045733256
276.0, 0.05206333557276806
277.0, 0.06496853471242957
278.0, 0.06860200290844658
279.0, 0.053225303451875275
280.0, 0.07121264304710356
281.0, 0.0675680431038213
282.0, 0.026875078741915477
283.0, 0.020763721255182877
284.0, 0.07416550670047992
285.0, 0.030956450867251573
286.0, 0.036915720713857944
287.0, 0.0750113492599544
288.0, 0.0847826374698143
289.0, 0.05207650286037054
290.0, 0.05116291697142748
291.0, 0.021366211473355146
292.0, 0.027219279748383472
293.0, 0.06509646561577288
294.0, 0.08818890499818863
295.0, 0.05123249441256071
296.0, 0.04888922609419839
297.0, 0.05941345895009456
298.0, 0.06484531019026915
299.0, 0.06446340734764949
300.0, 0.06448862216916988
301.0, 0.011973506029578574
302.0, 0.04817827375059746
303.0, 0.03873680477502572
304.0, 0.04512801250256711
305.0, 0.07405202502984169
306.0, 0.03635474639069983
307.0, 0.030410547563399157
308.0, 0.016859351313863773
309.0, 0.04384844310561479
310.0, 0.059804902820429155
311.0, 0.03919967405178912
312.0, 0.048101193446928966
313.0, 0.11911875803056572
314.0, 0.06304084933464933
315.0, 0.058373053024285276
316.0, 0.08321742675217698
317.0, 0.06541717092689478
318.0, 0.013656959539397235
319.0, 0.04810972026831672
320.0, 0.07853570360150397
321.0, 0.07677251549864492
322.0, 0.057759829071468045
323.0, 0.0510512648535581
324.0, 0.05870712516960411
325.0, 0.034175335814139826
326.0, 0.04036484593658999
327.0, 0.033094084036915154
328.0, 0.03159546788538218
329.0, 0.06824424615187513
330.0, 0.030664732152848116
331.0, 0.016290898321656845
332.0, 0.036674880030352935
333.0, 0.051617860515608946
334.0, 0.04501655856075028
335.0, 0.0322072955642153
336.0, 0.057693958007382515
337.0, 0.0627419597708049
338.0, 0.06089004479313347
339.0, 0.060488391403639555
340.0, 0.04816415244750959
341.0, 0.010642160362945838
342.0, 0.07650502822173144
343.0, 0.025489160285343912
344.0, 0.04741470451469492
345.0, 0.08266138373024057
346.0, 0.06808422181608834
347.0, 0.004487172296901584
348.0, 0.027938130673901176
349.0, 0.01300313732384001
350.0, 0.009161351273376599
351.0, 0.03276402917255066
352.0, 0.05160770532231431
353.0, 0.00439550842890748
354.0, 0.030092940635976888
355.0, 0.0608271166103629
356.0, 0.03447338134701396
357.0, 0.02140433624782017
358.0, 0.062298659021591915
359.0, 0.1108779065852171
360.0, 0.05113672988225172
361.0, 0.03879883118165852
362.0, 0.05950113331000261
363.0, 0.05852168697008293
364.0, 0.03128615664071149
365.0, 0.04442146776716769
366.0, 0.03754612145196175
367.0, 0.06270623815237417
368.0, 0.07224140956017447
369.0, 0.051037386965840995
370.0, 0.04497561106318949
371.0, 0.13619795488632494
372.0, 0.019764631239400803
373.0, 0.008779808190573585
374.0, 0.019963951991180732
375.0, 0.05117320058374086
376.0, 0.0736601466936729
377.0, 0.025747047968156807
378.0, 0.13895170714791782
379.0, 0.04403787251574228
380.0, 0.01801465056435287
381.0, 0.033219766102001544
382.0, 0.04327161157641852
383.0, 0.06515143895226637
384.0, 0.04892088279467523
385.0, 0.044945920865648595
386.0, 0.06186863883384907
387.0, 0.06671054696927242
388.0, 0.07216787070135659
389.0, 0.1239431734982443
390.0, 0.02324905045926686
391.0, 0.05687759636230556
392.0, 0.03474418983633488
393.0, 0.024076939955367065
394.0, 0.0674715847286745
395.0, 0.11586424735829065
396.0, 0.02216948388038801
397.0, 0.07495043093187265
398.0, 0.06683264215551625
399.0, 0.07045403090312825
400.0, 0.09282460614485263
401.0, 0.07149202043222028
402.0, 0.0867168766735501
403.0, 0.02047135949296071
404.0, 0.09173842987433653
405.0, 0.10763455853894302
406.0, 0.06609095722547115
407.0, 0.09720669829455918
408.0, 0.12404792551842132
409.0, 0.050142210419878944
410.0, 0.08362258879767238
411.0, 0.06632649450889921
412.0, 0.0270882814942112
413.0, 0.06849491133461982
414.0, 0.1085773105655433
415.0, 0.04527703086292273
416.0, 0.02687703859237119
417.0, 0.04589741039925068
418.0, 0.04610487423494079
419.0, 0.019454087064826167
420.0, 0.09947311239723622
421.0, 0.058589274067103125
422.0, 0.04301121832092278
423.0, 0.038390388667192785
424.0, 0.043450359873524025
425.0, 0.051978731856203636
426.0, 0.04557945853155261
427.0, 0.06668439337067839
428.0, 0.03771916299097635
429.0, 0.050707383821165956
430.0, 0.07985035859220915
431.0, 0.08046637001659378
432.0, 0.04123714807944753
433.0, 0.06600717841157189
434.0, 0.06468745100697992
435.0, 0.054917518095335294
436.0, 0.06500664755189887
437.0, 0.07174860920085954
438.0, 0.03415726864229031
439.0, 0.04592430127429327
440.0, 0.07105041488504872
441.0, 0.07226123527308044
442.0, 0.060578889843380106
443.0, 0.07947100233786691
444.0, 0.12229651417261805
445.0, 0.004341160725510884
446.0, 0.1089188862692024
447.0, 0.09620136395294775
448.0, 0.09542844150621241
449.0, 0.10346072021481274
450.0, 0.07846757134780226
451.0, 0.029191029255633816
452.0, 0.004443519511119714
453.0, 0.07656385897590375
454.0, 0.061555482850904314
455.0, 0.05599794592073932
456.0, 0.09751400663132448
457.0, 0.08259647052858954
458.0, 0.05908056072332456
459.0, 0.055907171728924794
460.0, 0.05918921213296959
461.0, 0.05900325288005257
462.0, 0.0695613123100677
463.0, 0.10276894044238893
464.0, 0.10174120222974489
465.0, 0.12340162668147622
466.0, 0.10287867277947198
467.0, 0.0747775192371729
468.0, 0.08427273046988684
469.0, 0.14059889057169128
470.0, 0.18068177265819826
471.0, 0.10312905041443043
472.0, 0.08269635064453237
473.0, 0.08371114357469664
474.0, 0.09447849232264924
475.0, 0.10404954748240065
476.0, 0.09328139613829252
477.0, 0.02643712287009018
478.0, 0.08985972457103805
479.0, 0.0822210809673454
480.0, 0.06531325036060023
481.0, 0.07367207101648297
482.0, 0.0948299388576167
483.0, 0.11128288747895583
484.0, 0.10679422241158214
485.0, 0.09478289499019192
486.0, 0.10367594463133474
487.0, 0.09439456452196412
488.0, 0.06345600940569252
489.0, 0.08322760740514773
490.0, 0.008660194929927638
491.0, 0.11877886636824238
492.0, 0.09695990377118138
493.0, 0.040634105362893046
494.0, 0.06775187654026456
495.0, 0.16913315632481363
496.0, 0.08805058681320589
497.0, 0.05383669692189168
498.0, 0.1335772564766537
499.0, 0.11224210309334966
500.0, 0.055730997433118594
501.0, 0.07154322600668556
502.0, 0.08268874087536576
503.0, 0.0925177958511817
504.0, 0.09304411407269982
505.0, 0.039469356435981276
506.0, 0.01460801421472881
507.0, 0.029509633465727415
508.0, 0.020329746169855653
509.0, 0.01196199575515568
510.0, 0.040699752607146394
511.0, 0.023026957816102353
512.0, 0.04833250180819655
513.0, 0.07854025519292474
514.0, 0.07747978960961216
515.0, 0.12101436893434361
516.0, 0.09380916680771732
517.0, 0.13897018396395525
518.0, 0.0702467381000159
519.0, 0.019413132325579154
520.0, 0.07041720914447509
521.0, 0.15294363962444024
522.0, 0.045688470661452506
523.0, 0.00999490618110568
524.0, 0.09333799643786897
525.0, 0.10488634197085156
526.0, 0.06316689762032938
527.0, 0.08012851424761457
528.0, 0.20182655567925878
529.0, 0.01888299613843926
530.0, 0.06020156524005002
531.0, 0.11114158342458355
532.0, 0.13072597287639742
533.0, 0.1377895051535048
534.0, 0.14685322275183077
535.0, 0.09607375515755343
536.0, 0.09016832868611294
537.0, 0.11316185036144315
538.0, 0.07996734160950027
539.0, 0.04371485230937845
540.0, 0.05896013489051624
541.0, 0.11128554059333651
542.0, 0.12648455287947527
543.0, 0.15353162685298197
544.0, 0.11981256999199333
545.0, 0.07341649672419588
546.0, 0.06041308272674743
547.0, 0.08942614107782133
548.0, 0.11697807338511129
549.0, 0.10055857704103564
550.0, 0.10615472112491106
551.0, 0.05198247427712737
552.0, 0.07351776103865769
553.0, 0.14931283007257395
554.0, 0.13534432643121977
555.0, 0.01642403482267333
556.0, 0.11930684880397674
557.0, 0.11786450598775652
558.0, 0.11093758930843685
559.0, 0.11110535479652156
560.0, 0.09272923740759995
561.0, 0.04589578410503668
562.0, 0.06973579801488623
563.0, 0.051626871562055414
564.0, 0.10763708644106595
565.0, 0.0993430759695415
566.0, 0.07755843549372268
567.0, 0.09848977870211312
568.0, 0.07599548472325957
569.0, 0.029069700202807715
570.0, 0.06455303257283769
571.0, 0.04145106905881929
572.0, 0.03399620189787498
573.0, 0.055380988916240693
574.0, 0.08307125151105971
575.0, 0.14315089339138773
576.0, 0.15600695561681027
577.0, 0.1555985266555211
578.0, 0.09576623399919008
579.0, 0.0897610292732848
580.0, 0.1251602791102377
581.0, 0.11155756496165521
582.0, 0.12033237611024666
583.0, 0.19129074354988085
584.0, 0.09102194968693533
585.0, 0.03731239832017614
586.0, 0.06151561780357542
587.0, 0.09991538227782029
588.0, 0.09141178102305526
589.0, 0.10693986972366504
590.0, 0.11331994103654794
591.0, 0.06171668025092838
592.0, 0.08259555248218234
593.0, 0.08751904043907892
594.0, 0.05048516288712276
595.0, 0.09043129175745507
596.0, 0.17745921479133048
597.0, 0.07244233243391711
598.0, 0.09087538236884271
599.0, 0.09306605699166527
600.0, 0.07264177385476098
601.0, 0.07272373180728998
602.0, 0.09639727816762642
603.0, 0.102100710526353
604.0, 0.14618207600917657
605.0, 0.1831887353113318
606.0, 0.23110508854140846
607.0, 0.1860499357884763
608.0, 0.07708462351556777
609.0, 0.12988611976786188
610.0, 0.016236597976050406
611.0, 0.06571698424723374
612.0, 0.10866868110370875
613.0, 0.08393167147120917
614.0, 0.04867876810088501
615.0, 0.05593471360542178
616.0, 0.06837104401161974
617.0, 0.10014231978593921
618.0, 0.06459217487561462
619.0, 0.10708782393514725
620.0, 0.12054779214696777
621.0, 0.10936289033379193
622.0, 0.10785859039400136
623.0, 0.08142169332386517
624.0, 0.02770579703972964
625.0, 0.1086280653900298
626.0, 0.0803146186255591
627.0, 0.11733569822237305
628.0, 0.17071724157427118
629.0, 0.13267468338199834
630.0, 0.04689893776435168
631.0, 0.07072352144718362
632.0, 0.10062751953280714
633.0, 0.08568795238003518
634.0, 0.08978910553893253
635.0, 0.12375105932026019
636.0, 0.13242349367670708
637.0, 0.06507563585307918
638.0, 0.15018492918472806
639.0, 0.06833919447056072
640.0, 0.11843190258686317
641.0, 0.13205798046173298
642.0, 0.11980073764702376
643.0, 0.13294411144210241
644.0, 0.14754695508406263
645.0, 0.16133635390567186
646.0, 0.16192631977870672
647.0, 0.114349515892273
648.0, 0.15693565519665834
649.0, 0.14660734094972425
650.0, 0.08886389560434124
651.0, 0.17270594789169738
652.0, 0.1365465377513883
653.0, 0.1312297694607462
654.0, 0.10625145409093292
655.0, 0.09807611822241419
656.0, 0.09460611660103913
657.0, 0.10643925615000603
658.0, 0.13750805626879983
659.0, 0.0684395146426706
660.0, 0.016167547478427958
661.0, 0.11534812898256536
662.0, 0.11845014711899958
663.0, 0.10647482003235911
664.0, 0.1385672895743205
665.0, 0.15888376188170006
666.0, 0.07989817934275747
667.0, 0.19230703119175513
668.0, 0.15171534969557363
669.0, 0.07132240907380757
670.0, 0.08586484184322535
671.0, 0.12283292676987607
672.0, 0.07831141494425098
673.0, 0.04244654736578625
674.0, 0.20088548483877317
675.0, 0.10909936248436078
676.0, 0.05655472920211034
677.0, 0.09656148512886895
678.0, 0.0970729297052421
679.0, 0.06601948367272713
680.0, 0.1785909389335195
681.0, 0.1222795970828595
682.0, 0.12137338003706015
683.0, 0.21725668491828248
684.0, 0.22075180510241071
685.0, 0.14697832104855713
686.0, 0.09975257088892886
687.0, 0.13092487576581133
688.0, 0.1288668490114657
689.0, 0.14464451438711814
690.0, 0.13456141623782059
691.0, 0.08361919368880678
692.0, 0.054762211339599395
693.0, 0.08754823890652827
694.0, 0.12564874466328105
695.0, 0.04675047269152717
696.0, 0.10940124643280671
697.0, 0.24313632179614897
698.0, 0.2060017075393005
699.0, 0.1473639845923902
700.0, 0.15992002398647864
701.0, 0.18358923094335322
702.0, 0.10626497392420073
703.0, 0.0856527400939869
704.0, 0.15477099153983725
705.0, 0.11214731822106944
706.0, 0.17668009183382488
707.0, 0.19866228729943985
708.0, 0.1374365471546799
709.0, 0.09915999071316606
710.0, 0.11475784629558344
711.0, 0.07064934446391113
712.0, 0.11462277878920767
713.0, 0.1758074153399533
714.0, 0.1640870628982292
715.0, 0.09729826662388354
716.0, 0.0688940608566302
717.0, 0.12062581284626941
718.0, 0.02066963055337928
719.0, 0.15453076230788565
720.0, 0.20491794759819681
721.0, 0.13279934731324214
722.0, 0.132000555564124
723.0, 0.14181457892578142
724.0, 0.029769376693819675
725.0, 0.018652437245339312
726.0, 0.10754714036728516
727.0, 0.16411412906586254
728.0, 0.13628281076191573
729.0, 0.13247516403536533
730.0, 0.12229228045467821
731.0, 0.09749633141314942
732.0, 0.13630030175037278
733.0, 0.2184056626383704
734.0, 0.09421546374903325
735.0, 0.1679963545912599
736.0, 0.18446223969004152
737.0, 0.1337281025802052
738.0, 0.0860604670018101
739.0, 0.07452676802120739
740.0, 0.056353769942410335
741.0, 0.06466017691385054
742.0, 0.09461829408322095
743.0, 0.151867611260141
744.0, 0.10450542235737795
745.0, 0.1342979766080591
746.0, 0.2105338957678859
747.0, 0.1627413193757209
748.0, 0.17682829116233018
749.0, 0.08402813500931439
750.0, 0.14115270582972989
751.0, 0.14058922537881238
752.0, 0.15518471691534041
753.0, 0.17857932214131603
754.0, 0.18385504540146902
755.0, 0.18011931867595152
756.0, 0.15544544379001263
757.0, 0.18983715399090698
758.0, 0.2041055908213805
759.0, 0.20472657146472067
760.0, 0.11699193928335427
761.0, 0.1044384895866566
762.0, 0.20306678423699395
763.0, 0.1283988376558286
764.0, 0.014738297308819495
765.0, 0.12458935785264902
766.0, 0.15217079610801837
767.0, 0.1486720788195795
768.0, 0.13870706246724226
769.0, 0.1096201317404155
770.0, 0.0944585611300255
771.0, 0.187766575813013
772.0, 0.18062312770572483
773.0, 0.07179687491489087
774.0, 0.14690410895528558
775.0, 0.19354548393873358
776.0, 0.1160688272678561
777.0, 0.03718661424607074
778.0, 0.09195014791185249
779.0, 0.15727171975903764
780.0, 0.08484471495864858
781.0, 0.06469441408365512
782.0, 0.12867752605104954
783.0, 0.10742856944327793
784.0, 0.13187847813799577
785.0, 0.14223496935921262
786.0, 0.022470698794638047
787.0, 0.07192201429131351
788.0, 0.21163622978997132
789.0, 0.1465233589698862
790.0, 0.08038820590070142
791.0, 0.12998138427930314
792.0, 0.10953678945808276
793.0, 0.022183499113355102
794.0, 0.05297789897586336
795.0, 0.14121469136559814
796.0, 0.05512262694156214
797.0, 0.04931102068552315
798.0, 0.12064717902576776
799.0, 0.12257728837160771
800.0, 0.10939056861575948
801.0, 0.12963031534171401
802.0, 0.13990241895332775
803.0, 0.10574960021463747
804.0, 0.2192867944431537
805.0, 0.13910720303606416
806.0, 0.16025474927672945
807.0, 0.20390487840494845
808.0, 0.19306893158568772
809.0, 0.18357952888194945
810.0, 0.2051945039180448
811.0, 0.09251821691989537
812.0, 0.07925150767029981
813.0, 0.0654383679533424
814.0, 0.04064080122674825
815.0, 0.03611227841582734
816.0, 0.04567863523167517
817.0, 0.09130843600270418
818.0, 0.16723338076836872
819.0, 0.18048089585531818
820.0, 0.11496686583251106
821.0, 0.13296614578621063
822.0, 0.040154732181087525
823.0, 0.05536946872339652
824.0, 0.13015076428901748
825.0, 0.12310268856835875
826.0, 0.09029323171731483
827.0, 0.23581971050664574
828.0, 0.1804353408528065
829.0, 0.02262199039514369
830.0, 0.15708036697839364
831.0, 0.2228115655639873
832.0, 0.17316898847560572
833.0, 0.0751670488411317
834.0, 0.08930187950600602
835.0, 0.24208042116370132
836.0, 0.05010528617641406
837.0, 0.03452348042243661
838.0, 0.17056315442216638
839.0, 0.16526353675836605
840.0, 0.18529908315552177
841.0, 0.1476576017130253
842.0, 0.0741081452830399
843.0, 0.11788927437344321
844.0, 0.21736004710473578
845.0, 0.1593090294287297
846.0, 0.1753828261501205
847.0, 0.24074956730219826
848.0, 0.13672824578160697
849.0, 0.0942643943635618
850.0, 0.14357301238795753
851.0, 0.13249533017844184
852.0, 0.09166317621865987
853.0, 0.3393365999852399
854.0, 0.08855983000854986
855.0, 0.05461185462314529
856.0, 0.22388407216886927
857.0, 0.21183949907486554
858.0, 0.1491759960293721
859.0, 0.17001910459168645
860.0, 0.16220052636053708
861.0, 0.1780965904023369
862.0, 0.10932045746133057
863.0, 0.12755056401035758
864.0, 0.12123073759012375
865.0, 0.11699191283560104
866.0, 0.23269224748623596
867.0, 0.2421836508940442
868.0, 0.09745660749088461
869.0, 0.21563746284815
870.0, 0.09477328014379346
871.0, 0.10476100369803794
872.0, 0.2024753600608977
873.0, 0.16380532306061027
874.0, 0.19931668674464734
875.0, 0.24798144608598885
876.0, 0.26789372474332307
877.0, 0.26404868991916913
878.0, 0.04451029963704348
879.0, 0.1955485852392892
880.0, 0.284735414002651
881.0, 0.10764153888456118
882.0, 0.14864650934735033
883.0, 0.13316441966649845
884.0, 0.06312219045711387
885.0, 0.15782512907564789
886.0, 0.32805295798027034
887.0, 0.07135998252012384
888.0, 0.0775990392622019
889.0, 0.13904632122691793
890.0, 0.13369553808278872
891.0, 0.10774115989896182
892.0, 0.06161524316889035
893.0, 0.03233354778172514
894.0, 0.06143921650377474
895.0, 0.1333687436338103
896.0, 0.26099049307573
897.0, 0.054607832028555695
898.0, 0.13415594123321076
899.0, 0.19837952937741404
900.0, 0.1422890371261767
901.0, 0.15092530736125928
902.0, 0.20834724239042243
903.0, 0.1581951517378077
904.0, 0.11485255052772879
905.0, 0.16920736867412145
906.0, 0.32897039577723475
907.0, 0.1092582166655414
908.0, 0.17082742950179874
909.0, 0.1720104902683828
910.0, 0.0958771044784987
911.0, 0.1214612365877982
912.0, 0.21495884332905701
913.0, 0.1291037281618426
914.0, 0.13677399092335668
915.0, 0.11765629150053987
916.0, 0.16776636623717303
917.0, 0.10021832635495122
918.0, 0.11511125267851853
919.0, 0.12089304453248971
920.0, 0.08240295411210699
921.0, 0.15374236703926442
922.0, 0.2878838615086403
923.0, 0.09178976328686526
924.0, 0.23340895582580018
925.0, 0.10355610444226017
926.0, 0.13447905621516323
927.0, 0.10845654973912949
928.0, 0.13946429986813533
929.0, 0.1851602561808882
930.0, 0.07512251757798204
931.0, 0.1077712239118483
932.0, 0.2637318372920813
933.0, 0.03705876276809503
934.0, 0.14451923524142274
935.0, 0.2610465506179067
936.0, 0.16432365215865266
937.0, 0.1874706633014888
938.0, 0.23657284606618692
939.0, 0.061313701601395904
940.0, 0.13778507120490005
941.0, 0.37052044846826915
942.0, 0.1260907275605251
943.0, 0.030614095951000203
944.0, 0.06857343889721423
945.0, 0.18877476718748412
946.0, 0.18186542868744443
947.0, 0.22102219114756752
948.0, 0.343924682804131
949.0, 0.12812907979163657
950.0, 0.13103459761445801
951.0, 0.26582105244186083
952.0, 0.16034116233289078
953.0, 0.12250001885948615
954.0, 0.19266873804821488
955.0, 0.13941417215564064
956.0, 0.06714935655529565
957.0, 0.1782094709657745
958.0, 0.3350427273759195
959.0, 0.22313687665901652
960.0, 0.1771535555913956
961.0, 0.38849178411797575
962.0, 0.3014322405150315
963.0, 0.5311899529265475
964.0, 0.808031824301801
965.0, 0.9303503629768305
966.0, 0.9618523349933518
967.0, 0.9047685313510454
968.0, 0.5719596400056082
969.0, 0.39250349289864195
970.0, 0.1882923991153962
971.0, 0.3077638621424313
972.0, 0.15664359749232004
973.0, 0.17951622642542223
974.0, 0.26629455081558423
975.0, 0.19565343954758063
976.0, 0.11788006449991054
977.0, 0.2616344557835291
978.0, 0.1883374843560382
979.0, 0.14881566487972522
980.0, 0.21996753792617946
981.0, 0.23385616644985083
982.0, 0.20678467881592816
983.0, 0.20038172460082507
984.0, 0.23958869837716562
985.0, 0.18621640990276986
986.0, 0.07105704367218808
987.0, 0.2265620725291727
988.0, 0.19328552747457445
989.0, 0.06717644120418002
990.0, 0.3550611691722675
991.0, 0.1434417328622728
992.0, 0.10287127232939937
993.0, 0.1756283162085029
994.0, 0.18092576642302657
995.0, 0.15591503771130863
996.0, 0.19425368868823387
997.0, 0.19750735021663604
998.0, 0.06952687474813599
999.0, 0.006899996349157004
1000.0, 0.0630469979910276
1001.0, 0.06616893591946245
1002.0, 0.1252818721921173
1003.0, 0.15359276562518837
1004.0, 0.10340173704851953
1005.0, 0.10617123454338992
1006.0, 0.23870001472855887
1007.0, 0.23304974390920632
1008.0, 0.18998074474715057
1009.0, 0.15999788805234078
1010.0, 0.057842557887598615
1011.0, 0.010439420012191183
1012.0, 0.06898863337407188
1013.0, 0.27969603014621686
1014.0, 0.2916084428125568
1015.0, 0.10325689923789345
1016.0, 0.2063684763906889
1017.0, 0.21877230319240454
1018.0, 0.033759939293051544
1019.0, 0.31357824596217665
1020.0, 0.18219364735882077
1021.0, 0.2669137179313019
1022.0, 0.20784284470700173
1023.0, 0.1702070903284617
1024.0, 0.17756677238675828
1025.0, 0.18927441182478685
1026.0, 0.2877207096859269
1027.0, 0.18242595820009605
1028.0, 0.039566045393374966
1029.0, 0.2868026924969228
1030.0, 0.187612274029462
1031.0, 0.06890926109857425
1032.0, 0.17925570343580152
1033.0, 0.16231445025158933
1034.0, 0.04572617907469055
1035.0, 0.07340488359093394
1036.0, 0.1845859861072491
1037.0, 0.18418844856487143
1038.0, 0.060336276046558085
1039.0, 0.22342679241041175
1040.0, 0.2018398220137075
1041.0, 0.08586868387875715
1042.0, 0.21561293054892877
1043.0, 0.17504226082829982
1044.0, 0.0922340594180945
1045.0, 0.16602145527164458
1046.0, 0.2145173231019598
1047.0, 0.19615384312436113
1048.0, 0.41408577612256575
1049.0, 0.1586820903380228
1050.0, 0.18427780084505216
1051.0, 0.054595702784529354
1052.0, 0.14142881299156013
1053.0, 0.16651443778578853
1054.0, 0.1511307710348638
1055.0, 0.20327611708329438
1056.0, 0.2243645519743389
1057.0, 0.1500159634190342
1058.0, 0.2834595302032973
1059.0, 0.36292134118604946
1060.0, 0.125855166927764
1061.0, 0.31133474944476963
1062.0, 0.28633181507116595
1063.0, 0.21559196805033526
1064.0, 0.17257632995454866
1065.0, 0.1946658179396845
1066.0, 0.2195696972644481
1067.0, 0.1747056776991205
1068.0, 0.18649044066631015
1069.0, 0.3329319387992431
1070.0, 0.021299261754603366
1071.0, 0.2614264017351617
1072.0, 0.21135636571121733
1073.0, 0.12023257248700837
1074.0, 0.18324452330708313
1075.0, 0.2061855552026253
1076.0, 0.16133846937455423
1077.0, 0.21809627451395905
1078.0, 0.33416308241321097
1079.0, 0.223527089534106
1080.0, 0.07463256875427556
1081.0, 0.14826342016086896
1082.0, 0.22453547954984457
1083.0, 0.08918242160972115
1084.0, 0.30324581962051567
1085.0, 0.35278636262412033
1086.0, 0.25253374086324154
1087.0, 0.26571905693534426
1088.0, 0.2951369175513237
1089.0, 0.15661434149057882
1090.0, 0.17267771773402385
1091.0, 0.24779913396106865
1092.0, 0.39764023138304466
1093.0, 0.24605201438269475
1094.0, 0.25453118910486305
1095.0, 0.2973065799092115
1096.0, 0.18164369070980704
1097.0, 0.2510109524643935
1098.0, 0.26933454222066494
1099.0, 0.10589942014144707
1100.0, 0.18878695613956636
1101.0, 0.1689260547360397
1102.0, 0.17661999005303003
1103.0, 0.15312690215110114
1104.0, 0.18846548188874995
1105.0, 0.28023059439054937
1106.0, 0.12429702994934075
1107.0, 0.16620506612787703
1108.0, 0.2050061241971806
1109.0, 0.1049915432599411
1110.0, 0.13893356346773653
1111.0, 0.3152472428096347
1112.0, 0.14002142469205586
1113.0, 0.062281887573184536
1114.0, 0.2722659273131114
1115.0, 0.1097114810783699
1116.0, 0.06920080407317081
1117.0, 0.12207025181382136
1118.0, 0.13910703909861266
1119.0, 0.1941626625170682
1120.0, 0.2491101488525455
1121.0, 0.2401758341192121
1122.0, 0.15946477690211075
1123.0, 0.07642051591112291
1124.0, 0.26320590189310333
1125.0, 0.14444666276414148
1126.0, 0.20190800658213862
1127.0, 0.32737996404628444
1128.0, 0.12391920609844852
1129.0, 0.1938139089893885
1130.0, 0.14710135928948628
1131.0, 0.11137368189817873
1132.0, 0.12087502764485342
1133.0, 0.08626543744861588
1134.0, 0.1324818947346919
1135.0, 0.19058134981751063
1136.0, 0.09644580995618551
1137.0, 0.3911437291758433
1138.0, 0.1953782892128368
1139.0, 0.22826108475193826
1140.0, 0.33964163398040514
1141.0, 0.16137126574178406
1142.0, 0.15615180867060569
1143.0, 0.2416800110330994
1144.0, 0.23948831220086644
1145.0, 0.23328436888991025
1146.0, 0.24171373005335448
1147.0, 0.26477639058914865
1148.0, 0.26733523453886265
1149.0, 0.1402823919946229
1150.0, 0.4756635865518304
1151.0, 0.13535700526538072
1152.0, 0.25473043308750787
1153.0, 0.35385816729669367
1154.0, 0.24930418374449606
1155.0, 0.3028460389375912
1156.0, 0.3903845769759187
1157.0, 0.2747791641657562
1158.0, 0.270314704322578
1159.0, 0.33136326624264334
1160.0, 0.41140588111591925
1161.0, 0.1449372923183775
1162.0, 0.1856121408449009
1163.0, 0.45030413103753253
1164.0, 0.24289707875037425
1165.0, 0.21414819454253117
1166.0, 0.2751692612611408
1167.0, 0.16581855049119784
1168.0, 0.16700065808709605
1169.0, 0.37667764616829674
1170.0, 0.3340030800992636
1171.0, 0.14258372840225092
1172.0, 0.34459623418743945
1173.0, 0.3211636009423109
1174.0, 0.20822536439835387
1175.0, 0.1580483699490092
1176.0, 0.3916508653355887
1177.0, 0.2397043874997531
1178.0, 0.10214955791024787
1179.0, 0.24476693543088568
1180.0, 0.2665177375457009
1181.0, 0.1717171413059455
1182.0, 0.27694565105445956
1183.0, 0.21626465986665278
1184.0, 0.08878388312990174
1185.0, 0.2264344742109677
1186.0, 0.2719370669556554
1187.0, 0.05650836700301878
1188.0, 0.0299064361595725
1189.0, 0.20858480211299532
1190.0, 0.1465182901730049
1191.0, 0.18476323890521695
1192.0, 0.3412759306513524
1193.0, 0.2874430478047313
1194.0, 0.2174331386566704
1195.0, 0.409508176236545
1196.0, 0.2760888715111589
1197.0, 0.12047625211813649
1198.0, 0.31348281321119165
1199.0, 0.22242905768120302
1200.0, 0.07820294202358734
1201.0, 0.10147002406532812
1202.0, 0.38122442048607397
1203.0, 0.28757389724403104
1204.0, 0.26495051578166073
1205.0, 0.3828073755945258
1206.0, 0.2955981764724686
1207.0, 0.11313051576984187
1208.0, 0.19058303938267485
1209.0, 0.2809117179030717
1210.0, 0.1281893654339116
1211.0, 0.2153145550700285
1212.0, 0.0954667278766625
1213.0, 0.29894533976755444
1214.0, 0.1222831001290573
1215.0, 0.4233108197159818
1216.0, 0.3203047828372705
1217.0, 0.13590134222191608
1218.0, 0.23658054996591155
1219.0, 0.26810578565924686
1220.0, 0.10554270016269822
1221.0, 0.10845871147365586
1222.0, 0.1833085400232899
1223.0, 0.19563261424756975
1224.0, 0.29418260792883116
1225.0, 0.28136668860864267
1226.0, 0.27595228557620566
1227.0, 0.14336504474109768
1228.0, 0.22141934379603814
1229.0, 0.19561948110772698
1230.0, 0.20934810701851933
1231.0, 0.29886803182973565
1232.0, 0.2547430792282783
1233.0, 0.15714320299299797
1234.0, 0.23740079721800456
1235.0, 0.2992555136016507
1236.0, 0.15564503770692412
1237.0, 0.32486989369540104
1238.0, 0.32019057329610334
1239.0, 0.09545026057019548
1240.0, 0.1055563434874229
1241.0, 0.31515362297970106
1242.0, 0.13119397239773933
1243.0, 0.1579583674970208
1244.0, 0.29430902156051014
1245.0, 0.26016591042050635
1246.0, 0.19057082436164566
1247.0, 0.24792379961575406
1248.0, 0.2691786103381002
1249.0, 0.22220448375671556
1250.0, 0.380418956584869
1251.0, 0.23780043448643948
1252.0, 0.19594120707887996
1253.0, 0.1230339816324505
1254.0, 0.24354805200694546
1255.0, 0.31967597790230146
1256.0, 0.21150022872427116
1257.0, 0.3320069377659997
1258.0, 0.37065358763417977
1259.0, 0.22492322729970207
1260.0, 0.2632159510546765
1261.0, 0.3444805478569753
1262.0, 0.25882344486245296
1263.0, 0.366217196166005
1264.0, 0.4091351716646858
1265.0, 0.059532648596575505
1266.0, 0.3040056728473459
1267.0, 0.4443991283506278
1268.0, 0.4807617320425743
1269.0, 0.13138309737215847
1270.0, 0.2033235711704747
1271.0, 0.19376729711337473
1272.0, 0.12779687116280497
1273.0, 0.24781273896062114
1274.0, 0.17492430713951024
1275.0, 0.1154855756572566
1276.0, 0.25538265611163513
1277.0, 0.29779874017904584
1278.0, 0.3502186902993967
1279.0, 0.253850349718118
1280.0, 0.23818734240436235
1281.0, 0.4102878725233908
1282.0, 0.46767035122960465
1283.0, 0.33796811234086455
1284.0, 0.4303594904863667
1285.0, 0.17337757835577666
1286.0, 0.14136908067468507
1287.0, 0.3204853524356808
1288.0, 0.33150813576696925
1289.0, 0.34258158719994025
1290.0, 0.4185822030185161
1291.0, 0.2726571388756166
1292.0, 0.12846512090984996
1293.0, 0.380629724817791
1294.0, 0.3315563021356328
1295.0, 0.10935706595732256
1296.0, 0.3884307506752307
1297.0, 0.12777771913664718
1298.0, 0.07248160458936469
1299.0, 0.1612737002831532
1300.0, 0.12373692951357734
1301.0, 0.2632171591370172
1302.0, 0.2804216632370411
1303.0, 0.21491430645699902
1304.0, 0.19752732850326027
1305.0, 0.13494820821420436
1306.0, 0.12264709358775389
1307.0, 0.18039794246201646
1308.0, 0.18397862404258528
1309.0, 0.3542213716865997
1310.0, 0.37613554838715785
1311.0, 0.2465746478872555
1312.0, 0.22689881839514098
1313.0, 0.44124208282666666
1314.0, 0.0774998400308699
1315.0, 0.35324056644003055
1316.0, 0.3795008829564841
1317.0, 0.2176890023652926
1318.0, 0.17878933835703134
1319.0, 0.28063855210655225
1320.0, 0.24069091740545773
1321.0, 0.14349427285674418
1322.0, 0.2716225445764033
1323.0, 0.3702470781896381
1324.0, 0.23248891295503346
1325.0, 0.3758729545416864
1326.0, 0.5327309777415398
1327.0, 0.24072676880240446
1328.0, 0.5080155390413333
1329.0, 0.5324864702720944
1330.0, 0.23144033326328187
1331.0, 0.4004585301822824
1332.0, 0.3864951986175314
1333.0, 0.28731638161807427
1334.0, 0.12636411176555806
1335.0, 0.2610056766073698
1336.0, 0.3920835892086312
1337.0, 0.2888088503731035
1338.0, 0.367556439448579
1339.0, 0.5408331258170898
1340.0, 0.3549673357133473
1341.0, 0.249404714215415
1342.0, 0.45031222252565023
1343.0, 0.17591538254206124
1344.0, 0.44042487550500903
1345.0, 0.2821586356257173
1346.0, 0.16337756582185922
1347.0, 0.025723228562573808
1348.0, 0.015085675475787971
1349.0, 0.38616415107827134
1350.0, 0.16512600008042366
1351.0, 0.31940278855763
1352.0, 0.4741784296908141
1353.0, 0.26894767333959474
1354.0, 0.3490702806065981
1355.0, 0.5180756828182306
1356.0, 0.3658613724062658
1357.0, 0.3461240075114441
1358.0, 0.4262811657130293
1359.0, 0.1177598471233256
1360.0, 0.19829778569174059
1361.0, 0.33191791855899694
1362.0, 0.44544970271343814
1363.0, 0.087893876234768
1364.0, 0.14284468859730007
1365.0, 0.387088701989888
1366.0, 0.17116842278208927
1367.0, 0.2586404021868112
1368.0, 0.2594337579957056
1369.0, 0.07658283875486097
1370.0, 0.20150131162226323
1371.0, 0.23464601043642092
1372.0, 0.2666907628846232
1373.0, 0.27174547836168816
1374.0, 0.29802772891694146
1375.0, 0.3427159252412695
1376.0, 0.19743209399122266
1377.0, 0.27804949302476156
1378.0, 0.4846982344694518
1379.0, 0.16094141326714437
1380.0, 0.18672096761270993
1381.0, 0.5020446218089272
1382.0, 0.005672274599950497
1383.0, 0.2301038353533345
1384.0, 0.4297436546674502
1385.0, 0.18821025869188293
1386.0, 0.17183258915362803
1387.0, 0.2867144426702312
1388.0, 0.21671388319524987
1389.0, 0.13349001756260093
1390.0, 0.28906455269986964
1391.0, 0.3968779865938062
1392.0, 0.26196222078243225
1393.0, 0.3040229329750553
1394.0, 0.41403211600269624
1395.0, 0.18844664465988373
1396.0, 0.21552471445161503
1397.0, 0.4204708633977598
1398.0, 0.19720210520434447
1399.0, 0.2276594732451573
1400.0, 0.20026237432903538
1401.0, 0.2728433186722776
1402.0, 0.3126161137195303
1403.0, 0.05349999700294608
1404.0, 0.5137864480503029
1405.0, 0.15884780999210643
1406.0, 0.3616656567200942
1407.0, 0.436689023566123
1408.0, 0.17655071919903984
1409.0, 0.3252399602787364
1410.0, 0.3224824416458636
1411.0, 0.12434608926429433
1412.0, 0.24835469275645541
1413.0, 0.4256145349323738
1414.0, 0.3422509222588817
1415.0, 0.2418592158501086
1416.0, 0.2671477167152254
1417.0, 0.41763967446517675
1418.0, 0.1704490345133901
1419.0, 0.11413195369686396
1420.0, 0.5660771500706041
1421.0, 0.0428576888076421
1422.0, 0.2533542634938002
1423.0, 0.4030405934670635
1424.0, 0.19738933481043228
1425.0, 0.26720879464691694
1426.0, 0.24738110605312044
1427.0, 0.26176008654698374
1428.0, 0.32469064508603174
1429.0, 0.32015520289988325
1430.0, 0.27982058035885043
1431.0, 0.22389793320245693
1432.0, 0.29401516744919737
1433.0, 0.30477952557865795
1434.0, 0.17176351993654493
1435.0, 0.24041706894650283
1436.0, 0.35305313934625715
1437.0, 0.17715626774700408
1438.0, 0.22799529602822902
1439.0, 0.358406456161833
1440.0, 0.26757162485172814
1441.0, 0.41865218777847724
1442.0, 0.24920543985364002
1443.0, 0.5186205711752266
1444.0, 0.18836613780088798
1445.0, 0.29754960035924183
1446.0, 0.33018655848157996
1447.0, 0.1669924950428689
1448.0, 0.29484723898293197
1449.0, 0.522012249578837
1450.0, 0.2901921157075564
1451.0, 0.30605198099424197
1452.0, 0.21964307879001543
1453.0, 0.22900338582598811
1454.0, 0.18282999502269145
1455.0, 0.24586041745112688
1456.0, 0.2478332972741623
1457.0, 0.13300125574953114
1458.0, 0.23819480701140278
1459.0, 0.2881021179657542
1460.0, 0.11581581078600683
1461.0, 0.19416174419003718
1462.0, 0.47366462955564886
1463.0, 0.21466971327183004
1464.0, 0.2194557124787459
1465.0, 0.2836226321611741
1466.0, 0.20336376641090018
1467.0, 0.11302167265779525
1468.0, 0.14668211330544198
1469.0, 0.4106503691918962
1470.0, 0.17952101495827083
1471.0, 0.183730568974621
1472.0, 0.445607692431142
1473.0, 0.18269035763735664
1474.0, 0.21723704966477575
1475.0, 0.37142575197094213
1476.0, 0.15522071430269502
1477.0, 0.21102837834590307
1478.0, 0.22576409061280214
1479.0, 0.0829716996535295
1480.0, 0.169604378690074
1481.0, 0.3181395169966453
1482.0, 0.3080667703729479
1483.0, 0.2575083901618726
1484.0, 0.33883877799327305
1485.0, 0.5323295780331511
1486.0, 0.4065587200166146
1487.0, 0.3149330191450497
1488.0, 0.4943770193755087
1489.0, 0.3683619025848146
1490.0, 0.20865004071915466
1491.0, 0.5111463399371482
1492.0, 0.377541330730831
1493.0, 0.41297847001605836
1494.0, 0.30405882318731037
1495.0, 0.5313328112220176
1496.0, 0.177327093151471
1497.0, 0.49197068304282654
1498.0, 0.668522968962531
1499.0, 0.14393390382303808
1500.0, 0.3577342214020517
1501.0, 0.5923195019538183
1502.0, 0.295713325789902
1503.0, 0.30354494690224176
1504.0, 0.4382079028657475
1505.0, 0.4140909888467663
1506.0, 0.4994209413495092
1507.0, 0.4767855957541639
1508.0, 0.45576237043505385
1509.0, 0.46447063382905973
1510.0, 0.3921983220661842
1511.0, 0.3894222221256185
1512.0, 0.24027610190955365
1513.0, 0.30039131575960776
1514.0, 0.5045432014502427
1515.0, 0.1260722553978316
1516.0, 0.2983851555830542
1517.0, 0.5677532002988187
1518.0, 0.27210773096537766
1519.0, 0.32649289986791374
1520.0, 0.32341072606123156
1521.0, 0.5253399321396464
1522.0, 0.37095714425737614
1523.0, 0.4025430148546814
1524.0, 0.7447816042358308
1525.0, 0.19638125397486483
1526.0, 0.3143464643746593
1527.0, 0.5744161447011394
1528.0, 0.1484075889598712
1529.0, 0.3766636038813582
1530.0, 0.4673836697606755
1531.0, 0.2916479664932916
1532.0, 0.5092728360452734
1533.0, 0.4417471352060182
1534.0, 0.4031380124561424
1535.0, 0.32145311801647947
1536.0, 0.28851717651695735
1537.0, 0.3236742484687526
1538.0, 0.21359233798126886
1539.0, 0.2521989192680379
1540.0, 0.362750968550028
1541.0, 0.32068049855302827
1542.0, 0.39990816961489645
1543.0, 0.34980381893020807
1544.0, 0.1578998633284923
1545.0, 0.34303370858644433
1546.0, 0.4394163725701117
1547.0, 0.2311244114284632
1548.0, 0.1349662936972019
1549.0, 0.2067894148315966
1550.0, 0.3371017546240285
1551.0, 0.39167973364901804
1552.0, 0.31820554501819787
1553.0, 0.46707831988195037
1554.0, 0.06259185141281659
1555.0, 0.18134554742328465
1556.0, 0.2522972956723066
1557.0, 0.1889924036026559
1558.0, 0.22748339133832252
1559.0, 0.19858083857484032
1560.0, 0.20399955345490595
1561.0, 0.14478998023627884
1562.0, 0.27075813941748317
1563.0, 0.30635252961987186
1564.0, 0.08060169846036441
1565.0, 0.28408342833361344
1566.0, 0.3809729634481361
1567.0, 0.2589013707327397
1568.0, 0.3060355476926919
1569.0, 0.28285058318366113
1570.0, 0.09164186128110041
1571.0, 2.6299980886301077e-05
1572, 0.0
1573, 0.0
1574, 0.0
1575, 0.0
1576, 0.0
1577, 0.0
1578, 0.0
1579, 0.0
1580, 0.0
1581, 0.0
1582, 0.0
1583, 0.0
1584, 0.0
1585, 0.0
1586, 0.0
1587, 0.0
1588, 0.0
1589, 0.0
1590, 0.0
1591, 0.0
1592, 0.0
1593, 0.0
1594, 0.0
1595, 0.0
1596, 0.0
1597, 0.0
1598, 0.0
1599, 0.0
