30, 0.0
31, 0.0
32, 0.0
33, 0.0
34, 0.0
35, 0.0
36, 0.0
37, 0.0
38, 0.0
39, 0.0
40, 0.0
41, 0.0
42, 0.0
43, 0.0
44, 0.0
45, 0.0
46, 0.0
47, 0.0
48, 0.0
49, 0.0
50, 0.0
51, 0.0
52, 0.0
53, 0.0
54, 0.0
55, 0.0
56, 0.0
57, 0.0
58, 0.0
59, 0.0
60, 0.0
61, 0.0
62, 0.0
63, 0.0
64, 0.0
65, 0.0
66, 0.0
67, 0.0
68, 0.0
69, 0.0
70, 0.0
71, 0.0
72, 0.0
73, 0.0
74, 0.0
75, 0.0
76, 0.0
77, 0.0
78, 0.0
79, 0.0
80, 0.0
81, 0.0
82, 0.0
83, 0.0
84, 0.0
85, 0.0
86, 0.0
87, 0.0
88, 0.0
89, 0.0
90, 0.0
91, 0.0
92.0, 0.001639326952505253
93.0, 0.0023823343187739984
94.0, 0.00024286913223122808
95.0, 0.0006016894019368281
96.0, 0.0015634278178947455
97.0, 0.002788425180333173
98.0, 0.0033366250698374546
99.0, 0.005492237580585085
100.0, 0.007427685673436033
101.0, 0.007925248181372493
102.0, 0.009495716032050029
103.0, 0.011904900554910143
104.0, 0.015106627889326334
105.0, 0.019177315230781544
106.0, 0.02041336217255984
107.0, 0.022697568251295142
108.0, 0.02839193318781725
109.0, 0.03663030564199847
110.0, 0.04283062084882585
111.0, 0.04683452325456667
112.0, 0.048010014694561155
113.0, 0.04964198640531543
114.0, 0.04953622802415165
115.0, 0.04643632313905438
116.0, 0.046918972254462926
117.0, 0.04645732896411954
118.0, 0.045840864048075254
119.0, 0.047295754763529284
120.0, 0.04729105936242733
121.0, 0.046766959732594524
122.0, 0.046031078851426016
123.0, 0.046791800469116844
124.0, 0.0462753471740017
125.0, 0.04582784897954767
126.0, 0.04819861833186294
127.0, 0.04800941132908365
128.0, 0.04879925843990956
129.0, 0.051215634289586434
130.0, 0.049467778158845184
131.0, 0.049562773117431555
132.0, 0.05031017607590986
133.0, 0.050214785728585905
134.0, 0.053479194560688684
135.0, 0.058425336571737624
136.0, 0.06451351658127079
137.0, 0.06915568182327987
138.0, 0.07194857630955201
139.0, 0.07345613956793816
140.0, 0.07386502431841717
141.0, 0.0692455915958822
142.0, 0.0629631205858325
143.0, 0.05494624048988693
144.0, 0.04279824915875304
145.0, 0.03527529911190477
146.0, 0.029517358598690528
147.0, 0.024103602752269707
148.0, 0.017833523357160524
149.0, 0.013988456951036687
150.0, 0.012176982693730763
151.0, 0.011374954627201166
152.0, 0.007800855540808465
153.0, 0.005164952059837775
154.0, 0.004848455225244695
155.0, 0.002938057818770284
156.0, 0.002634450806078844
157.0, 0.003103177986067928
158.0, 0.00308115866854648
159.0, 0.0016729188975902086
160.0, 0.0014851405255686127
161.0, 0.0027311565763149027
162.0, 0.0017011443653549667
163.0, 0.0014338588046409477
164.0, 0.0020692675664038163
165.0, 0.003980770510410613
166.0, 0.004661988555103944
167.0, 0.0030534510800838462
168.0, 0.000192803185269207
169.0, 0.0010307979230544887
170.0, 0.00078534234187686
171.0, 0.001753153257109444
172.0, 0.005282045270086364
173.0, 0.004712641717251128
174.0, 0.005750938234682871
175.0, 0.008282287132097756
176.0, 0.012323215571573825
177.0, 0.013095399141303435
178.0, 0.01371477822330132
179.0, 0.01495715330303491
180.0, 0.016699644420849553
181.0, 0.01917377911433663
182.0, 0.021506934549579422
183.0, 0.022722446574558592
184.0, 0.02589589930300001
185.0, 0.029438654161650382
186.0, 0.03269626873597024
187.0, 0.03338439579710038
188.0, 0.03707622634033385
189.0, 0.03942606402028316
190.0, 0.03816257855652187
191.0, 0.03849975088586181
192.0, 0.04170783983254593
193.0, 0.045743329341104096
194.0, 0.0467942329573717
195.0, 0.049676407936822535
196.0, 0.0499055076487867
197.0, 0.04755760531904009
198.0, 0.05199597913360609
199.0, 0.053643573970424664
200.0, 0.05516598177389096
201.0, 0.058716949940819954
202.0, 0.05768983328120469
203.0, 0.059887018506764936
204.0, 0.06400727380916854
205.0, 0.06524301418256573
206.0, 0.06373238145617523
207.0, 0.06411845852557824
208.0, 0.06773536339900096
209.0, 0.06915393981378196
210.0, 0.07213184249041941
211.0, 0.07540060481743394
212.0, 0.07753469229332541
213.0, 0.07771050560985855
214.0, 0.07962072342505427
215.0, 0.08293652042007317
216.0, 0.08490231809986404
217.0, 0.08575683954029263
218.0, 0.0869450880037343
219.0, 0.08908366478863705
220.0, 0.09071926636957682
221.0, 0.09210037143612657
222.0, 0.09373368487255479
223.0, 0.09642430978628823
224.0, 0.09895746002980718
225.0, 0.10137867474934763
226.0, 0.1035630340784066
227.0, 0.1048265234812034
228.0, 0.10595384724392941
229.0, 0.10745566003058858
230.0, 0.10961453183313248
231.0, 0.11177550300004027
232.0, 0.11234085991401907
233.0, 0.11204399987346253
234.0, 0.11187969175835188
235.0, 0.11393829957802805
236.0, 0.11389804009889797
237.0, 0.1123723930182973
238.0, 0.11579174053550595
239.0, 0.11360894503061338
240.0, 0.11184599934818353
241.0, 0.11343809888458567
242.0, 0.11256119294614406
243.0, 0.10950143942169606
244.0, 0.10642017145440205
245.0, 0.10661929162059117
246.0, 0.10665864608151988
247.0, 0.1039832909713732
248.0, 0.09952532894747057
249.0, 0.0989860392116112
250.0, 0.09303023819294173
251.0, 0.08631921613666826
252.0, 0.08088315335897447
253.0, 0.07839622918061903
254.0, 0.07579127186233572
255.0, 0.07265856833767702
256.0, 0.06837642675558842
257.0, 0.06761364738367069
258.0, 0.0656900055191554
259.0, 0.06241745814853044
260.0, 0.05854943018466811
261.0, 0.05540680774631463
262.0, 0.05290179417844847
263.0, 0.05111540438494011
264.0, 0.051036444075622606
265.0, 0.04882370606226491
266.0, 0.04660799897599102
267.0, 0.046330968673281084
268.0, 0.04467857175235306
269.0, 0.042750313670135154
270.0, 0.04067114192101434
271.0, 0.03858928756770132
272.0, 0.03742291971396827
273.0, 0.03728146993678679
274.0, 0.03748938806874656
275.0, 0.033062531245002816
276.0, 0.032246557159954135
277.0, 0.03118388372078227
278.0, 0.027687250022176
279.0, 0.028828350695339428
280.0, 0.0271987740040577
281.0, 0.02455949541720061
282.0, 0.023356452364855108
283.0, 0.02100913703112083
284.0, 0.019904737712657865
285.0, 0.019335591681395342
286.0, 0.015786024307712657
287.0, 0.015142709969128363
288.0, 0.015272620099768179
289.0, 0.01523069170124596
290.0, 0.01184731678143196
291.0, 0.009739904498449558
292.0, 0.008461047486653838
293.0, 0.007768371162202715
294.0, 0.006764877109511724
295.0, 0.0074589146935322755
296.0, 0.008223188840257937
297.0, 0.005984064803132995
298.0, 0.007097196976165652
299.0, 0.005901951159956597
300.0, 0.0025579790169848434
301.0, 0.0012224498709079057
302.0, 0.0030940460641945616
303.0, 0.004157457349242254
304.0, 0.003110049038810472
305.0, 0.003040631020332999
306.0, 0.0033914084823156456
307.0, 0.003703752735098159
308.0, 0.003600393006675913
309.0, 0.004221211886654794
310.0, 0.005695169821003874
311.0, 0.007011565734974454
312.0, 0.006333046157289044
313.0, 0.006638477856185614
314.0, 0.00727456480160435
315.0, 0.00845319455568631
316.0, 0.011377251685010413
317.0, 0.00992379567359755
318.0, 0.008909458372257066
319.0, 0.009535401628762812
320.0, 0.007976254517514474
321.0, 0.00884395054262942
322.0, 0.009670378320562781
323.0, 0.008822092355953503
324.0, 0.007684454836450558
325.0, 0.008301057574646093
326.0, 0.008970677905333605
327.0, 0.007351057680096657
328.0, 0.007632990101057564
329.0, 0.006465331489794883
330.0, 0.004968277985379512
331.0, 0.006893005211435306
332.0, 0.008605768864027101
333.0, 0.00815750833344211
334.0, 0.006026233664255332
335.0, 0.007360234092803065
336.0, 0.0060910361353977765
337.0, 0.005595772029394651
338.0, 0.00716217241190822
339.0, 0.007262959045388925
340.0, 0.008152646368725496
341.0, 0.008499819686660335
342.0, 0.0071707478673365185
343.0, 0.008540328813579813
344.0, 0.007653190627891119
345.0, 0.007088620953977923
346.0, 0.010945811564311467
347.0, 0.009940675044824883
348.0, 0.00986824767976805
349.0, 0.01060717008550055
350.0, 0.010366845382713678
351.0, 0.010466546045235121
352.0, 0.011112046103318417
353.0, 0.012024424453637113
354.0, 0.011531742999326028
355.0, 0.012892916307636858
356.0, 0.013434180979639807
357.0, 0.012243212976085882
358.0, 0.011388757376038816
359.0, 0.011584536771260513
360.0, 0.01178701419695094
361.0, 0.011302439954570073
362.0, 0.01053128831842647
363.0, 0.010607880062693184
364.0, 0.011315014946062811
365.0, 0.012464067258993954
366.0, 0.011011159485501137
367.0, 0.011292099612551459
368.0, 0.012155193001721442
369.0, 0.011051118471719147
370.0, 0.01219746438678687
371.0, 0.012288508073044211
372.0, 0.011055678996764379
373.0, 0.008895644026768498
374.0, 0.00947749332582075
375.0, 0.00971451290321169
376.0, 0.008833413420922287
377.0, 0.00660265169053131
378.0, 0.006250262519251457
379.0, 0.006700672831290066
380.0, 0.0073345689274573935
381.0, 0.005870818240135559
382.0, 0.004460383314925512
383.0, 0.004388756108715307
384.0, 0.006295550800264753
385.0, 0.004632213419514218
386.0, 0.003768199690314277
387.0, 0.0036458620478449456
388.0, 0.004262824962945219
389.0, 0.005852669770757701
390.0, 0.00495358876961913
391.0, 0.0028777171332465355
392.0, 0.0013989178428039529
393.0, 0.0035061166684949886
394.0, 0.004253985747200225
395.0, 0.00421478342724231
396.0, 0.005128373146474239
397.0, 0.0029004006492187907
398.0, 0.0030552458666442124
399.0, 0.004520247224639482
400.0, 0.0022213326254551706
401.0, 0.0009215124635137929
402.0, 0.001756389643459792
403.0, 0.0038461350896783967
404.0, 0.0024982123251348397
405.0, 0.005137049866265182
406.0, 0.007134543656708441
407.0, 0.007364842867276431
408.0, 0.007627940922377495
409.0, 0.0074947548586799485
410.0, 0.007734282318863618
411.0, 0.008784939054178927
412.0, 0.011630069453298902
413.0, 0.01243416692195832
414.0, 0.01274117187506244
415.0, 0.013526071691056843
416.0, 0.016906559933712595
417.0, 0.018609540208180127
418.0, 0.019412578694628795
419.0, 0.019942954087332713
420.0, 0.024973369306345115
421.0, 0.027539693709350426
422.0, 0.028125616737946772
423.0, 0.02711431742460962
424.0, 0.029355519630754372
425.0, 0.03164326863168359
426.0, 0.034206235265884656
427.0, 0.03741090322383866
428.0, 0.03781052016394596
429.0, 0.03988599752605199
430.0, 0.04289493086635428
431.0, 0.04537035579415227
432.0, 0.04938110124360262
433.0, 0.050488435923386345
434.0, 0.050024277477071596
435.0, 0.05121806457548976
436.0, 0.05407398969124139
437.0, 0.05617332591538912
438.0, 0.0577576620042386
439.0, 0.06005544869402364
440.0, 0.06154557635079446
441.0, 0.06133554312207109
442.0, 0.060188353876149285
443.0, 0.060653770708394984
444.0, 0.060803273121148416
445.0, 0.06013573209790599
446.0, 0.05883319229916991
447.0, 0.057831166608396316
448.0, 0.05822413864882213
449.0, 0.05646913611786078
450.0, 0.05301182991804355
451.0, 0.052931243705475826
452.0, 0.05087798875325796
453.0, 0.04805047678049449
454.0, 0.04487265565672643
455.0, 0.04185217515165485
456.0, 0.03913082406835096
457.0, 0.037349290019850656
458.0, 0.03581207223068303
459.0, 0.029668174360183635
460.0, 0.02836826949818725
461.0, 0.026852598673251293
462.0, 0.023628080100256195
463.0, 0.02024153201750724
464.0, 0.020337726014893056
465.0, 0.017941217454869617
466.0, 0.012248933831255108
467.0, 0.013322372800234704
468.0, 0.012230068020270596
469.0, 0.009675206430169432
470.0, 0.006678992491786696
471.0, 0.008899292625886642
472.0, 0.005471056686361807
473.0, 0.00250966560518822
474.0, 0.002231366188565686
475.0, 0.0013581324349929086
476.0, 0.0005701083873908939
477.0, 0.00036185349453747085
478.0, 0.000998550312416866
479.0, 0.0027365872205671023
480.0, 0.004178540336569778
481.0, 0.00433094472539573
482.0, 0.0030419872373380575
483.0, 0.003119647345418216
484.0, 0.004605008654396853
485.0, 0.0052100784528795905
486.0, 0.004188539722583409
487.0, 0.004283238877052819
488.0, 0.006326383034061224
489.0, 0.007133632770108852
490.0, 0.005665596353619155
491.0, 0.005427481370795084
492.0, 0.006621769171624105
493.0, 0.006839561117332477
494.0, 0.005486237570980574
495.0, 0.00630223095928923
496.0, 0.005260735109943142
497.0, 0.00415601561735551
498.0, 0.0038550653641633657
499.0, 0.005115532584453308
500.0, 0.004256637792807246
501.0, 0.0038046725743434567
502.0, 0.0043456917343711945
503.0, 0.00311025368651172
504.0, 0.0016410850546886887
505.0, 0.0007204237422693287
506.0, 0.0005423886269977915
507.0, 0.0005146355370993402
508.0, 0.0020782477126156337
509.0, 0.004293134260484491
510.0, 0.006288002840962776
511.0, 0.005233591745760845
512.0, 0.006017333055756453
513.0, 0.0070443744914962915
514.0, 0.007684521707678025
515.0, 0.007262669446957425
516.0, 0.01073881857298253
517.0, 0.011336634885479258
518.0, 0.009500406425431533
519.0, 0.01365881795762315
520.0, 0.01479658762059771
521.0, 0.0164855396316081
522.0, 0.018547903151822896
523.0, 0.017835780755182443
524.0, 0.018102246568373625
525.0, 0.021157023017999696
526.0, 0.025280734277974715
527.0, 0.024942628388249413
528.0, 0.025410335782762083
529.0, 0.026315821164640832
530.0, 0.027530425563051582
531.0, 0.028896786084639206
532.0, 0.03083306641325805
533.0, 0.033159731471485494
534.0, 0.03553295753046365
535.0, 0.03735582460066131
536.0, 0.04074170987156388
537.0, 0.04254237856600351
538.0, 0.04415102979847097
539.0, 0.04802318030881373
540.0, 0.04993376536545208
541.0, 0.052354371401786344
542.0, 0.05552089873476635
543.0, 0.059585453776428536
544.0, 0.062179484144940504
545.0, 0.06612058429547242
546.0, 0.07038480791353764
547.0, 0.073967380476078
548.0, 0.0779973582024561
549.0, 0.08230030535612791
550.0, 0.0866616223646966
551.0, 0.090981706592488
552.0, 0.09636063833187265
553.0, 0.10133223536373476
554.0, 0.10691581463415575
555.0, 0.11363326500822146
556.0, 0.12069669222318141
557.0, 0.12818929224074477
558.0, 0.13614524087101734
559.0, 0.1438459177882896
560.0, 0.1468158912785677
561.0, 0.15651806733469914
562.0, 0.16562590218824774
563.0, 0.17275540381061127
564.0, 0.1820709619534491
565.0, 0.19154494701753425
566.0, 0.20134180173349792
567.0, 0.21178683206885665
568.0, 0.22372619394927049
569.0, 0.2371515710749326
570.0, 0.24898006547992663
571.0, 0.2605317548274984
572.0, 0.27546352233226307
573.0, 0.2848675086017558
574.0, 0.2965659817569921
575.0, 0.3101806007353065
576.0, 0.3241936256102162
577.0, 0.33948026128282444
578.0, 0.35431442860151424
579.0, 0.369462686489029
580.0, 0.38580540504367766
581.0, 0.4056291908854679
582.0, 0.4200687882749113
583.0, 0.43605705825470586
584.0, 0.4577790619873889
585.0, 0.4748058428209161
586.0, 0.4940938067497322
587.0, 0.5155956537405935
588.0, 0.5383910199577131
589.0, 0.5567447474977232
590.0, 0.5809788087256098
591.0, 0.6026142790969656
592.0, 0.6220784503437934
593.0, 0.6513050908669766
594.0, 0.6861526430839703
595.0, 0.7150219618795133
596.0, 0.7376969792524943
597.0, 0.7590854498059696
598.0, 0.7884992515798778
599.0, 0.8157663479551364
600.0, 0.8438132256649742
601.0, 0.8786899961386475
602.0, 0.8895652369408356
603.0, 0.9092108963683998
604.0, 0.9348415806802165
605.0, 0.9617954340263736
606.0, 0.9685921929389822
607.0, 0.9814455785480325
608.0, 0.991744582381714
609.0, 0.9948999472890809
610.0, 0.9990803183636046
611.0, 0.9969887598945238
612.0, 0.9905618680616534
613.0, 0.9805485311078694
614.0, 0.9669148304899956
615.0, 0.9474248291785168
616.0, 0.9240488843533942
617.0, 0.8977921596773377
618.0, 0.8700742156483849
619.0, 0.8534599756463472
620.0, 0.8192808035486451
621.0, 0.7815241588069077
622.0, 0.7658111402063243
623.0, 0.7309930617856122
624.0, 0.7013927892576378
625.0, 0.6732548045370607
626.0, 0.6431384291128761
627.0, 0.6216070325573428
628.0, 0.5922952372828039
629.0, 0.5657057572258937
630.0, 0.5462358090254452
631.0, 0.5254436600879759
632.0, 0.4985540373055499
633.0, 0.47232022488555686
634.0, 0.450357136009467
635.0, 0.4376367970918269
636.0, 0.4188986289375426
637.0, 0.3999840430434573
638.0, 0.3832158818446605
639.0, 0.37107418226208094
640.0, 0.3562817781000469
641.0, 0.3390407380597513
642.0, 0.3248394688725056
643.0, 0.3183453014755158
644.0, 0.3035946277664986
645.0, 0.29380987606143255
646.0, 0.28256161906441435
647.0, 0.26815836608655297
648.0, 0.2629530189290088
649.0, 0.25745230330057123
650.0, 0.2491607834388669
651.0, 0.23946664117297287
652.0, 0.23465102907901947
653.0, 0.2242256392782735
654.0, 0.21866091606304316
655.0, 0.21524179764776574
656.0, 0.2076685159033271
657.0, 0.20262003617197935
658.0, 0.19792996710460647
659.0, 0.19344254339602426
660.0, 0.18876988779539342
661.0, 0.1802864261432827
662.0, 0.1786318178032481
663.0, 0.17596359811458862
664.0, 0.1704031354035791
665.0, 0.16899830520805137
666.0, 0.1624385659282053
667.0, 0.15956135742546568
668.0, 0.1595379502903887
669.0, 0.15681344102771996
670.0, 0.15123343140326886
671.0, 0.14973155104334174
672.0, 0.14873627476885115
673.0, 0.14433635194709116
674.0, 0.14539512784697153
675.0, 0.14075082028092556
676.0, 0.13611197039971087
677.0, 0.13449757278269195
678.0, 0.13518125561094427
679.0, 0.13240788895497824
680.0, 0.1316386877057379
681.0, 0.13214372758756635
682.0, 0.12885603891716316
683.0, 0.12451735356975108
684.0, 0.12271209841964685
685.0, 0.12245545317194172
686.0, 0.12208282535473472
687.0, 0.1176601003550388
688.0, 0.11682839529410445
689.0, 0.11700715639211699
690.0, 0.11623701616499428
691.0, 0.11200672027998178
692.0, 0.1085643811560629
693.0, 0.10558513214948749
694.0, 0.1037996707412309
695.0, 0.10506698829449086
696.0, 0.10296891284849884
697.0, 0.10099808632437024
698.0, 0.0983371810567051
699.0, 0.09406390402180924
700.0, 0.09324894577084417
701.0, 0.09074480321195827
702.0, 0.08925989414219727
703.0, 0.08935455565825014
704.0, 0.08702955114397314
705.0, 0.08244523963881216
706.0, 0.07977509818419029
707.0, 0.07837875724766166
708.0, 0.07529804292054681
709.0, 0.07458934215456223
710.0, 0.07273751959687859
711.0, 0.0710969937557734
712.0, 0.07071510062888123
713.0, 0.06822920625693121
714.0, 0.06494271801466835
715.0, 0.0626560222727233
716.0, 0.06148789784724576
717.0, 0.05947266648086703
718.0, 0.05713377052119549
719.0, 0.05402506781323809
720.0, 0.05199906643012557
721.0, 0.05351928162438191
722.0, 0.04932681879269911
723.0, 0.04920323393164204
724.0, 0.048480851711001166
725.0, 0.04496069649367968
726.0, 0.04302720948045954
727.0, 0.04272903352080887
728.0, 0.04126102951892049
729.0, 0.03900977929909123
730.0, 0.03820124471762338
731.0, 0.036711325343001616
732.0, 0.035009688762630296
733.0, 0.03342558628802466
734.0, 0.03229469127015597
735.0, 0.032320365599203205
736.0, 0.030227344324848207
737.0, 0.028572615602645887
738.0, 0.028097219539294248
739.0, 0.028212195438543267
740.0, 0.02699546567234037
741.0, 0.02681170361151043
742.0, 0.026977844510242925
743.0, 0.026361670283097424
744.0, 0.024188539805966865
745.0, 0.023409466397056402
746.0, 0.0227116878037794
747.0, 0.021706953219148742
748.0, 0.02140093976145325
749.0, 0.021134291056986807
750.0, 0.0208017846213378
751.0, 0.0210664263149071
752.0, 0.022781154478621952
753.0, 0.020248447254540503
754.0, 0.019999222204901294
755.0, 0.020671096489201658
756.0, 0.02096125010543583
757.0, 0.018665876799177673
758.0, 0.01981668930550947
759.0, 0.019401793127568
760.0, 0.01783639397819619
761.0, 0.017476264391997957
762.0, 0.017444497026429084
763.0, 0.01865647126320727
764.0, 0.019179751712421412
765.0, 0.01814587850340289
766.0, 0.017867239349717366
767.0, 0.018406172462853095
768.0, 0.018165736056377422
769.0, 0.017534497245771913
770.0, 0.017827551315490433
771.0, 0.0179943082851438
772.0, 0.01812072241548585
773.0, 0.01843712421679271
774.0, 0.01908842719998082
775.0, 0.02002991740628463
776.0, 0.0210485409844342
777.0, 0.021685742375680335
778.0, 0.02176573390298084
779.0, 0.021196749340908972
780.0, 0.02230685614590368
781.0, 0.022527704219564588
782.0, 0.022320113327371365
783.0, 0.02232956488421929
784.0, 0.0241218094281884
785.0, 0.024931905801893445
786.0, 0.024758961827336088
787.0, 0.024268827054295308
788.0, 0.024540693285891563
789.0, 0.02491947602286116
790.0, 0.024491160495134383
791.0, 0.024364301363480226
792.0, 0.025356418366635793
793.0, 0.028109817136288746
794.0, 0.02736238084295974
795.0, 0.02679576312556909
796.0, 0.027508047107967015
797.0, 0.029917024045806918
798.0, 0.028547212411741553
799.0, 0.026450513485464382
800.0, 0.026275657859130025
801.0, 0.028133117305909068
802.0, 0.02760342658400238
803.0, 0.027866259152448922
804.0, 0.0275108681729188
805.0, 0.026774545565948608
806.0, 0.026319648525669
807.0, 0.028670292776323575
808.0, 0.02695135792397895
809.0, 0.025535496422023206
810.0, 0.02566836495469924
811.0, 0.02597117472670829
812.0, 0.024179223185746855
813.0, 0.024984099100526895
814.0, 0.025395384935230036
815.0, 0.02326876636885385
816.0, 0.025088584717725057
817.0, 0.026360472278793973
818.0, 0.025681729040779547
819.0, 0.024131453210936196
820.0, 0.024447984222745293
821.0, 0.02260167028751789
822.0, 0.023547352259229375
823.0, 0.024346722757682543
824.0, 0.02345159942024632
825.0, 0.02275344874703425
826.0, 0.022355686313328422
827.0, 0.022518481253029698
828.0, 0.02230791798321411
829.0, 0.020677577459335125
830.0, 0.021050200687817096
831.0, 0.01944935475069489
832.0, 0.017730628115620845
833.0, 0.01652084500158843
834.0, 0.015385128387748852
835.0, 0.015355788010654792
836.0, 0.014894641462177272
837.0, 0.014250260136739683
838.0, 0.01361454156955094
839.0, 0.012225719340696793
840.0, 0.012360710259676132
841.0, 0.010886987164965976
842.0, 0.008777105326830584
843.0, 0.008688594246203558
844.0, 0.009131244058162688
845.0, 0.007910997026649314
846.0, 0.006890559586140955
847.0, 0.0066935871857181925
848.0, 0.006245027107786954
849.0, 0.005155148886439915
850.0, 0.0038581679834049035
851.0, 0.003804023223838842
852.0, 0.005442719765318214
853.0, 0.0025363968606421034
854.0, 0.0020955792889115967
855.0, 0.002034980272970992
856.0, 0.0015078778150960483
857.0, 8.370987710225704e-05
858.0, 7.50361812800207e-05
859.0, 0.0005960663725768622
860.0, 0.0006588847474067894
861.0, 0.00013669432904900473
862.0, 0.00019901715684315384
863.0, 0.0006369361829467431
864.0, 0.0005804561928617834
865.0, 0.00046596766387566925
866.0, 0.0007297740019680853
867.0, 0.0012131389347759718
868.0, 0.0021385971582194847
869.0, 0.002026943046372894
870.0, 0.0013450526777854905
871.0, 0.0013101281042436719
872.0, 0.002439466286251826
873.0, 0.0017933163130148858
874.0, 0.001251651485501169
875.0, 0.0014668897030517337
876.0, 0.001985610772587923
877.0, 0.0026366020304818914
878.0, 0.0025482610839547256
879.0, 0.0025283385181570353
880.0, 0.0029042046843032613
881.0, 0.0023242066585153205
882.0, 0.001111872268521331
883.0, 0.0014617214526256098
884.0, 0.0025310513662061816
885.0, 0.0029879073950484867
886.0, 0.0032325669823621253
887.0, 0.002327999444554669
888.0, 0.0022909572216909136
889.0, 0.0028501111417216494
890.0, 0.0025132142305614733
891.0, 0.0033880135460326324
892.0, 0.0023121088849601843
893.0, 0.0021012819895594565
894.0, 0.0028362320604029692
895.0, 0.0008649110859602393
896.0, 0.0006026473971431272
897.0, 0.0011358108115900652
898.0, 0.0011852929620562512
899.0, 0.0006654714818470871
900.0, 0.0033944989948196647
901.0, 0.0015762770708853359
902.0, 0.0015445044911042685
903.0, 0.001962694746652706
904.0, 0.0006460453929152698
905.0, 0.0002782131793376915
906.0, 0.0007970067652523245
907.0, 0.0006650533520386168
908.0, 0.00011938680484883913
909.0, 0.00013154982264938967
910.0, 7.380729418440514e-05
911.0, 6.165080487254273e-05
912.0, 0.0005563132115275292
913.0, 0.001120056557630904
914.0, 0.00042445440155413077
915.0, 0.0009715918717386666
916.0, 0.000930874436899753
917.0, 0.0009459300355144554
918.0, 0.0013167949965953918
919.0, 0.001718142941484521
920.0, 0.0018628119407343882
921.0, 0.0019104980373376038
922.0, 0.0015632680089334764
923.0, 0.0008915317357450006
924.0, 0.001304165087185975
925.0, 0.001212854605174749
926.0, 0.0007551675070668057
927.0, 0.0009055872807715153
928.0, 0.002255203001506681
929.0, 0.0021317154702738257
930.0, 0.0021126986645957353
931.0, 0.0021874694770039637
932.0, 0.0025497977424838135
933.0, 0.0032413018827628383
934.0, 0.0015913519579368257
935.0, 0.002600449006590504
936.0, 0.0027907662212805183
937.0, 0.002295236513693732
938.0, 0.003085116241885697
939.0, 0.0024651694258064154
940.0, 0.002776948830796941
941.0, 0.003706291391045347
942.0, 0.004161268546061212
943.0, 0.0022451902189153006
944.0, 0.003688310996839941
945.0, 0.003654244182824704
946.0, 0.003859330953867878
947.0, 0.004351031728977845
948.0, 0.0028532680458199147
949.0, 0.003543098300927965
950.0, 0.003988535898372966
951.0, 0.00402398382705097
952.0, 0.003970802683609197
953.0, 0.0049556216678933295
954.0, 0.00536053011279381
955.0, 0.004946367363077837
956.0, 0.004754237017755376
957.0, 0.005397622753819692
958.0, 0.006201116394938473
959.0, 0.005984970316397535
960.0, 0.006051227860569633
961.0, 0.005851553837062339
962.0, 0.005204028009619104
963.0, 0.006005181505084645
964.0, 0.005442289616039424
965.0, 0.005395651369618757
966.0, 0.005784555149244883
967.0, 0.006082368964976445
968.0, 0.0052683919939967095
969.0, 0.005701017854197346
970.0, 0.006425137706874734
971.0, 0.006771506949542012
972.0, 0.006400752444521966
973.0, 0.0064594928670858075
974.0, 0.005878052394920872
975.0, 0.005440861432426607
976.0, 0.005422802827592747
977.0, 0.005871432796296704
978.0, 0.00628042836788179
979.0, 0.006236642157755466
980.0, 0.006450284981537814
981.0, 0.006849370788346688
982.0, 0.007146576621807481
983.0, 0.007267708810172089
984.0, 0.007570214693117262
985.0, 0.007746900199920692
986.0, 0.00778287041284962
987.0, 0.007722425424507949
988.0, 0.007239712448902493
989.0, 0.007423861352513733
990.0, 0.007507836256373049
991.0, 0.007447976110609429
992.0, 0.007447191970218915
993.0, 0.007640293825270913
994.0, 0.007586891565330565
995.0, 0.007589886503073491
996.0, 0.007479238511526039
997.0, 0.007097989902972718
998.0, 0.007837502721237993
999.0, 0.007846912925803385
1000.0, 0.008098305831103762
1001.0, 0.008631477530883409
1002.0, 0.009050737588951242
1003.0, 0.008088393563082446
1004.0, 0.008387638643720335
1005.0, 0.00826719961090318
1006.0, 0.0077766623615173605
1007.0, 0.0075360610146483105
1008.0, 0.00817905652101196
1009.0, 0.008217175516114844
1010.0, 0.007899602905156683
1011.0, 0.00761140556419452
1012.0, 0.007764490143373645
1013.0, 0.00865483213503049
1014.0, 0.008508796116687409
1015.0, 0.009202392670316768
1016.0, 0.009587073326153848
1017.0, 0.008469745435539229
1018.0, 0.008243456927034635
1019.0, 0.008367915112977416
1020.0, 0.008027620474967613
1021.0, 0.0076180566731375915
1022.0, 0.007564028724273013
1023.0, 0.007381990746177648
1024.0, 0.007821563524512052
1025.0, 0.00826996500642735
1026.0, 0.008524462440741358
1027.0, 0.008468545642263677
1028.0, 0.008007625270091799
1029.0, 0.008131302424756454
1030.0, 0.007538414344687796
1031.0, 0.006851182920368656
1032.0, 0.006645728430992275
1033.0, 0.006875525948846472
1034.0, 0.00692927101466103
1035.0, 0.006766343427403113
1036.0, 0.006507360171591642
1037.0, 0.006250609786050824
1038.0, 0.0060301893725909226
1039.0, 0.005848437596945911
1040.0, 0.00539148759393665
1041.0, 0.005137952126847759
1042.0, 0.005097179007192496
1043.0, 0.00466884186968071
1044.0, 0.005230092740174111
1045.0, 0.0058127652613299274
1046.0, 0.006238323072496086
1047.0, 0.00628682938122136
1048.0, 0.005757373536677259
1049.0, 0.005892686361641617
1050.0, 0.005305166602099308
1051.0, 0.004932462982769651
1052.0, 0.004971092443349856
1053.0, 0.005184856869133576
1054.0, 0.005500074076837608
1055.0, 0.005061235880020416
1056.0, 0.00463530295430974
1057.0, 0.004537843505064649
1058.0, 0.004744649435475661
1059.0, 0.004217598919992862
1060.0, 0.004436855827183437
1061.0, 0.004093447272363022
1062.0, 0.0037791230202000557
1063.0, 0.004070352362468596
1064.0, 0.004003281872556947
1065.0, 0.003567024887916799
1066.0, 0.00337549612869342
1067.0, 0.0032864578354206346
1068.0, 0.00320666690150188
1069.0, 0.003339862752710656
1070.0, 0.004408396360141567
1071.0, 0.004295070667596364
1072.0, 0.0039020115287428875
1073.0, 0.0037884961050331646
1074.0, 0.0038891332064225972
1075.0, 0.0021914975626324425
1076.0, 0.0026557636514704954
1077.0, 0.00367179498388905
1078.0, 0.0037252730175742817
1079.0, 0.0019475288518845065
1080.0, 0.003780397652140544
1081.0, 0.0035233827968630415
1082.0, 0.0030834523577251017
1083.0, 0.0027507466382628906
1084.0, 0.0023748315894986482
1085.0, 0.0025843062191106556
1086.0, 0.0024268725754202527
1087.0, 0.0024356935036547616
1088.0, 0.0024064095960145714
1089.0, 0.0022843276232752457
1090.0, 0.0027239367172023116
1091.0, 0.002626885546633185
1092.0, 0.0030781648511470513
1093.0, 0.0032859448679783427
1094.0, 0.002921579940588575
1095.0, 0.002418026817425946
1096.0, 0.003620994319859838
1097.0, 0.0034171419998305576
1098.0, 0.002313410132569523
1099.0, 0.001264706499983024
1100.0, 0.00138610220780786
1101.0, 0.002977263005744645
1102.0, 0.001608710370561722
1103.0, 0.0020276342844144793
1104.0, 0.0029554273296236513
1105.0, 0.0024392772927421804
1106.0, 0.002778332797268624
1107.0, 0.0027359826740335816
1108.0, 0.0024105919187351306
1109.0, 0.0020067889794934003
1110.0, 0.0017335197901338112
1111.0, 0.001766603306965642
1112.0, 0.001742236047441474
1113.0, 0.0022787142984082567
1114.0, 0.0025384221844027156
1115.0, 0.0023271893555085305
1116.0, 0.0020317919060984023
1117.0, 0.0026793755863192804
1118.0, 0.0021408920206373817
1119.0, 0.001579247190195717
1120.0, 0.0017996956864061856
1121.0, 0.0028047593173594247
1122.0, 0.0021533650163145933
1123.0, 0.0019408287893650056
1124.0, 0.0013515575181094613
1125.0, 0.0013126616717624357
1126.0, 0.0020382486799993345
1127.0, 0.002423234553718592
1128.0, 0.0024682452932368896
1129.0, 0.002236088074010711
1130.0, 0.002162296235760624
1131.0, 0.0021729422493275926
1132.0, 0.0019596947431434774
1133.0, 0.001966347649970601
1134.0, 0.0015723480693561036
1135.0, 0.0017799956776763585
1136.0, 0.0020644452649991266
1137.0, 0.0019937308236526053
1138.0, 0.002324300810318652
1139.0, 0.0012543020985586433
1140.0, 0.0015118820655176792
1141.0, 0.001730582569398855
1142.0, 0.0017643394306042347
1143.0, 0.002645623056525284
1144.0, 0.0007587754389276446
1145.0, 0.0011480668704044942
1146.0, 0.002196702751806071
1147.0, 0.0022249875065571472
1148.0, 0.0008241892558681788
1149.0, 0.0022718475170421387
1150.0, 0.001740231510388615
1151.0, 0.0009792669317766932
1152.0, 0.0010356241180595653
1153.0, 0.0016825609979430186
1154.0, 0.0012662968952009566
1155.0, 0.0013768105759081927
1156.0, 0.0014844167838138644
1157.0, 0.0017756274695261366
1158.0, 0.0017316667038284905
1159.0, 0.0011376606797284619
1160.0, 0.0027346306111999167
1161.0, 0.002262649452928277
1162.0, 0.0013036939853555243
1163.0, 0.0008234394099482024
1164.0, 0.0009006068144929618
1165.0, 0.0004894044866098201
1166.0, 0.001644518369787187
1167.0, 0.0012571565614572248
1168.0, 0.0010798412641510895
1169.0, 0.0016080606944846158
1170.0, 0.002226360360597176
1171.0, 0.00034376758645252123
1172.0, 0.0017315525656430065
1173.0, 0.0022649961240116404
1174.0, 0.002246524861296036
1175.0, 0.002088630639672045
1176.0, 0.0014911774731081163
1177.0, 0.002953272225555663
1178.0, 0.0023092274883761183
1179.0, 0.0021326453334186164
1180.0, 0.0022028192247495787
1181.0, 0.0015277818470754191
1182.0, 0.001617015158941698
1183.0, 0.002025210523640614
1184.0, 0.002515535639284796
1185.0, 0.002487132090117347
1186.0, 0.0019459083728479577
1187.0, 0.0016478786271515015
1188.0, 0.0019364896645865152
1189.0, 0.0025812153115166545
1190.0, 0.002299538484278243
1191.0, 0.0018627140258032488
1192.0, 0.002127221514145163
1193.0, 0.0018580516322438193
1194.0, 0.0015148156157055595
1195.0, 0.0018156275253226664
1196.0, 0.0019885160496072047
1197.0, 0.001971468720703223
1198.0, 0.0023156939157659784
1199.0, 0.0024694265739540183
1200.0, 0.0022760154014336447
1201.0, 0.0026258059492308013
1202.0, 0.0026162094064461007
1203.0, 0.0020972085079211636
1204.0, 0.003138963115642397
1205.0, 0.0023402432382338
1206.0, 0.0028304354032980547
1207.0, 0.003015097880318154
1208.0, 0.002674429254463749
1209.0, 0.0023292944734198224
1210.0, 0.0019308718762393508
1211.0, 0.0029194715962067184
1212.0, 0.002660885690073454
1213.0, 0.0028612600132277037
1214.0, 0.0036337205375455415
1215.0, 0.002987452572669638
1216.0, 0.0026090933721538774
1217.0, 0.002965857436507175
1218.0, 0.0028344129448801387
1219.0, 0.002828628342291203
1220.0, 0.003412561492222492
1221.0, 0.0035438906071984704
1222.0, 0.0027669654997990296
1223.0, 0.003138900064115596
1224.0, 0.0028229786566014107
1225.0, 0.0025152152653441246
1226.0, 0.0035189213443586422
1227.0, 0.003022100614352925
1228.0, 0.002466257033882235
1229.0, 0.0027376700038520023
1230.0, 0.002857018516009163
1231.0, 0.0025296583436737736
1232.0, 0.0023715916004920607
1233.0, 0.002555753404778936
1234.0, 0.0030550235972009233
1235.0, 0.003193525728082783
1236.0, 0.0032667742112011647
1237.0, 0.003481699266477363
1238.0, 0.003493914784183503
1239.0, 0.003657532885046092
1240.0, 0.0035614063363811365
1241.0, 0.003423410404498196
1242.0, 0.003160927739128093
1243.0, 0.002937756080303447
1244.0, 0.0039587535715421155
1245.0, 0.003285284802417163
1246.0, 0.004003311965042601
1247.0, 0.00359525488608332
1248.0, 0.0030897988860112808
1249.0, 0.0046429541340975095
1250.0, 0.0033412067388203254
1251.0, 0.0037345069913250926
1252.0, 0.003820253220073817
1253.0, 0.0036555678369561383
1254.0, 0.003240098724615568
1255.0, 0.0025113045181746367
1256.0, 0.00344148930159833
1257.0, 0.0024655240388446143
1258.0, 0.002041805691032321
1259.0, 0.0022426987953348
1260.0, 0.0023344935694110374
1261.0, 0.0014494610682138345
1262.0, 0.0025638838254845127
1263.0, 0.002861418779020709
1264.0, 0.0026901809099210156
1265.0, 0.002527075478721253
1266.0, 0.0026855509208453324
1267.0, 0.003055193450727342
1268.0, 0.0018265816504322067
1269.0, 0.0014820101427893459
1270.0, 0.0014107651863246966
1271.0, 0.001621991923071125
1272.0, 0.0020399609351172583
1273.0, 0.0017260029348675106
1274.0, 0.0013144231517764821
1275.0, 0.0017721899469087528
1276.0, 0.0019298796920733986
1277.0, 0.0018332654787503976
1278.0, 0.001976837139943816
1279.0, 0.001959362374618221
1280.0, 0.0007361565979446307
1281.0, 0.001279113948144962
1282.0, 0.001306445094263945
1283.0, 0.0005692765949962368
1284.0, 0.00037321026715274384
1285.0, 0.0018140414971529032
1286.0, 0.0016985781741439725
1287.0, 0.0012414923172874963
1288.0, 0.0009616362461291302
1289.0, 0.0010248538899475927
1290.0, 0.0012680990318564458
1291.0, 0.0011943780892839627
1292.0, 0.0006880195047230875
1293.0, 0.0003477926088805671
1294.0, 0.00036505487687010655
1295.0, 0.0005240212438983794
1296.0, 0.0005320184726914951
1297.0, 0.0012950631269923489
1298.0, 0.0010330510461212484
1299.0, 0.0011677282835319451
1300.0, 0.0009872567186704308
1301.0, 0.0005014906960875345
1302.0, 0.0003954278547438307
1303.0, 5.8357142030575544e-05
1304.0, 0.0004174164132295352
1305.0, 0.0005508476164652129
1306.0, 0.0006588048055273698
1307.0, 0.0007146841223801083
1308.0, 0.0005099475434351647
1309.0, 0.0008149604771401637
1310.0, 0.0006930776046375932
1311.0, 0.0005881770654504267
1312.0, 0.0004932423577813292
1313.0, 0.0003738323670171012
1314.0, 0.0002589298675490553
1315.0, 0.0003662138612928871
1316.0, 0.0009507080379394713
1317.0, 0.0007952609772682614
1318.0, 0.0003690490508560602
1319.0, 0.00019906451579056162
1320.0, 0.000501151798759012
1321.0, 0.000868563017617124
1322.0, 0.0002683232046111347
1323.0, 0.00016358376320208616
1324.0, 0.00032776676700968965
1325.0, 0.0005835003686300954
1326.0, 0.0007928603866783769
1327.0, 9.46543183665252e-05
1328.0, 0.0006463663389425703
1329.0, 0.0009050093777302025
1330.0, 0.0006463080163380791
1331.0, 0.0005182491623581611
1332.0, 0.0010059725676312998
1333.0, 0.00016040042811616323
1334.0, 0.0007209705311403972
1335.0, 0.0005631722372013264
1336.0, 0.0005901096602004651
1337.0, 0.0006273077491586143
1338.0, 0.00023532152910650474
1339.0, 0.0004368372954677435
1340.0, 0.001184643689039598
1341.0, 0.0008294510849552914
1342.0, 0.0005682159161968705
1343.0, 0.0006448578962648834
1344.0, 0.0008388691907236988
1345.0, 0.001138017485892688
1346.0, 0.000270852279832129
1347.0, 0.0007751432444072898
1348.0, 0.001020075875788042
1349.0, 0.000842923953171918
1350.0, 0.0005472433826584035
1351.0, 0.00022047201172752497
1352.0, 0.0012788938363329243
1353.0, 0.001838696643547387
1354.0, 0.0010255397634619488
1355.0, 0.0007048228493863797
1356.0, 0.0012033346980615083
1357.0, 0.0003326104312133637
1358.0, 0.0009674570852072242
1359.0, 0.0009808859540349406
1360.0, 0.001511332186113497
1361.0, 0.0013920333696858481
1362.0, 0.000741993683696062
1363.0, 0.0008650446138008157
1364.0, 0.0005069617112706854
1365.0, 0.0007046502506551362
1366.0, 0.0013264773553947676
1367.0, 0.001156961994390917
1368.0, 0.0009693996141566954
1369.0, 0.0017127944678891715
1370.0, 0.00031784580792722575
1371.0, 0.00029484174841068537
1372.0, 0.0003523679025726183
1373.0, 0.00032416297063278434
1374.0, 0.0005005480186024804
1375.0, 0.000931889494155568
1376.0, 0.0008560294412903729
1377.0, 0.0007575984824505399
1378.0, 0.0015325340082109472
1379.0, 0.001598641830953699
1380.0, 0.0013286046772603534
1381.0, 0.0014750784432388927
1382.0, 0.0021277791166252015
1383.0, 0.0007908207331410052
1384.0, 0.0012564713761698835
1385.0, 0.0015462181278433137
1386.0, 0.001105966957289736
1387.0, 0.0006402610947731875
1388.0, 0.001270180748071224
1389.0, 0.002500588464605305
1390.0, 0.0016808725217607886
1391.0, 0.0016070671393100535
1392.0, 0.001475099596305814
1393.0, 0.0013460231530804483
1394.0, 0.0015922046662321825
1395.0, 0.001998240836840962
1396.0, 0.001337130878680335
1397.0, 0.0011980844097304337
1398.0, 0.001771812408672037
1399.0, 0.0019364012080486492
1400.0, 0.0014692184934693272
1401.0, 0.0014683961588765016
1402.0, 0.0013035554518573704
1403.0, 0.00047392980378539463
1404.0, 0.001350914137145577
1405.0, 0.0021589376595549806
1406.0, 0.0020081183992138253
1407.0, 0.0013090027282049211
1408.0, 0.0009866912185579045
1409.0, 0.0006698845267914102
1410.0, 0.0008385364377253305
1411.0, 0.0013644349664882632
1412.0, 0.00167465380775026
1413.0, 0.0013788277566032909
1414.0, 0.000797707558894021
1415.0, 0.001971640270873146
1416.0, 0.0010949360223918576
1417.0, 0.0008583680710115252
1418.0, 0.0017338358578374664
1419.0, 0.0023130152066208336
1420.0, 0.0010851395103976698
1421.0, 7.782522455469776e-05
1422.0, 0.0004538973642211655
1423.0, 0.0007361320393813145
1424.0, 0.0009129899881873289
1425.0, 0.001054258557487243
1426.0, 0.0009998710770929501
1427.0, 0.00044422556404254913
1428.0, 0.0014002602135872305
1429.0, 0.0010564155581836829
1430.0, 0.0007356477530087503
1431.0, 0.000951330195624557
1432.0, 0.0012272279356317106
1433.0, 0.0010070176731648444
1434.0, 0.001553455472842848
1435.0, 0.0011077251815920842
1436.0, 0.0005212886465359738
1437.0, 0.0003469245023146957
1438.0, 0.0003334202211333337
1439.0, 0.00021531177402634203
1440.0, 0.00019772235370139305
1441.0, 0.0007326641423071822
1442.0, 0.0006769693552732972
1443.0, 0.0012132258653434877
1444.0, 0.0021459105110802176
1445.0, 0.002361668722487148
1446.0, 0.0015273812845910872
1447.0, 0.0020652668891951668
1448.0, 0.001304223448521697
1449.0, 0.0010976557645063468
1450.0, 0.0007982198027791504
1451.0, 0.0005798659149590151
1452.0, 0.0005475502659694565
1453.0, 0.0006496629357247352
1454.0, 0.0016524753700393649
1455.0, 0.0011501337869797912
1456.0, 0.0013760268885738612
1457.0, 0.0021170604638656105
1458.0, 0.0020207133223389528
1459.0, 0.0011011907022845406
1460.0, 0.0018594037451368764
1461.0, 0.00283772370497612
1462.0, 0.0017972845247742314
1463.0, 0.001614578264177121
1464.0, 0.0011499439705118938
1465.0, 0.0005969761631427793
1466.0, 0.0009280663270021653
1467.0, 0.00153315877035693
1468.0, 0.0011104673913185483
1469.0, 0.0016394751186502112
1470.0, 0.0023339676891566546
1471.0, 0.0017879965647144126
1472.0, 0.001273188690225188
1473.0, 0.0029421741349120976
1474.0, 0.0021480819552597567
1475.0, 0.0003862207404219508
1476.0, 0.0011677581709160605
1477.0, 0.001653451721891572
1478.0, 0.0012813371322504495
1479.0, 0.0011931330703160924
1480.0, 0.0024934654476036922
1481.0, 0.001589461424089975
1482.0, 0.001362042382255608
1483.0, 0.000986388480483843
1484.0, 0.0004966710493087409
1485.0, 0.0002893988609389529
1486.0, 0.0007806851614987274
1487.0, 0.0018776397438888305
1488.0, 0.0009353228853709331
1489.0, 0.001666675086709559
1490.0, 0.0019061555081373088
1491.0, 0.0016411206950281744
1492.0, 0.0017028584668876607
1493.0, 0.0022039655820105496
1494.0, 0.001459127409713884
1495.0, 0.0020646040001159522
1496.0, 0.002082791896019397
1497.0, 0.0011397662626648885
1498.0, 0.001225560247872217
1499.0, 0.0017920262126387978
1500.0, 0.001110635502392849
1501.0, 0.00019765212293279435
1502.0, 0.0011674370403305524
1503.0, 0.0013372116254076777
1504.0, 0.001292069537344295
1505.0, 0.0015509770604945836
1506.0, 0.0015804670262836002
1507.0, 0.000816953298703119
1508.0, 0.0008769364339808648
1509.0, 0.002355486575338257
1510.0, 0.001358353441812834
1511.0, 0.0008581385797280302
1512.0, 0.001614708199300595
1513.0, 0.0025267126638537454
1514.0, 0.0019627112949792
1515.0, 4.869928621655141e-06
1516.0, 0.0003614818343413394
1517.0, 0.00011499198875093483
1518, 0.0
1519, 0.0
1520, 0.0
1521, 0.0
1522, 0.0
1523, 0.0
1524, 0.0
1525, 0.0
1526, 0.0
1527, 0.0
1528, 0.0
1529, 0.0
1530, 0.0
1531, 0.0
1532, 0.0
1533, 0.0
1534, 0.0
1535, 0.0
1536, 0.0
1537, 0.0
1538, 0.0
1539, 0.0
1540, 0.0
1541, 0.0
1542, 0.0
1543, 0.0
1544, 0.0
1545, 0.0
1546, 0.0
1547, 0.0
1548, 0.0
1549, 0.0
1550, 0.0
1551, 0.0
1552, 0.0
1553, 0.0
1554, 0.0
1555, 0.0
1556, 0.0
1557, 0.0
1558, 0.0
1559, 0.0
1560, 0.0
1561, 0.0
1562, 0.0
1563, 0.0
1564, 0.0
1565, 0.0
1566, 0.0
1567, 0.0
1568, 0.0
1569, 0.0
1570, 0.0
1571, 0.0
1572, 0.0
1573, 0.0
1574, 0.0
1575, 0.0
1576, 0.0
1577, 0.0
1578, 0.0
1579, 0.0
1580, 0.0
1581, 0.0
1582, 0.0
1583, 0.0
1584, 0.0
1585, 0.0
1586, 0.0
1587, 0.0
1588, 0.0
1589, 0.0
1590, 0.0
1591, 0.0
1592, 0.0
1593, 0.0
1594, 0.0
1595, 0.0
1596, 0.0
1597, 0.0
1598, 0.0
1599, 0.0
