30, 0.0
31, 0.0
32, 0.0
33, 0.0
34, 0.0
35, 0.0
36, 0.0
37, 0.0
38, 0.0
39, 0.0
40, 0.0
41, 0.0
42, 0.0
43, 0.0
44, 0.0
45, 0.0
46, 0.0
47, 0.0
48, 0.0
49, 0.0
50, 0.0
51, 0.0
52, 0.0
53, 0.0
54, 0.0
55, 0.0
56, 0.0
57, 0.0
58, 0.0
59, 0.0
60, 0.0
61, 0.0
62, 0.0
63, 0.0
64, 0.0
65, 0.0
66, 0.0
67, 0.0
68, 0.0
69, 0.0
70, 0.0
71, 0.0
72, 0.0
73, 0.0
74, 0.0
75, 0.0
76, 0.0
77, 0.0
78, 0.0
79, 0.0
80, 0.0
81, 0.0
82, 0.0
83, 0.0
84, 0.0
85, 0.0
86, 0.0
87, 0.0
88, 0.0
89, 0.0
90, 0.0
91, 0.0
92, 0.0
93, 0.0
94, 0.0
95, 0.0
96, 0.0
97, 0.0
98, 0.0
99, 0.0
100, 0.0
101, 0.0
102, 0.0
103, 0.0
104, 0.0
105, 0.0
106, 0.0
107, 0.0
108, 0.0
109, 0.0
110, 0.0
111, 0.0
112, 0.0
113, 0.0
114, 0.0
115, 0.0
116, 0.0
117, 0.0
118, 0.0
119, 0.0
120, 0.0
121, 0.0
122, 0.0
123, 0.0
124, 0.0
125, 0.0
126, 0.0
127, 0.0
128, 0.0
129, 0.0
130, 0.0
131, 0.0
132, 0.0
133.0, 0.00019481151043257514
134.0, 0.0021047282793793176
135.0, 0.000736343486488491
136.0, 0.0013335941793358938
137.0, 0.002383211610219668
138.0, 0.002836258989248006
139.0, 0.006217474731164509
140.0, 0.005908708813714126
141.0, 0.007151229145069084
142.0, 0.011154131453777302
143.0, 0.017713708384012913
144.0, 0.025606794740706196
145.0, 0.03720005573849579
146.0, 0.04724621038221285
147.0, 0.05254390553357437
148.0, 0.057135920086411184
149.0, 0.06795505593625395
150.0, 0.091939383668237
151.0, 0.12510318666533501
152.0, 0.16565657562381167
153.0, 0.19073091070454584
154.0, 0.18348492796662313
155.0, 0.14257548279851567
156.0, 0.11403126466728133
157.0, 0.09228831926503439
158.0, 0.07521754328850719
159.0, 0.0605631271004786
160.0, 0.046442854681994356
161.0, 0.03346270197931582
162.0, 0.024257432029888375
163.0, 0.01618707501484172
164.0, 0.009935484807128393
165.0, 0.006192150962745299
166.0, 0.0040764299376227315
167.0, 0.004003486517527747
168.0, 0.0025082759581360197
169.0, 0.0021315428327503333
170.0, 0.002308109866502338
171.0, 0.0003792258004640095
172.0, 0.0038069141544527967
173.0, 0.002523561910593747
174.0, 0.0017631318380869666
175.0, 0.0016470415782245406
176.0, 0.0012238483127094682
177.0, 0.0012140608582194823
178.0, 0.0005400335480389604
179.0, 0.000684713819109458
180.0, 0.0014471998193108717
181.0, 0.0018272109977483205
182.0, 0.0005411382370981411
183.0, 0.0018677696615342371
184.0, 0.00308560774945321
185.0, 0.0027691931414571052
186.0, 0.002162942853391081
187.0, 0.0027559640126703705
188.0, 0.0034880313513491116
189.0, 0.004000169193108447
190.0, 0.0023577519491487283
191.0, 0.001405477617876756
192.0, 0.0017720658899779518
193.0, 0.0013131193764328887
194.0, 0.0022086190225528044
195.0, 0.0032917081424981244
196.0, 0.0030390989738918305
197.0, 0.002507516565215205
198.0, 0.002881344934804354
199.0, 0.002474655585025033
200.0, 0.0047195896324628995
201.0, 0.0034637252402697867
202.0, 0.0025431403721197115
203.0, 0.003399849585004327
204.0, 0.0038696245697160945
205.0, 0.0013777197335959376
206.0, 0.0019367648250183923
207.0, 0.00241630819892509
208.0, 0.0022511735261196305
209.0, 0.001689027217961257
210.0, 0.0007050679104853414
211.0, 0.0012604874777260551
212.0, 0.0018424065235421298
213.0, 0.0019311058758935825
214.0, 0.0016144416974182016
215.0, 0.0015098903693323328
216.0, 0.002638479867376617
217.0, 0.0020910914876787748
218.0, 0.0012195767328019888
219.0, 0.0009098733870035823
220.0, 0.0014063580456898956
221.0, 0.0018437830547710422
222.0, 0.0004652401329830405
223.0, 0.0030142373723095477
224.0, 0.003005717752384941
225.0, 0.0006207837985514024
226.0, 0.00014985544784029995
227.0, 0.0006882346106592066
228.0, 0.0010330454782980741
229.0, 0.0010439559291310185
230.0, 0.0011228210379492078
231.0, 0.0011595183158744958
232.0, 0.00022187176089465317
233.0, 0.0010701238905277783
234.0, 0.0017527089832535625
235.0, 0.0018354685423112539
236.0, 0.001761450604403176
237.0, 0.0024103128469719344
238.0, 0.004784717724345011
239.0, 0.001504502846213634
240.0, 0.0010995893387195452
241.0, 0.0013675543558307115
242.0, 0.0014028351343800204
243.0, 0.002279237581201656
244.0, 0.0018666179353853147
245.0, 0.0030444617554157413
246.0, 0.002162303222499948
247.0, 0.0009429804507612492
248.0, 0.0011316142418186334
249.0, 0.0015900210451979526
250.0, 0.0018622410933243846
251.0, 0.001034609899519778
252.0, 0.0013231745243889707
253.0, 0.0023262068407740753
254.0, 0.002484491844344166
255.0, 0.0019479935096331587
256.0, 0.0006287648985467667
257.0, 0.00255042367783342
258.0, 0.003917654476078891
259.0, 0.0040416002994059915
260.0, 0.006026083387839822
261.0, 0.006660321445970528
262.0, 0.006199540646944843
263.0, 0.0030059837543621667
264.0, 0.0014397728005792279
265.0, 0.003576916599304697
266.0, 0.003939639313810588
267.0, 0.0013643940906288001
268.0, 0.0021007630793991685
269.0, 0.002121075142788036
270.0, 0.0015086158626011511
271.0, 0.00211764485608806
272.0, 0.003843758048453194
273.0, 0.004125394750723976
274.0, 0.003891143435918693
275.0, 0.004683365568419546
276.0, 0.005683128386975114
277.0, 0.005020672267238552
278.0, 0.009436308438197132
279.0, 0.009789710478415835
280.0, 0.012218668319665237
281.0, 0.016181187007052924
282.0, 0.019508925601086802
283.0, 0.020483985929805368
284.0, 0.03265629074195077
285.0, 0.04018180360687065
286.0, 0.04335848256131807
287.0, 0.04611727444847813
288.0, 0.04879914401240867
289.0, 0.040435947390525716
290.0, 0.03282912521136759
291.0, 0.02695863758690912
292.0, 0.02194242845815912
293.0, 0.017999656627453644
294.0, 0.015174351459975841
295.0, 0.010151698003858296
296.0, 0.005348267864813416
297.0, 0.00362962279545053
298.0, 0.0033741351037714605
299.0, 0.0036314975739580187
300.0, 0.004263263481799683
301.0, 0.003422442940274887
302.0, 0.0023195451296663073
303.0, 0.0013590394101367083
304.0, 0.0011656107979660852
305.0, 0.0013767968242630437
306.0, 0.0006538276484301927
307.0, 0.0009329043646660679
308.0, 0.0009003639434766401
309.0, 0.0022745229280123343
310.0, 0.0029015272419355624
311.0, 0.0016043697096817067
312.0, 0.0007049932707412587
313.0, 0.00035096728905846926
314.0, 0.000700834826501089
315.0, 0.001270360866317512
316.0, 0.0011895770674953854
317.0, 0.000537865640237575
318.0, 0.001831198991449991
319.0, 0.0017448769598439394
320.0, 0.0032904600448672274
321.0, 0.005555931886015993
322.0, 0.008281109070638126
323.0, 0.011148654577481383
324.0, 0.012369040708722353
325.0, 0.014007767308862204
326.0, 0.018421136084138815
327.0, 0.023749026748176038
328.0, 0.02909206117914926
329.0, 0.03426281092386403
330.0, 0.03821109842845621
331.0, 0.03460727057242617
332.0, 0.03121548198174202
333.0, 0.02752237163626201
334.0, 0.023583977111068383
335.0, 0.02004300239194812
336.0, 0.014706588578518401
337.0, 0.010375718566529418
338.0, 0.0077574535999387255
339.0, 0.006458258561316261
340.0, 0.006456971249777337
341.0, 0.007448446671277895
342.0, 0.0032513050108006355
343.0, 0.0036763993921777585
344.0, 0.003047758998897529
345.0, 0.0017447675746972175
346.0, 0.000764989714203377
347.0, 0.0005896098294373159
348.0, 0.0019083518453230706
349.0, 0.0028060014101942213
350.0, 0.002273632866615653
351.0, 0.002052514973876158
352.0, 0.0026632286443768844
353.0, 0.002546866501875
354.0, 0.0015980091351802165
355.0, 0.002272014608407039
356.0, 0.002118809692306083
357.0, 0.0013415576804984245
358.0, 0.0017920525641965327
359.0, 0.005582879687412558
360.0, 0.003691189342038995
361.0, 0.002912927193256593
362.0, 0.002948671722230171
363.0, 0.005525232321073292
364.0, 0.008592453857908076
365.0, 0.005917455053955265
366.0, 0.007869864210758628
367.0, 0.006583052920369904
368.0, 0.005300457248618448
369.0, 0.005796982167991578
370.0, 0.006674292316442737
371.0, 0.0037498903592688834
372.0, 0.0035381123825812626
373.0, 0.00405821015265373
374.0, 0.0026587477457667794
375.0, 0.0019884124288943824
376.0, 0.0023996563559246335
377.0, 0.00023541653641059954
378.0, 0.0007756629256977646
379.0, 0.0021329066817791036
380.0, 0.001793229543592778
381.0, 0.0010762145432894686
382.0, 0.0011422969161875812
383.0, 0.001642209281040397
384.0, 0.0014938570132168405
385.0, 0.0012279503150752595
386.0, 0.0016911694564876402
387.0, 0.00263771523414195
388.0, 0.003980665690888641
389.0, 0.005983109320416615
390.0, 0.008017652821678312
391.0, 0.010950150375263413
392.0, 0.014541391690306821
393.0, 0.01621557115460823
394.0, 0.016472424009909527
395.0, 0.01800213221872788
396.0, 0.014013143629715744
397.0, 0.014082082148676189
398.0, 0.01193089894233693
399.0, 0.008590534652729492
400.0, 0.006098252457067075
401.0, 0.005520361142997984
402.0, 0.0040698418114503195
403.0, 0.006051968587741234
404.0, 0.006608305722955973
405.0, 0.005892276217576495
406.0, 0.003640221122449521
407.0, 0.0004964178772910671
408.0, 0.0033933049862353024
409.0, 0.0009654299519483445
410.0, 0.001813151837563041
411.0, 0.0034639836567609836
412.0, 0.0030629819310320607
413.0, 0.0010066045215636511
414.0, 0.0057805758109377246
415.0, 0.005812230083658902
416.0, 0.004936181649723893
417.0, 0.005133558894627345
418.0, 0.00638119897948039
419.0, 0.0069015057932139395
420.0, 0.00370541023700609
421.0, 0.004412109567425972
422.0, 0.004222632808896573
423.0, 0.007093027018413609
424.0, 0.01049426699305525
425.0, 0.01156234185105472
426.0, 0.011308451088631623
427.0, 0.012705625726720205
428.0, 0.015241450553575968
429.0, 0.01636274914278288
430.0, 0.01904748586355426
431.0, 0.023761309895519982
432.0, 0.027243878428018113
433.0, 0.035870109472987584
434.0, 0.04379054267823866
435.0, 0.05451358656348059
436.0, 0.07339824335880656
437.0, 0.10181182282876851
438.0, 0.13973329513716032
439.0, 0.20006563579597064
440.0, 0.26802520998150753
441.0, 0.33318673983702085
442.0, 0.40139375108370506
443.0, 0.493529503759963
444.0, 0.6300250475963606
445.0, 0.80766313674245
446.0, 0.967713065840391
447.0, 0.9941527533005988
448.0, 0.9022057774718256
449.0, 0.753291823055224
450.0, 0.6085310697764994
451.0, 0.49092855143505604
452.0, 0.3974997394750369
453.0, 0.30049235357998444
454.0, 0.2207375756832003
455.0, 0.15708354191585316
456.0, 0.10796235914152062
457.0, 0.07713826054916352
458.0, 0.05898584227407168
459.0, 0.0490133280859209
460.0, 0.037897317936895464
461.0, 0.02980584872835254
462.0, 0.025709542795411912
463.0, 0.022826831923945023
464.0, 0.019564183640796557
465.0, 0.01739113759672092
466.0, 0.015528242030495343
467.0, 0.014843389887576199
468.0, 0.01361945872848033
469.0, 0.011302560800571407
470.0, 0.011653742087309776
471.0, 0.010093195980569715
472.0, 0.011117114877155453
473.0, 0.010587012990575934
474.0, 0.007924732710451106
475.0, 0.00531998818534126
476.0, 0.005917597848284311
477.0, 0.007069940186694177
478.0, 0.007843874556409058
479.0, 0.007666823866628904
480.0, 0.006019319024938199
481.0, 0.00500303249289267
482.0, 0.006411688597831502
483.0, 0.006123738733557212
484.0, 0.008414693844634266
485.0, 0.0071216742618829525
486.0, 0.0063239754475935914
487.0, 0.006371460429557123
488.0, 0.007449051804201166
489.0, 0.011277533771980184
490.0, 0.01198371441914785
491.0, 0.014495450686821997
492.0, 0.01622206441046831
493.0, 0.01763614142859915
494.0, 0.02097880808933786
495.0, 0.028210142718660094
496.0, 0.036917725527322226
497.0, 0.0406512848379713
498.0, 0.03961430485067036
499.0, 0.035118180917799606
500.0, 0.02810121813599338
501.0, 0.021008859707415617
502.0, 0.018490712949897094
503.0, 0.015935190870034907
504.0, 0.01031025435481906
505.0, 0.00741611743736407
506.0, 0.00579759874386934
507.0, 0.004438102571277254
508.0, 0.004116205261142533
509.0, 0.004696675830332081
510.0, 0.004645674732570884
511.0, 0.003514211764838593
512.0, 0.0030631042386176713
513.0, 0.002126427898220987
514.0, 0.0005257781154465681
515.0, 0.0018877753127420369
516.0, 0.0021144509421951586
517.0, 0.000697807971371172
518.0, 0.0011980859072064196
519.0, 0.0014495610342051077
520.0, 0.0008077814507355403
521.0, 0.0007199696890278197
522.0, 0.0010569447794335223
523.0, 0.003550045510824763
524.0, 0.0022374867113443965
525.0, 0.0006599779067953571
526.0, 0.0005560436292442509
527.0, 0.001170833204634268
528.0, 0.0003567497791804328
529.0, 0.003167049133448655
530.0, 0.004349739714938405
531.0, 0.0023425260811740936
532.0, 0.0016904451455462901
533.0, 0.0024232644213572213
534.0, 0.001923968151935869
535.0, 0.001905761526720385
536.0, 0.0011105626893578885
537.0, 0.00030389805131021994
538.0, 0.00025451269815377376
539.0, 0.0002832470622456536
540.0, 3.3205212679744473e-05
541.0, 0.0002848482274700893
542.0, 0.002679906725091553
543.0, 0.0009429371709841663
544.0, 0.0007902449004532933
545.0, 0.001306556807655715
546.0, 0.0013036861946527606
547.0, 0.0009973971014537657
548.0, 0.0022982317439914674
549.0, 0.0006972638765626963
550.0, 0.0021758612320004565
551.0, 0.002147280226148752
552.0, 0.0018062379143238506
553.0, 0.001503732337239203
554.0, 0.0009069463693509936
555.0, 0.0023316824206706245
556.0, 0.002241046366138803
557.0, 0.0011045676222621946
558.0, 0.003700789437146457
559.0, 0.0037682823458092497
560.0, 0.0003302797860033447
561.0, 0.000629456700921935
562.0, 0.001522654071468717
563.0, 0.004124722218300851
564.0, 0.004490359839148877
565.0, 0.003817388665344115
566.0, 0.0030346129180111522
567.0, 0.0022404555571122987
568.0, 0.0009519629185488131
569.0, 0.00039746282796686874
570.0, 0.002617791236639519
571.0, 0.0014572905498336055
572.0, 0.0023369170372024503
573.0, 0.0047607883547465014
574.0, 0.006192661421700191
575.0, 0.009996161466194661
576.0, 0.011140436907432895
577.0, 0.011740511880355419
578.0, 0.01253794659607301
579.0, 0.01369475276674857
580.0, 0.017184452970410408
581.0, 0.02355298191705583
582.0, 0.02547302882986748
583.0, 0.025350888441011778
584.0, 0.01951394531343575
585.0, 0.018094147709975323
586.0, 0.015957150092874753
587.0, 0.012203618404841608
588.0, 0.011665758844006377
589.0, 0.006827971996599552
590.0, 0.010197655470882853
591.0, 0.010977496060054766
592.0, 0.01000504377794008
593.0, 0.009380045472468443
594.0, 0.011065887420158259
595.0, 0.014716142470221138
596.0, 0.012502001588339844
597.0, 0.01781998270694908
598.0, 0.022443611620638664
599.0, 0.021738290761536584
600.0, 0.02446334285603134
601.0, 0.033541384566106246
602.0, 0.03879046462311473
603.0, 0.04563886578299319
604.0, 0.053436974044650865
605.0, 0.0570709339868698
606.0, 0.06190977484255848
607.0, 0.0661659018989974
608.0, 0.06807718161940877
609.0, 0.07019268393104212
610.0, 0.06377370878915554
611.0, 0.06197994066374697
612.0, 0.055646185475911845
613.0, 0.04584374502823578
614.0, 0.03782588167857213
615.0, 0.034006787741345516
616.0, 0.030152679056477484
617.0, 0.023939296079569843
618.0, 0.022753586231606095
619.0, 0.019339937189096178
620.0, 0.01649209400350445
621.0, 0.014976321371711445
622.0, 0.014429606171356794
623.0, 0.0147802743647259
624.0, 0.011360533662723146
625.0, 0.011847124235008088
626.0, 0.011456652418454175
627.0, 0.010542195728466866
628.0, 0.00898683960198042
629.0, 0.007425963272069703
630.0, 0.007801715729954273
631.0, 0.008246586124604275
632.0, 0.008798556620419947
633.0, 0.008654000847619263
634.0, 0.008633239140667794
635.0, 0.008387677955766358
636.0, 0.008072222731024781
637.0, 0.008961294024424927
638.0, 0.009122856337769478
639.0, 0.010187087790504538
640.0, 0.011406526681417188
641.0, 0.011098001749664065
642.0, 0.010551271912373093
643.0, 0.011345699879765686
644.0, 0.01360842002414878
645.0, 0.017968598610708743
646.0, 0.01824291461752557
647.0, 0.021688832081194105
648.0, 0.02185923884776239
649.0, 0.02232225542369892
650.0, 0.02474095863510265
651.0, 0.025120637916977294
652.0, 0.02530596250198693
653.0, 0.02854728941153356
654.0, 0.03417853614393017
655.0, 0.03979742569679563
656.0, 0.045497722636063595
657.0, 0.0522035213859239
658.0, 0.06058701493779241
659.0, 0.07065582843336395
660.0, 0.07802800573865297
661.0, 0.08688900166044934
662.0, 0.09681072103770304
663.0, 0.1055782655038367
664.0, 0.11104809304528612
665.0, 0.11321649213017401
666.0, 0.1150414061520816
667.0, 0.10876964576671394
668.0, 0.10238765557010604
669.0, 0.09102995706890234
670.0, 0.08085286517182885
671.0, 0.0720284243208166
672.0, 0.063230734321039
673.0, 0.057854590531751675
674.0, 0.04829575004429966
675.0, 0.04212791162824136
676.0, 0.034436410817737656
677.0, 0.031501411040110956
678.0, 0.02832369207309236
679.0, 0.02253215937601101
680.0, 0.02029933453330185
681.0, 0.016454867579522033
682.0, 0.013566974345138028
683.0, 0.011832624075520819
684.0, 0.011183579743401405
685.0, 0.011357405500599015
686.0, 0.010081548115625357
687.0, 0.006740147719282199
688.0, 0.009099237785034617
689.0, 0.007416332185813979
690.0, 0.008557779412672757
691.0, 0.00841743926150616
692.0, 0.006962789740362545
693.0, 0.005384397818089301
694.0, 0.004576346459498406
695.0, 0.0046933071111552776
696.0, 0.00796177466477753
697.0, 0.004199769431176415
698.0, 0.0036565393589313884
699.0, 0.003513670763955824
700.0, 0.0020034226070911212
701.0, 0.0015490107231046183
702.0, 0.005172417152281864
703.0, 0.005010261195952406
704.0, 0.004651224468202445
705.0, 0.0019189104002586815
706.0, 0.003231378906580812
707.0, 0.003879014343524615
708.0, 0.003922373742967512
709.0, 0.005183547827390126
710.0, 0.0014926029517833756
711.0, 0.0038761695267465167
712.0, 0.0026406247802278696
713.0, 0.004275159624897577
714.0, 0.005182225953673589
715.0, 0.005072133148298063
716.0, 0.004289145676132895
717.0, 0.002744597580498019
718.0, 0.007165120717548278
719.0, 0.0038711331795557137
720.0, 0.0031954070587265127
721.0, 0.004184983541290731
722.0, 0.0033713391133561458
723.0, 0.0026332204133575404
724.0, 0.004274421913653148
725.0, 0.002671424884452992
726.0, 0.0019563835200793285
727.0, 0.0011167849619477012
728.0, 0.0020112630895060607
729.0, 0.0026486000741721724
730.0, 0.0020866737803215195
731.0, 0.0021502284066359815
732.0, 0.004354940450679304
733.0, 0.0017963189571462807
734.0, 0.0007670188792044815
735.0, 0.00385147538454212
736.0, 0.004356937050472243
737.0, 0.0026468625149423633
738.0, 0.002220544212116662
739.0, 0.00413100323909258
740.0, 0.0043401932462629935
741.0, 0.0026836168618634285
742.0, 0.0045665325129580995
743.0, 0.0029522405113687404
744.0, 0.0022081757955336695
745.0, 0.002511313255849136
746.0, 0.0035037664640345497
747.0, 0.004968775422685616
748.0, 0.004633600831999119
749.0, 0.002681655993476125
750.0, 0.0049598618843984315
751.0, 0.0047887011815910445
752.0, 0.004523803121969865
753.0, 0.00524069415864326
754.0, 0.005640009131925667
755.0, 0.004487660354537793
756.0, 0.004836716951580994
757.0, 0.0019270184110609838
758.0, 0.006648387469341406
759.0, 0.007328749836041928
760.0, 0.007194943781818939
761.0, 0.006859001736160687
762.0, 0.005391823945282282
763.0, 0.005280362036733583
764.0, 0.010913999470079185
765.0, 0.009928840858747302
766.0, 0.009952757036443681
767.0, 0.00854812772148815
768.0, 0.010031235796559004
769.0, 0.012054301997507353
770.0, 0.011316980901455567
771.0, 0.012883024887096257
772.0, 0.016202429401925907
773.0, 0.018497047699066474
774.0, 0.019478327353175326
775.0, 0.021034646697708572
776.0, 0.023750352709131405
777.0, 0.025431939871913244
778.0, 0.026220834435291232
779.0, 0.03254586894078536
780.0, 0.037398421769998136
781.0, 0.03871315705096005
782.0, 0.043113076816271724
783.0, 0.05028189982317258
784.0, 0.0576652101499122
785.0, 0.06238449115839503
786.0, 0.06608423281579123
787.0, 0.07665156243054408
788.0, 0.08203270784236892
789.0, 0.09091299724720073
790.0, 0.09405080203980132
791.0, 0.09519510693164247
792.0, 0.09496477605481923
793.0, 0.09322895145134916
794.0, 0.08903895380600729
795.0, 0.07960668986493534
796.0, 0.07597020830957248
797.0, 0.06776153072655211
798.0, 0.06311540541864735
799.0, 0.05485606614405981
800.0, 0.048186506019661846
801.0, 0.04323600376408997
802.0, 0.03562355312535062
803.0, 0.030483528787514043
804.0, 0.02504604813193792
805.0, 0.0220978949141188
806.0, 0.021907338095972922
807.0, 0.019547757639002877
808.0, 0.017260202345432688
809.0, 0.015826351568726683
810.0, 0.013696578475469791
811.0, 0.011892648384124176
812.0, 0.010925133560213567
813.0, 0.00916170357814134
814.0, 0.00880911546669567
815.0, 0.008407791136182858
816.0, 0.007607156741813255
817.0, 0.007349967457750681
818.0, 0.008368868970716198
819.0, 0.009254417542016837
820.0, 0.0055899660679869425
821.0, 0.006419245879630305
822.0, 0.007312412038055544
823.0, 0.005323987355237818
824.0, 0.004563619907695482
825.0, 0.005213660251100125
826.0, 0.005417638804179715
827.0, 0.006057505020730131
828.0, 0.007595345644614228
829.0, 0.005507993095097711
830.0, 0.005337698283571335
831.0, 0.006545999675255042
832.0, 0.005308667270244375
833.0, 0.004287309250223497
834.0, 0.003873822309233387
835.0, 0.0009653638140369141
836.0, 0.0026633016660949664
837.0, 0.0017064003887231802
838.0, 0.0004327766375595683
839.0, 0.00198756150307065
840.0, 0.0012928698929834531
841.0, 0.001096192917196484
842.0, 0.002130179511653159
843.0, 0.0018687428993084392
844.0, 0.0024254174115045635
845.0, 0.005510096077155701
846.0, 0.003920086275070897
847.0, 0.0011340715927956272
848.0, 0.0031658981683408164
849.0, 0.003848514106304172
850.0, 0.0023141355094017705
851.0, 0.0019075933311412828
852.0, 0.0020211674961371547
853.0, 0.0007748024799868006
854.0, 0.0016744994960615905
855.0, 0.0012372882144577543
856.0, 0.0026181256716804463
857.0, 0.002658901026708415
858.0, 0.00132367836170337
859.0, 0.001501845215470614
860.0, 0.0034933966424221985
861.0, 0.0010687337179042216
862.0, 0.0008144523482385042
863.0, 0.0027364551512913684
864.0, 0.0014938528135619625
865.0, 0.0019685065727667577
866.0, 0.002353838237441309
867.0, 0.0017840836276053619
868.0, 0.0019788338988580376
869.0, 0.003528772226713806
870.0, 0.0027984509175309163
871.0, 0.0027109368061303137
872.0, 0.0010509204671897794
873.0, 0.0007754284045816071
874.0, 0.0019898670454139428
875.0, 0.0019097212657409963
876.0, 0.0013081852597965709
877.0, 0.0025027213602572297
878.0, 0.0015282845883843287
879.0, 0.00026524132436412827
880.0, 0.0013535998749414256
881.0, 0.002235495372957256
882.0, 0.0013166499659157593
883.0, 0.0008135709234396865
884.0, 0.0013572946611298833
885.0, 0.0014159482312746303
886.0, 0.0003774304695607279
887.0, 0.0015354398256260907
888.0, 0.001887598485946384
889.0, 0.0005397569072688213
890.0, 0.00035540384102880005
891.0, 0.0007422820103021361
892.0, 0.0006861748130632802
893.0, 0.001041430442744422
894.0, 0.0019359033605280559
895.0, 0.0010678266264428971
896.0, 0.0004129793258196541
897.0, 0.0021247659100615732
898.0, 0.0011433404090832248
899.0, 0.0027321412139358087
900.0, 0.003686697669348151
901.0, 0.003079917481993625
902.0, 0.0018702307726730406
903.0, 0.0015475130940390443
904.0, 0.002844370909681494
905.0, 0.0010796797738486326
906.0, 0.003478255194825155
907.0, 0.0014532772755815166
908.0, 0.00033431303879873217
909.0, 0.0025041407360645055
910.0, 0.0030991613837671418
911.0, 0.0017746959806267423
912.0, 0.0034248696492020754
913.0, 0.006230565488389978
914.0, 0.0006124516143295546
915.0, 0.0010805849451870195
916.0, 0.002888298100839841
917.0, 0.0038072768811429915
918.0, 0.0018903386713882333
919.0, 0.0012566400347833518
920.0, 0.0031842811337959593
921.0, 0.003719205035007012
922.0, 0.001848137377779402
923.0, 0.0026792454090759765
924.0, 0.0007921465520384367
925.0, 0.0021759585396725536
926.0, 0.0015395834873480458
927.0, 0.0006068071654482625
928.0, 0.0009870379236654764
929.0, 0.0018368594496990787
930.0, 0.0020156317651892457
931.0, 0.002601638220639018
932.0, 0.0022469511066067144
933.0, 0.003110861425389386
934.0, 0.0032605112702864584
935.0, 0.0016653764054724923
936.0, 0.002033963123614914
937.0, 0.0028575903829088658
938.0, 0.0018692206108777865
939.0, 0.00021896670042733017
940.0, 0.0005572562902528674
941.0, 0.0008358637978357916
942.0, 0.00015499402425258425
943.0, 0.00038480518757188316
944.0, 0.0011450621236976449
945.0, 0.0017159957357928933
946.0, 0.0022865543394366733
947.0, 0.002750801694326836
948.0, 0.0029253252860246427
949.0, 0.00321747002147238
950.0, 0.003406392563056391
951.0, 0.0014961888288859324
952.0, 0.0024555449741171394
953.0, 0.0034217603576383792
954.0, 0.0023095976817391643
955.0, 0.0031546597726658777
956.0, 0.004390704402347679
957.0, 0.0037487226308166185
958.0, 0.0034000475952709074
959.0, 0.0027767043055521596
960.0, 0.0030852577025849456
961.0, 0.0032001656936400695
962.0, 0.0032424784162220274
963.0, 0.002658257512622743
964.0, 0.0036020302609335517
965.0, 0.004880802766868418
966.0, 0.004614684400388179
967.0, 0.003070196462612737
968.0, 0.001840724992658944
969.0, 0.001937201714581372
970.0, 0.0022263435601565114
971.0, 0.0019012898633390361
972.0, 0.002516157745640959
973.0, 0.002132645410976883
974.0, 0.0030359048870935803
975.0, 0.004063732416212869
976.0, 0.0037062763426074998
977.0, 0.004518040245539881
978.0, 0.0066141734476559385
979.0, 0.00394232378701655
980.0, 0.00458458170487681
981.0, 0.006198351014295028
982.0, 0.007870428708749452
983.0, 0.00681043882638798
984.0, 0.005813502407016183
985.0, 0.005596625137278187
986.0, 0.005296560527470636
987.0, 0.007248898621600788
988.0, 0.005318736432123968
989.0, 0.005469892923473943
990.0, 0.0064943777573230515
991.0, 0.0046947685418132655
992.0, 0.003647550974020643
993.0, 0.0034513185681159016
994.0, 0.0033861218590881636
995.0, 0.0033694183620790728
996.0, 0.004804823617556891
997.0, 0.008847696772016153
998.0, 0.005069075423912653
999.0, 0.005798354865615975
1000.0, 0.008027038827040901
1001.0, 0.005495897551548223
1002.0, 0.006094533199931218
1003.0, 0.007056662873121026
1004.0, 0.004511683618235255
1005.0, 0.0016603245691234432
1006.0, 0.003017069351370189
1007.0, 0.0035530500341929066
1008.0, 0.005839174116190289
1009.0, 0.007906775044149366
1010.0, 0.005739464013811293
1011.0, 0.005378209528794257
1012.0, 0.004458318675828246
1013.0, 0.0033750420811678914
1014.0, 0.003944572139751669
1015.0, 0.004542956733058431
1016.0, 0.0028093775653473493
1017.0, 0.004071052508159655
1018.0, 0.005638921505276846
1019.0, 0.003776071299876424
1020.0, 0.004878748344087529
1021.0, 0.0032977838906652177
1022.0, 0.0032750497661809823
1023.0, 0.0028254515229908443
1024.0, 0.004201303497376536
1025.0, 0.007255752894532833
1026.0, 0.006182128149638564
1027.0, 0.0050271068047824195
1028.0, 0.002561084364804779
1029.0, 0.005416775211837202
1030.0, 0.005406541442839989
1031.0, 0.003353521260316904
1032.0, 0.004022824147640594
1033.0, 0.0038688811043552686
1034.0, 0.0036768587145445796
1035.0, 0.0034292422904896236
1036.0, 0.0016615502037242034
1037.0, 0.005411262082300383
1038.0, 0.006753552126803871
1039.0, 0.004825771276084715
1040.0, 0.002268724912827448
1041.0, 0.005369842355429333
1042.0, 0.005565175778640278
1043.0, 0.006582915419721736
1044.0, 0.008061346862136264
1045.0, 0.008042582167388191
1046.0, 0.007795765851517582
1047.0, 0.00767809403081299
1048.0, 0.005448330296206521
1049.0, 0.004543988981668147
1050.0, 0.003987419668265998
1051.0, 0.004648574137375308
1052.0, 0.00666589215191654
1053.0, 0.003774305843121718
1054.0, 0.003912634288119788
1055.0, 0.0060635858576047075
1056.0, 0.0046994783788585105
1057.0, 0.004858811204154874
1058.0, 0.007000062268694321
1059.0, 0.004399432418548677
1060.0, 0.001144164124875507
1061.0, 0.0021356140251584097
1062.0, 0.002618349237520584
1063.0, 0.0040213939758866534
1064.0, 0.005176578236823196
1065.0, 0.004171551326687977
1066.0, 0.0038655741951235194
1067.0, 0.005835785677957725
1068.0, 0.004405351269292339
1069.0, 0.004329225422133754
1070.0, 0.004535881636505861
1071.0, 0.006182722086600572
1072.0, 0.0036813218903906345
1073.0, 0.0030423909115599927
1074.0, 0.005062019830917665
1075.0, 0.004335410954063642
1076.0, 0.003428396572827469
1077.0, 0.0033650192808805752
1078.0, 0.0008956049501193607
1079.0, 0.0027963505230338597
1080.0, 0.003803364272957938
1081.0, 0.0044496827367082
1082.0, 0.0008509431301873833
1083.0, 0.0023158091668016214
1084.0, 0.0022593211841173302
1085.0, 0.0021153944413043915
1086.0, 0.0044189205386780585
1087.0, 0.003969683698788348
1088.0, 0.0022839350447712596
1089.0, 0.006514868676835905
1090.0, 0.004587962445566726
1091.0, 0.0022154182459883758
1092.0, 0.006877092067257928
1093.0, 0.003705761683011309
1094.0, 0.0015012338208707802
1095.0, 0.0031257330353472684
1096.0, 0.004749670323575972
1097.0, 0.0043923156406030115
1098.0, 0.0033246233300941006
1099.0, 0.0029589607092785153
1100.0, 0.0024358933480805546
1101.0, 0.000818753810229921
1102.0, 0.00266229957498512
1103.0, 0.0010711293390783371
1104.0, 0.0012396332767545077
1105.0, 0.0013977857601528898
1106.0, 0.0027302196979134175
1107.0, 0.0019145550778879082
1108.0, 0.0013850423892783612
1109.0, 0.001632201510265614
1110.0, 0.002371030411838421
1111.0, 0.0038659672042111824
1112.0, 0.0029791833516659926
1113.0, 0.0021212276760169454
1114.0, 0.0017843301783297075
1115.0, 0.006540806275005832
1116.0, 0.00515752587146989
1117.0, 0.005921578024854365
1118.0, 0.008520955685817542
1119.0, 0.009430565436481407
1120.0, 0.009807086379599182
1121.0, 0.011404092856444068
1122.0, 0.012587797299091694
1123.0, 0.012110135520991078
1124.0, 0.012391620532209678
1125.0, 0.011257239437212034
1126.0, 0.010706377589699216
1127.0, 0.009243490864366351
1128.0, 0.00679861862347251
1129.0, 0.005570041728464249
1130.0, 0.0044751962866644195
1131.0, 0.003624564084111499
1132.0, 0.002894923945779409
1133.0, 0.0028015518532326948
1134.0, 0.0036325283147287976
1135.0, 0.0027979505520554777
1136.0, 0.002549478516814263
1137.0, 0.003230417131841418
1138.0, 0.0020209214474418134
1139.0, 0.0021303492822392738
1140.0, 0.0021748989616982
1141.0, 0.002062131416657977
1142.0, 0.0024713545964243776
1143.0, 0.002888945594323147
1144.0, 0.002873056209159122
1145.0, 0.0027335644913682802
1146.0, 0.002637369863171537
1147.0, 0.0024370097185149315
1148.0, 0.0024039235057546214
1149.0, 0.0025547330647038994
1150.0, 0.00030722866152496013
1151.0, 0.003156923419599325
1152.0, 0.0034684094176386437
1153.0, 0.0034677343188082212
1154.0, 0.005055741615138591
1155.0, 0.004938788179122127
1156.0, 0.003945617788299272
1157.0, 0.004647822374959028
1158.0, 0.004704887449173316
1159.0, 0.005188709310023748
1160.0, 0.009283397659172422
1161.0, 0.006553341266593996
1162.0, 0.006618871856702861
1163.0, 0.004396842887482766
1164.0, 0.003147518694761358
1165.0, 0.005515927774214669
1166.0, 0.005850915323364382
1167.0, 0.006205196284849782
1168.0, 0.008203917719647656
1169.0, 0.008795925830976593
1170.0, 0.007571234333974235
1171.0, 0.007908280438506866
1172.0, 0.010062554369360424
1173.0, 0.009817687203172836
1174.0, 0.012950747594405275
1175.0, 0.011429786674741524
1176.0, 0.012671460718793805
1177.0, 0.013795164254171972
1178.0, 0.016567432783493877
1179.0, 0.020277966318937305
1180.0, 0.024016443415330494
1181.0, 0.028390467395904447
1182.0, 0.03377107962018993
1183.0, 0.038999703289790535
1184.0, 0.043100111289461326
1185.0, 0.0515721409733998
1186.0, 0.06262522285820483
1187.0, 0.07818830123305097
1188.0, 0.0898935630622891
1189.0, 0.1022069150139163
1190.0, 0.1126476238386423
1191.0, 0.12165858147896584
1192.0, 0.1275715580163361
1193.0, 0.1309271250608468
1194.0, 0.13058310983321988
1195.0, 0.12283732057057961
1196.0, 0.11095360224783127
1197.0, 0.09605109136471329
1198.0, 0.07702091444111063
1199.0, 0.06384676306076312
1200.0, 0.05626122994570473
1201.0, 0.04380909198740826
1202.0, 0.03689511902156683
1203.0, 0.030800471595489046
1204.0, 0.023847837001114404
1205.0, 0.020265886972617317
1206.0, 0.01871947895310205
1207.0, 0.015934821192857836
1208.0, 0.014456779818496792
1209.0, 0.014256578363395982
1210.0, 0.010698259990894084
1211.0, 0.00928776444450078
1212.0, 0.0065900183752172665
1213.0, 0.009575588822740585
1214.0, 0.009259586795978807
1215.0, 0.010767807805144313
1216.0, 0.008152476950960653
1217.0, 0.008021318533191475
1218.0, 0.007939884992975467
1219.0, 0.0054033676483539765
1220.0, 0.003118715611653862
1221.0, 0.0024709579090425858
1222.0, 0.0036923664287582484
1223.0, 0.005247680420407169
1224.0, 0.00535170769356725
1225.0, 0.0056336527393216675
1226.0, 0.0025622316611964555
1227.0, 0.004614122499271349
1228.0, 0.0041951509256148035
1229.0, 0.0037881836076325034
1230.0, 0.004172881040207308
1231.0, 0.004134759098536271
1232.0, 0.003915182444945153
1233.0, 0.00340562717948739
1234.0, 0.0031342763084951167
1235.0, 0.003531261973465056
1236.0, 0.001184465794296511
1237.0, 0.002760095818403656
1238.0, 0.005717251784037875
1239.0, 0.001717010270552521
1240.0, 0.0022416474457930616
1241.0, 0.0041507688520551105
1242.0, 0.0030240985676946996
1243.0, 0.003320320859198518
1244.0, 0.002324017300066669
1245.0, 0.0012672985398598398
1246.0, 0.0014188823169094538
1247.0, 0.0020415610417023017
1248.0, 0.0029087767545602082
1249.0, 0.003896530695403024
1250.0, 0.003974683433528674
1251.0, 0.0015324747985353629
1252.0, 0.001403994255626337
1253.0, 0.006015545094763684
1254.0, 0.0031992249356897094
1255.0, 0.0016849932664135228
1256.0, 0.003738297790318316
1257.0, 0.003018146032513601
1258.0, 0.0029957149516909726
1259.0, 0.0017270388163343614
1260.0, 0.0002442388157007764
1261.0, 0.0008432871184450971
1262.0, 0.0014344014939681885
1263.0, 0.0013164685932419542
1264.0, 0.0030650193828657265
1265.0, 0.0032295511458014657
1266.0, 0.003988273246161234
1267.0, 0.0013154663541221118
1268.0, 0.0001161068388622887
1269.0, 0.0010129696051706185
1270.0, 0.0015157404655375848
1271.0, 0.0009434122739506694
1272.0, 0.004432014769730183
1273.0, 0.0038213979362770566
1274.0, 0.004208544600681368
1275.0, 0.006226205211617723
1276.0, 0.004301257252454752
1277.0, 0.002486097209467613
1278.0, 0.003708117767980067
1279.0, 0.0006821662976052222
1280.0, 0.0012223059054914762
1281.0, 0.0009427660952045192
1282.0, 0.0003228149271677149
1283.0, 0.0004218192680801978
1284.0, 8.25990121175503e-05
1285.0, 0.0026932436242555324
1286.0, 0.003484115574461216
1287.0, 0.002185879432995212
1288.0, 0.001374769773641769
1289.0, 0.0027880876666011908
1290.0, 0.003607565660849931
1291.0, 0.0025418847288274024
1292.0, 0.0014457736808281187
1293.0, 0.0004944645242144448
1294.0, 0.001719778660470902
1295.0, 0.004620754613300255
1296.0, 0.002128741384059126
1297.0, 0.005878464525276618
1298.0, 0.0025944545897899915
1299.0, 0.0009559276773506215
1300.0, 0.0025854404427269493
1301.0, 0.0027913870501817153
1302.0, 0.002218552131686647
1303.0, 0.004405163535299138
1304.0, 0.0037895793119173404
1305.0, 0.0019817939943676194
1306.0, 0.0021082488773456532
1307.0, 0.002124771148787088
1308.0, 0.0017299139579679355
1309.0, 0.001990248255837418
1310.0, 0.002908038929098457
1311.0, 0.0014420620094356988
1312.0, 0.007333701300653867
1313.0, 0.0011036023558304736
1314.0, 0.007071130449572327
1315.0, 0.00563837612398679
1316.0, 0.001934667908254716
1317.0, 0.004041871486405763
1318.0, 0.006036577475815457
1319.0, 0.0033847823561148492
1320.0, 0.0025042670481005566
1321.0, 0.002463092520211434
1322.0, 0.0029744990391499886
1323.0, 0.004210093064841769
1324.0, 0.0029620641315466945
1325.0, 0.003630991178712461
1326.0, 0.003805440990767052
1327.0, 0.002909475037222034
1328.0, 0.005856690193674939
1329.0, 0.004139994077071278
1330.0, 0.004466531987630427
1331.0, 0.003778311137695393
1332.0, 0.0008364351933362734
1333.0, 0.004238823129649168
1334.0, 0.006792899586679098
1335.0, 0.006183941677709518
1336.0, 0.004641698442221098
1337.0, 0.0020810024862325427
1338.0, 0.00043024585054563967
1339.0, 0.0006049333531847367
1340.0, 0.0004742401704964093
1341.0, 0.0015718222138552693
1342.0, 0.005373853945386998
1343.0, 0.005908337605332925
1344.0, 0.00713853265122133
1345.0, 0.004768542642806836
1346.0, 0.00538849773984922
1347.0, 0.004841746616100721
1348.0, 0.0031368312604813098
1349.0, 0.003200769889366459
1350.0, 0.003443619605493072
1351.0, 0.0034150717443063782
1352.0, 0.004752048963547202
1353.0, 0.004377252044432794
1354.0, 0.002812611228618859
1355.0, 0.003982255385419045
1356.0, 0.0038417998017726673
1357.0, 0.002289604245523413
1358.0, 0.005424187712120083
1359.0, 0.006550018919594967
1360.0, 0.004380426090217298
1361.0, 0.0035320118027603433
1362.0, 0.0004839203134839286
1363.0, 0.0029884736547938573
1364.0, 0.0054501082155935165
1365.0, 0.00564038684163172
1366.0, 0.0016560527564230313
1367.0, 0.003500428863726947
1368.0, 0.0038189742673607964
1369.0, 0.001830892201508691
1370.0, 0.002636086404477197
1371.0, 0.0032620764706765386
1372.0, 0.003380510488203479
1373.0, 0.0038978387400591067
1374.0, 0.003975442645026098
1375.0, 0.003497668668587739
1376.0, 0.0028774318601871
1377.0, 0.00197254502394323
1378.0, 0.0018624638257515108
1379.0, 0.003681329419199148
1380.0, 0.0009008649523683926
1381.0, 0.0005343066366107652
1382.0, 0.003610690125053968
1383.0, 0.002545083085191744
1384.0, 0.004400418891252097
1385.0, 0.0030276347650926502
1386.0, 0.0009186470206514171
1387.0, 0.0014983585673889466
1388.0, 0.0009374967526108494
1389.0, 0.002842832839758353
1390.0, 0.0027026575508395365
1391.0, 0.0020235675412340944
1392.0, 0.0037962719324843314
1393.0, 0.004246048975737075
1394.0, 0.002766168510136085
1395.0, 0.0032937253109195427
1396.0, 0.0032173441212388094
1397.0, 0.0005834322223491346
1398.0, 0.001655439357470069
1399.0, 0.0012606684808881465
1400.0, 0.0007702849515716088
1401.0, 0.003170996612149045
1402.0, 0.003225278105989424
1403.0, 0.0029300093752265334
1404.0, 0.007919872767822678
1405.0, 0.006555731570113905
1406.0, 0.0035546285984995106
1407.0, 0.0048479449469674175
1408.0, 0.003925971306939885
1409.0, 0.003312366687765658
1410.0, 0.00445437741241764
1411.0, 0.0036108752297084597
1412.0, 0.0018024073522242092
1413.0, 0.002644300368890769
1414.0, 0.0045490613876491715
1415.0, 0.006234190827002852
1416.0, 0.006338293994765513
1417.0, 0.0010431026639395556
1418.0, 0.0034079466224437014
1419.0, 0.004393295139052373
1420.0, 0.0012128650448490715
1421.0, 0.0044489242996997285
1422.0, 0.0038119295762817527
1423.0, 0.0042895969880021876
1424.0, 0.0011484168531407987
1425.0, 0.0021754818751720025
1426.0, 0.0029027882403239473
1427.0, 0.0024462982440393135
1428.0, 0.004294903588116869
1429.0, 0.004293683656778282
1430.0, 0.002927178123085224
1431.0, 0.0037495290736558797
1432.0, 0.003185301449376727
1433.0, 0.00124773843062675
1434.0, 0.0011595453604821505
1435.0, 0.00162478097556795
1436.0, 0.002144433125622671
1437.0, 0.0027440828628129982
1438.0, 0.0018107145388397247
1439.0, 0.004433642123163612
1440.0, 0.004155130134778519
1441.0, 0.0032302157215594353
1442.0, 0.007995599184972646
1443.0, 0.0002900216335288597
1444.0, 0.005305179334819948
1445.0, 0.0018839059640174782
1446.0, 0.0025993152780354493
1447.0, 0.007181582864198739
1448.0, 0.0028377796579536255
1449.0, 0.0037651610577183153
1450.0, 0.0037313949351566768
1451.0, 0.0065116216277361074
1452.0, 0.007046039185104314
1453.0, 0.006072110222926804
1454.0, 0.004113625459081277
1455.0, 0.00348882461864854
1456.0, 0.0059222863509488825
1457.0, 0.006852453086020271
1458.0, 0.004863848623415087
1459.0, 0.004924027307143238
1460.0, 0.0058409379488849715
1461.0, 0.00469197359652261
1462.0, 0.005336393044198281
1463.0, 0.002727405908195719
1464.0, 0.004155948483649289
1465.0, 0.0037210803906187603
1466.0, 0.0005943071184238229
1467.0, 0.005582519818390002
1468.0, 0.00647030129314261
1469.0, 0.000641557822946975
1470.0, 0.0027942261848950536
1471.0, 0.004734078998496354
1472.0, 0.0016148434298401044
1473.0, 0.0012130271412715634
1474.0, 0.003645424738618258
1475.0, 0.004732387142202126
1476.0, 0.0035010150751073913
1477.0, 0.006031435462132299
1478.0, 0.003828842300497093
1479.0, 0.003133119859472479
1480.0, 0.003819957095881169
1481.0, 0.002721590295270201
1482.0, 0.0022477316880867193
1483.0, 0.00184106518011566
1484.0, 0.001707302281726745
1485.0, 0.0016693325444038006
1486.0, 0.002978698449637899
1487.0, 0.0035103775347547833
1488.0, 0.002340030245169077
1489.0, 0.0010694669388382316
1490.0, 0.0035379924880790956
1491.0, 0.007884094408473007
1492.0, 0.006780837143376728
1493.0, 0.002898804984920752
1494.0, 0.0026363822234356043
1495.0, 0.0025840798815629706
1496.0, 0.005191031582394174
1497.0, 0.002514411647786479
1498.0, 0.004074315330802805
1499.0, 0.0032435251960588394
1500.0, 0.005010077260646707
1501.0, 0.0031765698609691833
1502.0, 0.003046728646228114
1503.0, 0.007290488511685842
1504.0, 0.003777055386261884
1505.0, 0.0032427084144194406
1506.0, 0.005288134844943883
1507.0, 0.0032405645571244495
1508.0, 0.004659945432022134
1509.0, 0.006391558474678904
1510.0, 0.004274908882821001
1511.0, 0.004157845545688694
1512.0, 0.002586102629044086
1513.0, 0.00237314789676494
1514.0, 0.0051416918857843785
1515.0, 0.0034073229245756625
1516.0, 0.0030107399386607044
1517.0, 0.0024326414932177008
1518.0, 0.0034869010515352515
1519.0, 0.006835064679427306
1520.0, 0.002666233660282286
1521.0, 0.0006531344455754785
1522.0, 0.006637000855976761
1523.0, 0.0008378125992082957
1524.0, 0.004557174128695503
1525.0, 0.0007682382957490573
1526.0, 0.004918986837377843
1527.0, 0.003005923627719921
1528.0, 0.0020976911105903243
1529.0, 0.003514660814526475
1530.0, 0.0047595425552397624
1531.0, 0.0038171484185802653
1532.0, 0.004380751654442919
1533.0, 0.002791706787617417
1534.0, 0.0031027072525580393
1535.0, 0.003781335883530496
1536.0, 0.003913262639133851
1537.0, 0.003396250251141532
1538.0, 0.005795286760246668
1539.0, 0.0069624752782726914
1540.0, 0.0031820142542915396
1541.0, 0.0023220027814678168
1542.0, 0.003919215568276346
1543.0, 0.0038887579822315574
1544.0, 0.004945500576586849
1545.0, 0.004711559787158496
1546.0, 0.005747129644622329
1547.0, 0.004624870306845784
1548.0, 0.003443248629747799
1549.0, 0.008359584063132745
1550.0, 0.007899901890195505
1551.0, 0.004242480508398098
1552.0, 0.002822612773220137
1553.0, 0.003188291697268801
1554.0, 0.002595534009545277
1555.0, 0.003908923351640353
1556.0, 0.00604666680720354
1557.0, 0.005611903023774751
1558.0, 0.005022530831561177
1559.0, 0.008681510267919332
1560.0, 0.0026715402167906133
1561.0, 0.0030085109633878507
1562.0, 0.0020334031549084047
1563.0, 0.0047511819761878495
1564.0, 0.006618776149745332
1565.0, 0.005853790369848728
1566.0, 0.0061139277410018475
1567.0, 0.0057960779652978705
1568.0, 0.005646583595824987
1569.0, 0.006906479914978372
1570.0, 0.0028524185382440234
1571.0, 0.0029336469524683475
1572.0, 0.0020594223074708426
1573, 0.0
1574, 0.0
1575, 0.0
1576, 0.0
1577, 0.0
1578, 0.0
1579, 0.0
1580, 0.0
1581, 0.0
1582, 0.0
1583, 0.0
1584, 0.0
1585, 0.0
1586, 0.0
1587, 0.0
1588, 0.0
1589, 0.0
1590, 0.0
1591, 0.0
1592, 0.0
1593, 0.0
1594, 0.0
1595, 0.0
1596, 0.0
1597, 0.0
1598, 0.0
1599, 0.0
