30, 0.0
31, 0.0
32, 0.0
33, 0.0
34, 0.0
35, 0.0
36, 0.0
37, 0.0
38, 0.0
39, 0.0
40, 0.0
41, 0.0
42, 0.0
43, 0.0
44, 0.0
45, 0.0
46, 0.0
47, 0.0
48, 0.0
49, 0.0
50, 0.0
51, 0.0
52, 0.0
53, 0.0
54, 0.0
55, 0.0
56, 0.0
57, 0.0
58, 0.0
59, 0.0
60, 0.0
61, 0.0
62, 0.0
63, 0.0
64, 0.0
65, 0.0
66, 0.0
67, 0.0
68, 0.0
69, 0.0
70, 0.0
71, 0.0
72, 0.0
73, 0.0
74, 0.0
75, 0.0
76, 0.0
77, 0.0
78, 0.0
79, 0.0
80, 0.0
81, 0.0
82, 0.0
83, 0.0
84, 0.0
85, 0.0
86, 0.0
87, 0.0
88.0, 3.635025349544761e-05
89.0, 7.182898996025681e-05
90.0, 8.421356548242914e-05
91.0, 9.45706097596461e-05
92.0, 0.000157034588725143
93.0, 0.0001747166691244292
94.0, 0.00018421403283759222
95.0, 0.00019277062119711828
96.0, 0.00017684239040603386
97.0, 0.0001743201580319426
98.0, 0.00025437347955301894
99.0, 0.0003331568072422174
100.0, 0.00028883595945326964
101.0, 0.0003032452846567396
102.0, 0.00029988679996240407
103.0, 0.00022331542787123868
104.0, 0.00013483796037431863
105.0, 0.00015848461813794295
106.0, 0.0001492660628100673
107.0, 6.607102937626592e-05
108.0, 3.23033385278334e-05
109.0, 1.8042007700101842e-05
110.0, 5.89094461159579e-05
111.0, 0.00010025926574151835
112.0, 6.234735744054086e-05
113.0, 2.020073458005684e-05
114.0, 4.990168912506735e-05
115.0, 3.673268751424623e-05
116.0, 2.8393446075823117e-05
117.0, 2.331240321233974e-05
118.0, 8.519041357159482e-06
119.0, 4.8249614919294715e-05
120.0, 0.00017545987167309708
121.0, 0.00043941467456602815
122.0, 0.0007925859825611606
123.0, 0.001567701344060593
124.0, 0.002755823401335354
125.0, 0.004339563830669928
126.0, 0.006646752315894299
127.0, 0.009990700128577886
128.0, 0.014166820021846273
129.0, 0.018751143095302632
130.0, 0.023226188555450354
131.0, 0.026593986596354636
132.0, 0.02849863581916896
133.0, 0.028929770137553514
134.0, 0.027981066621381393
135.0, 0.026206478243168366
136.0, 0.023658206926917627
137.0, 0.021060186943933756
138.0, 0.019182053159709136
139.0, 0.017262504400745615
140.0, 0.015994278357754108
141.0, 0.015424712959788726
142.0, 0.015401011477878673
143.0, 0.015741519426238797
144.0, 0.016603478707092483
145.0, 0.017419946592769398
146.0, 0.01769735490380659
147.0, 0.017418707593249018
148.0, 0.017262522215365943
149.0, 0.016575472664884225
150.0, 0.015460405449846216
151.0, 0.01418670836636974
152.0, 0.01286140046426443
153.0, 0.011831606150645227
154.0, 0.010778179053132931
155.0, 0.009599335467831108
156.0, 0.00853201142895641
157.0, 0.007948939671059859
158.0, 0.007467867877315342
159.0, 0.007060653045148186
160.0, 0.006776241613090516
161.0, 0.006287505648589418
162.0, 0.006311668311697331
163.0, 0.006321553583705179
164.0, 0.006106177389678657
165.0, 0.006182444486608617
166.0, 0.006189782872669212
167.0, 0.006217954780134936
168.0, 0.006154410361854831
169.0, 0.005892731321608777
170.0, 0.005770683517398304
171.0, 0.005571169842665578
172.0, 0.0054938784938712995
173.0, 0.005543745257131955
174.0, 0.005329023106988433
175.0, 0.005217083671341839
176.0, 0.005181159731935078
177.0, 0.00506023110294119
178.0, 0.0047393131445600985
179.0, 0.004664459541810809
180.0, 0.0046773077698864605
181.0, 0.004567115743989662
182.0, 0.00432952562629991
183.0, 0.004283124243820404
184.0, 0.00420445569235112
185.0, 0.0039479616122744966
186.0, 0.003639129230806989
187.0, 0.003501723131247816
188.0, 0.003479001849644993
189.0, 0.003459346007283708
190.0, 0.0032010129202900434
191.0, 0.0027851032484085838
192.0, 0.0026258727964683566
193.0, 0.0028221086185113973
194.0, 0.0027027143159954288
195.0, 0.002482056296539538
196.0, 0.0025562876291688524
197.0, 0.002340703542472071
198.0, 0.002251159922601016
199.0, 0.0021911701922058906
200.0, 0.002102118926615431
201.0, 0.0021210397236238352
202.0, 0.0019958658578934333
203.0, 0.001953384805031108
204.0, 0.0019413634851468378
205.0, 0.0018495109992674548
206.0, 0.0019101449881247727
207.0, 0.0017303192594964698
208.0, 0.0015815850737654251
209.0, 0.0015844662084662
210.0, 0.0015039917933900803
211.0, 0.0015540221548962572
212.0, 0.0016608235943029698
213.0, 0.0016819235298417977
214.0, 0.0015926093457432635
215.0, 0.0015816023733580113
216.0, 0.0015151885028835777
217.0, 0.0013736854133690976
218.0, 0.0012697869253969778
219.0, 0.001313012718559355
220.0, 0.0013144079989639362
221.0, 0.0013235873712147768
222.0, 0.001303775370169693
223.0, 0.0012428463190987378
224.0, 0.0011931387578769867
225.0, 0.001004067926929639
226.0, 0.000998005958507914
227.0, 0.0010370375434384234
228.0, 0.0009269552161919382
229.0, 0.0009902770002915293
230.0, 0.0010766310305510957
231.0, 0.001067775165722592
232.0, 0.0010014654964089255
233.0, 0.0009967246505156787
234.0, 0.0009235070676714081
235.0, 0.0009582421569468707
236.0, 0.0009170311115376588
237.0, 0.0007371266439695791
238.0, 0.0007359665235241251
239.0, 0.0007744683970416181
240.0, 0.0007179872993904198
241.0, 0.0005350056564645375
242.0, 0.00036054799795517506
243.0, 0.0005646451299794485
244.0, 0.0005110968190360724
245.0, 0.00035043225828391863
246.0, 0.00027799122543684725
247.0, 0.0003185723112437695
248.0, 0.0003233899007151683
249.0, 0.0003217789013693093
250.0, 0.0003242338698259895
251.0, 0.00030912340412030093
252.0, 0.00025344624696878787
253.0, 0.00023778797618859265
254.0, 0.00021508981604210516
255.0, 0.00021692144815363423
256.0, 0.00022238872133419128
257.0, 6.378271014181054e-05
258.0, 0.00011565451028808043
259.0, 7.712761851774441e-05
260.0, 1.814918029467347e-05
261.0, 0.00011437868367042174
262.0, 8.2143274675917e-05
263.0, 1.6498190669090034e-05
264.0, 1.5501669016071003e-05
265.0, 5.301931941846595e-05
266.0, 2.3010858569496275e-05
267.0, 0.00014180478857294773
268.0, 9.365054281733413e-05
269.0, 4.8044042721524726e-05
270.0, 0.00013243622986682768
271.0, 9.894454186165806e-05
272.0, 3.4841907196127635e-05
273.0, 0.00013327855985539855
274.0, 0.0002070035007875833
275.0, 9.292665334578978e-05
276.0, 0.00018890315451450357
277.0, 0.00010881108977101058
278.0, 2.7257602424957965e-05
279.0, 3.3265635827601576e-05
280.0, 3.629482661473579e-05
281.0, 4.621437453979197e-06
282.0, 8.429273490911932e-05
283.0, 0.0002792014342207695
284.0, 0.00029917285431195896
285.0, 0.0001223865298513916
286.0, 0.0005437864428136817
287.0, 0.00048516380237722753
288.0, 0.0003020190163513403
289.0, 0.00025278129419392415
290.0, 0.00019709822749643593
291.0, 8.121301653419603e-05
292.0, 0.0002848351686848191
293.0, 0.00031368319444455967
294.0, 0.00014194723510391473
295.0, 0.0002187121021333166
296.0, 0.00010759931014994072
297.0, 0.00024198076359499584
298.0, 0.0004034479445858624
299.0, 0.0006966526311912188
300.0, 0.0008891981835002877
301.0, 0.0009722582878985116
302.0, 0.0011123854856335833
303.0, 0.0013636912843719906
304.0, 0.00163618437851421
305.0, 0.00180126417232604
306.0, 0.002207111324792117
307.0, 0.002482581485970417
308.0, 0.0027867550421040686
309.0, 0.0032185825255299813
310.0, 0.0033637215080461282
311.0, 0.0037171154535403468
312.0, 0.004133309414614649
313.0, 0.0047012162793051695
314.0, 0.005477408594840095
315.0, 0.006075212968822013
316.0, 0.006888212639578995
317.0, 0.007774746952574173
318.0, 0.008812986901635327
319.0, 0.00995073939051365
320.0, 0.010850424539449422
321.0, 0.012901976548180153
322.0, 0.014484524591046367
323.0, 0.015947746196825048
324.0, 0.01824314076479422
325.0, 0.020850882513681866
326.0, 0.023023457382678608
327.0, 0.02561423495403807
328.0, 0.029240575401809823
329.0, 0.033961607275135405
330.0, 0.039539192668151986
331.0, 0.04609486370492757
332.0, 0.05375711751994735
333.0, 0.062090040088997066
334.0, 0.07114954486560997
335.0, 0.08197724446497409
336.0, 0.0930110412004094
337.0, 0.10074621567922111
338.0, 0.10093819960987502
339.0, 0.09240450257856282
340.0, 0.07956994581750261
341.0, 0.06992798020277732
342.0, 0.06621171073216638
343.0, 0.06832296845015966
344.0, 0.07542014340863525
345.0, 0.08654952799060318
346.0, 0.10245677768826872
347.0, 0.12416318497673277
348.0, 0.15208339210243788
349.0, 0.18692723757001925
350.0, 0.22976096160577394
351.0, 0.2826968877052379
352.0, 0.3433484141890246
353.0, 0.41092604608433647
354.0, 0.48427680130802286
355.0, 0.5607549445725044
356.0, 0.6369243000835774
357.0, 0.6913079393590424
358.0, 0.7054130326016151
359.0, 0.6675703956629067
360.0, 0.5803718680688443
361.0, 0.4699384916222612
362.0, 0.3638120079117753
363.0, 0.2777845324030093
364.0, 0.21390690421028144
365.0, 0.16753639975356652
366.0, 0.13447482349371573
367.0, 0.11253380145995275
368.0, 0.09831760119837253
369.0, 0.09030344783962443
370.0, 0.08817294909171011
371.0, 0.08879730316074223
372.0, 0.09403689560301913
373.0, 0.10344759958402025
374.0, 0.1175184290397931
375.0, 0.13537854792647147
376.0, 0.1509826690754476
377.0, 0.1513049681866448
378.0, 0.13350890007888264
379.0, 0.10584105843468228
380.0, 0.07761376737596642
381.0, 0.05338330130584791
382.0, 0.037248993224641744
383.0, 0.027983476227176573
384.0, 0.022688957802034962
385.0, 0.019412666979382695
386.0, 0.017663893418242368
387.0, 0.01655524557529107
388.0, 0.015971603900107496
389.0, 0.015951961374411777
390.0, 0.016680441137260155
391.0, 0.018205361465032318
392.0, 0.02033632827867217
393.0, 0.023851162157613858
394.0, 0.027970519173085698
395.0, 0.03231521412131794
396.0, 0.0372814220684691
397.0, 0.04378654724491213
398.0, 0.05131933789505116
399.0, 0.05966637120926966
400.0, 0.06456175365376779
401.0, 0.061379008509711966
402.0, 0.04905954134832255
403.0, 0.03346107558324777
404.0, 0.020774904726921808
405.0, 0.012864954151942522
406.0, 0.00833987299628466
407.0, 0.005574811632345464
408.0, 0.003880006480880619
409.0, 0.0027815843143497894
410.0, 0.002141479910485388
411.0, 0.0016202815341058987
412.0, 0.0010860933022272161
413.0, 0.0008140140094748992
414.0, 0.0006074546630459432
415.0, 0.0005539560239628882
416.0, 0.0004190910433758243
417.0, 0.0001516388421847174
418.0, 1.987412968680868e-05
419.0, 0.0001340285245954195
420.0, 0.00011294581328604819
421.0, 0.00011028896298228243
422.0, 0.00013415391731215695
423.0, 0.00013505074927496808
424.0, 0.00019554994878870447
425.0, 0.0004084755787615463
426.0, 0.0004461616434861083
427.0, 0.0003412731138639946
428.0, 0.0002938427812584528
429.0, 0.0004063341412626107
430.0, 0.0002832349239054638
431.0, 0.0002526201383626979
432.0, 0.00025070136682100585
433.0, 0.00019444010655318852
434.0, 9.362079435545724e-05
435.0, 2.608292729750431e-05
436.0, 0.00013247067766934895
437.0, 0.0002072424098816644
438.0, 0.0004176317884245186
439.0, 0.0006315474174048974
440.0, 0.00048476501634517544
441.0, 0.0005709452445385811
442.0, 0.0006347829101014208
443.0, 0.0006859893073000247
444.0, 0.0007469595880284309
445.0, 0.0007706800917593512
446.0, 0.0006966136353414285
447.0, 0.0005785694641425222
448.0, 0.0005644632668443956
449.0, 0.0005354639070285051
450.0, 0.0003896236576978454
451.0, 0.00023831705193927554
452.0, 0.0002246189434775851
453.0, 5.394253382560216e-05
454.0, 0.00010458648768657039
455.0, 0.00013678996651869365
456.0, 0.0001444781208931291
457.0, 0.00016241167949378746
458.0, 2.877500478643508e-05
459.0, 2.3454383020127648e-05
460.0, 0.00012938192406902676
461.0, 0.00012962602622968274
462.0, 6.142356535340234e-05
463.0, 4.090785451487907e-05
464.0, 2.2375681440999072e-05
465.0, 8.077302161966306e-05
466.0, 0.0001887652278803043
467.0, 0.00023685268616269433
468.0, 0.0002730605967354472
469.0, 0.000607962958992307
470.0, 0.0007046479966816774
471.0, 0.0007242171519857478
472.0, 0.0008173407650678917
473.0, 0.000933818713432943
474.0, 0.0009278706546348546
475.0, 0.001213231200833938
476.0, 0.0013251503371943597
477.0, 0.0012927043398655233
478.0, 0.0012632465056580983
479.0, 0.0012529774617886953
480.0, 0.001251175602396144
481.0, 0.0012243989273176558
482.0, 0.0011703126914207871
483.0, 0.0011741803491288904
484.0, 0.0012229139047203479
485.0, 0.0011393707404567745
486.0, 0.0011658248746873221
487.0, 0.0011456719799886872
488.0, 0.0010224906353853468
489.0, 0.000871581530717576
490.0, 0.0008148520122013155
491.0, 0.0008314468724590358
492.0, 0.0006921422789352329
493.0, 0.0006077370809739231
494.0, 0.0005398986817079168
495.0, 0.0005068891452932293
496.0, 0.0005702621611588559
497.0, 0.0006583714054193199
498.0, 0.0005738365091957902
499.0, 0.0004205876106405887
500.0, 0.0003518012351763378
501.0, 0.0003773034529843125
502.0, 0.00037084084952864003
503.0, 0.00029039742608670267
504.0, 0.000340005125148909
505.0, 0.0005371689226855139
506.0, 0.0005574576998834469
507.0, 0.00045041626185240855
508.0, 0.0005249627733993425
509.0, 0.0004892283166089023
510.0, 0.0005477835565255619
511.0, 0.0004722054408245422
512.0, 0.0004513086440163589
513.0, 0.0005511029295908412
514.0, 0.0004895658810087427
515.0, 0.00047259914962531857
516.0, 0.0004195255069735654
517.0, 0.00027081031439063166
518.0, 0.00017460968985854496
519.0, 0.00020075779307960755
520.0, 0.0002326810547829832
521.0, 0.00024943975552507643
522.0, 0.0002402826345781129
523.0, 0.0001795522406363179
524.0, 9.889088901029173e-05
525.0, 1.1263572212356938e-05
526.0, 6.816876395740794e-05
527.0, 1.6429077415513176e-05
528.0, 0.00019440685843519852
529.0, 0.00016173385886771073
530.0, 6.979360300699956e-05
531.0, 3.994124550226682e-05
532.0, 0.0001462563099038963
533.0, 3.420937489820595e-05
534.0, 3.697034027065553e-05
535.0, 3.553529533832066e-05
536.0, 0.00014184346520935124
537.0, 0.0002149209405235343
538.0, 0.00018729974943617
539.0, 0.00012300188169165957
540.0, 0.00012234945267460077
541.0, 0.00014920000870445046
542.0, 0.00020479057105383708
543.0, 0.00021182414742922364
544.0, 8.956222847578436e-05
545.0, 8.267319310495186e-05
546.0, 0.00012029170814700092
547.0, 0.00014244132427527676
548.0, 0.00012113467656402827
549.0, 5.2729678331024864e-05
550.0, 3.18678667396541e-05
551.0, 0.0002063293090441246
552.0, 0.0001616850425624784
553.0, 0.00017378062846383924
554.0, 0.0001418808028515127
555.0, 0.00010082151241921135
556.0, 0.0002236471497838239
557.0, 0.00014861786925653468
558.0, 0.00017181845354360023
559.0, 0.0001381625563918684
560.0, 0.00010310218562752854
561.0, 9.465940178181087e-05
562.0, 4.119774238180907e-05
563.0, 2.6166823289512366e-05
564.0, 2.7241668929539448e-05
565.0, 5.7282508973515174e-05
566.0, 2.0472121002511708e-05
567.0, 3.110412667993211e-05
568.0, 1.0623011256694426e-05
569.0, 3.54114558825731e-05
570.0, 0.0001627677707094344
571.0, 7.109931878997505e-05
572.0, 1.1018494909115161e-05
573.0, 4.201342107368845e-05
574.0, 6.810804775366037e-05
575.0, 8.671323233777027e-05
576.0, 0.00011847571109475061
577.0, 5.9345913159576466e-05
578.0, 3.569622939800852e-05
579.0, 7.784205218756238e-05
580.0, 0.00012457955872952598
581.0, 0.00013149570478241654
582.0, 0.00021005386140607614
583.0, 6.569363327073272e-05
584.0, 2.1656010079999075e-05
585.0, 3.533764446737305e-05
586.0, 1.470615471685295e-05
587.0, 2.3469111230285658e-05
588.0, 0.00013494430047605337
589.0, 8.887885388365977e-05
590.0, 0.00014353469558722187
591.0, 0.00011144852290601991
592.0, 2.0361308717300337e-05
593.0, 1.797622290690143e-05
594.0, 1.8535355277871688e-05
595.0, 0.00015784237463793675
596.0, 0.00018275141026138095
597.0, 0.00010283940171633238
598.0, 0.0001102357626398405
599.0, 0.00015110523030466662
600.0, 0.00011574212483040508
601.0, 0.00012963078806712863
602.0, 0.00018825868908002325
603.0, 0.00018133778456937892
604.0, 5.289245623635586e-05
605.0, 7.665327426962584e-05
606.0, 0.00020393348481589446
607.0, 0.00012425740340567016
608.0, 7.656382168071821e-05
609.0, 7.587834795196515e-05
610.0, 0.0001405210384259693
611.0, 0.00014855051827473745
612.0, 0.00016227500765106937
613.0, 0.0002554682403028081
614.0, 0.0002456779588390913
615.0, 0.00026858531853578705
616.0, 0.00023047288355687796
617.0, 0.0002770662524178086
618.0, 0.0003386029423900591
619.0, 0.0003231765013082778
620.0, 0.0003193620021194629
621.0, 0.0003870373177757684
622.0, 0.0003482020005637506
623.0, 0.00036804987156184376
624.0, 0.0004683489121465014
625.0, 0.0004986685605752552
626.0, 0.0004232600282211729
627.0, 0.0005037062263796794
628.0, 0.0006255746489673641
629.0, 0.0005673108223508301
630.0, 0.0006072131504477091
631.0, 0.0006500798607328765
632.0, 0.0007217367337050767
633.0, 0.000847184797996511
634.0, 0.0006563179207281131
635.0, 0.0007595176656118429
636.0, 0.000591533904942152
637.0, 0.0006539775884968267
638.0, 0.0008023795476511428
639.0, 0.0008373463081554542
640.0, 0.0008404728944747988
641.0, 0.0007644008868999385
642.0, 0.0006367064341187722
643.0, 0.0007303721567383681
644.0, 0.0008845037649103201
645.0, 0.00089346775212834
646.0, 0.0007594066877576409
647.0, 0.0006959285991730485
648.0, 0.0008560096026057631
649.0, 0.000905266416515099
650.0, 0.0009044789040653812
651.0, 0.0009270471102662157
652.0, 0.000961558785774545
653.0, 0.0009265856945805627
654.0, 0.0008454526948839387
655.0, 0.0009938017524210314
656.0, 0.0008405795624478583
657.0, 0.0009752234679164155
658.0, 0.0010641217992276894
659.0, 0.0010830052339215405
660.0, 0.0011500530601578907
661.0, 0.0010510737852687405
662.0, 0.0011144902256054045
663.0, 0.0009487600361559934
664.0, 0.0010013341102005763
665.0, 0.0010289823009595098
666.0, 0.0009677051497781575
667.0, 0.0009439804608443385
668.0, 0.0009260331288166642
669.0, 0.0010635356550219774
670.0, 0.0010466922696669477
671.0, 0.0010995811455219442
672.0, 0.0011422831583487749
673.0, 0.001162633400751485
674.0, 0.0011536704971988024
675.0, 0.00107134908779858
676.0, 0.0011943201376272824
677.0, 0.0013979432930178344
678.0, 0.0015451525518840772
679.0, 0.0016466022468601157
680.0, 0.0015871564163455762
681.0, 0.0015386546668036752
682.0, 0.0016863313163076618
683.0, 0.0017496436880806937
684.0, 0.0019536241575904036
685.0, 0.0021107847315947176
686.0, 0.0021150958291114392
687.0, 0.0022153448639141084
688.0, 0.002382548845503585
689.0, 0.0024033896850116127
690.0, 0.002449229510357177
691.0, 0.0025431249412583797
692.0, 0.002683876916030613
693.0, 0.00282642222831785
694.0, 0.002920084594865481
695.0, 0.002915810166687243
696.0, 0.002802035782877241
697.0, 0.002772375091666352
698.0, 0.002922725931888005
699.0, 0.0029320183465316257
700.0, 0.002802445790150519
701.0, 0.0029796456968872497
702.0, 0.003172082433327688
703.0, 0.0029816387374308733
704.0, 0.0027571137273186613
705.0, 0.002987065746175949
706.0, 0.0029965549082747673
707.0, 0.0028662149450340473
708.0, 0.002803832646426583
709.0, 0.0028104736854873227
710.0, 0.002783932993967394
711.0, 0.0026204875381557434
712.0, 0.002329649258355951
713.0, 0.002300053603986764
714.0, 0.0022991114213659456
715.0, 0.002275692784605881
716.0, 0.0020245557284577264
717.0, 0.001846525716220157
718.0, 0.0019078842691316765
719.0, 0.001838727915260929
720.0, 0.0017100256262652486
721.0, 0.0017130307841305573
722.0, 0.0015133233017535844
723.0, 0.0013441306212028583
724.0, 0.001338018322447684
725.0, 0.0013020921929679716
726.0, 0.001158554589311352
727.0, 0.001076560028874079
728.0, 0.0010399232495506513
729.0, 0.0007986077085360837
730.0, 0.0006764192448370723
731.0, 0.0006605718335055907
732.0, 0.0005408845503607335
733.0, 0.0004108215708724529
734.0, 0.00047209069147672423
735.0, 0.00020889132209151354
736.0, 3.183430533537395e-05
737.0, 8.853902460206816e-05
738.0, 7.654417223793079e-05
739.0, 0.00012509069110537736
740.0, 5.2928106738121683e-05
741.0, 6.795125088048524e-05
742.0, 0.00012702050594299956
743.0, 0.00028981474057293116
744.0, 0.00033465281068375673
745.0, 0.0004676052664705223
746.0, 0.0005293348358276253
747.0, 0.0004081149994073176
748.0, 0.0002703152901046558
749.0, 0.00037130680645642406
750.0, 0.0005502649844126214
751.0, 0.00045536771866111893
752.0, 0.0005270017526562728
753.0, 0.0005972324907607659
754.0, 0.00047201368131472395
755.0, 0.00042019848299319247
756.0, 0.00044173032423865783
757.0, 0.0003288275810092034
758.0, 0.0006406371961466103
759.0, 0.0005422496075731967
760.0, 0.0005141523751433573
761.0, 0.0003607619830809773
762.0, 0.0003680737246691771
763.0, 0.0003307947537563818
764.0, 0.0002311309174773009
765.0, 0.00029757684896601616
766.0, 0.00025652600476984254
767.0, 0.00027442146924557697
768.0, 0.00018621985596257534
769.0, 0.00015889327436551014
770.0, 0.00036117535060912933
771.0, 0.0006077929185062058
772.0, 0.0009492635833863995
773.0, 0.0010945165215411295
774.0, 0.001360709425241984
775.0, 0.0017142224639047968
776.0, 0.0018937224224094729
777.0, 0.0023512359425675164
778.0, 0.00282015941840011
779.0, 0.0032668148098901235
780.0, 0.003852728006936267
781.0, 0.004525394710793953
782.0, 0.005187355251238934
783.0, 0.006105975649346548
784.0, 0.006626614360212359
785.0, 0.007697246097615567
786.0, 0.008882515436091774
787.0, 0.010049036369282663
788.0, 0.01123655085827313
789.0, 0.012497912970138733
790.0, 0.013910215504919282
791.0, 0.015222538732598417
792.0, 0.01647647008619505
793.0, 0.01807666783949316
794.0, 0.019716596476886526
795.0, 0.02106098208335473
796.0, 0.02259468681357128
797.0, 0.024206705441592202
798.0, 0.02508549255727753
799.0, 0.02657110255998329
800.0, 0.02833364129415015
801.0, 0.02947678551483723
802.0, 0.031081959915791282
803.0, 0.032594286723413766
804.0, 0.03396470565538038
805.0, 0.035436760515312
806.0, 0.03715568868999078
807.0, 0.03927187686451822
808.0, 0.0412286878808665
809.0, 0.04350757466782733
810.0, 0.046148037841904514
811.0, 0.04916404504802578
812.0, 0.05325446228601334
813.0, 0.05798320430995823
814.0, 0.0632344612320452
815.0, 0.06984121071010373
816.0, 0.07733653736500977
817.0, 0.08636384023695635
818.0, 0.09669311758095396
819.0, 0.1080457509617405
820.0, 0.1207653472688508
821.0, 0.13417731664631527
822.0, 0.14854814032233893
823.0, 0.16414090703482578
824.0, 0.1794109509648657
825.0, 0.19384978537612352
826.0, 0.2109758704571805
827.0, 0.22828276823586843
828.0, 0.24969329005351024
829.0, 0.27822754222465484
830.0, 0.31571890212314146
831.0, 0.3627893681324741
832.0, 0.421360050909258
833.0, 0.4947509055936457
834.0, 0.5818112441360207
835.0, 0.6797186628208196
836.0, 0.785602019494826
837.0, 0.8868244221060515
838.0, 0.9663043201258346
839.0, 0.9994377419205022
840.0, 0.9680736089269846
841.0, 0.8764885347926237
842.0, 0.752584444864089
843.0, 0.6269461624381444
844.0, 0.5180386686054603
845.0, 0.4342239931577639
846.0, 0.36911323965301723
847.0, 0.3219348508040502
848.0, 0.2869566854003299
849.0, 0.26042741770729927
850.0, 0.2412017653991739
851.0, 0.22661224442726727
852.0, 0.2161098927334027
853.0, 0.2061724374006577
854.0, 0.19603400115676672
855.0, 0.18470913489018445
856.0, 0.17104817972743477
857.0, 0.1552228258596349
858.0, 0.13832780389413682
859.0, 0.12148553033949878
860.0, 0.10599502770086425
861.0, 0.09312149796445474
862.0, 0.08226161095638836
863.0, 0.07281618218025057
864.0, 0.06492358936420949
865.0, 0.05807521193876649
866.0, 0.052696562344159176
867.0, 0.04802949345306592
868.0, 0.04370086904744003
869.0, 0.03987246044446132
870.0, 0.03613600946550967
871.0, 0.033091703179746294
872.0, 0.030381960076287944
873.0, 0.027580624100789673
874.0, 0.025366188022042553
875.0, 0.023266435724261948
876.0, 0.02150829719204523
877.0, 0.019963968780019
878.0, 0.01807346598361409
879.0, 0.01623779165618651
880.0, 0.015190138580524759
881.0, 0.013873442941629042
882.0, 0.013079878411087096
883.0, 0.01211825846427491
884.0, 0.011190308236371514
885.0, 0.010113604590214657
886.0, 0.009276524784662102
887.0, 0.008552260514386735
888.0, 0.007756285312990131
889.0, 0.007281967690856202
890.0, 0.006417101830389316
891.0, 0.005719140110631951
892.0, 0.005198850242624544
893.0, 0.004805022053182964
894.0, 0.004268290718832486
895.0, 0.003855840727050116
896.0, 0.003331258179622295
897.0, 0.0026270823174177047
898.0, 0.00215168025284345
899.0, 0.0019826560951721906
900.0, 0.0017024128280649575
901.0, 0.0013950514378585108
902.0, 0.0008660961832607372
903.0, 0.0007049014987288814
904.0, 0.0005850944891364606
905.0, 0.0003248791280374899
906.0, 0.00033308983470805187
907.0, 0.00040430452928161053
908.0, 0.00012095569592155214
909.0, 0.00030607869892534457
910.0, 0.0004091257739153139
911.0, 0.0004069438692891964
912.0, 0.0004525022723925696
913.0, 0.0005542055362322243
914.0, 0.0006689209579962867
915.0, 0.0006641405948108465
916.0, 0.0006759498279600755
917.0, 0.0007069790284048125
918.0, 0.0007160933406858815
919.0, 0.0007777893230508682
920.0, 0.0008333505826282087
921.0, 0.0006508633465503528
922.0, 0.0005972445521615992
923.0, 0.0005881382320007801
924.0, 0.00039419264048160484
925.0, 0.0005328122776581944
926.0, 0.000389088848766259
927.0, 0.0001480856861538274
928.0, 0.00022955901355696347
929.0, 0.0004069463962807606
930.0, 0.00028446929927072997
931.0, 1.513270019186131e-05
932.0, 0.00020956254279843567
933.0, 9.851220271207718e-05
934.0, 8.558284468273776e-05
935.0, 3.4390644292303165e-05
936.0, 0.00012036828203713326
937.0, 0.00015689131214543663
938.0, 0.00018156069563755322
939.0, 0.0003012150556435834
940.0, 0.00035648556641598554
941.0, 0.0003090073826650975
942.0, 0.00034319166393991597
943.0, 0.000498486878764873
944.0, 0.0005526175909035092
945.0, 0.0007248428686572501
946.0, 0.0007058642598780525
947.0, 0.0006611946923814564
948.0, 0.0007833539794104139
949.0, 0.0009427281645981318
950.0, 0.0008582092797403153
951.0, 0.0007178555561851641
952.0, 0.0009111297431139469
953.0, 0.001076189930525048
954.0, 0.0010766818088325343
955.0, 0.0010328901490548506
956.0, 0.001093189099312548
957.0, 0.001187524631588539
958.0, 0.0014001611285225147
959.0, 0.0014157120065348616
960.0, 0.0013404638248697193
961.0, 0.0014604427001820757
962.0, 0.0015437306700558642
963.0, 0.001386297432618002
964.0, 0.0017193106786228634
965.0, 0.0017225605592625466
966.0, 0.0016599599050239233
967.0, 0.001952123906820552
968.0, 0.0018714434446991635
969.0, 0.0017892554020251267
970.0, 0.001754373890808953
971.0, 0.0018742260904330227
972.0, 0.001993657383360857
973.0, 0.0020174797371876638
974.0, 0.002006096063517474
975.0, 0.0019777878270232094
976.0, 0.002039261470805589
977.0, 0.001966356439894618
978.0, 0.0019069756845621986
979.0, 0.0017585448749146816
980.0, 0.001891376976083348
981.0, 0.001957983828637408
982.0, 0.0018642017641390509
983.0, 0.0019044272155257216
984.0, 0.0018399756007296737
985.0, 0.0017866900308832702
986.0, 0.001878383209302579
987.0, 0.0017280250458233317
988.0, 0.0016267970860467022
989.0, 0.001678356269013679
990.0, 0.0015209046420451265
991.0, 0.0015455869672128053
992.0, 0.0015202054766896025
993.0, 0.0014826153456143191
994.0, 0.0014456060019371751
995.0, 0.0015271421596547772
996.0, 0.0015780865947247398
997.0, 0.0015475192196518649
998.0, 0.0015177347568187576
999.0, 0.00148144891254392
1000.0, 0.0014701442882311458
1001.0, 0.00141816240729418
1002.0, 0.001554141082962216
1003.0, 0.00152873241981291
1004.0, 0.0013494340311950759
1005.0, 0.0013394074203954523
1006.0, 0.0014928084745062019
1007.0, 0.0014674706284554112
1008.0, 0.0013362427901469067
1009.0, 0.0012764272453742295
1010.0, 0.0012686942500087454
1011.0, 0.001222016949886169
1012.0, 0.0012005422629701203
1013.0, 0.001298595884409896
1014.0, 0.0013581649283012946
1015.0, 0.0013215962803737136
1016.0, 0.0012028209168252837
1017.0, 0.0011529271543949335
1018.0, 0.001104294412272062
1019.0, 0.001036520813471616
1020.0, 0.0010963750672470381
1021.0, 0.0010066437861115105
1022.0, 0.0007816804406819452
1023.0, 0.000734787906646974
1024.0, 0.0008490837619263661
1025.0, 0.0009118256844185091
1026.0, 0.0009567441856204448
1027.0, 0.0009467018203806809
1028.0, 0.00084444649639885
1029.0, 0.0008607614102376421
1030.0, 0.0008892356523084215
1031.0, 0.0009703671071233094
1032.0, 0.000950956587316197
1033.0, 0.0009423500994782747
1034.0, 0.000831397542598833
1035.0, 0.0006814245422898324
1036.0, 0.0007214130439591654
1037.0, 0.0007815711880641875
1038.0, 0.000716549434112042
1039.0, 0.0007279622446473912
1040.0, 0.0007129468824549694
1041.0, 0.0008486297974370235
1042.0, 0.0007491429768142877
1043.0, 0.0006158654627703082
1044.0, 0.0006424586667817643
1045.0, 0.0007390321051102016
1046.0, 0.0007239948434471342
1047.0, 0.0007553948660351691
1048.0, 0.0006633502882830661
1049.0, 0.0005302052760158738
1050.0, 0.0005459261654663228
1051.0, 0.0006075053590964475
1052.0, 0.0005960505810393632
1053.0, 0.0005244831946405352
1054.0, 0.00047408465729258424
1055.0, 0.00048713271195838237
1056.0, 0.00047020718397946523
1057.0, 0.000611145040466513
1058.0, 0.0004215445772161902
1059.0, 0.0005987852204778671
1060.0, 0.000642227226342071
1061.0, 0.0005431467263784685
1062.0, 0.0004532039070225256
1063.0, 0.0005242248189612447
1064.0, 0.0004992750865844311
1065.0, 0.0003984987060683227
1066.0, 0.00036537942976202007
1067.0, 0.00031440009307877066
1068.0, 0.00044946117737863767
1069.0, 0.0006184490986073699
1070.0, 0.0005172213891699567
1071.0, 0.00030587917580883906
1072.0, 0.0003186060802177477
1073.0, 0.00037841274097177353
1074.0, 0.0003486674226205876
1075.0, 0.00038473521253220124
1076.0, 0.00037133207566814204
1077.0, 0.00030081916987964103
1078.0, 0.000341329111066727
1079.0, 0.00031960597351552605
1080.0, 0.00041615159147787814
1081.0, 0.0004544976302714955
1082.0, 0.00031612917032834784
1083.0, 0.0003732635607576635
1084.0, 0.000329915586611969
1085.0, 0.0002781222988927999
1086.0, 0.00034508505582280706
1087.0, 0.00031792774105127223
1088.0, 0.0003044696678091365
1089.0, 0.00034458616855616975
1090.0, 0.00031312335592004474
1091.0, 0.00017875258293731735
1092.0, 0.00022572027136311102
1093.0, 0.00024321192928877523
1094.0, 0.00023642018291239003
1095.0, 0.00017142849206298535
1096.0, 0.0001255515538445231
1097.0, 0.0002246645632882033
1098.0, 0.00027604381426997655
1099.0, 0.00018515170539774373
1100.0, 0.00015937969725373508
1101.0, 0.00022216892645776458
1102.0, 0.0002745681661784581
1103.0, 0.00019001664194485466
1104.0, 0.00011721492050362786
1105.0, 0.00018220494819891087
1106.0, 0.00017862233102659207
1107.0, 0.00014172151747864753
1108.0, 0.00013953418429982702
1109.0, 7.076986219066904e-05
1110.0, 4.0021929620667156e-05
1111.0, 0.00012882513346927982
1112.0, 0.0001727366858097091
1113.0, 0.00020863637602838885
1114.0, 0.00017075150248235704
1115.0, 5.893912437229655e-05
1116.0, 9.265244101791475e-05
1117.0, 8.906132364273646e-05
1118.0, 1.0820269389728088e-05
1119.0, 3.633759446929284e-05
1120.0, 0.00018856249920100454
1121.0, 7.762449789628577e-06
1122.0, 4.936201129994453e-05
1123.0, 4.842047444370376e-05
1124.0, 7.739663350682202e-05
1125.0, 6.356883956580547e-05
1126.0, 8.424950831627235e-05
1127.0, 5.883877572779527e-05
1128.0, 1.9905937573598162e-05
1129.0, 7.721402066845075e-05
1130.0, 1.9363996700601017e-05
1131.0, 1.7470326903260403e-05
1132.0, 7.833358926631411e-05
1133.0, 5.707587455194832e-05
1134.0, 5.4858794692394216e-05
1135.0, 9.836797716670655e-05
1136.0, 5.542008950546061e-05
1137.0, 0.00011454877004458959
1138.0, 4.547420974227469e-05
1139.0, 7.324502815107101e-05
1140.0, 4.6079472153266324e-05
1141.0, 7.813918903967468e-05
1142.0, 5.068145803011979e-05
1143.0, 8.1376969091301e-05
1144.0, 4.2334653061916534e-05
1145.0, 2.3400379058201243e-05
1146.0, 3.292835114641113e-05
1147.0, 1.7426633031628936e-05
1148.0, 1.9799150907975902e-05
1149.0, 6.029371030749468e-07
1150.0, 2.117941352991282e-05
1151.0, 5.003013398272431e-05
1152.0, 4.034721013323534e-05
1153.0, 7.860940274312207e-05
1154.0, 0.00014289126412622612
1155.0, 7.051367541218909e-05
1156.0, 1.8887531696121197e-05
1157.0, 0.00012260172405287821
1158.0, 0.00024266582672902672
1159.0, 0.00011856221163055422
1160.0, 0.00024875541647423983
1161.0, 4.82843446210956e-05
1162.0, 0.0001768312840872767
1163.0, 0.0002748832716702909
1164.0, 0.00021775371938948556
1165.0, 0.0002515904739250986
1166.0, 0.00021631870425396592
1167.0, 0.00023846694763147834
1168.0, 0.00019134966545605723
1169.0, 0.0002373926948967941
1170.0, 0.0002136535818389141
1171.0, 0.0002460145577776668
1172.0, 0.00028600398086664627
1173.0, 0.0002571604143686241
1174.0, 0.00024412470772741343
1175.0, 0.00021992005263229015
1176.0, 0.00024200322772431588
1177.0, 0.0003668788355817354
1178.0, 0.0004053882714594324
1179.0, 0.000413115250245765
1180.0, 0.0004286049705458909
1181.0, 0.0004294846483420727
1182.0, 0.00046228043329205157
1183.0, 0.00040372520394183674
1184.0, 0.00045063859573553957
1185.0, 0.0004933153430211691
1186.0, 0.000526716884195087
1187.0, 0.00064706514899733
1188.0, 0.0005948998093078572
1189.0, 0.0005778822699096784
1190.0, 0.0008118614933189638
1191.0, 0.0008503423955718861
1192.0, 0.0006870368839444141
1193.0, 0.0006543012597792613
1194.0, 0.0007893708027733108
1195.0, 0.000869417457805906
1196.0, 0.0008863798941211882
1197.0, 0.0008566918210212118
1198.0, 0.0007825411875601334
1199.0, 0.000695372658542226
1200.0, 0.0006620191432320846
1201.0, 0.0006509663845159522
1202.0, 0.0005858410199600272
1203.0, 0.0006318718539772815
1204.0, 0.0006163187624801085
1205.0, 0.0006760016870898915
1206.0, 0.0005523913582805584
1207.0, 0.0004974021111787951
1208.0, 0.00045382337713476185
1209.0, 0.0006140638249753498
1210.0, 0.0005170625200307671
1211.0, 0.0005842400910514589
1212.0, 0.0005712152092831071
1213.0, 0.0007082826940393827
1214.0, 0.0005021766561468334
1215.0, 0.0005664333150244816
1216.0, 0.0005306201344096277
1217.0, 0.00035427922062294633
1218.0, 0.0004722451851057787
1219.0, 0.0003726810898442554
1220.0, 0.00027323357632715387
1221.0, 0.00030897745186921153
1222.0, 0.00033523137596443
1223.0, 0.00029434588256550316
1224.0, 0.0002424502831424816
1225.0, 0.00016725358434004485
1226.0, 0.00016185662716995973
1227.0, 0.0002822347946668202
1228.0, 0.00032560139098356005
1229.0, 0.00018236333020397896
1230.0, 7.938196117568709e-05
1231.0, 0.0002135210815359766
1232.0, 8.843715054455425e-05
1233.0, 6.35992273329778e-05
1234.0, 5.188786186810027e-05
1235.0, 0.0001271517293320717
1236.0, 7.920343596180348e-05
1237.0, 0.00014216430908652673
1238.0, 0.00014930777018666726
1239.0, 1.2505935368506167e-05
1240.0, 0.00018845709925205815
1241.0, 4.188784872084819e-05
1242.0, 1.3025011089746429e-05
1243.0, 0.00020726386018103508
1244.0, 0.00010708736557652662
1245.0, 0.0001531768062702067
1246.0, 0.00013105876316793957
1247.0, 2.3775527918290228e-05
1248.0, 1.224294844258103e-05
1249.0, 2.5013299762637326e-06
1250.0, 2.308425594377044e-05
1251.0, 0.00014273933743627013
1252.0, 0.00013153564066508615
1253.0, 6.543781112585712e-05
1254.0, 0.00018062818278493167
1255.0, 0.00014961865298416052
1256.0, 0.00013550427290575084
1257.0, 0.00010800131076348631
1258.0, 0.00011426365102304606
1259.0, 9.334186535040676e-05
1260.0, 3.485521192646999e-05
1261.0, 0.0001453176726533801
1262.0, 0.00014278827652026483
1263.0, 9.892391425398292e-05
1264.0, 0.00021009834738166795
1265.0, 0.00016805737157392811
1266.0, 0.0001273730742028082
1267.0, 0.0001666756211324308
1268.0, 0.0001232726946613577
1269.0, 6.533655825141656e-05
1270.0, 0.0001109507529812127
1271.0, 9.409025229582477e-07
1272, 0.0
1273, 0.0
1274, 0.0
1275, 0.0
1276, 0.0
1277, 0.0
1278, 0.0
1279, 0.0
1280, 0.0
1281, 0.0
1282, 0.0
1283, 0.0
1284, 0.0
1285, 0.0
1286, 0.0
1287, 0.0
1288, 0.0
1289, 0.0
1290, 0.0
1291, 0.0
1292, 0.0
1293, 0.0
1294, 0.0
1295, 0.0
1296, 0.0
1297, 0.0
1298, 0.0
1299, 0.0
1300, 0.0
1301, 0.0
1302, 0.0
1303, 0.0
1304, 0.0
1305, 0.0
1306, 0.0
1307, 0.0
1308, 0.0
1309, 0.0
1310, 0.0
1311, 0.0
1312, 0.0
1313, 0.0
1314, 0.0
1315, 0.0
1316, 0.0
1317, 0.0
1318, 0.0
1319, 0.0
1320, 0.0
1321, 0.0
1322, 0.0
1323, 0.0
1324, 0.0
1325, 0.0
1326, 0.0
1327, 0.0
1328, 0.0
1329, 0.0
1330, 0.0
1331, 0.0
1332, 0.0
1333, 0.0
1334, 0.0
1335, 0.0
1336, 0.0
1337, 0.0
1338, 0.0
1339, 0.0
1340, 0.0
1341, 0.0
1342, 0.0
1343, 0.0
1344, 0.0
1345, 0.0
1346, 0.0
1347, 0.0
1348, 0.0
1349, 0.0
1350, 0.0
1351, 0.0
1352, 0.0
1353, 0.0
1354, 0.0
1355, 0.0
1356, 0.0
1357, 0.0
1358, 0.0
1359, 0.0
1360, 0.0
1361, 0.0
1362, 0.0
1363, 0.0
1364, 0.0
1365, 0.0
1366, 0.0
1367, 0.0
1368, 0.0
1369, 0.0
1370, 0.0
1371, 0.0
1372, 0.0
1373, 0.0
1374, 0.0
1375, 0.0
1376, 0.0
1377, 0.0
1378, 0.0
1379, 0.0
1380, 0.0
1381, 0.0
1382, 0.0
1383, 0.0
1384, 0.0
1385, 0.0
1386, 0.0
1387, 0.0
1388, 0.0
1389, 0.0
1390, 0.0
1391, 0.0
1392, 0.0
1393, 0.0
1394, 0.0
1395, 0.0
1396, 0.0
1397, 0.0
1398, 0.0
1399, 0.0
1400, 0.0
1401, 0.0
1402, 0.0
1403, 0.0
1404, 0.0
1405, 0.0
1406, 0.0
1407, 0.0
1408, 0.0
1409, 0.0
1410, 0.0
1411, 0.0
1412, 0.0
1413, 0.0
1414, 0.0
1415, 0.0
1416, 0.0
1417, 0.0
1418, 0.0
1419, 0.0
1420, 0.0
1421, 0.0
1422, 0.0
1423, 0.0
1424, 0.0
1425, 0.0
1426, 0.0
1427, 0.0
1428, 0.0
1429, 0.0
1430, 0.0
1431, 0.0
1432, 0.0
1433, 0.0
1434, 0.0
1435, 0.0
1436, 0.0
1437, 0.0
1438, 0.0
1439, 0.0
1440, 0.0
1441, 0.0
1442, 0.0
1443, 0.0
1444, 0.0
1445, 0.0
1446, 0.0
1447, 0.0
1448, 0.0
1449, 0.0
1450, 0.0
1451, 0.0
1452, 0.0
1453, 0.0
1454, 0.0
1455, 0.0
1456, 0.0
1457, 0.0
1458, 0.0
1459, 0.0
1460, 0.0
1461, 0.0
1462, 0.0
1463, 0.0
1464, 0.0
1465, 0.0
1466, 0.0
1467, 0.0
1468, 0.0
1469, 0.0
1470, 0.0
1471, 0.0
1472, 0.0
1473, 0.0
1474, 0.0
1475, 0.0
1476, 0.0
1477, 0.0
1478, 0.0
1479, 0.0
1480, 0.0
1481, 0.0
1482, 0.0
1483, 0.0
1484, 0.0
1485, 0.0
1486, 0.0
1487, 0.0
1488, 0.0
1489, 0.0
1490, 0.0
1491, 0.0
1492, 0.0
1493, 0.0
1494, 0.0
1495, 0.0
1496, 0.0
1497, 0.0
1498, 0.0
1499, 0.0
1500, 0.0
1501, 0.0
1502, 0.0
1503, 0.0
1504, 0.0
1505, 0.0
1506, 0.0
1507, 0.0
1508, 0.0
1509, 0.0
1510, 0.0
1511, 0.0
1512, 0.0
1513, 0.0
1514, 0.0
1515, 0.0
1516, 0.0
1517, 0.0
1518, 0.0
1519, 0.0
1520, 0.0
1521, 0.0
1522, 0.0
1523, 0.0
1524, 0.0
1525, 0.0
1526, 0.0
1527, 0.0
1528, 0.0
1529, 0.0
1530, 0.0
1531, 0.0
1532, 0.0
1533, 0.0
1534, 0.0
1535, 0.0
1536, 0.0
1537, 0.0
1538, 0.0
1539, 0.0
1540, 0.0
1541, 0.0
1542, 0.0
1543, 0.0
1544, 0.0
1545, 0.0
1546, 0.0
1547, 0.0
1548, 0.0
1549, 0.0
1550, 0.0
1551, 0.0
1552, 0.0
1553, 0.0
1554, 0.0
1555, 0.0
1556, 0.0
1557, 0.0
1558, 0.0
1559, 0.0
1560, 0.0
1561, 0.0
1562, 0.0
1563, 0.0
1564, 0.0
1565, 0.0
1566, 0.0
1567, 0.0
1568, 0.0
1569, 0.0
1570, 0.0
1571, 0.0
1572, 0.0
1573, 0.0
1574, 0.0
1575, 0.0
1576, 0.0
1577, 0.0
1578, 0.0
1579, 0.0
1580, 0.0
1581, 0.0
1582, 0.0
1583, 0.0
1584, 0.0
1585, 0.0
1586, 0.0
1587, 0.0
1588, 0.0
1589, 0.0
1590, 0.0
1591, 0.0
1592, 0.0
1593, 0.0
1594, 0.0
1595, 0.0
1596, 0.0
1597, 0.0
1598, 0.0
1599, 0.0
