30, 0.0
31, 0.0
32, 0.0
33, 0.0
34, 0.0
35, 0.0
36, 0.0
37, 0.0
38, 0.0
39, 0.0
40, 0.0
41, 0.0
42, 0.0
43, 0.0
44, 0.0
45, 0.0
46, 0.0
47, 0.0
48, 0.0
49, 0.0
50, 0.0
51, 0.0
52, 0.0
53, 0.0
54, 0.0
55, 0.0
56, 0.0
57, 0.0
58, 0.0
59, 0.0
60, 0.0
61, 0.0
62, 0.0
63, 0.0
64, 0.0
65, 0.0
66, 0.0
67, 0.0
68, 0.0
69, 0.0
70, 0.0
71, 0.0
72, 0.0
73, 0.0
74, 0.0
75, 0.0
76, 0.0
77, 0.0
78, 0.0
79, 0.0
80, 0.0
81, 0.0
82, 0.0
83, 0.0
84, 0.0
85, 0.0
86, 0.0
87, 0.0
88, 0.0
89, 0.0
90, 0.0
91, 0.0
92, 0.0
93, 0.0
94, 0.0
95, 0.0
96, 0.0
97, 0.0
98, 0.0
99, 0.0
100, 0.0
101, 0.0
102, 0.0
103, 0.0
104, 0.0
105, 0.0
106, 0.0
107, 0.0
108, 0.0
109, 0.0
110, 0.0
111, 0.0
112, 0.0
113, 0.0
114, 0.0
115, 0.0
116, 0.0
117, 0.0
118, 0.0
119, 0.0
120, 0.0
121, 0.0
122, 0.0
123, 0.0
124.0, 7.321146086195007e-05
125.0, 8.759309407208736e-05
126.0, 9.471250948715412e-05
127.0, 0.0007885274255078508
128.0, 0.0006902440054723359
129.0, 0.00039601188126143816
130.0, 0.0004212319756999553
131.0, 0.0006768493840385303
132.0, 0.0016021759538377364
133.0, 0.0033645385627764915
134.0, 0.006717330894673889
135.0, 0.009447147757981117
136.0, 0.014188294004279692
137.0, 0.02280271299349022
138.0, 0.032976663595930704
139.0, 0.04554619781134798
140.0, 0.060045583327359875
141.0, 0.07564184452224491
142.0, 0.09020869198291444
143.0, 0.10193402275582614
144.0, 0.10984123336463775
145.0, 0.1105360292498995
146.0, 0.10796187100513098
147.0, 0.10234149145791402
148.0, 0.09312381526194838
149.0, 0.08460714061164082
150.0, 0.077236537530812
151.0, 0.07204356571275364
152.0, 0.07636115047569199
153.0, 0.08148576060077288
154.0, 0.08996696977471438
155.0, 0.10461318195276476
156.0, 0.12228405038681259
157.0, 0.14117677484117314
158.0, 0.1601784068610694
159.0, 0.17576939318534351
160.0, 0.18514023291969892
161.0, 0.18987222785696783
162.0, 0.19017233074237047
163.0, 0.18751979744305403
164.0, 0.18188048059851428
165.0, 0.174288327940946
166.0, 0.1659918669375319
167.0, 0.16650606703344026
168.0, 0.16800881871699774
169.0, 0.16961263607518454
170.0, 0.1756232718848263
171.0, 0.17636814446555454
172.0, 0.17667007659653788
173.0, 0.18023312963389265
174.0, 0.18341252078014142
175.0, 0.19355611469508244
176.0, 0.20936132510883496
177.0, 0.226781550836183
178.0, 0.24803459663248245
179.0, 0.2694398570948421
180.0, 0.29008276811293415
181.0, 0.3176604882048918
182.0, 0.3391792046131995
183.0, 0.3527901956376274
184.0, 0.3540319782436609
185.0, 0.3530826742629672
186.0, 0.3435953693800021
187.0, 0.32523059252116643
188.0, 0.2997257601710201
189.0, 0.2666546721435585
190.0, 0.23440054152374132
191.0, 0.20755492498882328
192.0, 0.177153150092998
193.0, 0.15674820691324978
194.0, 0.14210571557628185
195.0, 0.12602349495924905
196.0, 0.11529443885205938
197.0, 0.10761950361732694
198.0, 0.10291194956060401
199.0, 0.10363992995766765
200.0, 0.11011147457952476
201.0, 0.11892027037673143
202.0, 0.1279898322127243
203.0, 0.14382857928211853
204.0, 0.16357134444418236
205.0, 0.18511679182630555
206.0, 0.20383805822782486
207.0, 0.20820255403267113
208.0, 0.20668340971612462
209.0, 0.20069105579244234
210.0, 0.18460518517852925
211.0, 0.1617243864607098
212.0, 0.135291971100292
213.0, 0.10745813374330825
214.0, 0.08538416031651944
215.0, 0.06578363768723514
216.0, 0.049485578482117126
217.0, 0.040004537789759875
218.0, 0.02959345122642161
219.0, 0.01982892009441323
220.0, 0.011658902814936103
221.0, 0.010512489099330223
222.0, 0.006322521612591154
223.0, 0.002658161282310263
224.0, 0.0028379158616688616
225.0, 0.001981330867513487
226.0, 0.0010173024247831077
227.0, 0.0009170280826511525
228.0, 0.004402331500687544
229.0, 0.003757982523398981
230.0, 0.0031970328404282928
231.0, 0.003790688680781506
232.0, 0.004558670223232322
233.0, 0.0035808330863705724
234.0, 0.0028362725529242744
235.0, 0.00398409064149064
236.0, 0.004037368083752447
237.0, 0.003711614473097851
238.0, 0.0037212793838877723
239.0, 0.005771203739139174
240.0, 0.005595743631436502
241.0, 0.007446698708350322
242.0, 0.01271274195288288
243.0, 0.02428971398897279
244.0, 0.029494146527429377
245.0, 0.038839872099393394
246.0, 0.059716829365796226
247.0, 0.07566015616170096
248.0, 0.09424490761331333
249.0, 0.11188061378874598
250.0, 0.12160624793489594
251.0, 0.12308726006572408
252.0, 0.11712673424363197
253.0, 0.10437844326983681
254.0, 0.0873553041851387
255.0, 0.07166847419620934
256.0, 0.057225074526920806
257.0, 0.0441810138416595
258.0, 0.03539788287608223
259.0, 0.030009710594780758
260.0, 0.026464833592346495
261.0, 0.023185184339118838
262.0, 0.024834031737464277
263.0, 0.028578170785402465
264.0, 0.033706953017177174
265.0, 0.03899026016003672
266.0, 0.04599751208346415
267.0, 0.051995248135206874
268.0, 0.05632714464948324
269.0, 0.06066202442662333
270.0, 0.0626687019384163
271.0, 0.06174753241236404
272.0, 0.0571277632502879
273.0, 0.05910700741645184
274.0, 0.0646123778000546
275.0, 0.07101274143544171
276.0, 0.0738441779314001
277.0, 0.08275045634313578
278.0, 0.09712040822511038
279.0, 0.11691383758473947
280.0, 0.1428155474603541
281.0, 0.17960448122505718
282.0, 0.22577213023326748
283.0, 0.2820017484548537
284.0, 0.35825777213323384
285.0, 0.446252694945339
286.0, 0.5367110403553402
287.0, 0.6218094651203092
288.0, 0.6906420721995661
289.0, 0.7266295978907388
290.0, 0.7305298607912247
291.0, 0.6998956899462359
292.0, 0.6316115201889472
293.0, 0.5463580852169272
294.0, 0.4521498413671281
295.0, 0.3700773077832617
296.0, 0.2964811134931108
297.0, 0.23449481455094773
298.0, 0.18574718272200158
299.0, 0.1461681409449766
300.0, 0.11674394439737645
301.0, 0.09315416049692336
302.0, 0.07246765029944566
303.0, 0.06151292856449023
304.0, 0.05454959381923034
305.0, 0.0488725680241782
306.0, 0.0400560464524578
307.0, 0.034658364516244274
308.0, 0.0320124509993148
309.0, 0.03116500515616495
310.0, 0.029047910792812322
311.0, 0.027552722794656623
312.0, 0.024648158549786806
313.0, 0.020147838684713457
314.0, 0.018607228402192342
315.0, 0.02140637116808519
316.0, 0.02288848740821696
317.0, 0.019581922060342653
318.0, 0.028771883310154643
319.0, 0.03445767376306845
320.0, 0.040422358251053746
321.0, 0.051528326507446036
322.0, 0.07304225769920153
323.0, 0.09705017176898655
324.0, 0.12412000019478521
325.0, 0.15748063998563377
326.0, 0.18440103677671016
327.0, 0.20169596290195377
328.0, 0.20697410122955026
329.0, 0.1914170939242518
330.0, 0.17041529827503973
331.0, 0.14538422207249313
332.0, 0.11723743875173623
333.0, 0.0924671565739599
334.0, 0.07126411630998315
335.0, 0.05514382860047404
336.0, 0.045523371083155934
337.0, 0.03494704654165112
338.0, 0.029106799065771176
339.0, 0.025489461556606117
340.0, 0.021055304269484418
341.0, 0.018415887475371602
342.0, 0.017908624730476205
343.0, 0.01897604943852933
344.0, 0.020486209052081702
345.0, 0.01897815852612323
346.0, 0.01861746268593576
347.0, 0.019491786668367417
348.0, 0.01907834183984295
349.0, 0.017887499652421476
350.0, 0.01624921144652916
351.0, 0.01419796148618248
352.0, 0.011283263629113749
353.0, 0.009085693977864715
354.0, 0.008041109357606052
355.0, 0.008303935130076134
356.0, 0.006349363754827413
357.0, 0.006378764899607792
358.0, 0.006344458606285113
359.0, 0.004389367495494973
360.0, 0.0050814003805072835
361.0, 0.006428579465938415
362.0, 0.006124078355423265
363.0, 0.0006046809102836235
364.0, 0.0002551650352849808
365.0, 0.00028163983060691916
366.0, 0.00039588706214955974
367.0, 0.0009120351929220107
368.0, 0.0007815551662838445
369.0, 0.0008571503749693568
370.0, 0.0010782793845649688
371.0, 0.0006588680626449926
372.0, 0.0010287297594427805
373.0, 0.0009393498482923224
374.0, 0.0002613863879995117
375.0, 0.0005374004811552474
376.0, 0.0003334192561520535
377.0, 0.00035826951547836456
378.0, 0.0009407996409173694
379.0, 0.0020606177745041
380.0, 0.002925524629266962
381.0, 0.002520768317102504
382.0, 0.0002120670755500852
383.0, 0.0013268654366527769
384.0, 0.001196342254755307
385.0, 0.0016713142866539167
386.0, 0.00464345992933955
387.0, 0.002072382168077224
388.0, 0.0035414692289250298
389.0, 0.006124982440183927
390.0, 0.0053094294251958074
391.0, 0.0070286438393847
392.0, 0.009091364609958203
393.0, 0.011540730224333893
394.0, 0.01484821094091567
395.0, 0.023293930256567206
396.0, 0.02765677175528395
397.0, 0.02875812623951027
398.0, 0.03244093049720372
399.0, 0.03513140335083221
400.0, 0.03186835286641124
401.0, 0.023931056374905786
402.0, 0.020791355936394487
403.0, 0.02096759533703714
404.0, 0.021252898028930125
405.0, 0.02123563223194229
406.0, 0.024095108123927327
407.0, 0.021811559102880632
408.0, 0.01960511505984564
409.0, 0.019096435324867083
410.0, 0.015947489418434893
411.0, 0.016276608738247093
412.0, 0.016759315880264313
413.0, 0.01596081630909673
414.0, 0.018622163741100643
415.0, 0.02003406410415517
416.0, 0.01892433906633453
417.0, 0.014490337535402593
418.0, 0.012688824328285398
419.0, 0.007955657711079223
420.0, 0.003621176132311943
421.0, 0.0025956269257943272
422.0, 0.0031199913322111365
423.0, 0.0031665318706245757
424.0, 0.002432958214984063
425.0, 0.0005512897685961676
426.0, 0.00377924136457081
427.0, 0.0039296355242088455
428.0, 0.003481130850114165
429.0, 0.006091002055801945
430.0, 0.003878286499055254
431.0, 0.0029579417221749435
432.0, 0.0030753113664508435
433.0, 0.0033355624038615603
434.0, 0.0025149577256827144
435.0, 0.0015985507768703834
436.0, 0.0017533709424444018
437.0, 0.005181802303669033
438.0, 0.004019808851880768
439.0, 0.0025019668718728517
440.0, 0.0030199137074791156
441.0, 0.010149597689549098
442.0, 0.00845021002562564
443.0, 0.006076121210040031
444.0, 0.004873417598308801
445.0, 0.006742414011701791
446.0, 0.006230818261095848
447.0, 0.006519257724180402
448.0, 0.008531615974921197
449.0, 0.013511979382800188
450.0, 0.012813785179992427
451.0, 0.014517812996327204
452.0, 0.018878629411122214
453.0, 0.02132792432453168
454.0, 0.025590042413294448
455.0, 0.028640428584020206
456.0, 0.02973532652577573
457.0, 0.02860082154237497
458.0, 0.031107442643527616
459.0, 0.031329036406152026
460.0, 0.028800979545004806
461.0, 0.02774347830815939
462.0, 0.030386118005728605
463.0, 0.0331434820769011
464.0, 0.0359245543532588
465.0, 0.042667628312484586
466.0, 0.04637259715381732
467.0, 0.05185696306233576
468.0, 0.06074565844608524
469.0, 0.07413029931495788
470.0, 0.09449361713767893
471.0, 0.1190777127325772
472.0, 0.1486084823393668
473.0, 0.19046460994307432
474.0, 0.23775200427494417
475.0, 0.2926284133317849
476.0, 0.3511343382345609
477.0, 0.3898963430014763
478.0, 0.40765876499395753
479.0, 0.3998165903486704
480.0, 0.3665074899613696
481.0, 0.3167884517811335
482.0, 0.26786023910665513
483.0, 0.22199113466174514
484.0, 0.18037837532342652
485.0, 0.14528496105440727
486.0, 0.13149248914541908
487.0, 0.11742650050433058
488.0, 0.09990552272132788
489.0, 0.09453090640308842
490.0, 0.09266964653001199
491.0, 0.09140484234612449
492.0, 0.09175825726199247
493.0, 0.10203195179620687
494.0, 0.11343387231835977
495.0, 0.12546695356493454
496.0, 0.14048319850604493
497.0, 0.16875743668734322
498.0, 0.20910531837326798
499.0, 0.26250760942459866
500.0, 0.330899271382581
501.0, 0.4207491411773897
502.0, 0.5463637378954495
503.0, 0.6849230402982959
504.0, 0.8227407499305349
505.0, 0.9308143406553849
506.0, 0.9809133900385035
507.0, 0.9670379875846407
508.0, 0.8948365606831838
509.0, 0.7840095011808487
510.0, 0.659474966865832
511.0, 0.5357405849303251
512.0, 0.4228337413192542
513.0, 0.34094687033143595
514.0, 0.27751009950835126
515.0, 0.224339587045943
516.0, 0.18176554250105326
517.0, 0.15379968864935575
518.0, 0.1311400348768516
519.0, 0.11306005209917391
520.0, 0.09893866622583233
521.0, 0.08783835993896472
522.0, 0.0812682413334857
523.0, 0.06986117502503501
524.0, 0.05802844634177759
525.0, 0.05452029197340562
526.0, 0.05191654789346604
527.0, 0.04745316935965459
528.0, 0.04313740656492707
529.0, 0.042002572879701425
530.0, 0.038200125332644726
531.0, 0.037090726514765006
532.0, 0.035640431905604265
533.0, 0.030183602587411405
534.0, 0.032316363580956915
535.0, 0.029522196141331565
536.0, 0.02677567637419192
537.0, 0.02853728743584945
538.0, 0.020898609092393227
539.0, 0.022348820290201413
540.0, 0.022912481546002873
541.0, 0.016056485026645046
542.0, 0.020588409630376323
543.0, 0.017337048239008144
544.0, 0.01613058966755812
545.0, 0.021585887158929357
546.0, 0.02024885610812706
547.0, 0.016745757123247152
548.0, 0.015720663395742556
549.0, 0.018067845991582194
550.0, 0.01519534366233725
551.0, 0.015882769415892836
552.0, 0.014650282592350987
553.0, 0.01131444788148806
554.0, 0.013965488780024078
555.0, 0.015302051832066397
556.0, 0.014762739089560686
557.0, 0.012578421634751652
558.0, 0.009983025480531142
559.0, 0.014174786017166102
560.0, 0.014857729194951352
561.0, 0.012855333461653897
562.0, 0.014514567040484979
563.0, 0.014560685600068941
564.0, 0.013168846765104806
565.0, 0.01157090212783332
566.0, 0.011845426037973028
567.0, 0.015060097412253384
568.0, 0.015360699810388517
569.0, 0.015640637012946428
570.0, 0.019871954227054768
571.0, 0.0177557179751314
572.0, 0.02042934948381462
573.0, 0.024757846327534187
574.0, 0.027930398276742735
575.0, 0.03334665101454775
576.0, 0.03790393767383983
577.0, 0.03960762619574534
578.0, 0.038061731928974475
579.0, 0.04188110823399285
580.0, 0.03796752457079385
581.0, 0.034146381117165184
582.0, 0.032528785401040046
583.0, 0.025866488999812958
584.0, 0.023016582478509975
585.0, 0.020813992626176666
586.0, 0.01856840850683665
587.0, 0.01704003421525512
588.0, 0.015201733059087947
589.0, 0.012867034033564546
590.0, 0.01049345121028123
591.0, 0.009164883325965054
592.0, 0.008733380995112014
593.0, 0.006128282960772617
594.0, 0.004302645314959603
595.0, 0.007898256567355015
596.0, 0.008037929995158673
597.0, 0.007437367630148716
598.0, 0.0058016409113037445
599.0, 0.003106988582241849
600.0, 0.007135902247945968
601.0, 0.00759183168513178
602.0, 0.006499999800004566
603.0, 0.005373345961095924
604.0, 0.006230276307180874
605.0, 0.004915174457853962
606.0, 0.004756269290217779
607.0, 0.006480981305979376
608.0, 0.007534921725843166
609.0, 0.007252040189167497
610.0, 0.007033674113561948
611.0, 0.006835305508969516
612.0, 0.005705465409047735
613.0, 0.006373821093363996
614.0, 0.00663881580249803
615.0, 0.007284789536524608
616.0, 0.009927404960820587
617.0, 0.00832576929342142
618.0, 0.007777095970442901
619.0, 0.0094306892741664
620.0, 0.013794305608451848
621.0, 0.011466879335525747
622.0, 0.014639073271289037
623.0, 0.018203826040793125
624.0, 0.01926086843539674
625.0, 0.018721448538611705
626.0, 0.021354753687096502
627.0, 0.0250835417623832
628.0, 0.02943872509813201
629.0, 0.035260034402213807
630.0, 0.040566160578092814
631.0, 0.043231720067111644
632.0, 0.043633692464361315
633.0, 0.043290016233899185
634.0, 0.039756622333753995
635.0, 0.038048185405850664
636.0, 0.035816722203690046
637.0, 0.030242588518648784
638.0, 0.032684880043768294
639.0, 0.03399635034238752
640.0, 0.03685163517321443
641.0, 0.04182665234548146
642.0, 0.0386901103435693
643.0, 0.039949874036753576
644.0, 0.04047467696363347
645.0, 0.03952321640678394
646.0, 0.04136715685320119
647.0, 0.04044238528183372
648.0, 0.03730313772052653
649.0, 0.034246572952405595
650.0, 0.035492442541690226
651.0, 0.02707595172577473
652.0, 0.02405832603593549
653.0, 0.021540507706301587
654.0, 0.013802978813860705
655.0, 0.011846645780723553
656.0, 0.012226904154759733
657.0, 0.0111970983093676
658.0, 0.007618239642998417
659.0, 0.008264119907058642
660.0, 0.010047692391490743
661.0, 0.00893337716994467
662.0, 0.007047874721544122
663.0, 0.013884143226160627
664.0, 0.009550519257493584
665.0, 0.0063911096768087105
666.0, 0.005897680030447353
667.0, 0.007939399060491327
668.0, 0.005030217060818809
669.0, 0.004964296909280912
670.0, 0.00447789574644929
671.0, 0.0014215307431918265
672.0, 0.00037936965874083473
673.0, 0.0010948203047426535
674.0, 0.00394419409764447
675.0, 0.006928138870320827
676.0, 0.002151681002702022
677.0, 0.004400005678826698
678.0, 0.004663644934579199
679.0, 0.0032448521009582707
680.0, 0.003283118750117655
681.0, 0.0035926679630892723
682.0, 0.0023288519019229958
683.0, 0.000829382608287082
684.0, 0.0003196545582362117
685.0, 0.0005561188151652232
686.0, 0.0027926487644011006
687.0, 0.0032892641731378036
688.0, 0.0017943449541902561
689.0, 0.0036330083146847887
690.0, 0.002689158478443153
691.0, 0.0018375751228410198
692.0, 0.0017519614544896877
693.0, 0.0026825870847933466
694.0, 0.002744170658448079
695.0, 0.00250968894867557
696.0, 0.0025205071879666526
697.0, 0.0031180446889597074
698.0, 0.0030873450557129963
699.0, 0.003730942922001201
700.0, 0.0034154474863628947
701.0, 0.0022150773795301575
702.0, 0.0027233268632812615
703.0, 0.0013587803837247414
704.0, 0.0030048148504187265
705.0, 0.004972106660124147
706.0, 0.001990139018758112
707.0, 0.0023177976231914424
708.0, 0.003523337406841836
709.0, 0.003674638563275001
710.0, 0.002024563952064619
711.0, 0.003687434556799483
712.0, 0.00435634333878634
713.0, 0.0031419481282857677
714.0, 0.0008880262673901749
715.0, 0.0006776387918380398
716.0, 0.004919410284195637
717.0, 0.005569607812228974
718.0, 0.005027508773318379
719.0, 0.006898560394034079
720.0, 0.003702344050983941
721.0, 0.007466380635141436
722.0, 0.007903627259423588
723.0, 0.002824996963684546
724.0, 0.00839922986225481
725.0, 0.0044277333443516215
726.0, 0.0018681324902375897
727.0, 0.0024305951463689263
728.0, 0.004963460497125739
729.0, 0.0013305245959025136
730.0, 0.0021908941850821992
731.0, 0.004943395154172951
732.0, 0.006495186153246313
733.0, 0.0013394376757992006
734.0, 0.006382411438349528
735.0, 0.00707458368861192
736.0, 0.002120782362828531
737.0, 0.0011083291317878579
738.0, 0.009794307792454604
739.0, 0.009634411092704914
740.0, 0.005370753272154597
741.0, 0.004298072800528507
742.0, 0.005724913352216551
743.0, 0.008237781323072518
744.0, 0.009870799194653283
745.0, 0.010310749128816124
746.0, 0.01180700812520517
747.0, 0.009640480149078257
748.0, 0.010485766907561169
749.0, 0.01238800557013256
750.0, 0.01117357252552846
751.0, 0.008970831547781801
752.0, 0.012018407268820572
753.0, 0.014375722743783521
754.0, 0.013729362079730068
755.0, 0.01636361732168837
756.0, 0.020904198715365984
757.0, 0.028624547392809025
758.0, 0.036478051747552934
759.0, 0.03891712458769096
760.0, 0.049143715169233125
761.0, 0.0531068235741106
762.0, 0.05665303124139401
763.0, 0.06198937089343439
764.0, 0.05613651642711848
765.0, 0.04488421104245508
766.0, 0.040904121016932624
767.0, 0.04092699091986116
768.0, 0.03264392117574845
769.0, 0.027115437007226156
770.0, 0.028319963931177448
771.0, 0.028393967389521227
772.0, 0.022833113262101756
773.0, 0.0228471372373496
774.0, 0.024197675108053616
775.0, 0.02037353224079371
776.0, 0.014904100398667849
777.0, 0.01836036689559745
778.0, 0.013395228476177665
779.0, 0.013522772536778962
780.0, 0.013200733296890102
781.0, 0.00891146234457503
782.0, 0.009126527293726046
783.0, 0.013024596583107732
784.0, 0.012654450327961772
785.0, 0.009561597058690606
786.0, 0.010993234603072761
787.0, 0.00927016255102741
788.0, 0.00871203956712543
789.0, 0.008231646996841044
790.0, 0.007050088012301392
791.0, 0.006046866684622204
792.0, 0.008946066793781276
793.0, 0.010814549586903874
794.0, 0.01057334135065842
795.0, 0.008553804593104604
796.0, 0.005932912978082575
797.0, 0.006129887703838864
798.0, 0.008238250139260057
799.0, 0.010487761899230341
800.0, 0.007450080409800939
801.0, 0.011028184380443326
802.0, 0.011387980763993675
803.0, 0.01135068285008711
804.0, 0.018025929723591048
805.0, 0.02128794046043623
806.0, 0.023362404398352993
807.0, 0.026275606701814863
808.0, 0.031542679771221535
809.0, 0.04070026835804249
810.0, 0.056349935834812855
811.0, 0.06691573766658246
812.0, 0.074368067679825
813.0, 0.08317908686949647
814.0, 0.0888841605188563
815.0, 0.08321134553734237
816.0, 0.07821598748567062
817.0, 0.07476051924187621
818.0, 0.06031008388221476
819.0, 0.05265508382132538
820.0, 0.04091660515223091
821.0, 0.030877147475218216
822.0, 0.02803293134920684
823.0, 0.02518493499981278
824.0, 0.020850832082940755
825.0, 0.019044568798738837
826.0, 0.01909800501190945
827.0, 0.01722738448254742
828.0, 0.0120026367175967
829.0, 0.012834159398020212
830.0, 0.013421436737757008
831.0, 0.010717395139340133
832.0, 0.01194723925036628
833.0, 0.011403259361758792
834.0, 0.008421260316676888
835.0, 0.007636596832023196
836.0, 0.0144121389268963
837.0, 0.0064491221440763375
838.0, 0.007162543319643925
839.0, 0.007852036452654238
840.0, 0.006871731944528439
841.0, 0.010753060214494282
842.0, 0.005871142284569467
843.0, 0.00532063138762572
844.0, 0.0065047189416404
845.0, 0.006697799179126079
846.0, 0.010273824873756169
847.0, 0.005270563482215284
848.0, 0.005010946802583572
849.0, 0.006714606816503911
850.0, 0.0003456270438031985
851.0, 0.0023661016351230364
852.0, 0.00330739903100331
853.0, 0.003025262407338508
854.0, 0.00294985410229942
855.0, 0.008055276158343228
856.0, 0.003189641546455485
857.0, 0.002009066571714993
858.0, 0.0025919056112320717
859.0, 0.001974834572204486
860.0, 0.0042178349333885055
861.0, 0.006171171887809015
862.0, 0.004595896488615057
863.0, 0.0013192745648297037
864.0, 0.0011399304882920192
865.0, 0.006744069444310255
866.0, 0.0058014324403827195
867.0, 0.0030415186168460846
868.0, 0.0019793983495615267
869.0, 0.00523725726075378
870.0, 0.002508941718005274
871.0, 0.005970922559632497
872.0, 0.007778358488388539
873.0, 0.0017261963257716793
874.0, 0.005412296470915718
875.0, 0.002732577123897402
876.0, 0.004762270354973141
877.0, 0.008544968291554043
878.0, 0.0053123399610692625
879.0, 0.004087611531924882
880.0, 0.008152676326513342
881.0, 0.007522649178092183
882.0, 0.0014472105432921179
883.0, 0.0007200161964767552
884.0, 0.002810431494088518
885.0, 0.003684654780881731
886.0, 0.0036183588564897167
887.0, 0.003243876291529178
888.0, 0.003452643292142977
889.0, 0.003888872306284114
890.0, 0.004353634322445782
891.0, 0.004799398158583325
892.0, 0.005336357879967132
893.0, 0.007599725733729127
894.0, 0.00811552017899363
895.0, 0.0052857267678965035
896.0, 0.0022811684705404418
897.0, 0.005972584250419101
898.0, 0.0041474088616066905
899.0, 0.0022922293358862717
900.0, 0.004921519943998115
901.0, 0.010362542159381613
902.0, 0.006049983975530343
903.0, 0.0038388418408834652
904.0, 0.007389876824738159
905.0, 0.008849686401726162
906.0, 0.004037610372150223
907.0, 0.006718672941291228
908.0, 0.0029695558541142806
909.0, 0.005429140172918049
910.0, 0.010142176791689288
911.0, 0.009570232147861193
912.0, 0.004217567044621059
913.0, 0.008683347998897539
914.0, 0.009667262119520318
915.0, 0.007021949195263967
916.0, 0.0076358093881820676
917.0, 0.007640836970628515
918.0, 0.0048994312141754665
919.0, 0.005318078467945475
920.0, 0.008311594977852844
921.0, 0.005429746583454442
922.0, 0.010078452409419719
923.0, 0.0056770633763519405
924.0, 0.002072689685692791
925.0, 0.004475376085914513
926.0, 0.005512125541212284
927.0, 0.005235182821270727
928.0, 0.003223595965620222
929.0, 0.005279356400201251
930.0, 0.012786038058715879
931.0, 0.003299102966054894
932.0, 0.006624458592701519
933.0, 0.0060428541638746945
934.0, 0.0041733530078302
935.0, 0.007127966929554556
936.0, 0.005894820659785117
937.0, 0.00533838709236449
938.0, 0.004587541412862128
939.0, 0.006193025019357321
940.0, 0.013608843485591925
941.0, 0.009069303368123104
942.0, 0.009181446299254874
943.0, 0.007863402565821203
944.0, 0.004314329034807257
945.0, 0.0018404094162250142
946.0, 0.007410378887561568
947.0, 0.009340635400321245
948.0, 0.009573943562655018
949.0, 0.010013493646920028
950.0, 0.012712174003489528
951.0, 0.011707865906233173
952.0, 0.011752718320174022
953.0, 0.011054133094220105
954.0, 0.009128817262844277
955.0, 0.008699517358277994
956.0, 0.011200046202408394
957.0, 0.009331208464306231
958.0, 0.007166382703391899
959.0, 0.00783099460948571
960.0, 0.008671339767495371
961.0, 0.012116905381002135
962.0, 0.017189639058285928
963.0, 0.016305610897400832
964.0, 0.007686816412751725
965.0, 0.019311902326818252
966.0, 0.013217010752214627
967.0, 0.009758319336619659
968.0, 0.01426750092722893
969.0, 0.024442032682679003
970.0, 0.011392481261849795
971.0, 0.022267946247068533
972.0, 0.02820233120428003
973.0, 0.027872338101570766
974.0, 0.02785216639869931
975.0, 0.029735465749711712
976.0, 0.03368095062115319
977.0, 0.0372243191419436
978.0, 0.03802885353719239
979.0, 0.03425375492153315
980.0, 0.029702297559497003
981.0, 0.029698932457269792
982.0, 0.02913644504014794
983.0, 0.02677594074886093
984.0, 0.0235033525889707
985.0, 0.025206494111049454
986.0, 0.019604590640524958
987.0, 0.015535066732004901
988.0, 0.014431517203353585
989.0, 0.01341127524530535
990.0, 0.006985433460416713
991.0, 0.010856711072167827
992.0, 0.011879916455702627
993.0, 0.009120576076645277
994.0, 0.009473772271133156
995.0, 0.013870737720542897
996.0, 0.009849565984687617
997.0, 0.011856291566964043
998.0, 0.01647879927582581
999.0, 0.008284844805336757
1000.0, 0.01289268555321748
1001.0, 0.01748551147602811
1002.0, 0.018319293912079024
1003.0, 0.01682824657967021
1004.0, 0.018170418352401328
1005.0, 0.012997592527030158
1006.0, 0.01071362542529088
1007.0, 0.011441172676766356
1008.0, 0.013728676395078318
1009.0, 0.015000500580888448
1010.0, 0.02108307543093896
1011.0, 0.018945627458609605
1012.0, 0.015924735837194365
1013.0, 0.016233199773326188
1014.0, 0.021497387279568302
1015.0, 0.020901428482406646
1016.0, 0.018368109373603975
1017.0, 0.017640313182179755
1018.0, 0.018406339919663284
1019.0, 0.01785568014221442
1020.0, 0.024369065360449416
1021.0, 0.02433452558685867
1022.0, 0.024861906708756862
1023.0, 0.030259456985998596
1024.0, 0.042016111565550636
1025.0, 0.04013944373017917
1026.0, 0.04675881021151072
1027.0, 0.051786520889998
1028.0, 0.05600423683818892
1029.0, 0.06548399500774472
1030.0, 0.075013218657473
1031.0, 0.07940734501741464
1032.0, 0.08057117703649522
1033.0, 0.08018201998789783
1034.0, 0.07863094290983555
1035.0, 0.06174388179436305
1036.0, 0.05592891728959642
1037.0, 0.04792615277513671
1038.0, 0.04056637876865179
1039.0, 0.04004502510619746
1040.0, 0.03172073454454596
1041.0, 0.02924228566372608
1042.0, 0.026936236289973832
1043.0, 0.025994085630782718
1044.0, 0.02754267862686032
1045.0, 0.021298336158848796
1046.0, 0.02304271033313899
1047.0, 0.022849261088699044
1048.0, 0.021106164109948602
1049.0, 0.02081467127412121
1050.0, 0.02626088721512571
1051.0, 0.022539778267057733
1052.0, 0.02267009141020532
1053.0, 0.022405920930318193
1054.0, 0.01832577852422914
1055.0, 0.016685539605567443
1056.0, 0.0210654818427394
1057.0, 0.023775344090503664
1058.0, 0.01854017852570563
1059.0, 0.009394616149553114
1060.0, 0.019709506421460722
1061.0, 0.016276948439305335
1062.0, 0.016818962359836827
1063.0, 0.018468650724702055
1064.0, 0.01841196663038972
1065.0, 0.015305343733665619
1066.0, 0.02158675037976903
1067.0, 0.013378676075025641
1068.0, 0.010094436550037385
1069.0, 0.014758693417906034
1070.0, 0.01601586736669143
1071.0, 0.015850484630018643
1072.0, 0.01635154482492647
1073.0, 0.017608428284847155
1074.0, 0.018436701589694023
1075.0, 0.01804548212720288
1076.0, 0.027060566541751086
1077.0, 0.020338872860853396
1078.0, 0.0191524922166747
1079.0, 0.022626087687045278
1080.0, 0.023137756744219376
1081.0, 0.01772297587947616
1082.0, 0.02211695888974548
1083.0, 0.023391991901217893
1084.0, 0.02371214113791395
1085.0, 0.026360094658349723
1086.0, 0.029361573571883924
1087.0, 0.02845281888727472
1088.0, 0.03626533365370104
1089.0, 0.03960449135668725
1090.0, 0.03495175017794674
1091.0, 0.03837773169643607
1092.0, 0.05316471561373794
1093.0, 0.060342921704020426
1094.0, 0.06706902500047013
1095.0, 0.07512252683878119
1096.0, 0.08065859468351927
1097.0, 0.08029848065429906
1098.0, 0.09021723846765982
1099.0, 0.09202054946941965
1100.0, 0.0854115176870489
1101.0, 0.07930085304008573
1102.0, 0.08084294201154925
1103.0, 0.06736843695349948
1104.0, 0.06191989911401051
1105.0, 0.06185080584006382
1106.0, 0.060461564886714676
1107.0, 0.060322927874264555
1108.0, 0.05436676096488129
1109.0, 0.050356794074499195
1110.0, 0.04738208844905215
1111.0, 0.04640829078679951
1112.0, 0.0530290666492485
1113.0, 0.050092044410515305
1114.0, 0.047792889287736756
1115.0, 0.047940518434641574
1116.0, 0.048028049832153794
1117.0, 0.043183313538770356
1118.0, 0.04495144743390733
1119.0, 0.04031496837360012
1120.0, 0.033522280123733074
1121.0, 0.028601358001469856
1122.0, 0.02717050961334749
1123.0, 0.01942995826234497
1124.0, 0.02204180890287389
1125.0, 0.023285328541769772
1126.0, 0.018913386309944935
1127.0, 0.013199036995270643
1128.0, 0.025346999181040532
1129.0, 0.011975587689394437
1130.0, 0.011966855093296539
1131.0, 0.01479681163893334
1132.0, 0.013119223258745276
1133.0, 0.006194177508800667
1134.0, 0.012640081195565624
1135.0, 0.013933649566173219
1136.0, 0.007992137199722088
1137.0, 0.006160932080885112
1138.0, 0.017186183454303776
1139.0, 0.009452230890995523
1140.0, 0.015171316491742057
1141.0, 0.014031576799931755
1142.0, 0.00807965119193908
1143.0, 0.007114978032155318
1144.0, 0.027998682231355817
1145.0, 0.008039029039746988
1146.0, 0.013876803233950848
1147.0, 0.020892638621304898
1148.0, 0.016637914715145412
1149.0, 0.004053084428569473
1150.0, 0.01584705510047941
1151.0, 0.01875679067258017
1152.0, 0.01684400593661133
1153.0, 0.016280282859793067
1154.0, 0.018704293499530077
1155.0, 0.008232229193919516
1156.0, 0.01393270517595208
1157.0, 0.01684905372743243
1158.0, 0.01270521724535704
1159.0, 0.006210915758950324
1160.0, 0.010559065960687336
1161.0, 0.021552829794294622
1162.0, 0.009003911555524727
1163.0, 0.007724645013388159
1164.0, 0.011204386935616008
1165.0, 0.0016519156645701596
1166.0, 0.009478316808879554
1167.0, 0.013890148385308845
1168.0, 0.008923128900099603
1169.0, 0.006166352149657592
1170.0, 0.011869749722980057
1171.0, 0.018237030264161742
1172.0, 0.008043040988718778
1173.0, 0.013459138451642566
1174.0, 0.01334142579295771
1175.0, 0.006290915710118164
1176.0, 0.0036938818640510794
1177.0, 0.01394305214863837
1178.0, 0.012621055418849829
1179.0, 0.012328587093915804
1180.0, 0.014177057780413818
1181.0, 0.015514471576952286
1182.0, 0.011147964086220458
1183.0, 0.01716006041256994
1184.0, 0.013425430236597632
1185.0, 0.010893916397090928
1186.0, 0.011192305743337435
1187.0, 0.01003818552229145
1188.0, 0.012088578650767751
1189.0, 0.012452155442124432
1190.0, 0.010938905615313355
1191.0, 0.009050314348183049
1192.0, 0.008128278654535652
1193.0, 0.008383071329902618
1194.0, 0.004545887325051549
1195.0, 0.0019172675496268079
1196.0, 0.0028692817704424915
1197.0, 0.0038884649857729974
1198.0, 2.554148185540799e-05
1199.0, 2.613760261685153e-06
1200, 0.0
1201, 0.0
1202, 0.0
1203, 0.0
1204, 0.0
1205, 0.0
1206, 0.0
1207, 0.0
1208, 0.0
1209, 0.0
1210, 0.0
1211, 0.0
1212, 0.0
1213, 0.0
1214, 0.0
1215, 0.0
1216, 0.0
1217, 0.0
1218, 0.0
1219, 0.0
1220, 0.0
1221, 0.0
1222, 0.0
1223, 0.0
1224, 0.0
1225, 0.0
1226, 0.0
1227, 0.0
1228, 0.0
1229, 0.0
1230, 0.0
1231, 0.0
1232, 0.0
1233, 0.0
1234, 0.0
1235, 0.0
1236, 0.0
1237, 0.0
1238, 0.0
1239, 0.0
1240, 0.0
1241, 0.0
1242, 0.0
1243, 0.0
1244, 0.0
1245, 0.0
1246, 0.0
1247, 0.0
1248, 0.0
1249, 0.0
1250, 0.0
1251, 0.0
1252, 0.0
1253, 0.0
1254, 0.0
1255, 0.0
1256, 0.0
1257, 0.0
1258, 0.0
1259, 0.0
1260, 0.0
1261, 0.0
1262, 0.0
1263, 0.0
1264, 0.0
1265, 0.0
1266, 0.0
1267, 0.0
1268, 0.0
1269, 0.0
1270, 0.0
1271, 0.0
1272, 0.0
1273, 0.0
1274, 0.0
1275, 0.0
1276, 0.0
1277, 0.0
1278, 0.0
1279, 0.0
1280, 0.0
1281, 0.0
1282, 0.0
1283, 0.0
1284, 0.0
1285, 0.0
1286, 0.0
1287, 0.0
1288, 0.0
1289, 0.0
1290, 0.0
1291, 0.0
1292, 0.0
1293, 0.0
1294, 0.0
1295, 0.0
1296, 0.0
1297, 0.0
1298, 0.0
1299, 0.0
1300, 0.0
1301, 0.0
1302, 0.0
1303, 0.0
1304, 0.0
1305, 0.0
1306, 0.0
1307, 0.0
1308, 0.0
1309, 0.0
1310, 0.0
1311, 0.0
1312, 0.0
1313, 0.0
1314, 0.0
1315, 0.0
1316, 0.0
1317, 0.0
1318, 0.0
1319, 0.0
1320, 0.0
1321, 0.0
1322, 0.0
1323, 0.0
1324, 0.0
1325, 0.0
1326, 0.0
1327, 0.0
1328, 0.0
1329, 0.0
1330, 0.0
1331, 0.0
1332, 0.0
1333, 0.0
1334, 0.0
1335, 0.0
1336, 0.0
1337, 0.0
1338, 0.0
1339, 0.0
1340, 0.0
1341, 0.0
1342, 0.0
1343, 0.0
1344, 0.0
1345, 0.0
1346, 0.0
1347, 0.0
1348, 0.0
1349, 0.0
1350, 0.0
1351, 0.0
1352, 0.0
1353, 0.0
1354, 0.0
1355, 0.0
1356, 0.0
1357, 0.0
1358, 0.0
1359, 0.0
1360, 0.0
1361, 0.0
1362, 0.0
1363, 0.0
1364, 0.0
1365, 0.0
1366, 0.0
1367, 0.0
1368, 0.0
1369, 0.0
1370, 0.0
1371, 0.0
1372, 0.0
1373, 0.0
1374, 0.0
1375, 0.0
1376, 0.0
1377, 0.0
1378, 0.0
1379, 0.0
1380, 0.0
1381, 0.0
1382, 0.0
1383, 0.0
1384, 0.0
1385, 0.0
1386, 0.0
1387, 0.0
1388, 0.0
1389, 0.0
1390, 0.0
1391, 0.0
1392, 0.0
1393, 0.0
1394, 0.0
1395, 0.0
1396, 0.0
1397, 0.0
1398, 0.0
1399, 0.0
1400, 0.0
1401, 0.0
1402, 0.0
1403, 0.0
1404, 0.0
1405, 0.0
1406, 0.0
1407, 0.0
1408, 0.0
1409, 0.0
1410, 0.0
1411, 0.0
1412, 0.0
1413, 0.0
1414, 0.0
1415, 0.0
1416, 0.0
1417, 0.0
1418, 0.0
1419, 0.0
1420, 0.0
1421, 0.0
1422, 0.0
1423, 0.0
1424, 0.0
1425, 0.0
1426, 0.0
1427, 0.0
1428, 0.0
1429, 0.0
1430, 0.0
1431, 0.0
1432, 0.0
1433, 0.0
1434, 0.0
1435, 0.0
1436, 0.0
1437, 0.0
1438, 0.0
1439, 0.0
1440, 0.0
1441, 0.0
1442, 0.0
1443, 0.0
1444, 0.0
1445, 0.0
1446, 0.0
1447, 0.0
1448, 0.0
1449, 0.0
1450, 0.0
1451, 0.0
1452, 0.0
1453, 0.0
1454, 0.0
1455, 0.0
1456, 0.0
1457, 0.0
1458, 0.0
1459, 0.0
1460, 0.0
1461, 0.0
1462, 0.0
1463, 0.0
1464, 0.0
1465, 0.0
1466, 0.0
1467, 0.0
1468, 0.0
1469, 0.0
1470, 0.0
1471, 0.0
1472, 0.0
1473, 0.0
1474, 0.0
1475, 0.0
1476, 0.0
1477, 0.0
1478, 0.0
1479, 0.0
1480, 0.0
1481, 0.0
1482, 0.0
1483, 0.0
1484, 0.0
1485, 0.0
1486, 0.0
1487, 0.0
1488, 0.0
1489, 0.0
1490, 0.0
1491, 0.0
1492, 0.0
1493, 0.0
1494, 0.0
1495, 0.0
1496, 0.0
1497, 0.0
1498, 0.0
1499, 0.0
1500, 0.0
1501, 0.0
1502, 0.0
1503, 0.0
1504, 0.0
1505, 0.0
1506, 0.0
1507, 0.0
1508, 0.0
1509, 0.0
1510, 0.0
1511, 0.0
1512, 0.0
1513, 0.0
1514, 0.0
1515, 0.0
1516, 0.0
1517, 0.0
1518, 0.0
1519, 0.0
1520, 0.0
1521, 0.0
1522, 0.0
1523, 0.0
1524, 0.0
1525, 0.0
1526, 0.0
1527, 0.0
1528, 0.0
1529, 0.0
1530, 0.0
1531, 0.0
1532, 0.0
1533, 0.0
1534, 0.0
1535, 0.0
1536, 0.0
1537, 0.0
1538, 0.0
1539, 0.0
1540, 0.0
1541, 0.0
1542, 0.0
1543, 0.0
1544, 0.0
1545, 0.0
1546, 0.0
1547, 0.0
1548, 0.0
1549, 0.0
1550, 0.0
1551, 0.0
1552, 0.0
1553, 0.0
1554, 0.0
1555, 0.0
1556, 0.0
1557, 0.0
1558, 0.0
1559, 0.0
1560, 0.0
1561, 0.0
1562, 0.0
1563, 0.0
1564, 0.0
1565, 0.0
1566, 0.0
1567, 0.0
1568, 0.0
1569, 0.0
1570, 0.0
1571, 0.0
1572, 0.0
1573, 0.0
1574, 0.0
1575, 0.0
1576, 0.0
1577, 0.0
1578, 0.0
1579, 0.0
1580, 0.0
1581, 0.0
1582, 0.0
1583, 0.0
1584, 0.0
1585, 0.0
1586, 0.0
1587, 0.0
1588, 0.0
1589, 0.0
1590, 0.0
1591, 0.0
1592, 0.0
1593, 0.0
1594, 0.0
1595, 0.0
1596, 0.0
1597, 0.0
1598, 0.0
1599, 0.0
