30, 0.0
31, 0.0
32, 0.0
33, 0.0
34, 0.0
35, 0.0
36, 0.0
37, 0.0
38, 0.0
39, 0.0
40, 0.0
41, 0.0
42, 0.0
43, 0.0
44, 0.0
45, 0.0
46, 0.0
47, 0.0
48, 0.0
49, 0.0
50, 0.0
51, 0.0
52, 0.0
53, 0.0
54, 0.0
55, 0.0
56, 0.0
57, 0.0
58, 0.0
59, 0.0
60, 0.0
61, 0.0
62, 0.0
63, 0.0
64, 0.0
65, 0.0
66, 0.0
67, 0.0
68, 0.0
69, 0.0
70, 0.0
71, 0.0
72, 0.0
73, 0.0
74, 0.0
75, 0.0
76, 0.0
77, 0.0
78, 0.0
79, 0.0
80, 0.0
81, 0.0
82, 0.0
83, 0.0
84, 0.0
85, 0.0
86, 0.0
87, 0.0
88, 0.0
89, 0.0
90, 0.0
91, 0.0
92, 0.0
93, 0.0
94, 0.0
95, 0.0
96, 0.0
97, 0.0
98, 0.0
99, 0.0
100, 0.0
101, 0.0
102, 0.0
103.0, 7.9583886510314e-05
104.0, 0.0013248696899818358
105.0, 0.004562537088322042
106.0, 0.009554527903889783
107.0, 0.018886660793384948
108.0, 0.03163514328980655
109.0, 0.04560849144939222
110.0, 0.062098889166131176
111.0, 0.07652664835662477
112.0, 0.08678751579852796
113.0, 0.09264274418736225
114.0, 0.08917942949682289
115.0, 0.07821280918734334
116.0, 0.06158951855169332
117.0, 0.048009730471443794
118.0, 0.03607856615029522
119.0, 0.025660746955233307
120.0, 0.01955697094237847
121.0, 0.015244879079903474
122.0, 0.0118250286203789
123.0, 0.008236598593427938
124.0, 0.007529393532653219
125.0, 0.00672202038119976
126.0, 0.005495141796814053
127.0, 0.0057749601542927825
128.0, 0.004839488592689365
129.0, 0.0038208953381178743
130.0, 0.0037765750584146745
131.0, 0.00267339301929922
132.0, 0.0018601243358469229
133.0, 0.0016938961381217043
134.0, 0.0033986726728303966
135.0, 0.0027988177793006
136.0, 0.0021767651327502364
137.0, 0.0028439059270627823
138.0, 0.002970329554829824
139.0, 0.0030550491904997863
140.0, 0.003099366086992547
141.0, 0.0030598978657100594
142.0, 0.004477078061493746
143.0, 0.005980618167805497
144.0, 0.007198407848144685
145.0, 0.01000953965614249
146.0, 0.012861763970639225
147.0, 0.01556499057795728
148.0, 0.01778313995641539
149.0, 0.019534827901503744
150.0, 0.01981116726704795
151.0, 0.018333626944014657
152.0, 0.014427194036603816
153.0, 0.012300753895238107
154.0, 0.010918631771501347
155.0, 0.009614244605839354
156.0, 0.011749832579755974
157.0, 0.014239948631253488
158.0, 0.017418564332716477
159.0, 0.023321017120742922
160.0, 0.02818247154703388
161.0, 0.031668598977134525
162.0, 0.03349500066343254
163.0, 0.033052503985256686
164.0, 0.030180789752378437
165.0, 0.026846856759857547
166.0, 0.026300347087127723
167.0, 0.02553210640302992
168.0, 0.026615104578327678
169.0, 0.02954486870534327
170.0, 0.030933865902874905
171.0, 0.031787186545077895
172.0, 0.03237126377542549
173.0, 0.032840063582708
174.0, 0.03488423619040877
175.0, 0.03707520763552794
176.0, 0.039654695471198945
177.0, 0.04370716992616172
178.0, 0.050868520848362304
179.0, 0.05822032549336466
180.0, 0.06484490364539867
181.0, 0.07241060117454687
182.0, 0.07973322220235299
183.0, 0.08606555982194765
184.0, 0.09016237833058048
185.0, 0.09003768403098407
186.0, 0.08817957680384714
187.0, 0.08490382271447591
188.0, 0.08007719001235997
189.0, 0.07239830820742306
190.0, 0.06455866444038634
191.0, 0.057979973998346424
192.0, 0.05334100460018478
193.0, 0.04774359595205275
194.0, 0.042910875134837725
195.0, 0.04244287050680231
196.0, 0.039807340908018345
197.0, 0.038292960162136284
198.0, 0.03852910859114125
199.0, 0.04010499265609808
200.0, 0.041926420055736234
201.0, 0.04600471529261694
202.0, 0.05420740807508655
203.0, 0.06488518260885376
204.0, 0.07927262229475904
205.0, 0.095681272271162
206.0, 0.11019565066835585
207.0, 0.1263683027287498
208.0, 0.13586357504297863
209.0, 0.136089998579269
210.0, 0.1254751707162217
211.0, 0.10976112966564044
212.0, 0.09079646126556404
213.0, 0.06957541791571649
214.0, 0.055178626148383425
215.0, 0.042489962528251664
216.0, 0.031546522621704806
217.0, 0.02359208254258505
218.0, 0.018710287718292397
219.0, 0.014362569081867362
220.0, 0.010115930343774986
221.0, 0.009065138951355549
222.0, 0.007066189803437017
223.0, 0.004963363198184916
224.0, 0.0034997258621530993
225.0, 0.0030052951004669306
226.0, 0.0019291781789153731
227.0, 0.0006728999521901398
228.0, 0.0005625663103071118
229.0, 0.0002673510861542648
230.0, 0.00038726915002786056
231.0, 0.0009556081917447329
232.0, 0.00041945807807429155
233.0, 0.0008859784510979511
234.0, 0.0014112835289649076
235.0, 0.0012323912024472827
236.0, 0.0025006069177821843
237.0, 0.0020446461956713873
238.0, 0.0010427818757799516
239.0, 0.002523142832314691
240.0, 0.0018085111169825704
241.0, 0.0014506260574293384
242.0, 0.0018702830275564375
243.0, 0.0017464172709298425
244.0, 0.0009290093602432987
245.0, 0.0003202908784642835
246.0, 0.0005362930216398568
247.0, 0.0022571820392676884
248.0, 0.0030624918762732277
249.0, 0.0035344375276519548
250.0, 0.0047355965004843015
251.0, 0.005573254534020529
252.0, 0.005515503996687232
253.0, 0.004698995808450948
254.0, 0.004251235184805809
255.0, 0.0036820557519838303
256.0, 0.003333499621957805
257.0, 0.0034051274882382866
258.0, 0.00455639410734614
259.0, 0.004951743068803107
260.0, 0.005351534602658808
261.0, 0.006693336044994771
262.0, 0.007684813077612021
263.0, 0.009724823780952378
264.0, 0.012748348830655154
265.0, 0.01631679149825066
266.0, 0.020862119233955236
267.0, 0.024789207222312374
268.0, 0.027675790153887037
269.0, 0.030128374659642288
270.0, 0.029506941407519267
271.0, 0.0280110047256246
272.0, 0.027114204681020573
273.0, 0.024812846195329696
274.0, 0.022904280275944374
275.0, 0.022115113960451918
276.0, 0.02388414992015533
277.0, 0.024502132864967836
278.0, 0.028180431224394526
279.0, 0.03445254975056101
280.0, 0.03886994335178437
281.0, 0.04876185559308303
282.0, 0.06232238081424253
283.0, 0.07937082346683762
284.0, 0.10402040427263792
285.0, 0.13697423504295148
286.0, 0.17512622885213974
287.0, 0.21643918935804832
288.0, 0.2571988465828028
289.0, 0.28833134586115083
290.0, 0.3047688194308657
291.0, 0.29462157990466
292.0, 0.2676374277869922
293.0, 0.22974559045236662
294.0, 0.18468310043985428
295.0, 0.14496141912921767
296.0, 0.11385392806174972
297.0, 0.08867310303838725
298.0, 0.06873318102096876
299.0, 0.054116982546495745
300.0, 0.04397534798545905
301.0, 0.03642931960787438
302.0, 0.030211082913312245
303.0, 0.02413808432423171
304.0, 0.019709311988888267
305.0, 0.0169463565113192
306.0, 0.0160591061625926
307.0, 0.013325007567443314
308.0, 0.011386254024297096
309.0, 0.010243436936749114
310.0, 0.008623593780659335
311.0, 0.008333112742510886
312.0, 0.008281271321187875
313.0, 0.00792436242416171
314.0, 0.005385435565711352
315.0, 0.005032520247158213
316.0, 0.005420210066743591
317.0, 0.005699868493573704
318.0, 0.005993982227763377
319.0, 0.005160934970424589
320.0, 0.004071584886084875
321.0, 0.003805092868273806
322.0, 0.004265505524111481
323.0, 0.004776551344101237
324.0, 0.005426439801200983
325.0, 0.006571209651582536
326.0, 0.0078400855973408
327.0, 0.009143552956416957
328.0, 0.010244296702513955
329.0, 0.010064865526588262
330.0, 0.00912485472790633
331.0, 0.0077007375792359
332.0, 0.00590975078599632
333.0, 0.00414504646744343
334.0, 0.0029163443204110787
335.0, 0.001973003264106114
336.0, 0.0011618423113368363
337.0, 0.0006583897429991751
338.0, 0.0004753429506423826
339.0, 0.0005416146853764235
340.0, 0.0007913512663998678
341.0, 0.0012169634266352577
342.0, 0.0010245509203302215
343.0, 0.0005533548733477616
344.0, 0.000673258030390091
345.0, 0.0012712228949586218
346.0, 0.0012378669733354392
347.0, 0.000796171203966348
348.0, 0.0016229258363812886
349.0, 0.0007584145309923938
350.0, 0.0006461556967204943
351.0, 0.0016680585727858546
352.0, 0.0004304112088300559
353.0, 8.190293759291141e-05
354.0, 0.00029631218264489966
355.0, 0.0008769658123462903
356.0, 0.0005843366752348485
357.0, 0.0004904190666836608
358.0, 0.0009275088943554999
359.0, 0.00223897179623498
360.0, 0.0008254163617356642
361.0, 0.0006738040265026908
362.0, 0.0009017053608681221
363.0, 0.00011422825662178509
364.0, 0.00011093715299313709
365.0, 0.0008493066172923522
366.0, 0.0015321822325259581
367.0, 0.00026588259236422196
368.0, 0.001419405487877565
369.0, 0.002231897666296955
370.0, 0.0023109020694434827
371.0, 0.0019339918591876923
372.0, 0.0007527881659280225
373.0, 0.00019430437441018608
374.0, 0.0004917003693435863
375.0, 0.00041590043325897993
376.0, 0.0006657858566374972
377.0, 0.0007353860087248597
378.0, 0.0005163263116662052
379.0, 0.0015858237285390226
380.0, 0.0009466299710593278
381.0, 0.00043357502965311325
382.0, 0.0012252300281256918
383.0, 0.0004987996510057875
384.0, 0.000685145108177519
385.0, 0.0009360489110864817
386.0, 0.0004076502693568449
387.0, 0.0010605407947772638
388.0, 0.0007998043615707372
389.0, 0.00044823788514621385
390.0, 0.0012731651897143668
391.0, 0.0009460621794580337
392.0, 0.0006725942540486615
393.0, 0.0007390409342393689
394.0, 0.0015810110412701273
395.0, 0.0016007990732649843
396.0, 0.0018037105845828017
397.0, 0.00204106781167497
398.0, 0.0014794777944750399
399.0, 0.0024235420315193114
400.0, 0.002946337875720334
401.0, 0.0028310775780909635
402.0, 0.002815361249854398
403.0, 0.0031662600849386336
404.0, 0.003343727514794103
405.0, 0.003389593395826579
406.0, 0.004517794892619165
407.0, 0.005244532266653326
408.0, 0.005490957020040676
409.0, 0.005407538389202477
410.0, 0.0067636414484949685
411.0, 0.006563415565875066
412.0, 0.007983923214025038
413.0, 0.012414431469475525
414.0, 0.014424576445986402
415.0, 0.019114595704796754
416.0, 0.02153896659496931
417.0, 0.018358443154735987
418.0, 0.014867258316668512
419.0, 0.012006145454217522
420.0, 0.009116596388510215
421.0, 0.00562871600642456
422.0, 0.005456530296147155
423.0, 0.0046986937831094144
424.0, 0.003808677166450032
425.0, 0.0032868025143172616
426.0, 0.004227974647412374
427.0, 0.003951991600366528
428.0, 0.0038894124920472576
429.0, 0.006108035038807004
430.0, 0.00448635094121414
431.0, 0.004152170182025592
432.0, 0.004650049886344309
433.0, 0.004828341557935069
434.0, 0.004857954363465478
435.0, 0.004944733123056573
436.0, 0.005065194105325761
437.0, 0.0051418223378962525
438.0, 0.006543302404271221
439.0, 0.007523795131469478
440.0, 0.007815774558802089
441.0, 0.0072063062024006795
442.0, 0.009530434721383261
443.0, 0.010116794501223004
444.0, 0.009675184691913637
445.0, 0.01182691939764286
446.0, 0.010790502816911981
447.0, 0.01031183396334392
448.0, 0.011174255288656464
449.0, 0.013881074628740876
450.0, 0.015647554880923276
451.0, 0.0169244137918007
452.0, 0.01816557146424074
453.0, 0.020623751230296933
454.0, 0.021958972276367436
455.0, 0.0235564846668614
456.0, 0.025699803385998234
457.0, 0.02829047853734687
458.0, 0.030663537202091938
459.0, 0.03305881250705733
460.0, 0.035842005224957466
461.0, 0.040290127369344224
462.0, 0.04371664989021684
463.0, 0.04858165493954469
464.0, 0.05531222665741792
465.0, 0.06282739524851741
466.0, 0.07289070275235256
467.0, 0.0852610226944931
468.0, 0.10054068234934496
469.0, 0.12182298220082785
470.0, 0.1529866488854999
471.0, 0.1932296951341795
472.0, 0.24462452824992192
473.0, 0.3180263926853277
474.0, 0.421217951296008
475.0, 0.535692034703191
476.0, 0.6562164052121018
477.0, 0.784779153766436
478.0, 0.8345140478926687
479.0, 0.8268910472706986
480.0, 0.7658121701695642
481.0, 0.6399998967496203
482.0, 0.506584164522347
483.0, 0.3930406806828754
484.0, 0.30645508066812543
485.0, 0.23881929025185225
486.0, 0.19170840373248565
487.0, 0.1599085286878099
488.0, 0.13957903758428167
489.0, 0.11949923985542113
490.0, 0.10996773012626194
491.0, 0.10379829857854014
492.0, 0.0995964963199459
493.0, 0.10035941114842094
494.0, 0.10439019104638496
495.0, 0.11194698861414093
496.0, 0.12363191422272231
497.0, 0.1415804337344978
498.0, 0.16761044572367295
499.0, 0.2057506375958001
500.0, 0.2575564728558035
501.0, 0.3251077683222897
502.0, 0.4269422213235001
503.0, 0.5570874614015066
504.0, 0.7053137520157801
505.0, 0.8414171215155961
506.0, 0.950478630687822
507.0, 0.9820472311470956
508.0, 0.9306782824830191
509.0, 0.8094858795825675
510.0, 0.6693910429943078
511.0, 0.5307624177002958
512.0, 0.4067315145714996
513.0, 0.32310787028300525
514.0, 0.25898834418412
515.0, 0.21039274111209483
516.0, 0.17506370993344753
517.0, 0.14970251725190667
518.0, 0.12734045602422872
519.0, 0.11063497569600485
520.0, 0.0975967860564949
521.0, 0.08378030188739759
522.0, 0.07586835675490351
523.0, 0.0700621298517115
524.0, 0.06435874928277614
525.0, 0.056002747903061825
526.0, 0.051311454240389735
527.0, 0.048579992910048886
528.0, 0.04600334889307722
529.0, 0.041216984687958765
530.0, 0.038687009931618624
531.0, 0.0367956948464545
532.0, 0.03553475158076602
533.0, 0.03495102523610596
534.0, 0.029832719475754485
535.0, 0.028867457263874328
536.0, 0.028393478714114788
537.0, 0.025016794779678973
538.0, 0.024332731414531756
539.0, 0.023782173746667884
540.0, 0.023225068134319245
541.0, 0.022467352026427835
542.0, 0.019971193743486153
543.0, 0.018711520728313537
544.0, 0.017602478882617966
545.0, 0.016330157323503663
546.0, 0.018307541820397857
547.0, 0.0169471475202677
548.0, 0.015360096740889093
549.0, 0.014887218365261374
550.0, 0.014814870806229804
551.0, 0.012985199437173831
552.0, 0.012687723670185553
553.0, 0.013891753819200528
554.0, 0.011083588449317458
555.0, 0.0108425960038214
556.0, 0.011132479955368715
557.0, 0.011327562776253465
558.0, 0.011092062141120683
559.0, 0.010630989889511824
560.0, 0.010719606363419593
561.0, 0.010968799775669748
562.0, 0.010117887103444695
563.0, 0.01051671647958073
564.0, 0.01007688590965913
565.0, 0.009392544874702265
566.0, 0.009890628364287153
567.0, 0.009094102906142593
568.0, 0.009947088557995271
569.0, 0.010804333762694908
570.0, 0.009434266952415445
571.0, 0.010741520375537352
572.0, 0.011220734574529337
573.0, 0.012155539183024389
574.0, 0.014621669472740658
575.0, 0.016144732152586994
576.0, 0.018040711400641146
577.0, 0.020243429656714558
578.0, 0.022431844481443117
579.0, 0.021876702995135687
580.0, 0.020729087935082626
581.0, 0.01962161384682661
582.0, 0.01815663692445959
583.0, 0.012642513762448595
584.0, 0.01019573523982362
585.0, 0.009247244394106801
586.0, 0.008941822550743786
587.0, 0.007909838968089073
588.0, 0.008078490540416415
589.0, 0.007080714901874063
590.0, 0.005539586170177135
591.0, 0.00575558379123632
592.0, 0.004915969548438029
593.0, 0.004131374603856704
594.0, 0.004182974722771297
595.0, 0.006035498561008166
596.0, 0.005269236869098676
597.0, 0.004404111531597692
598.0, 0.0033732437039216447
599.0, 0.0021726387552616867
600.0, 0.0037717733514928964
601.0, 0.005059824549379258
602.0, 0.005282401165298035
603.0, 0.004204939574516741
604.0, 0.0038693414399791452
605.0, 0.003056870447207121
606.0, 0.002682048041075845
607.0, 0.003127505724410013
608.0, 0.004503967325113626
609.0, 0.003396864455779755
610.0, 0.004232524844837131
611.0, 0.005999057334893222
612.0, 0.0034422281313906556
613.0, 0.004220030804606738
614.0, 0.004493986872743047
615.0, 0.0040944667369691625
616.0, 0.00345912647161405
617.0, 0.00469169186561932
618.0, 0.0035882121695894336
619.0, 0.002059255791992581
620.0, 0.0021189552274396917
621.0, 0.004303488018044119
622.0, 0.003456593310243243
623.0, 0.0035731392457453268
624.0, 0.005982721075281566
625.0, 0.003226926087236349
626.0, 0.0029958902646519225
627.0, 0.003761200456078599
628.0, 0.004708806255593551
629.0, 0.004773399164926125
630.0, 0.005344134176760638
631.0, 0.0052718011667148785
632.0, 0.00458532528455559
633.0, 0.0037528534358225053
634.0, 0.004413852077542489
635.0, 0.0038671341500207844
636.0, 0.004052396160689225
637.0, 0.007217339095576738
638.0, 0.00586131010522025
639.0, 0.005948869757185577
640.0, 0.006776683977051097
641.0, 0.0077139398502576355
642.0, 0.0075681974208480175
643.0, 0.008424293148225978
644.0, 0.009665500460296784
645.0, 0.01077729565095963
646.0, 0.010691073813423234
647.0, 0.011384348335567165
648.0, 0.010749031770367724
649.0, 0.009744662428633668
650.0, 0.010945506766383535
651.0, 0.008605051930506008
652.0, 0.006377018855294794
653.0, 0.005599795336097536
654.0, 0.0071700140238373355
655.0, 0.0037420427401767113
656.0, 0.0035750931137782443
657.0, 0.003726624000644662
658.0, 0.0028822571459310134
659.0, 0.0037694285743534554
660.0, 0.002752631372856413
661.0, 0.0019965663156444077
662.0, 0.0019676710828480343
663.0, 0.0021648902569416906
664.0, 0.002686585289246832
665.0, 0.0025707971216125934
666.0, 0.002131131384011313
667.0, 0.001998232588271145
668.0, 0.0010028130842440247
669.0, 0.0016415400158085237
670.0, 0.0025032449039219342
671.0, 0.0024242701070441913
672.0, 0.0011198342527310458
673.0, 0.001609218888746723
674.0, 0.00178445314247761
675.0, 0.0013601934718331992
676.0, 0.002307146945908674
677.0, 0.0011213149028245792
678.0, 0.0007648552256764076
679.0, 0.0011252043347470702
680.0, 0.0011421875733158135
681.0, 0.0019900923940387207
682.0, 0.002059296225168712
683.0, 0.001532421638027474
684.0, 0.0007265937012161757
685.0, 0.0007401139669974706
686.0, 0.0011955420895446173
687.0, 0.0012586696692825957
688.0, 0.0007379207663307043
689.0, 0.00028561599061051947
690.0, 0.00020215338972531398
691.0, 0.0010124725660898266
692.0, 0.0017473877224864292
693.0, 0.0005460474918167242
694.0, 0.0017456466453258726
695.0, 0.001565606308173876
696.0, 0.0009715626525524784
697.0, 0.0008554665179571067
698.0, 0.0004067576007453862
699.0, 0.00015075571275225224
700.0, 0.0008320714766718576
701.0, 0.002199358792571415
702.0, 0.0023053077191799156
703.0, 0.0009593378347485687
704.0, 0.000639961114332765
705.0, 0.0012592581045216998
706.0, 0.0020589345458404238
707.0, 0.0008956632401007567
708.0, 0.00029181355194283365
709.0, 0.000564654610314062
710.0, 0.0016760002723902742
711.0, 0.001857344812829596
712.0, 0.0011887959659731533
713.0, 0.001461167591006291
714.0, 0.002484596281385849
715.0, 0.00216660197145174
716.0, 0.0015528503128242322
717.0, 0.002780139767294901
718.0, 0.003868314182268178
719.0, 0.0024017025639698998
720.0, 0.003736831785781747
721.0, 0.0026449036897372162
722.0, 0.0018494582430787752
723.0, 0.002311764294861869
724.0, 0.0015230462889291158
725.0, 0.0027589083130774897
726.0, 0.0030320815544131567
727.0, 0.0024479663590818677
728.0, 0.002355987465482725
729.0, 0.0015291065840229141
730.0, 0.002267558642667048
731.0, 0.00294557418449924
732.0, 0.002454205304218601
733.0, 0.0032533314799073516
734.0, 0.0024931728667559505
735.0, 0.0020167654970660682
736.0, 0.0025089665859173663
737.0, 0.004137641678363661
738.0, 0.002671705693275493
739.0, 0.0029180171563113746
740.0, 0.004015765010007019
741.0, 0.004461121625934561
742.0, 0.003852435965809738
743.0, 0.004079349582065952
744.0, 0.005019634750486619
745.0, 0.0060373784667796925
746.0, 0.004999555256560056
747.0, 0.00815398504769001
748.0, 0.009078207620724761
749.0, 0.008666946366854618
750.0, 0.009602013525627253
751.0, 0.01168999928845129
752.0, 0.012026931334079434
753.0, 0.014347514131407361
754.0, 0.019539658988456644
755.0, 0.021082974276770496
756.0, 0.0254502216124456
757.0, 0.031508376162262604
758.0, 0.039375773143847416
759.0, 0.04954919237223035
760.0, 0.0637754762262019
761.0, 0.07550283334225688
762.0, 0.08482753225808108
763.0, 0.09110943289826583
764.0, 0.08899353507762593
765.0, 0.07623214047333257
766.0, 0.06378085634764116
767.0, 0.05371705359503576
768.0, 0.04476491527645886
769.0, 0.03669862083432905
770.0, 0.03365265987304039
771.0, 0.03320586145989732
772.0, 0.033454599243574065
773.0, 0.035592903994503974
774.0, 0.03421963252701932
775.0, 0.03325507124112725
776.0, 0.03222408137151186
777.0, 0.02808380067283702
778.0, 0.02225283160601656
779.0, 0.018070602350739227
780.0, 0.015278148271795848
781.0, 0.013335575507499602
782.0, 0.010987143325579575
783.0, 0.009996318256066682
784.0, 0.00924182763605484
785.0, 0.008675597573999331
786.0, 0.008778925502113837
787.0, 0.007547977975930056
788.0, 0.005461409669531889
789.0, 0.004954283446222943
790.0, 0.006682576886037672
791.0, 0.003707627882330624
792.0, 0.004488808440790029
793.0, 0.0055348893647371045
794.0, 0.004985731293913509
795.0, 0.0011549398951028965
796.0, 0.0034756119265997726
797.0, 0.0029807184607787665
798.0, 0.0028981510607075196
799.0, 0.004629399133444926
800.0, 0.0037082300079442766
801.0, 0.0028654260940317623
802.0, 0.003947307991514642
803.0, 0.005360761454426079
804.0, 0.004208740295286393
805.0, 0.006995405890401686
806.0, 0.007275195449362704
807.0, 0.006977254950114641
808.0, 0.007418421636166395
809.0, 0.009396048391664531
810.0, 0.010371861745859693
811.0, 0.014367512310626898
812.0, 0.01955804245597551
813.0, 0.022796312954378558
814.0, 0.022056521590096606
815.0, 0.02482669819854572
816.0, 0.02368808963849211
817.0, 0.01813381476208387
818.0, 0.01586472217750463
819.0, 0.014856740978318022
820.0, 0.01296741317920827
821.0, 0.009975677119183778
822.0, 0.0063391027217757565
823.0, 0.006032859831742272
824.0, 0.005014050424179255
825.0, 0.00568825281840872
826.0, 0.0068076017313340575
827.0, 0.004468626418014916
828.0, 0.0052449752862131415
829.0, 0.004977019430524314
830.0, 0.004218204332745123
831.0, 0.0037896879870633737
832.0, 0.005402652822361684
833.0, 0.003776385394377815
834.0, 0.004083230853149747
835.0, 0.00513059163215254
836.0, 0.004082186275731066
837.0, 0.0026511819642671087
838.0, 0.0029902655913287435
839.0, 0.003224371854320984
840.0, 0.002579871857452824
841.0, 0.0012851852818217481
842.0, 0.004088996043886322
843.0, 0.003647101147985863
844.0, 0.002373392714837978
845.0, 0.002736671475548512
846.0, 0.003005417168154992
847.0, 0.0025776353103967595
848.0, 0.0025648428002022572
849.0, 0.0024160853680375897
850.0, 0.0008102609559131559
851.0, 0.0012268475656371349
852.0, 0.0008250540928266914
853.0, 0.0010075391620357188
854.0, 0.0020490465991836763
855.0, 0.0023245713907177634
856.0, 0.0012074409236530227
857.0, 0.0009906200541130075
858.0, 0.0011243800140443348
859.0, 0.00099597498440962
860.0, 0.0022633034197429513
861.0, 0.001877994599708203
862.0, 0.0012600498958316077
863.0, 0.0009214845120640384
864.0, 0.001034142377813392
865.0, 0.0007513907074507166
866.0, 0.0007297111734748597
867.0, 0.0005913546880875261
868.0, 0.0003399926218549189
869.0, 0.0006835952306262916
870.0, 0.0005101781676786828
871.0, 0.0011886354969152652
872.0, 0.0016632024711695993
873.0, 0.0009628405142133211
874.0, 0.0002171778376232848
875.0, 0.0006043087074188096
876.0, 0.0010136735813653286
877.0, 0.0010266194812745127
878.0, 0.0005004539600440985
879.0, 0.0015272045407539816
880.0, 0.0020322883933433867
881.0, 0.0018463473966103187
882.0, 0.0011961820326502229
883.0, 0.0008833352814298807
884.0, 0.0007606202265700217
885.0, 0.0006239550660737364
886.0, 0.0013515163877454647
887.0, 0.00279527866162221
888.0, 0.0007037075454961268
889.0, 0.0007985434740095974
890.0, 0.0010071964248312324
891.0, 0.0007970790513911715
892.0, 7.799234650575049e-05
893.0, 2.0279902899290314e-05
894.0, 0.0023174265578055305
895.0, 0.0023786559079371646
896.0, 0.0011444708411544428
897.0, 0.003289633294352533
898.0, 0.0014096761150116524
899.0, 0.0011628801177425221
900.0, 0.0010317362258985669
901.0, 0.000643512627568817
902.0, 0.0015446021450702912
903.0, 0.0033943387794082096
904.0, 0.002268633651543447
905.0, 0.0012533932816589195
906.0, 0.002724981906146243
907.0, 0.004184274438991954
908.0, 0.002122670829568788
909.0, 0.001926465594427425
910.0, 0.0028196629910612874
911.0, 0.0026509819296871803
912.0, 0.0014201353572332875
913.0, 0.002850074511438864
914.0, 0.0025699269026193696
915.0, 0.0013843531519683139
916.0, 0.0029306931744226316
917.0, 0.002984056257198417
918.0, 0.0015200542212644992
919.0, 0.001139293217299618
920.0, 0.002182035501183691
921.0, 0.002390409181966157
922.0, 0.0017360883940913633
923.0, 0.0020624722280353997
924.0, 0.0016613534557881416
925.0, 0.0005225793803544977
926.0, 0.0031032025101044467
927.0, 0.0013517872589691436
928.0, 0.0014549769827347987
929.0, 0.002288832265722183
930.0, 0.002243080208186628
931.0, 0.001708851562903015
932.0, 0.0022435585752423556
933.0, 0.0022040194841178177
934.0, 0.0013566018544314972
935.0, 0.0002740497573725676
936.0, 0.0035947554157458885
937.0, 0.0015850949486922515
938.0, 0.0010609071138970346
939.0, 0.0025760830063199128
940.0, 0.0037794041779747895
941.0, 0.0020660076343034617
942.0, 0.0027488647173344177
943.0, 0.003282803104220404
944.0, 0.0026267147635361246
945.0, 0.0008036581376455669
946.0, 0.004028019133455477
947.0, 0.00259130345273533
948.0, 0.0025445901753923363
949.0, 0.0046880837455118346
950.0, 0.0028345126578388216
951.0, 0.0033688131036265717
952.0, 0.003454958631666386
953.0, 0.003516811331713187
954.0, 0.003953636254181076
955.0, 0.004896575513199658
956.0, 0.00396475265840027
957.0, 0.003199633420010981
958.0, 0.0032303733707928673
959.0, 0.0038604788330772605
960.0, 0.00278276322333346
961.0, 0.0042192867396563145
962.0, 0.004545480622600357
963.0, 0.00420982794595627
964.0, 0.004225189059262656
965.0, 0.005326489199222197
966.0, 0.005070549350475429
967.0, 0.0035607199389226197
968.0, 0.0036910372903817225
969.0, 0.007452707224085953
970.0, 0.00730931249773532
971.0, 0.0075622563816435335
972.0, 0.010380605380251432
973.0, 0.012857429041552989
974.0, 0.0117131426698261
975.0, 0.014997523076901156
976.0, 0.015186315035462573
977.0, 0.0153572861272233
978.0, 0.016292649233661485
979.0, 0.017540913061434026
980.0, 0.014124509011425873
981.0, 0.013743148808935566
982.0, 0.011811295440040573
983.0, 0.009028528148014844
984.0, 0.008325464653311335
985.0, 0.005843767620140668
986.0, 0.00597380205992705
987.0, 0.005750547721659614
988.0, 0.00521846559896032
989.0, 0.005913226605149644
990.0, 0.004055585272927469
991.0, 0.0050200298069627836
992.0, 0.005172261154360609
993.0, 0.004290839707754839
994.0, 0.004366959489010542
995.0, 0.006416110176314177
996.0, 0.006277720260784192
997.0, 0.007323521401247499
998.0, 0.009182422220450796
999.0, 0.008899952179027703
1000.0, 0.009076176825148266
1001.0, 0.010943828363902184
1002.0, 0.012656422020294808
1003.0, 0.013935933176572225
1004.0, 0.01565421271165746
1005.0, 0.01739531409072376
1006.0, 0.015520593073993273
1007.0, 0.014935888692602336
1008.0, 0.015205511206836105
1009.0, 0.012075470296095712
1010.0, 0.014760750305802064
1011.0, 0.014663183932028145
1012.0, 0.0136665773989107
1013.0, 0.012886815894602721
1014.0, 0.012886820277532176
1015.0, 0.013340860464545355
1016.0, 0.011271545690263571
1017.0, 0.011529304111930191
1018.0, 0.012090720302491649
1019.0, 0.006781940757889032
1020.0, 0.010386827992778885
1021.0, 0.012526282954598495
1022.0, 0.011321205330080226
1023.0, 0.010213545859741857
1024.0, 0.015243861789313449
1025.0, 0.013857308907005034
1026.0, 0.01584303387706507
1027.0, 0.017894061237704862
1028.0, 0.01877969883826277
1029.0, 0.01885924387773336
1030.0, 0.025090096131299013
1031.0, 0.025109341309675084
1032.0, 0.024941178013977976
1033.0, 0.02519669763953751
1034.0, 0.02387354173368783
1035.0, 0.017622059686227844
1036.0, 0.017084379167643538
1037.0, 0.016188362260276114
1038.0, 0.013709083387640618
1039.0, 0.010957929524969165
1040.0, 0.014599801142766869
1041.0, 0.012523111734052371
1042.0, 0.013479885145195207
1043.0, 0.016224871467176452
1044.0, 0.016800170686658605
1045.0, 0.013059753946644253
1046.0, 0.016279244610480997
1047.0, 0.016219482869987718
1048.0, 0.014833646591769278
1049.0, 0.015450308149439011
1050.0, 0.01595428065162198
1051.0, 0.012407956563119105
1052.0, 0.01083018933016935
1053.0, 0.01106564464011954
1054.0, 0.01122331241721811
1055.0, 0.00732419523848426
1056.0, 0.009107355016489663
1057.0, 0.008868264971877078
1058.0, 0.007888642760076382
1059.0, 0.007519258013979184
1060.0, 0.007553196780198059
1061.0, 0.0077382985393002505
1062.0, 0.008156056063793073
1063.0, 0.009038060199208133
1064.0, 0.00988909836101491
1065.0, 0.009295368795395356
1066.0, 0.010579268815644888
1067.0, 0.009619632869767763
1068.0, 0.008966102828866862
1069.0, 0.009865982342616075
1070.0, 0.01217565819007102
1071.0, 0.01173886686295042
1072.0, 0.013800931710218903
1073.0, 0.013640811794720134
1074.0, 0.012297975866383705
1075.0, 0.013627523353222436
1076.0, 0.016977481604384212
1077.0, 0.018077477295305087
1078.0, 0.020150991310762173
1079.0, 0.022792061796066052
1080.0, 0.02438644281646958
1081.0, 0.023481810809362104
1082.0, 0.028131640206536867
1083.0, 0.030497461649780757
1084.0, 0.032188663116741525
1085.0, 0.03612164440524708
1086.0, 0.04374727573671941
1087.0, 0.044029559157230835
1088.0, 0.05281710196232034
1089.0, 0.06271705992719366
1090.0, 0.07003977462064229
1091.0, 0.08082945887459139
1092.0, 0.09999687177101987
1093.0, 0.11661915257489641
1094.0, 0.1394534538717344
1095.0, 0.16666368339978205
1096.0, 0.18680763482047166
1097.0, 0.20298295215758091
1098.0, 0.21245880840302478
1099.0, 0.22016534661988482
1100.0, 0.2205889447515297
1101.0, 0.20637163487252339
1102.0, 0.19359033342166176
1103.0, 0.1699428077077073
1104.0, 0.15278197857863815
1105.0, 0.14186019366443073
1106.0, 0.13197043585783572
1107.0, 0.1171316097379301
1108.0, 0.11830035240186013
1109.0, 0.11045967985437216
1110.0, 0.10383292422662262
1111.0, 0.10492972738676944
1112.0, 0.10750732184337447
1113.0, 0.10556227195936055
1114.0, 0.10961341679330468
1115.0, 0.10977712029214366
1116.0, 0.1048333298362862
1117.0, 0.10070315467237226
1118.0, 0.0928181094982691
1119.0, 0.08375821232260593
1120.0, 0.07611853737852452
1121.0, 0.06926571486971993
1122.0, 0.06165175510245577
1123.0, 0.05374847122033104
1124.0, 0.04657711686662744
1125.0, 0.03958991968253505
1126.0, 0.034072968672341664
1127.0, 0.030308281905229474
1128.0, 0.025905194285810444
1129.0, 0.025793570803705874
1130.0, 0.020824900914389956
1131.0, 0.0185142593967101
1132.0, 0.0189325250151697
1133.0, 0.01502248332178408
1134.0, 0.015082645119768307
1135.0, 0.0148720353915972
1136.0, 0.012561682744319638
1137.0, 0.010901235199779438
1138.0, 0.012651230458570495
1139.0, 0.011105079143434424
1140.0, 0.00942244122669951
1141.0, 0.009956023147265177
1142.0, 0.009734948628015227
1143.0, 0.008126264143776232
1144.0, 0.010514555925002177
1145.0, 0.009107668035734618
1146.0, 0.007577578577600612
1147.0, 0.009730871990042715
1148.0, 0.012968548058563385
1149.0, 0.010659815790948794
1150.0, 0.008865964133530932
1151.0, 0.010732409594818302
1152.0, 0.009333861566703862
1153.0, 0.008416309306082528
1154.0, 0.011064041596113256
1155.0, 0.00667193501447684
1156.0, 0.005365740930408442
1157.0, 0.007819857974683604
1158.0, 0.0074091364105400934
1159.0, 0.004340396233902692
1160.0, 0.0075824183347893166
1161.0, 0.004374970575850481
1162.0, 0.0032510010336448433
1163.0, 0.004393689139676317
1164.0, 0.0057881579322013425
1165.0, 0.005048986574503257
1166.0, 0.0031888990623317763
1167.0, 0.004894902221839581
1168.0, 0.0027411175664036024
1169.0, 0.0012501627784948842
1170.0, 0.0032135213112347875
1171.0, 0.005175531602287975
1172.0, 0.002206444726802593
1173.0, 0.003039826637652468
1174.0, 0.0033389711901934994
1175.0, 0.002007504332446063
1176.0, 0.0006953711903576714
1177.0, 0.004418085474447508
1178.0, 0.002328482314336175
1179.0, 0.0025528801360373025
1180.0, 0.0027539443458587044
1181.0, 0.000961078715944736
1182.0, 5.507723597524927e-05
1183.0, 0.004184450319416338
1184.0, 0.0024214262601688916
1185.0, 0.0008386030988240234
1186.0, 0.0017390161315595397
1187.0, 0.0037018146204163297
1188.0, 0.0005642880556642803
1189.0, 0.0010466483702401895
1190.0, 0.00162650717344738
1191.0, 0.0017125352992582931
1192.0, 0.0015440607028529086
1193.0, 0.0017480891980330385
1194.0, 0.0005874096145033023
1195.0, 0.0009622963754419163
1196.0, 0.0018134301642592806
1197.0, 0.002031534872786936
1198.0, 0.0013470878954251124
1199.0, 0.004157126927709984
1200.0, 0.003239517462839076
1201.0, 0.0013070099559112937
1202.0, 0.0013216586839858288
1203.0, 0.0031464571715840326
1204.0, 0.0017564907781986467
1205.0, 0.0019589775100020876
1206.0, 0.004061227574464904
1207.0, 0.003665796664976371
1208.0, 0.0019419769966552653
1209.0, 0.002153278188326044
1210.0, 0.0034895358027379336
1211.0, 0.0014525278699145027
1212.0, 0.002211032304093316
1213.0, 0.003044168316591987
1214.0, 0.0026587852448388648
1215.0, 0.0029524127950785748
1216.0, 0.005400990464847707
1217.0, 0.002699325276567074
1218.0, 0.004338277538374222
1219.0, 0.006207322758598223
1220.0, 0.0030456228657218965
1221.0, 0.0007103471454273397
1222.0, 0.005220055961618874
1223.0, 0.0035667041593346526
1224.0, 0.0024579357977412356
1225.0, 0.004092529049263652
1226.0, 0.005479694733648628
1227.0, 0.0009901364674037797
1228.0, 0.00470573170101514
1229.0, 0.005795640681680503
1230.0, 0.004037338660713588
1231.0, 0.002542627900352106
1232.0, 0.005575895321734052
1233.0, 0.0038456402104169903
1234.0, 0.005116098245338061
1235.0, 0.00626592554592497
1236.0, 0.005150813042330432
1237.0, 0.0021220646361856496
1238.0, 0.003943351046964406
1239.0, 0.00469263153915264
1240.0, 0.0025739898089127216
1241.0, 0.003436350596620339
1242.0, 0.006171554401466632
1243.0, 0.004329992959194491
1244.0, 0.0030768272966562116
1245.0, 0.00533726247154768
1246.0, 0.00482064759467621
1247.0, 0.0035375790301005244
1248.0, 0.003793181867261166
1249.0, 0.005202964369883995
1250.0, 0.0029841360151878337
1251.0, 0.003241608712931265
1252.0, 0.0039873312437113725
1253.0, 0.0036794913729922118
1254.0, 0.0027390769256195277
1255.0, 0.006323022935438715
1256.0, 0.002152269535573222
1257.0, 0.0036012590821419966
1258.0, 0.005460866479397037
1259.0, 0.005026569208081368
1260.0, 0.003168728988394943
1261.0, 0.005306148501091199
1262.0, 0.006854923532580912
1263.0, 0.005081032634734488
1264.0, 0.004394966917007486
1265.0, 0.005875339388670342
1266.0, 0.005908456417058899
1267.0, 0.003677994758397008
1268.0, 0.0055950565990745505
1269.0, 0.00351001801929947
1270.0, 0.002666123722470131
1271.0, 0.005743154449862442
1272.0, 0.005432080086795033
1273.0, 0.004327553918658475
1274.0, 0.012007163735129493
1275.0, 0.012882026003185458
1276.0, 0.00987106901196468
1277.0, 0.011255994087625232
1278.0, 0.018566464362743534
1279.0, 0.00405466904486177
1280.0, 0.00235071325832052
1281.0, 0.005100284605530244
1282.0, 0.005393095970762835
1283.0, 0.0016296389745533075
1284.0, 0.004088043103606284
1285.0, 0.0022787615262531975
1286.0, 0.0009085367822479812
1287.0, 0.0009062368270370221
1288.0, 0.001567069338778578
1289.0, 0.0014032861212542169
1290.0, 0.0003974797758682507
1291.0, 0.002070569027602114
1292.0, 0.0017141319964708668
1293.0, 0.0031644860060930703
1294.0, 0.00487175659205106
1295.0, 0.0006949390214932998
1296.0, 0.0018125907791841016
1297.0, 0.0033986044185177495
1298.0, 0.0021470467943424426
1299.0, 0.0006266868509712067
1300.0, 0.0012338544092589394
1301.0, 0.003834109443499824
1302.0, 0.0010768019319660606
1303.0, 0.00250460094874634
1304.0, 0.0035762206975768263
1305.0, 0.002801234491517689
1306.0, 0.0018341303733280738
1307.0, 0.004970304306704338
1308.0, 0.0028665976214966144
1309.0, 0.001984784704056949
1310.0, 0.001753831224621504
1311.0, 0.002040559828055074
1312.0, 0.0026236459086392055
1313.0, 0.0029551467921646343
1314.0, 0.0032864564760701613
1315.0, 0.00335999094769182
1316.0, 0.0035154385396811622
1317.0, 0.0037030489063006296
1318.0, 0.0037866109535165827
1319.0, 0.00376150323662143
1320.0, 0.003938145916841261
1321.0, 0.0037701781786203116
1322.0, 0.003623069095801376
1323.0, 0.0032913945860192427
1324.0, 0.0025748357642390077
1325.0, 0.0017679829589868261
1326.0, 0.001768830168818876
1327.0, 0.002294162282479005
1328.0, 0.002254277850819227
1329.0, 0.0022281112537964097
1330.0, 0.0027390411827852164
1331.0, 0.0027009778372057156
1332.0, 0.001069756768077411
1333.0, 0.003902189051393982
1334.0, 0.003697834446051035
1335.0, 0.0018986494294026314
1336.0, 0.00212373889004898
1337.0, 0.004029361502633702
1338.0, 0.0008532948445143806
1339.0, 0.0024153745931061355
1340.0, 0.0024540434488283143
1341.0, 0.0012196198695515583
1342.0, 0.0015286411104677565
1343.0, 0.005304749746797255
1344.0, 0.0035010153172226628
1345.0, 0.004234200325283106
1346.0, 0.004819555499289833
1347.0, 0.004556842100656144
1348.0, 0.004467987903973616
1349.0, 0.00673188679347743
1350.0, 0.0029644735403260313
1351.0, 0.0017751151691297235
1352.0, 0.0034955892533713694
1353.0, 0.0038913920975741406
1354.0, 0.0016421341485477452
1355.0, 0.002133050752119682
1356.0, 0.006368620400758409
1357.0, 0.0031109301953182534
1358.0, 0.0037508056585437667
1359.0, 0.005301967609280452
1360.0, 0.004248143620053006
1361.0, 0.0023677191645730625
1362.0, 0.004152127946398599
1363.0, 0.00536691587115915
1364.0, 0.004064015566147842
1365.0, 0.004651138864241819
1366.0, 0.005726242598204137
1367.0, 0.0006036266894835953
1368.0, 0.0032052846209693012
1369.0, 0.0061007321290892525
1370.0, 0.0038366282697021186
1371.0, 0.001064049111345366
1372.0, 0.0002619015386995087
1373.0, 0.0004582236716446992
1374.0, 0.002199113793869124
1375.0, 0.0032513377678923517
1376.0, 0.003257882910420408
1377.0, 0.00180241632943034
1378.0, 0.0022761059920220665
1379.0, 0.0062758697886819625
1380.0, 0.0006910096525304947
1381.0, 0.001131879530560229
1382.0, 0.004713214926790798
1383.0, 0.004200042119118124
1384.0, 0.0036880594783327393
1385.0, 0.007204537184029972
1386.0, 0.004280935456696708
1387.0, 0.004130486355539223
1388.0, 0.006118140428460962
1389.0, 0.005933327636337163
1390.0, 0.003922952974902096
1391.0, 0.0029763794977336984
1392.0, 0.005967730941904295
1393.0, 0.0031864949520773937
1394.0, 0.0036539086146855975
1395.0, 0.005749540987258094
1396.0, 0.004841844918669175
1397.0, 0.002644109404974719
1398.0, 0.006468699752004282
1399.0, 0.00762825454566488
1400.0, 0.004448895434270646
1401.0, 0.006277338495710108
1402.0, 0.006554035063864118
1403.0, 0.004008670225758226
1404.0, 0.0030648295562494604
1405.0, 0.00665477424862251
1406.0, 0.00425353655339198
1407.0, 0.005782423152122461
1408.0, 0.007029150085548322
1409.0, 0.005727478336014462
1410.0, 0.0032755053634246183
1411.0, 0.004935392438794561
1412.0, 0.004897820953818448
1413.0, 0.0032821466489564048
1414.0, 0.004333282204491588
1415.0, 0.0051488315344456505
1416.0, 0.003765331729560097
1417.0, 0.0028303811556181263
1418.0, 0.007915007235263212
1419.0, 0.00261109499313576
1420.0, 0.0019422697282848076
1421.0, 0.005056619556688965
1422.0, 0.006110988029091368
1423.0, 0.0021445341593164073
1424.0, 0.006234483857804013
1425.0, 0.002964143268606141
1426.0, 0.0030934351622781946
1427.0, 0.006082048753219557
1428.0, 0.006618145679283617
1429.0, 0.0027954351822458063
1430.0, 0.00221719861659184
1431.0, 0.007709213667099973
1432.0, 0.0027458926893499077
1433.0, 0.002674321859364051
1434.0, 0.005382710338296732
1435.0, 0.006056035218050397
1436.0, 0.0039048246494066885
1437.0, 0.007819366705317564
1438.0, 0.008333306338883538
1439.0, 0.004635371546440856
1440.0, 0.005016458708855481
1441.0, 0.007578030882117463
1442.0, 0.0073492613380897595
1443.0, 0.007718989911789028
1444.0, 0.010991228399198437
1445.0, 0.006584139177533742
1446.0, 0.006441067442868675
1447.0, 0.008092304672617002
1448.0, 0.007339129706606174
1449.0, 0.0048290089067728244
1450.0, 0.009123926083272286
1451.0, 0.007098754893008831
1452.0, 0.007517663977893713
1453.0, 0.007998520423787736
1454.0, 0.007959056613951401
1455.0, 0.008067335990147528
1456.0, 0.007586339370559735
1457.0, 0.010326392439567319
1458.0, 0.004576270324918851
1459.0, 0.004417073379770734
1460.0, 0.007660415299389959
1461.0, 0.008135918721228675
1462.0, 0.00427382687626875
1463.0, 0.0103183321322502
1464.0, 0.007651679980596227
1465.0, 0.005941794263528437
1466.0, 0.007306781958047735
1467.0, 0.008490782273889889
1468.0, 0.006854249510869312
1469.0, 0.0063180367771900805
1470.0, 0.010058993027953513
1471.0, 0.006173993395425027
1472.0, 0.005305407766648381
1473.0, 0.008735451837115426
1474.0, 0.009602098617812305
1475.0, 0.0026907570260388996
1476.0, 0.007752473409705604
1477.0, 0.007615484592088128
1478.0, 0.0031416782796162062
1479.0, 0.006498575617833464
1480.0, 0.008808258208766217
1481.0, 0.004098168033004732
1482.0, 0.0037812714350257204
1483.0, 0.00983766174163519
1484.0, 0.005024712762000265
1485.0, 0.00399604744932756
1486.0, 0.006511560784823258
1487.0, 0.006528559863785283
1488.0, 0.002443255051526495
1489.0, 0.007197164762741191
1490.0, 0.0058044555388303935
1491.0, 0.002712935756808265
1492.0, 0.004608791893857573
1493.0, 0.006960256534992944
1494.0, 0.005482576024756336
1495.0, 0.0017843395483597123
1496.0, 0.006120218036052868
1497.0, 0.003256660589786002
1498.0, 0.002207261399346138
1499.0, 0.00374512247073588
1500.0, 0.004274933956183886
1501.0, 0.0027632551584314295
1502.0, 0.0032147840650018173
1503.0, 0.005016456652473809
1504.0, 0.004033962547260045
1505.0, 0.005367684652370632
1506.0, 0.005094771378856277
1507.0, 0.0039027599791494087
1508.0, 0.0038352174045184935
1509.0, 0.003465448314764718
1510.0, 0.0015822690333528405
1511.0, 0.001625376066404844
1512.0, 0.0030984397489936095
1513.0, 0.0021364755046427942
1514.0, 0.0017104085365695794
1515.0, 0.005377769609533228
1516.0, 0.005415468450811568
1517.0, 0.0012611820456842992
1518.0, 0.0028734546122204723
1519.0, 0.0036840178877556497
1520.0, 0.002067815362554946
1521, 0.0
1522, 0.0
1523, 0.0
1524, 0.0
1525, 0.0
1526, 0.0
1527, 0.0
1528, 0.0
1529, 0.0
1530, 0.0
1531, 0.0
1532, 0.0
1533, 0.0
1534, 0.0
1535, 0.0
1536, 0.0
1537, 0.0
1538, 0.0
1539, 0.0
1540, 0.0
1541, 0.0
1542, 0.0
1543, 0.0
1544, 0.0
1545, 0.0
1546, 0.0
1547, 0.0
1548, 0.0
1549, 0.0
1550, 0.0
1551, 0.0
1552, 0.0
1553, 0.0
1554, 0.0
1555, 0.0
1556, 0.0
1557, 0.0
1558, 0.0
1559, 0.0
1560, 0.0
1561, 0.0
1562, 0.0
1563, 0.0
1564, 0.0
1565, 0.0
1566, 0.0
1567, 0.0
1568, 0.0
1569, 0.0
1570, 0.0
1571, 0.0
1572, 0.0
1573, 0.0
1574, 0.0
1575, 0.0
1576, 0.0
1577, 0.0
1578, 0.0
1579, 0.0
1580, 0.0
1581, 0.0
1582, 0.0
1583, 0.0
1584, 0.0
1585, 0.0
1586, 0.0
1587, 0.0
1588, 0.0
1589, 0.0
1590, 0.0
1591, 0.0
1592, 0.0
1593, 0.0
1594, 0.0
1595, 0.0
1596, 0.0
1597, 0.0
1598, 0.0
1599, 0.0
