30, 0.0
31, 0.0
32, 0.0
33, 0.0
34, 0.0
35, 0.0
36, 0.0
37, 0.0
38, 0.0
39, 0.0
40, 0.0
41, 0.0
42, 0.0
43, 0.0
44, 0.0
45, 0.0
46, 0.0
47, 0.0
48, 0.0
49, 0.0
50, 0.0
51, 0.0
52, 0.0
53, 0.0
54, 0.0
55, 0.0
56, 0.0
57, 0.0
58, 0.0
59, 0.0
60, 0.0
61, 0.0
62, 0.0
63, 0.0
64, 0.0
65, 0.0
66, 0.0
67, 0.0
68, 0.0
69, 0.0
70, 0.0
71, 0.0
72, 0.0
73, 0.0
74, 0.0
75, 0.0
76, 0.0
77, 0.0
78, 0.0
79, 0.0
80, 0.0
81, 0.0
82, 0.0
83, 0.0
84, 0.0
85, 0.0
86, 0.0
87, 0.0
88, 0.0
89, 0.0
90, 0.0
91, 0.0
92, 0.0
93, 0.0
94, 0.0
95, 0.0
96, 0.0
97, 0.0
98, 0.0
99, 0.0
100, 0.0
101, 0.0
102, 0.0
103, 0.0
104, 0.0
105, 0.0
106, 0.0
107, 0.0
108, 0.0
109, 0.0
110, 0.0
111, 0.0
112, 0.0
113, 0.0
114, 0.0
115, 0.0
116, 0.0
117, 0.0
118, 0.0
119, 0.0
120, 0.0
121, 0.0
122, 0.0
123, 0.0
124, 0.0
125, 0.0
126, 0.0
127, 0.0
128, 0.0
129, 0.0
130, 0.0
131, 0.0
132, 0.0
133, 0.0
134, 0.0
135, 0.0
136, 0.0
137, 0.0
138, 0.0
139, 0.0
140, 0.0
141, 0.0
142, 0.0
143, 0.0
144, 0.0
145, 0.0
146, 0.0
147, 0.0
148.0, 0.00029295003124621866
149.0, 0.0007788181726953703
150.0, 0.003382826465307991
151.0, 0.018596192400234003
152.0, 0.03654326757246461
153.0, 0.05626686941485733
154.0, 0.07938797188803255
155.0, 0.10902038145840807
156.0, 0.1472286179205573
157.0, 0.19155375428775084
158.0, 0.2414761130990022
159.0, 0.2941506651108298
160.0, 0.3425273757132909
161.0, 0.372234469617913
162.0, 0.37305751005304594
163.0, 0.34486174290800997
164.0, 0.2939426586070179
165.0, 0.24504797394245867
166.0, 0.20864459051004788
167.0, 0.18957538695968987
168.0, 0.18929619370364778
169.0, 0.20280156023647966
170.0, 0.21796329039356102
171.0, 0.2255604707830812
172.0, 0.2251194175882781
173.0, 0.2250355617511501
174.0, 0.22686742875237428
175.0, 0.2349377353799908
176.0, 0.2497250583793534
177.0, 0.2692297263185021
178.0, 0.29244190694863115
179.0, 0.3162277667482329
180.0, 0.33953913329299285
181.0, 0.3619077120183766
182.0, 0.38314673022017326
183.0, 0.3998381508000593
184.0, 0.41047300787104435
185.0, 0.4124941968969923
186.0, 0.4039957613344192
187.0, 0.3783823499824759
188.0, 0.34312758351133554
189.0, 0.3037490613948082
190.0, 0.2620824269887663
191.0, 0.228197418166905
192.0, 0.19820120491367776
193.0, 0.17436867077007487
194.0, 0.15831608890801183
195.0, 0.1464223997075636
196.0, 0.13897892617987895
197.0, 0.13506838582062122
198.0, 0.13539781648433052
199.0, 0.1416048084764051
200.0, 0.14579414235999139
201.0, 0.15395455610306294
202.0, 0.16704738829089305
203.0, 0.18366182260910224
204.0, 0.20301275695155657
205.0, 0.2270824731975754
206.0, 0.2535072099696216
207.0, 0.2768574022345259
208.0, 0.28845911518386325
209.0, 0.27596813941882
210.0, 0.24098865331448144
211.0, 0.19113424620879252
212.0, 0.1385462623824651
213.0, 0.0943930985447907
214.0, 0.0601939147622382
215.0, 0.034847247958574495
216.0, 0.01656772202453527
217.0, 0.004498312657458622
218.0, 0.0028253764221519645
219.0, 0.007469113046547373
220.0, 0.011275340331309542
221.0, 0.01471563253094092
222.0, 0.015112469742715169
223.0, 0.014832140926490767
224.0, 0.014877519314895307
225.0, 0.014573758487021981
226.0, 0.012189490884202897
227.0, 0.010160079285316396
228.0, 0.008778295726527737
229.0, 0.007335794761416011
230.0, 0.004868069534210634
231.0, 0.0010505221869456982
232.0, 0.0030676111622964255
233.0, 0.005924313201024359
234.0, 0.00859928153709328
235.0, 0.011773023643789056
236.0, 0.015607770852072076
237.0, 0.01929004002410765
238.0, 0.02266485967136655
239.0, 0.026266109076087316
240.0, 0.03214998422149803
241.0, 0.037290046630970686
242.0, 0.041807732668699714
243.0, 0.04663286294429557
244.0, 0.05309869905565238
245.0, 0.0601076741125151
246.0, 0.06682346840538105
247.0, 0.07446627006552131
248.0, 0.08449629417503428
249.0, 0.09473774383702183
250.0, 0.10554897676732422
251.0, 0.11055223462546708
252.0, 0.10969584522235785
253.0, 0.10835622959923451
254.0, 0.10052513980899819
255.0, 0.0902439282376368
256.0, 0.08205651819294205
257.0, 0.078370888011219
258.0, 0.08020324325603893
259.0, 0.08339711655282156
260.0, 0.08658787051884434
261.0, 0.09217565968999193
262.0, 0.10187879045107877
263.0, 0.10992808418271718
264.0, 0.12038587996137165
265.0, 0.13347571524302845
266.0, 0.14911371377908875
267.0, 0.16838966126060853
268.0, 0.19064349983250767
269.0, 0.2134793223088567
270.0, 0.23646101090047172
271.0, 0.2595342659581136
272.0, 0.27959035871182225
273.0, 0.29980057849462105
274.0, 0.31647432025787914
275.0, 0.3303554456291887
276.0, 0.3474981770131828
277.0, 0.3686703671758848
278.0, 0.3931006923746802
279.0, 0.4203928856758841
280.0, 0.4514452158840078
281.0, 0.48768153355206295
282.0, 0.5277694338032427
283.0, 0.5740713402178546
284.0, 0.6262859486712038
285.0, 0.6832800427880035
286.0, 0.7450650533923626
287.0, 0.8124178994288127
288.0, 0.8755446826698768
289.0, 0.9185627660334419
290.0, 0.9217115047994285
291.0, 0.87168733999519
292.0, 0.771834972916786
293.0, 0.6458398342451606
294.0, 0.5184865073145979
295.0, 0.4059252823818905
296.0, 0.3197950581520011
297.0, 0.2545979650943877
298.0, 0.20587396620567033
299.0, 0.1691749180265298
300.0, 0.14097202927279398
301.0, 0.11842396201462209
302.0, 0.10223851597526538
303.0, 0.09045554096673536
304.0, 0.08066136542604782
305.0, 0.07418447364968306
306.0, 0.07164469372697443
307.0, 0.0702498443694111
308.0, 0.06999096671636944
309.0, 0.07257702523967485
310.0, 0.07513800603057307
311.0, 0.0748049020557903
312.0, 0.07340039333363782
313.0, 0.07197248217292934
314.0, 0.069941349058493
315.0, 0.06921515701976082
316.0, 0.06997487492059383
317.0, 0.07248176023824415
318.0, 0.07624127864489881
319.0, 0.0799244437417277
320.0, 0.08455420352718183
321.0, 0.09022976895850224
322.0, 0.09722641185388178
323.0, 0.10602051324659212
324.0, 0.11675615545984086
325.0, 0.1309768317597616
326.0, 0.14644191913803642
327.0, 0.15899196829152856
328.0, 0.16445949558135925
329.0, 0.15811692453595697
330.0, 0.13619324210088324
331.0, 0.1088276335925458
332.0, 0.08435712290488287
333.0, 0.06532766615120403
334.0, 0.053024746342162386
335.0, 0.04120330825663744
336.0, 0.03295627751889493
337.0, 0.029479405826515325
338.0, 0.027228728781742834
339.0, 0.02279917128810235
340.0, 0.018764737451562256
341.0, 0.017158183470908913
342.0, 0.0173659664419916
343.0, 0.0166627122097608
344.0, 0.015482623319557434
345.0, 0.015076901277911685
346.0, 0.015556276960502219
347.0, 0.01633194173061905
348.0, 0.01664672736678895
349.0, 0.016165953649352922
350.0, 0.013292406072762959
351.0, 0.009601345834580933
352.0, 0.006793869678437925
353.0, 0.004567191798114018
354.0, 0.0033590198198732756
355.0, 0.0030100807329149545
356.0, 0.00212001542089454
357.0, 0.0009137936103588112
358.0, 0.0020101571431023744
359.0, 0.0003994010927921682
360.0, 0.001291099090558677
361.0, 0.0014450642323746443
362.0, 0.00118805003626178
363.0, 0.0023680525912217346
364.0, 0.0013161445213112637
365.0, 0.0019264831943650836
366.0, 0.0031768585818935705
367.0, 0.002904782922060286
368.0, 0.0017425091545483892
369.0, 0.0023614945563577173
370.0, 0.0016685366304234302
371.0, 0.0008773118765683556
372.0, 0.0014839223007048507
373.0, 0.0016038081207674824
374.0, 0.0016176591551106858
375.0, 0.0009723992687515947
376.0, 0.0005913785815503225
377.0, 0.0010019444911572163
378.0, 0.0006395990012101713
379.0, 0.0009874994012496552
380.0, 0.00024327701334921095
381.0, 0.0008163442588374431
382.0, 0.002596019865429676
383.0, 0.0036779586469703686
384.0, 0.0035906565280758866
385.0, 0.0034039994698774646
386.0, 0.00431157563809744
387.0, 0.005971513624041703
388.0, 0.006970586423216013
389.0, 0.009501058164650024
390.0, 0.011333167575872351
391.0, 0.013239312144523886
392.0, 0.015792694927920146
393.0, 0.018208827945073003
394.0, 0.022354831233467123
395.0, 0.02459041001483791
396.0, 0.027675870064023132
397.0, 0.03237815252705839
398.0, 0.03547039333929059
399.0, 0.03744572691859926
400.0, 0.036659877362558796
401.0, 0.03491000499159366
402.0, 0.03405998330984247
403.0, 0.034972729172338526
404.0, 0.037315919747411844
405.0, 0.040639579074194875
406.0, 0.04303764160195283
407.0, 0.044167983535990496
408.0, 0.04375467458002949
409.0, 0.03707337602908127
410.0, 0.02824860265410253
411.0, 0.02165141166723172
412.0, 0.017576650965940258
413.0, 0.014356225508493579
414.0, 0.012402755844757458
415.0, 0.011116347228238763
416.0, 0.009695165166285035
417.0, 0.008326399700752185
418.0, 0.007145914146888402
419.0, 0.004098748275961326
420.0, 0.0012001432561339694
421.0, 9.355401112370461e-05
422.0, 0.0005268512795373881
423.0, 0.000530858088266535
424.0, 0.0016162479219890343
425.0, 0.0011982106994644797
426.0, 0.0005223855595642815
427.0, 0.0015632429103991622
428.0, 0.002611096929185807
429.0, 0.0014602551266085229
430.0, 0.0013512646888743682
431.0, 0.0011154208417836456
432.0, 0.0015926669126349225
433.0, 0.0017271590672903669
434.0, 0.0003604098031452422
435.0, 0.0004813931409955852
436.0, 0.0003782577782404558
437.0, 0.0008563454722858589
438.0, 0.0025441659373809213
439.0, 0.004331411344374912
440.0, 0.007198278335081639
441.0, 0.008151927788798833
442.0, 0.008486412298403476
443.0, 0.010458012509431226
444.0, 0.013486467128933708
445.0, 0.014550850542785607
446.0, 0.016606988890347188
447.0, 0.018841820141816047
448.0, 0.021025483146277727
449.0, 0.024409663689543434
450.0, 0.029685038564402837
451.0, 0.03367256266912179
452.0, 0.03896543684730695
453.0, 0.04544590571543309
454.0, 0.052436685082624945
455.0, 0.05912335383779245
456.0, 0.06407898815620192
457.0, 0.06881010562860763
458.0, 0.07454891237427552
459.0, 0.08154397900650368
460.0, 0.09063749965782003
461.0, 0.1033080388404234
462.0, 0.1142207925929076
463.0, 0.12564903282474996
464.0, 0.1363759356552564
465.0, 0.14686343058527207
466.0, 0.15964201357465432
467.0, 0.1745165716087677
468.0, 0.19334230227733126
469.0, 0.2163462905793623
470.0, 0.2406724276249767
471.0, 0.26601321633391484
472.0, 0.2993272306910704
473.0, 0.3391985166216478
474.0, 0.38207809328065623
475.0, 0.4296406800301665
476.0, 0.4786582227279649
477.0, 0.5172434314043863
478.0, 0.5374026048647439
479.0, 0.5229114220199876
480.0, 0.4761261877016453
481.0, 0.4083369943412208
482.0, 0.3356584454190791
483.0, 0.2743839665232698
484.0, 0.23195320670559205
485.0, 0.2031799369675238
486.0, 0.186875923378197
487.0, 0.18315577825595558
488.0, 0.1897313389343377
489.0, 0.2036755628981264
490.0, 0.22266865565165386
491.0, 0.24280720274194645
492.0, 0.2629944786988056
493.0, 0.28293782196187517
494.0, 0.302219152539251
495.0, 0.32700045664648014
496.0, 0.3566292925515138
497.0, 0.3923388401538428
498.0, 0.43465794389940293
499.0, 0.4836091525199756
500.0, 0.5398910090263351
501.0, 0.6060465897402741
502.0, 0.681625557482906
503.0, 0.765903986599297
504.0, 0.8549709234062643
505.0, 0.9386134221844887
506.0, 0.9926268317283596
507.0, 0.9902690440304964
508.0, 0.9225281152378395
509.0, 0.8038923914105346
510.0, 0.6611227625125147
511.0, 0.5233395632789323
512.0, 0.41389694864192805
513.0, 0.3277058872669868
514.0, 0.260393461350867
515.0, 0.20952169996264924
516.0, 0.1712301757302205
517.0, 0.14333240073376147
518.0, 0.12033349267281362
519.0, 0.1010955952116409
520.0, 0.08590097453976418
521.0, 0.07400651167276506
522.0, 0.06350967496697005
523.0, 0.055552417584598696
524.0, 0.04906888029029077
525.0, 0.04216004535045754
526.0, 0.0361685082928345
527.0, 0.03270637880864589
528.0, 0.02872850666435522
529.0, 0.024789904948474942
530.0, 0.021104755073202693
531.0, 0.01901182607371372
532.0, 0.01719490798446969
533.0, 0.01371649455310171
534.0, 0.011330091403363069
535.0, 0.011518853330757368
536.0, 0.010225901294824936
537.0, 0.007911998263430657
538.0, 0.006138473969909256
539.0, 0.005399433941583134
540.0, 0.004236579073736838
541.0, 0.004441470696648574
542.0, 0.005156081746175215
543.0, 0.004185175954417222
544.0, 0.002054301107915922
545.0, 0.002039997625000624
546.0, 0.0016641221167773383
547.0, 0.0008357790963337685
548.0, 0.0019095444704902555
549.0, 0.003192274436810432
550.0, 0.002110783941920275
551.0, 0.0009158771823436576
552.0, 0.0012455623920655454
553.0, 0.0009730272687187238
554.0, 0.0009613759317549229
555.0, 0.0012206042704807757
556.0, 0.001336093164293007
557.0, 0.0010723262193572621
558.0, 0.0007009713270325654
559.0, 0.0004604536782121542
560.0, 0.000652747439287442
561.0, 0.0009387634596786116
562.0, 0.0029112132786548294
563.0, 0.003258574288679297
564.0, 0.004719412161272119
565.0, 0.004506880287674633
566.0, 0.00539862817711865
567.0, 0.007517944388613385
568.0, 0.008027450863523425
569.0, 0.009702415405576554
570.0, 0.011762897214079856
571.0, 0.012601595528897783
572.0, 0.014274903063361351
573.0, 0.01663909546376776
574.0, 0.01790399090735608
575.0, 0.0203985927098646
576.0, 0.022679068099711368
577.0, 0.024618707969122532
578.0, 0.02398057732488447
579.0, 0.021593917273565518
580.0, 0.02062375108589385
581.0, 0.018130473440351902
582.0, 0.014176626239223989
583.0, 0.009105186517420859
584.0, 0.006044776790881642
585.0, 0.005020552707240032
586.0, 0.0030555311771607013
587.0, 0.0006686023911721242
588.0, 0.0007323611422034679
589.0, 0.00034009387308891017
590.0, 6.410231349620987e-06
591.0, 0.00011750782025381269
592.0, 8.993667082252339e-06
593.0, 0.0010097759877523487
594.0, 0.0018790425302923346
595.0, 0.0011357210693810277
596.0, 0.0009232206997767084
597.0, 0.0012750280831888001
598.0, 0.0006934589134564329
599.0, 0.0004341156984034113
600.0, 6.370728883496608e-05
601.0, 0.000499854102029128
602.0, 0.0005393795685134176
603.0, 0.00027849502286995655
604.0, 0.00017792691140048716
605.0, 0.0004957043031259126
606.0, 0.0022919180220911744
607.0, 0.0020523214425194206
608.0, 0.0021307762800591434
609.0, 0.002872264231447061
610.0, 0.004002544764416958
611.0, 0.005808515047780449
612.0, 0.005323414099542316
613.0, 0.006129599083186565
614.0, 0.005966069811912387
615.0, 0.006289129774684649
616.0, 0.00800111879878971
617.0, 0.009797919066251602
618.0, 0.011828311239287865
619.0, 0.011566725196843758
620.0, 0.012462554492990583
621.0, 0.013813704261232766
622.0, 0.015185026633801673
623.0, 0.0169840168908181
624.0, 0.018351411524444458
625.0, 0.020454568456468328
626.0, 0.023527900970847088
627.0, 0.026024938876868124
628.0, 0.02781530639907501
629.0, 0.029680934165168624
630.0, 0.03194038580923897
631.0, 0.03398204613479414
632.0, 0.034477499670199
633.0, 0.034078312886532465
634.0, 0.03394405003937542
635.0, 0.03371276537527933
636.0, 0.03237766953728095
637.0, 0.03134094107403114
638.0, 0.03014364903903094
639.0, 0.02950468549197219
640.0, 0.02964587714759034
641.0, 0.03135052018570812
642.0, 0.03350012386142662
643.0, 0.03288480095069138
644.0, 0.0328733279596428
645.0, 0.035006288624903466
646.0, 0.035953994933466626
647.0, 0.03433486778288947
648.0, 0.03076007829076576
649.0, 0.02711328674816323
650.0, 0.025391465507724226
651.0, 0.022436878248268
652.0, 0.019014038836182884
653.0, 0.01642281006241756
654.0, 0.014396860115090934
655.0, 0.012619366124018686
656.0, 0.011731922164585672
657.0, 0.009930357614702609
658.0, 0.009040800085457911
659.0, 0.008503492021458631
660.0, 0.007700341245197105
661.0, 0.006811539877532027
662.0, 0.006350946538085819
663.0, 0.006602535441434436
664.0, 0.005809267188360069
665.0, 0.006941012242220711
666.0, 0.006233842440714319
667.0, 0.004881374540728653
668.0, 0.0057465029165201095
669.0, 0.006240923860482556
670.0, 0.005057351474540827
671.0, 0.0053205579514377654
672.0, 0.0055327788295889205
673.0, 0.005416257958443001
674.0, 0.005283909992551586
675.0, 0.00491836925749753
676.0, 0.004008962085414634
677.0, 0.0030378647495811484
678.0, 0.003952070432018875
679.0, 0.003400074005360667
680.0, 0.00316642093158851
681.0, 0.0039525326094626955
682.0, 0.002768361709187005
683.0, 0.0036860438505057604
684.0, 0.0032158972256347254
685.0, 0.0017690508460363695
686.0, 0.0010930719008160866
687.0, 0.001332426824566323
688.0, 0.0014564322060981688
689.0, 0.0008310421833399746
690.0, 0.0020991107769925263
691.0, 0.0009809610783838554
692.0, 0.0011300225530915065
693.0, 0.0012408649242461685
694.0, 0.0007192877653221616
695.0, 0.0008373250962941525
696.0, 0.0006150751765377161
697.0, 0.0005459310618009109
698.0, 0.0008554927780836483
699.0, 0.0013771183875381154
700.0, 0.0013256545349184963
701.0, 0.0011070789408054007
702.0, 0.0004248680857649029
703.0, 0.0002062394696634753
704.0, 0.0002867598311441969
705.0, 0.00019796237427391428
706.0, 0.0001341257360732423
707.0, 0.0001254728423834662
708.0, 6.672113171086074e-05
709.0, 9.219422657826413e-05
710.0, 0.0005805588218916129
711.0, 0.0015809651950475778
712.0, 0.0020131658993877595
713.0, 0.0010536381635772938
714.0, 0.0012479991907488372
715.0, 0.002106085715450474
716.0, 0.00187195032269328
717.0, 0.002193866882675182
718.0, 0.0010176680710515884
719.0, 0.0016756976474665082
720.0, 0.002464762921547982
721.0, 0.0021464398398996338
722.0, 0.001833964591647281
723.0, 0.0022414173813416214
724.0, 0.0016455984727490477
725.0, 0.0001590990000828545
726.0, 0.0001979781221369502
727.0, 0.0002150856375306342
728.0, 0.0009043787927457967
729.0, 0.001480105903317693
730.0, 0.004300798293268924
731.0, 0.0008424760944821746
732.0, 0.0018244461582767298
733.0, 0.0004669884190220574
734.0, 0.0003493249355790853
735.0, 0.0013661785639435071
736.0, 0.0014212283836557119
737.0, 0.0012602116108163298
738.0, 0.0019769555846948493
739.0, 0.001630650595913119
740.0, 0.0034582528085315223
741.0, 0.003556879768562048
742.0, 0.00414337047490346
743.0, 0.004621633849643992
744.0, 0.004270936272408648
745.0, 0.005735402546030329
746.0, 0.007221960413656131
747.0, 0.009015610989787847
748.0, 0.010087948254726763
749.0, 0.011366593563486928
750.0, 0.012814885943774102
751.0, 0.014787605467528837
752.0, 0.017430979158708684
753.0, 0.018681430086684513
754.0, 0.020345249237712432
755.0, 0.022996742781875495
756.0, 0.02551539763977834
757.0, 0.029188294780546697
758.0, 0.032907365562552054
759.0, 0.03586813796778021
760.0, 0.03981299055516543
761.0, 0.043095224820852776
762.0, 0.0462281022783432
763.0, 0.04754494235455731
764.0, 0.043031584188857504
765.0, 0.03766892207970481
766.0, 0.033191805386689484
767.0, 0.027013330883015024
768.0, 0.023042472525054626
769.0, 0.020961496559540757
770.0, 0.019633109017508258
771.0, 0.01921180977082896
772.0, 0.01890820715007016
773.0, 0.019285674418970507
774.0, 0.018932322635988822
775.0, 0.01518031983094924
776.0, 0.014806671853713062
777.0, 0.012863519143165318
778.0, 0.010826788557027954
779.0, 0.008802392716421201
780.0, 0.007242146929901878
781.0, 0.005811915001960573
782.0, 0.0037137636241600267
783.0, 0.0028940763090550786
784.0, 0.002914023366447934
785.0, 0.003492018979920516
786.0, 0.0035491944463199162
787.0, 0.00341178694491603
788.0, 0.0024615129802567355
789.0, 0.0018104333618281891
790.0, 0.0029908559207840715
791.0, 0.0030170339641479157
792.0, 0.004829898452209655
793.0, 0.004796448724584267
794.0, 0.004121864925425629
795.0, 0.005536513892212681
796.0, 0.007359153309735601
797.0, 0.008198582376802733
798.0, 0.00999357492041794
799.0, 0.011940482765101717
800.0, 0.015335057860680693
801.0, 0.01777790452982601
802.0, 0.020027162278460155
803.0, 0.022836815739625593
804.0, 0.02581919130014725
805.0, 0.028461041599553913
806.0, 0.0318455414705155
807.0, 0.03842374861578714
808.0, 0.04351798885135642
809.0, 0.04846661932151657
810.0, 0.0544711428636876
811.0, 0.06069328878788906
812.0, 0.06641065912132664
813.0, 0.07116026409104123
814.0, 0.07287673328895913
815.0, 0.07106584966005615
816.0, 0.06609393135959724
817.0, 0.05574227697038502
818.0, 0.044172761094210686
819.0, 0.035005792917382775
820.0, 0.027710845572626496
821.0, 0.020940091312580355
822.0, 0.016049271909994847
823.0, 0.014126402512401076
824.0, 0.011131995040447167
825.0, 0.008760723171261595
826.0, 0.00835946336879053
827.0, 0.006595833242879595
828.0, 0.005629510306787924
829.0, 0.006206052670494767
830.0, 0.004542331458238498
831.0, 0.00409965750041069
832.0, 0.0030238730864478877
833.0, 0.0026230072467514506
834.0, 0.0025095069602988425
835.0, 0.0024343133983221973
836.0, 0.003098808049742514
837.0, 0.0034498824055283848
838.0, 0.003286466018890738
839.0, 0.002048546248154157
840.0, 0.0015784044533503996
841.0, 0.002290089848547345
842.0, 0.0021366243444213054
843.0, 0.002417042451472746
844.0, 0.0017419890736876825
845.0, 0.0005798259670013725
846.0, 0.0008026983037027936
847.0, 9.786052212623307e-05
848.0, 0.0015526539625885986
849.0, 0.0005215317418067618
850.0, 0.0002682590901223245
851.0, 9.650736736389027e-05
852.0, 0.000870473159274295
853.0, 0.001338472772108981
854.0, 0.0002553300663394995
855.0, 0.000375657772913181
856.0, 0.0006617944551959703
857.0, 0.0007263555668083986
858.0, 0.001189672467477123
859.0, 0.0003111252615439909
860.0, 0.000508119642001858
861.0, 0.0002909329198100514
862.0, 0.00042704454147378374
863.0, 0.0007149370980496347
864.0, 0.00038309871110112336
865.0, 0.00029729610078692894
866.0, 0.00016369338464569962
867.0, 4.3627518097622686e-05
868.0, 0.0005648644128083888
869.0, 0.0007173482621795299
870.0, 0.0002093912762321475
871.0, 0.00039519587753510734
872.0, 0.00010164106435494844
873.0, 0.00022276193302000599
874.0, 0.0003286737723926034
875.0, 0.0015803259657458616
876.0, 0.0009749270081438462
877.0, 0.000781067898361372
878.0, 0.0008981621084583529
879.0, 0.0005212893543291731
880.0, 6.862046467574946e-05
881.0, 0.00017289170239311532
882.0, 0.00045114206350496715
883.0, 0.0003234115123720802
884.0, 0.0004048142662092421
885.0, 0.00019043609111737012
886.0, 0.0006179781045348287
887.0, 0.0009000743764041159
888.0, 0.0009968501377804419
889.0, 0.0017354762672693006
890.0, 0.001632827692819858
891.0, 0.0002643672126000249
892.0, 0.0014167868703204873
893.0, 0.0010832949455407421
894.0, 0.0008327885971318497
895.0, 0.001122574192120087
896.0, 0.000396730279138551
897.0, 0.00034916356089912363
898.0, 0.00038566597287271987
899.0, 0.00023861697706790356
900.0, 0.00010184404995557739
901.0, 0.00033248259238545974
902.0, 0.0007070051990799769
903.0, 0.0006793350420955998
904.0, 0.0006356716756278065
905.0, 0.0005640036247364339
906.0, 0.00020725078356132118
907.0, 0.0007829539433574732
908.0, 0.0009414114106542281
909.0, 0.001868968820941948
910.0, 0.001824796336595728
911.0, 0.0010557349962942739
912.0, 0.00032167329437342654
913.0, 0.00025212511395008175
914.0, 0.000975682353827336
915.0, 0.0013203642623672537
916.0, 0.0014140406033888182
917.0, 0.0011002602770046532
918.0, 0.0003916123332865139
919.0, 0.0004950916944424351
920.0, 0.00035330352124711683
921.0, 0.0003916644506908301
922.0, 0.0016154397153841458
923.0, 0.0008526611211671605
924.0, 7.112658025511362e-05
925.0, 6.865382059747347e-05
926.0, 0.00030462604995589094
927.0, 0.00022918280707977023
928.0, 0.0003809404432681072
929.0, 0.00028443150651552237
930.0, 0.000785406712886914
931.0, 0.0008711821281168123
932.0, 0.0008944541721951241
933.0, 0.00036673036050517395
934.0, 0.00012748246474461668
935.0, 0.0002617662428865666
936.0, 0.0007647326140907822
937.0, 0.0005732623527236394
938.0, 0.0003884118367599857
939.0, 0.0011162635098566792
940.0, 0.0016190927552265505
941.0, 0.000634955127399945
942.0, 0.002015044972253406
943.0, 0.0018633727720821364
944.0, 0.0024095166192008026
945.0, 0.003739857085661986
946.0, 0.0028429824262108925
947.0, 0.002209500087420701
948.0, 0.0036655080000822246
949.0, 0.003772756815750899
950.0, 0.0042356865993351195
951.0, 0.005087940656961943
952.0, 0.004966334139084702
953.0, 0.003577034639239334
954.0, 0.004225344670738641
955.0, 0.005648752121174212
956.0, 0.005193095231224702
957.0, 0.006241537699730168
958.0, 0.007324399014975852
959.0, 0.005781337647890293
960.0, 0.006974513146556536
961.0, 0.007888461239376103
962.0, 0.008588583764331028
963.0, 0.009591114671443229
964.0, 0.010646980110066904
965.0, 0.011850294524246562
966.0, 0.013822968140313427
967.0, 0.016019349815467498
968.0, 0.016804946010732385
969.0, 0.018201636540239628
970.0, 0.021602800915601107
971.0, 0.023987691650017552
972.0, 0.023581635284924813
973.0, 0.02744462359592611
974.0, 0.03106173723189836
975.0, 0.030480813742793426
976.0, 0.029342295211084515
977.0, 0.02974709302196233
978.0, 0.029546642572834722
979.0, 0.027533392183480818
980.0, 0.024538421258413396
981.0, 0.021176948914847466
982.0, 0.01686597361283675
983.0, 0.013347135678415587
984.0, 0.010723668391577222
985.0, 0.009342674340787635
986.0, 0.008140801466364457
987.0, 0.006065312603746777
988.0, 0.004771728027829361
989.0, 0.004957212439221875
990.0, 0.005638544653241027
991.0, 0.004412200503929509
992.0, 0.004816723632304282
993.0, 0.004783096506295754
994.0, 0.00513618860387195
995.0, 0.005249546339212178
996.0, 0.004144648810007256
997.0, 0.004552354900223948
998.0, 0.005839900820447918
999.0, 0.0049490313122152645
1000.0, 0.00565703363472377
1001.0, 0.006930237452507557
1002.0, 0.008536303222845086
1003.0, 0.00893513221730958
1004.0, 0.009622608660787096
1005.0, 0.009236504510016568
1006.0, 0.009282566610057975
1007.0, 0.0093852105842208
1008.0, 0.009915755848373677
1009.0, 0.010733459240359573
1010.0, 0.010645505424415305
1011.0, 0.011133794275499173
1012.0, 0.01230894222032412
1013.0, 0.012781013553523199
1014.0, 0.013012220948193315
1015.0, 0.013844676878608768
1016.0, 0.01359086435597143
1017.0, 0.013148317115241418
1018.0, 0.01357364168471095
1019.0, 0.014523681987087438
1020.0, 0.015475593682495545
1021.0, 0.016562525037007926
1022.0, 0.018172512578913263
1023.0, 0.01999610222864614
1024.0, 0.021828053413417214
1025.0, 0.022904499660825514
1026.0, 0.026414162413640325
1027.0, 0.0299105799678143
1028.0, 0.03284438542460269
1029.0, 0.03514728023042922
1030.0, 0.036431387184828856
1031.0, 0.036860994938716064
1032.0, 0.03724429942783216
1033.0, 0.03527391774094158
1034.0, 0.031891476220463684
1035.0, 0.027518630999892418
1036.0, 0.023980398982376618
1037.0, 0.021282670109618384
1038.0, 0.015852371915424573
1039.0, 0.012101329758403794
1040.0, 0.009797512912249602
1041.0, 0.008079664710253176
1042.0, 0.006705463067052992
1043.0, 0.005334058171766707
1044.0, 0.0035583037822978286
1045.0, 0.0030826949367244844
1046.0, 0.004124314278173466
1047.0, 0.0020332089311343744
1048.0, 0.0012924639074103675
1049.0, 0.0005802927282046684
1050.0, 0.00018865511701962926
1051.0, 0.0011133918592683835
1052.0, 0.00036648129680325216
1053.0, 0.00030873074523249486
1054.0, 0.0010755497787435103
1055.0, 0.0006309718234508177
1056.0, 0.0002209219603787504
1057.0, 0.0005042911975680399
1058.0, 0.00013836057815388802
1059.0, 0.0002946168682644894
1060.0, 0.0010557978620452464
1061.0, 0.0004238694981861816
1062.0, 0.00025700402070799047
1063.0, 0.0009577232256233791
1064.0, 0.00019498723144475516
1065.0, 0.000991376441917476
1066.0, 0.0004591500692254844
1067.0, 0.001171654865180924
1068.0, 0.0007749479149518867
1069.0, 0.0007703995980403949
1070.0, 0.0018083849525038554
1071.0, 0.0029276984028043297
1072.0, 0.002497290182561722
1073.0, 0.0036908843939339126
1074.0, 0.0028969961730376656
1075.0, 0.004200029816069636
1076.0, 0.004730205303992093
1077.0, 0.006668411813664354
1078.0, 0.006783473579088696
1079.0, 0.007289860335394292
1080.0, 0.00970960604313631
1081.0, 0.012179048679744642
1082.0, 0.014130215373473328
1083.0, 0.015920942016318742
1084.0, 0.01820979096394885
1085.0, 0.02187776570498781
1086.0, 0.02490361189269261
1087.0, 0.02937197120732891
1088.0, 0.03178609323550505
1089.0, 0.03516933612915846
1090.0, 0.03994510446970569
1091.0, 0.045991231543985704
1092.0, 0.05258830645487379
1093.0, 0.05667184375187868
1094.0, 0.06200380264243958
1095.0, 0.06745847056525604
1096.0, 0.07149263012866251
1097.0, 0.07552295111107032
1098.0, 0.07783848121937476
1099.0, 0.07711452824360512
1100.0, 0.07411359278749007
1101.0, 0.06970785178226464
1102.0, 0.0654896973359393
1103.0, 0.06170201931609578
1104.0, 0.05581916650403068
1105.0, 0.052469351788517214
1106.0, 0.0478104772767699
1107.0, 0.04554748611637023
1108.0, 0.04283212109000998
1109.0, 0.04108387720194242
1110.0, 0.04049642526100998
1111.0, 0.04033335708649695
1112.0, 0.04075907045507332
1113.0, 0.03877097352940614
1114.0, 0.03741303014884774
1115.0, 0.033894674759425696
1116.0, 0.0331325376176106
1117.0, 0.03070070517540589
1118.0, 0.028565716077761386
1119.0, 0.025073001973285686
1120.0, 0.021450022736987383
1121.0, 0.017241319317702213
1122.0, 0.015909817121494006
1123.0, 0.013959417847089544
1124.0, 0.011314177246107136
1125.0, 0.010104152550737044
1126.0, 0.00678518690226588
1127.0, 0.006120687884352656
1128.0, 0.005615537702196141
1129.0, 0.004052015766200569
1130.0, 0.004723327429774786
1131.0, 0.004758706157547329
1132.0, 0.0030524294498161723
1133.0, 0.0022470383579732264
1134.0, 0.00252184001814861
1135.0, 0.0021989954245253585
1136.0, 0.0012770734282950265
1137.0, 0.0010099621654755832
1138.0, 0.0020353069843537354
1139.0, 0.002247376872507424
1140.0, 0.0015781278064510064
1141.0, 0.0019207715254253705
1142.0, 0.0022469979092928573
1143.0, 0.0020403158040840225
1144.0, 0.0021506202173370067
1145.0, 0.0017102791128973116
1146.0, 0.003500322963823955
1147.0, 0.0036318224935947795
1148.0, 0.003710025134974289
1149.0, 0.002934411995084562
1150.0, 0.0022684290729335023
1151.0, 0.0027340417233002396
1152.0, 0.00351057325248602
1153.0, 0.0036301111727259656
1154.0, 0.003217551264199108
1155.0, 0.0026535324736373586
1156.0, 0.002116190618462441
1157.0, 0.001879957582619103
1158.0, 0.001715229776471824
1159.0, 0.0014136321517607166
1160.0, 0.0009405791701409792
1161.0, 0.0001077425714814551
1162.0, 0.00044239052361978563
1163.0, 0.00048688875286103636
1164.0, 0.0006980763940433023
1165.0, 0.0012774088906863672
1166.0, 0.001483749127412774
1167.0, 0.002053611184602512
1168.0, 0.0011737486941553077
1169.0, 0.0006751755919378749
1170.0, 0.0003839408835274652
1171.0, 6.0527193946361993e-05
1172.0, 0.00041540024411339184
1173.0, 0.0009510761792586458
1174.0, 0.0006417907384359
1175.0, 0.00027264840864375616
1176.0, 0.0002191291059381822
1177.0, 0.00031665303057779563
1178.0, 0.0004934077879117317
1179.0, 0.0017980357085545212
1180.0, 0.0009841074768383857
1181.0, 0.0005933031373874238
1182.0, 0.00024914263758773597
1183.0, 0.001658041271692313
1184.0, 0.0010186723401339986
1185.0, 0.0007327386424727653
1186.0, 0.0009531652165937531
1187.0, 0.0002688770231579465
1188.0, 0.00031291598142008033
1189.0, 0.0006189842077647446
1190.0, 0.00018229204048926761
1191.0, 0.0006134752162330295
1192.0, 0.0007202136799432334
1193.0, 0.00014748635324800602
1194.0, 0.001186090717044782
1195.0, 0.0015987312308317792
1196.0, 0.0007592462662682419
1197.0, 0.0006999181596162073
1198.0, 0.0009611916031396376
1199.0, 0.0018821012522306007
1200.0, 0.0013883728031492434
1201.0, 0.0006352527132065639
1202.0, 0.003856468640777584
1203.0, 0.005391502425965177
1204.0, 0.0008767763793250715
1205.0, 0.0005472925036501153
1206.0, 0.002030135259407564
1207.0, 0.0011060469792525062
1208.0, 0.0012053268987182288
1209.0, 0.0008479581845209458
1210.0, 0.0009192310531989592
1211.0, 0.000786246105896308
1212.0, 0.0002550927999917646
1213.0, 0.0003872841127729859
1214.0, 0.0015513928164141563
1215.0, 0.0016734107369663683
1216.0, 0.00047664961125574426
1217.0, 0.0007749130108516979
1218.0, 0.00021428690085397586
1219.0, 0.0002358325389029997
1220.0, 0.00048295454303525707
1221.0, 0.0013253190595203627
1222.0, 0.0010945555569094984
1223.0, 0.0009566313779233453
1224.0, 0.0002553248739954094
1225.0, 0.0007879146991559287
1226.0, 0.0023154863585959145
1227.0, 0.000965788358381868
1228.0, 0.0002413659971376972
1229.0, 0.0009137534574058342
1230.0, 0.002241707979478238
1231.0, 0.0016391268977924945
1232.0, 0.0019044314763844417
1233.0, 0.0019722434662505783
1234.0, 0.0014774958595159707
1235.0, 0.0016156298243617947
1236.0, 0.0016675933045375829
1237.0, 0.0018645254014362817
1238.0, 0.001614144909397245
1239.0, 0.0006571404651142531
1240.0, 0.0011149427003429005
1241.0, 0.0019036455889056263
1242.0, 0.0012849103290528048
1243.0, 0.00025264191092914115
1244.0, 0.0008152426616003396
1245.0, 0.001217132130217158
1246.0, 0.0021615231930026263
1247.0, 0.0018241213078789762
1248.0, 0.00031235794777977646
1249.0, 0.000659946745537885
1250.0, 0.002071883925170348
1251.0, 0.001837852051912544
1252.0, 0.0013237957224148653
1253.0, 0.0011561906023314873
1254.0, 0.0011227354782665368
1255.0, 0.001390702721832832
1256.0, 0.0007395281598624201
1257.0, 5.4053330366835694e-05
1258.0, 0.000746554759111335
1259.0, 0.0017154897330129162
1260.0, 0.0012251262592546898
1261.0, 0.0008225478733241841
1262.0, 0.0011113661140506803
1263.0, 0.0012223736695870916
1264.0, 0.0013365615728323302
1265.0, 0.0016396366338539614
1266.0, 0.0019760095830246324
1267.0, 0.002095927325771156
1268.0, 0.001329019347551243
1269.0, 0.0016210660188774734
1270.0, 0.0019602283872859907
1271.0, 0.0015140087655945236
1272.0, 0.000936971127800631
1273.0, 0.00017314636185711927
1274.0, 0.000546915227356797
1275.0, 0.0007713815100627001
1276.0, 0.0003237177867518277
1277.0, 0.0012469268765069525
1278.0, 0.0002901264086111109
1279.0, 0.0006499567643738849
1280.0, 0.0008854227808446437
1281.0, 0.0012986978855753378
1282.0, 0.0013992871217096822
1283.0, 0.000978244963535483
1284.0, 0.0014299289265961158
1285.0, 0.000782235839443218
1286.0, 2.8459385428990268e-06
1287, 0.0
1288, 0.0
1289, 0.0
1290, 0.0
1291, 0.0
1292, 0.0
1293, 0.0
1294, 0.0
1295, 0.0
1296, 0.0
1297, 0.0
1298, 0.0
1299, 0.0
1300, 0.0
1301, 0.0
1302, 0.0
1303, 0.0
1304, 0.0
1305, 0.0
1306, 0.0
1307, 0.0
1308, 0.0
1309, 0.0
1310, 0.0
1311, 0.0
1312, 0.0
1313, 0.0
1314, 0.0
1315, 0.0
1316, 0.0
1317, 0.0
1318, 0.0
1319, 0.0
1320, 0.0
1321, 0.0
1322, 0.0
1323, 0.0
1324, 0.0
1325, 0.0
1326, 0.0
1327, 0.0
1328, 0.0
1329, 0.0
1330, 0.0
1331, 0.0
1332, 0.0
1333, 0.0
1334, 0.0
1335, 0.0
1336, 0.0
1337, 0.0
1338, 0.0
1339, 0.0
1340, 0.0
1341, 0.0
1342, 0.0
1343, 0.0
1344, 0.0
1345, 0.0
1346, 0.0
1347, 0.0
1348, 0.0
1349, 0.0
1350, 0.0
1351, 0.0
1352, 0.0
1353, 0.0
1354, 0.0
1355, 0.0
1356, 0.0
1357, 0.0
1358, 0.0
1359, 0.0
1360, 0.0
1361, 0.0
1362, 0.0
1363, 0.0
1364, 0.0
1365, 0.0
1366, 0.0
1367, 0.0
1368, 0.0
1369, 0.0
1370, 0.0
1371, 0.0
1372, 0.0
1373, 0.0
1374, 0.0
1375, 0.0
1376, 0.0
1377, 0.0
1378, 0.0
1379, 0.0
1380, 0.0
1381, 0.0
1382, 0.0
1383, 0.0
1384, 0.0
1385, 0.0
1386, 0.0
1387, 0.0
1388, 0.0
1389, 0.0
1390, 0.0
1391, 0.0
1392, 0.0
1393, 0.0
1394, 0.0
1395, 0.0
1396, 0.0
1397, 0.0
1398, 0.0
1399, 0.0
1400, 0.0
1401, 0.0
1402, 0.0
1403, 0.0
1404, 0.0
1405, 0.0
1406, 0.0
1407, 0.0
1408, 0.0
1409, 0.0
1410, 0.0
1411, 0.0
1412, 0.0
1413, 0.0
1414, 0.0
1415, 0.0
1416, 0.0
1417, 0.0
1418, 0.0
1419, 0.0
1420, 0.0
1421, 0.0
1422, 0.0
1423, 0.0
1424, 0.0
1425, 0.0
1426, 0.0
1427, 0.0
1428, 0.0
1429, 0.0
1430, 0.0
1431, 0.0
1432, 0.0
1433, 0.0
1434, 0.0
1435, 0.0
1436, 0.0
1437, 0.0
1438, 0.0
1439, 0.0
1440, 0.0
1441, 0.0
1442, 0.0
1443, 0.0
1444, 0.0
1445, 0.0
1446, 0.0
1447, 0.0
1448, 0.0
1449, 0.0
1450, 0.0
1451, 0.0
1452, 0.0
1453, 0.0
1454, 0.0
1455, 0.0
1456, 0.0
1457, 0.0
1458, 0.0
1459, 0.0
1460, 0.0
1461, 0.0
1462, 0.0
1463, 0.0
1464, 0.0
1465, 0.0
1466, 0.0
1467, 0.0
1468, 0.0
1469, 0.0
1470, 0.0
1471, 0.0
1472, 0.0
1473, 0.0
1474, 0.0
1475, 0.0
1476, 0.0
1477, 0.0
1478, 0.0
1479, 0.0
1480, 0.0
1481, 0.0
1482, 0.0
1483, 0.0
1484, 0.0
1485, 0.0
1486, 0.0
1487, 0.0
1488, 0.0
1489, 0.0
1490, 0.0
1491, 0.0
1492, 0.0
1493, 0.0
1494, 0.0
1495, 0.0
1496, 0.0
1497, 0.0
1498, 0.0
1499, 0.0
1500, 0.0
1501, 0.0
1502, 0.0
1503, 0.0
1504, 0.0
1505, 0.0
1506, 0.0
1507, 0.0
1508, 0.0
1509, 0.0
1510, 0.0
1511, 0.0
1512, 0.0
1513, 0.0
1514, 0.0
1515, 0.0
1516, 0.0
1517, 0.0
1518, 0.0
1519, 0.0
1520, 0.0
1521, 0.0
1522, 0.0
1523, 0.0
1524, 0.0
1525, 0.0
1526, 0.0
1527, 0.0
1528, 0.0
1529, 0.0
1530, 0.0
1531, 0.0
1532, 0.0
1533, 0.0
1534, 0.0
1535, 0.0
1536, 0.0
1537, 0.0
1538, 0.0
1539, 0.0
1540, 0.0
1541, 0.0
1542, 0.0
1543, 0.0
1544, 0.0
1545, 0.0
1546, 0.0
1547, 0.0
1548, 0.0
1549, 0.0
1550, 0.0
1551, 0.0
1552, 0.0
1553, 0.0
1554, 0.0
1555, 0.0
1556, 0.0
1557, 0.0
1558, 0.0
1559, 0.0
1560, 0.0
1561, 0.0
1562, 0.0
1563, 0.0
1564, 0.0
1565, 0.0
1566, 0.0
1567, 0.0
1568, 0.0
1569, 0.0
1570, 0.0
1571, 0.0
1572, 0.0
1573, 0.0
1574, 0.0
1575, 0.0
1576, 0.0
1577, 0.0
1578, 0.0
1579, 0.0
1580, 0.0
1581, 0.0
1582, 0.0
1583, 0.0
1584, 0.0
1585, 0.0
1586, 0.0
1587, 0.0
1588, 0.0
1589, 0.0
1590, 0.0
1591, 0.0
1592, 0.0
1593, 0.0
1594, 0.0
1595, 0.0
1596, 0.0
1597, 0.0
1598, 0.0
1599, 0.0
