30, 0.0
31, 0.0
32, 0.0
33, 0.0
34, 0.0
35, 0.0
36, 0.0
37, 0.0
38, 0.0
39, 0.0
40, 0.0
41, 0.0
42, 0.0
43, 0.0
44, 0.0
45, 0.0
46, 0.0
47, 0.0
48, 0.0
49, 0.0
50, 0.0
51, 0.0
52, 0.0
53, 0.0
54, 0.0
55, 0.0
56, 0.0
57, 0.0
58, 0.0
59, 0.0
60, 0.0
61, 0.0
62, 0.0
63, 0.0
64, 0.0
65, 0.0
66, 0.0
67, 0.0
68, 0.0
69, 0.0
70, 0.0
71, 0.0
72, 0.0
73, 0.0
74, 0.0
75, 0.0
76, 0.0
77, 0.0
78, 0.0
79, 0.0
80, 0.0
81, 0.0
82, 0.0
83, 0.0
84, 0.0
85, 0.0
86, 0.0
87, 0.0
88, 0.0
89, 0.0
90, 0.0
91, 0.0
92, 0.0
93, 0.0
94, 0.0
95, 0.0
96, 0.0
97, 0.0
98, 0.0
99, 0.0
100, 0.0
101, 0.0
102, 0.0
103, 0.0
104, 0.0
105, 0.0
106, 0.0
107, 0.0
108, 0.0
109, 0.0
110, 0.0
111, 0.0
112, 0.0
113, 0.0
114, 0.0
115, 0.0
116, 0.0
117, 0.0
118, 0.0
119, 0.0
120, 0.0
121, 0.0
122, 0.0
123, 0.0
124, 0.0
125, 0.0
126, 0.0
127.0, 0.0006863810351448339
128.0, 0.0033527058880093584
129.0, 0.0028367705175325686
130.0, 0.001550773947885945
131.0, 0.003669813699755807
132.0, 0.00564594328688761
133.0, 0.00239711301504408
134.0, 0.00569960805005213
135.0, 0.007823625697878187
136.0, 0.011699934994132447
137.0, 0.021636445241894266
138.0, 0.03716171431490417
139.0, 0.04631991221263425
140.0, 0.062181156326144064
141.0, 0.07968423950171559
142.0, 0.09837064800450085
143.0, 0.11733715294916071
144.0, 0.13530477507819494
145.0, 0.1551124068241304
146.0, 0.17277999074793304
147.0, 0.19699092779371571
148.0, 0.22544921877778965
149.0, 0.2524870776469581
150.0, 0.27806064158682775
151.0, 0.2974317148695273
152.0, 0.31305367786064203
153.0, 0.3136760523581117
154.0, 0.2943824881967244
155.0, 0.26322549476099644
156.0, 0.21426580560620517
157.0, 0.1632238959721815
158.0, 0.1155558171963948
159.0, 0.0757279730320648
160.0, 0.0476848092117004
161.0, 0.04079988177348069
162.0, 0.02982963163905337
163.0, 0.02610478510834563
164.0, 0.02894745575383275
165.0, 0.03393421353835681
166.0, 0.03508253239436863
167.0, 0.04145846409373676
168.0, 0.04361627797040255
169.0, 0.047769091207921825
170.0, 0.05580035536581933
171.0, 0.06493908680655777
172.0, 0.07162454827313879
173.0, 0.08000390841958203
174.0, 0.09051643538561253
175.0, 0.10536269882664058
176.0, 0.12493965277309516
177.0, 0.14312345229050907
178.0, 0.16646090969055521
179.0, 0.1875237410776905
180.0, 0.20938694388764534
181.0, 0.2315080106639285
182.0, 0.24929378938012609
183.0, 0.2663133465753114
184.0, 0.2855395905541069
185.0, 0.29917890068253816
186.0, 0.3073485517093875
187.0, 0.3111368380002186
188.0, 0.30402566923295515
189.0, 0.29663831380915723
190.0, 0.2800381170616082
191.0, 0.25765945486547936
192.0, 0.23144192089658971
193.0, 0.20084524135683077
194.0, 0.17796970547663424
195.0, 0.1578392459193451
196.0, 0.13940206523845672
197.0, 0.12680637822344923
198.0, 0.12195009309046176
199.0, 0.11351049373801517
200.0, 0.12073356485178773
201.0, 0.11943809160057356
202.0, 0.11988681319251394
203.0, 0.12396140523301001
204.0, 0.12267534342962304
205.0, 0.12649152690875706
206.0, 0.13478657242120243
207.0, 0.14215008282648853
208.0, 0.14880410352404988
209.0, 0.15640721954146514
210.0, 0.16511170569197778
211.0, 0.166414225963168
212.0, 0.15827999862051445
213.0, 0.14677379415463584
214.0, 0.13132527408932976
215.0, 0.1065005639298733
216.0, 0.08284171447352888
217.0, 0.06547617157718887
218.0, 0.0467518697930008
219.0, 0.031625131481748295
220.0, 0.023635827925870267
221.0, 0.015964029251013492
222.0, 0.008766206507019468
223.0, 0.006800703570185816
224.0, 0.004134651463656014
225.0, 0.0013198748674234544
226.0, 0.002724516017421677
227.0, 0.007138651754123664
228.0, 0.005107117530522311
229.0, 0.0037693111838213206
230.0, 0.007099556720235147
231.0, 0.011931998608470287
232.0, 0.0062669900665588505
233.0, 0.0064403737222247
234.0, 0.007074984185978456
235.0, 0.00795609730027466
236.0, 0.008156412530870395
237.0, 0.0065656690830069135
238.0, 0.0024181032935316083
239.0, 0.002869982893463443
240.0, 0.0045772169877916664
241.0, 0.006144146464067676
242.0, 0.008268092573645008
243.0, 0.013087699509072896
244.0, 0.018606634812962618
245.0, 0.025147446422620224
246.0, 0.029771163251911353
247.0, 0.03516701029529347
248.0, 0.043210697620744636
249.0, 0.0511882031487304
250.0, 0.06266308981062595
251.0, 0.0720947686809029
252.0, 0.08238804217402922
253.0, 0.09144548753119189
254.0, 0.09574293642429345
255.0, 0.09775925279411056
256.0, 0.09292130220531672
257.0, 0.08450173893968897
258.0, 0.07458092968091257
259.0, 0.06588580695723689
260.0, 0.06132922568090879
261.0, 0.06062714668039933
262.0, 0.060021052747964765
263.0, 0.06507790422151621
264.0, 0.07164102170678929
265.0, 0.07715155776654123
266.0, 0.08741896464821404
267.0, 0.09785168492760929
268.0, 0.10637017192574023
269.0, 0.11460508811450017
270.0, 0.12356917210611758
271.0, 0.13129180675963503
272.0, 0.12624172363180686
273.0, 0.12350555710942122
274.0, 0.11563859830910869
275.0, 0.10500342420467629
276.0, 0.09247847870747128
277.0, 0.07804837980024967
278.0, 0.07224059892639617
279.0, 0.06887525591894984
280.0, 0.07126926020695418
281.0, 0.07750501375871652
282.0, 0.0845202780642612
283.0, 0.09006761336000271
284.0, 0.10419503670960753
285.0, 0.11917741087746936
286.0, 0.13568107218791553
287.0, 0.15423476665343885
288.0, 0.1746650381658574
289.0, 0.19546441404132364
290.0, 0.22524163345346981
291.0, 0.24217842898457914
292.0, 0.25311645798370747
293.0, 0.2577520601576456
294.0, 0.25253426678697155
295.0, 0.23945420520046376
296.0, 0.2096555369315468
297.0, 0.17836730280852714
298.0, 0.14843942274123162
299.0, 0.1196035156384434
300.0, 0.09136607976272379
301.0, 0.07472215693259124
302.0, 0.06060200651494976
303.0, 0.04763621335280294
304.0, 0.03890499614143254
305.0, 0.0343131809344006
306.0, 0.02905115202512787
307.0, 0.019153133200092327
308.0, 0.017020752538087387
309.0, 0.014353602687560503
310.0, 0.011245993101863638
311.0, 0.00982801241339933
312.0, 0.011332989499318482
313.0, 0.010775865259908618
314.0, 0.007519099212415725
315.0, 0.005720297286055443
316.0, 0.005347430897427931
317.0, 0.00542039316767575
318.0, 0.006889576158557993
319.0, 0.011901556419571805
320.0, 0.01505208154510185
321.0, 0.018578175963263208
322.0, 0.024122092687213582
323.0, 0.031140828374774807
324.0, 0.033969169361315645
325.0, 0.039659335211022384
326.0, 0.04533498850350061
327.0, 0.05415240672360698
328.0, 0.0629365774963138
329.0, 0.06769636084980961
330.0, 0.0798526485357662
331.0, 0.07952611529845213
332.0, 0.0788615101028583
333.0, 0.0739546144322435
334.0, 0.06285921752386406
335.0, 0.047997690239332855
336.0, 0.03898359844201402
337.0, 0.031774936106834
338.0, 0.027040472520981646
339.0, 0.023740463688281047
340.0, 0.022138288908955236
341.0, 0.02278304393450083
342.0, 0.017514227583151472
343.0, 0.022492638541970367
344.0, 0.02284013063551984
345.0, 0.024131272950738594
346.0, 0.02805811103995348
347.0, 0.029204959227426396
348.0, 0.03233523135065799
349.0, 0.032330793810051085
350.0, 0.033864386607417925
351.0, 0.0351773152730613
352.0, 0.03406709451011369
353.0, 0.030354843765197644
354.0, 0.03230796890427318
355.0, 0.03089021886791491
356.0, 0.028542879331005137
357.0, 0.026655245543275603
358.0, 0.025706811956173505
359.0, 0.02512088372646352
360.0, 0.02282463825060898
361.0, 0.02469719966772815
362.0, 0.022175346244913838
363.0, 0.01874238648467633
364.0, 0.018280139744281217
365.0, 0.02009590006065036
366.0, 0.013718495240149326
367.0, 0.013151407835174201
368.0, 0.01362770878810417
369.0, 0.013135753042915381
370.0, 0.011772624401593842
371.0, 0.011317515058727523
372.0, 0.01053225462003017
373.0, 0.005669752269610917
374.0, 0.0035664919354552772
375.0, 0.0027043344302917134
376.0, 0.0020350611957133296
377.0, 0.0035041604361181174
378.0, 0.0037918758353276184
379.0, 0.005472279356008625
380.0, 0.006173635578323987
381.0, 0.0061247576785463794
382.0, 0.005946570564910966
383.0, 0.005798718332709845
384.0, 0.00451423534887372
385.0, 0.0031783883981713577
386.0, 0.0025694676751685337
387.0, 0.004130324712797408
388.0, 0.007033738090831037
389.0, 0.008277764346305946
390.0, 0.009095978660776697
391.0, 0.01393583129900677
392.0, 0.01330493770684724
393.0, 0.011424647854985806
394.0, 0.012682286888073631
395.0, 0.018137295212829814
396.0, 0.02591346102143915
397.0, 0.030901202807308667
398.0, 0.03259062411307792
399.0, 0.035554592465185525
400.0, 0.040243106998211924
401.0, 0.04263058984005032
402.0, 0.03878559173923074
403.0, 0.03788287993972316
404.0, 0.03467180079725356
405.0, 0.03120862773989534
406.0, 0.03133315387743868
407.0, 0.03729550018442427
408.0, 0.04340301167526625
409.0, 0.04876160531315859
410.0, 0.05254973412407514
411.0, 0.05836832803595101
412.0, 0.0629423908731261
413.0, 0.06329417251447586
414.0, 0.0702552438798841
415.0, 0.07943510474316128
416.0, 0.08494090904812086
417.0, 0.09520435408755179
418.0, 0.10210023597812722
419.0, 0.09782944499435221
420.0, 0.09359915583680341
421.0, 0.0728093181448614
422.0, 0.05505518981215622
423.0, 0.03945663931764314
424.0, 0.026376410165584622
425.0, 0.015512509878783883
426.0, 0.005547969068764279
427.0, 0.009908801583276651
428.0, 0.004057581541259022
429.0, 0.0019933464054162787
430.0, 0.0016253174971327525
431.0, 0.0004931230351440329
432.0, 0.0007787566315021323
433.0, 0.0020933603459965984
434.0, 0.002484583347536448
435.0, 0.0042307751733266195
436.0, 0.004049254038693407
437.0, 0.0031249209537853183
438.0, 0.00521830524092165
439.0, 0.0036717558691192107
440.0, 0.006576446464373593
441.0, 0.006779257609268335
442.0, 0.011514231889168237
443.0, 0.01845101538173363
444.0, 0.021614096251546814
445.0, 0.024656672283348294
446.0, 0.039842532449247306
447.0, 0.052034999093705424
448.0, 0.06326369610668633
449.0, 0.07802858123603987
450.0, 0.09601896925613972
451.0, 0.10796305075596606
452.0, 0.12167926208943697
453.0, 0.14460168132504378
454.0, 0.1640990985951068
455.0, 0.18224723530345704
456.0, 0.2009547228495831
457.0, 0.2171699358482431
458.0, 0.22850458625861786
459.0, 0.22485378702067593
460.0, 0.21258416418486936
461.0, 0.19315989641928008
462.0, 0.17291182403431415
463.0, 0.15749426652550982
464.0, 0.13723424822128966
465.0, 0.1349457260496527
466.0, 0.13797972032827535
467.0, 0.14876507006666756
468.0, 0.1638847958972746
469.0, 0.18093012022955507
470.0, 0.20514237786895428
471.0, 0.2345609900561185
472.0, 0.2743971662385175
473.0, 0.3193691437069447
474.0, 0.36384877629618906
475.0, 0.41015646726452665
476.0, 0.4669106070918962
477.0, 0.5242959331105255
478.0, 0.5797860701730113
479.0, 0.6285489132314077
480.0, 0.6584804161412592
481.0, 0.6609900436278332
482.0, 0.6321189042189109
483.0, 0.5703609671574627
484.0, 0.4879953142132977
485.0, 0.4065051673492469
486.0, 0.33483646497269787
487.0, 0.2779540087144245
488.0, 0.23588050853663298
489.0, 0.20437481761792098
490.0, 0.18624164585308237
491.0, 0.17737387078561453
492.0, 0.17189788856740554
493.0, 0.1711281360466477
494.0, 0.1756595391979969
495.0, 0.18599362159522378
496.0, 0.20905522436946236
497.0, 0.2429038420182788
498.0, 0.28342106389381444
499.0, 0.3299982109059046
500.0, 0.3851213194349963
501.0, 0.4482328938620103
502.0, 0.5120999171037833
503.0, 0.5839990791497237
504.0, 0.6605911874737841
505.0, 0.7423109004084124
506.0, 0.8282289544634488
507.0, 0.9120192007303728
508.0, 0.9791257563083756
509.0, 0.9992164624600837
510.0, 0.974813196418351
511.0, 0.9074884464121684
512.0, 0.8060289501370389
513.0, 0.6862620922857661
514.0, 0.563561538087364
515.0, 0.44768140830084147
516.0, 0.36317315020930835
517.0, 0.29622362799468405
518.0, 0.2440502338108908
519.0, 0.20410577153211262
520.0, 0.17336478117703585
521.0, 0.1485306393185631
522.0, 0.1259654065991975
523.0, 0.11235288460403309
524.0, 0.09453795936144414
525.0, 0.08232836464947967
526.0, 0.07515256404798812
527.0, 0.06966096533295106
528.0, 0.0654683679427321
529.0, 0.05452685516422609
530.0, 0.05256897724428981
531.0, 0.04802189748766181
532.0, 0.04290579193255094
533.0, 0.04021048287884578
534.0, 0.03875546044295238
535.0, 0.029520190622615704
536.0, 0.03002690281958703
537.0, 0.029789360541463365
538.0, 0.025506698322669698
539.0, 0.023360974049399828
540.0, 0.02543622307592722
541.0, 0.026878794909226223
542.0, 0.032416406752991046
543.0, 0.024052585474798924
544.0, 0.021667316459673472
545.0, 0.02217810435252204
546.0, 0.02081636461947096
547.0, 0.01618265490416964
548.0, 0.01261291822896366
549.0, 0.0151423333221309
550.0, 0.015526797318092261
551.0, 0.015124141019598799
552.0, 0.015977298120082556
553.0, 0.016945254667410207
554.0, 0.016113114809686517
555.0, 0.0170228266485331
556.0, 0.014895749700258447
557.0, 0.016139412408066958
558.0, 0.016072187476047453
559.0, 0.013434028914469834
560.0, 0.010138662806475083
561.0, 0.009032364751895621
562.0, 0.007374369143715508
563.0, 0.011652935281484257
564.0, 0.011988468321158295
565.0, 0.01578626344286202
566.0, 0.01804452681567992
567.0, 0.015495310665210215
568.0, 0.016858308668446485
569.0, 0.01993521354127007
570.0, 0.021457330964695483
571.0, 0.024180236974603853
572.0, 0.024977212541866675
573.0, 0.026899514715439478
574.0, 0.03232181724090224
575.0, 0.033293574971520204
576.0, 0.033826983017391433
577.0, 0.03194779347682236
578.0, 0.03952139634725331
579.0, 0.04603181861273734
580.0, 0.046481167191521025
581.0, 0.04469829545155757
582.0, 0.04342189871724577
583.0, 0.04771923500389441
584.0, 0.04447231471296595
585.0, 0.0457366432444937
586.0, 0.04492761447670054
587.0, 0.04073858996539081
588.0, 0.04131396497743856
589.0, 0.047991230699265426
590.0, 0.04686742002000734
591.0, 0.04372414470601319
592.0, 0.0459022755393255
593.0, 0.04722493974850799
594.0, 0.04461500275794546
595.0, 0.04415242169959189
596.0, 0.04792908430893726
597.0, 0.0438817890986265
598.0, 0.04556549930440594
599.0, 0.04800906308951596
600.0, 0.0471520823392265
601.0, 0.044985679004649566
602.0, 0.0472398683946071
603.0, 0.04254633935380254
604.0, 0.039922027306936704
605.0, 0.03894733902413116
606.0, 0.04061150389130651
607.0, 0.04408082733666901
608.0, 0.045725982079595384
609.0, 0.04032919018286149
610.0, 0.027814096271001416
611.0, 0.02817904862054549
612.0, 0.030866121872496
613.0, 0.030722398454628406
614.0, 0.030826308251675743
615.0, 0.03266489235492881
616.0, 0.03106553308094684
617.0, 0.036720995970635724
618.0, 0.037956774261006125
619.0, 0.041797168781699576
620.0, 0.046462701838713594
621.0, 0.04986423650625135
622.0, 0.05289970022651943
623.0, 0.05955293661029219
624.0, 0.0674573573353739
625.0, 0.07357187110312043
626.0, 0.07527210994646255
627.0, 0.0724294320740459
628.0, 0.06907677371873373
629.0, 0.06845411614356177
630.0, 0.06863601472866565
631.0, 0.06267852458058955
632.0, 0.05826887137286163
633.0, 0.0558885046212943
634.0, 0.05222766973373196
635.0, 0.05008594723956209
636.0, 0.04997196016884624
637.0, 0.04613955188046715
638.0, 0.042919482189283216
639.0, 0.047546648989070406
640.0, 0.04806076115513105
641.0, 0.052013844151474954
642.0, 0.05820922080404786
643.0, 0.06157918968002256
644.0, 0.0607874088969807
645.0, 0.06543449089273443
646.0, 0.07469239640423064
647.0, 0.07389109542211406
648.0, 0.07230522438907008
649.0, 0.07213836974573522
650.0, 0.07076828751642486
651.0, 0.06673650938299848
652.0, 0.06851017229363454
653.0, 0.06117748467251588
654.0, 0.05682463720180156
655.0, 0.051559368549679165
656.0, 0.04647326218714876
657.0, 0.04211242283582052
658.0, 0.03738489173691702
659.0, 0.033045627690579255
660.0, 0.026241005862961356
661.0, 0.026167145253515225
662.0, 0.022882562451259972
663.0, 0.020884333739571093
664.0, 0.02077441353173011
665.0, 0.018385105601260172
666.0, 0.013285752989298263
667.0, 0.010700360029714454
668.0, 0.016019571046132695
669.0, 0.009649288575402095
670.0, 0.009198044511842347
671.0, 0.011097102049783678
672.0, 0.006460950147259136
673.0, 0.006608237176654907
674.0, 0.013576925212631598
675.0, 0.004324928848249528
676.0, 0.00394511613608727
677.0, 0.0036077117486821935
678.0, 0.0020427285703999818
679.0, 0.0013646767604923102
680.0, 0.001264934867144124
681.0, 0.0018977811149206312
682.0, 0.0015905090947150077
683.0, 0.003451797838107614
684.0, 0.0034016412315566085
685.0, 0.0031084931118261893
686.0, 0.0036362465634550726
687.0, 0.003763755702794616
688.0, 0.0032424642870447183
689.0, 0.005432527547895471
690.0, 0.006449036261927921
691.0, 0.0030038269543702398
692.0, 0.0023771100846081434
693.0, 0.0038013157452601457
694.0, 0.003956134224084358
695.0, 0.006219621819472998
696.0, 0.0033518708583427422
697.0, 0.0030931413439825935
698.0, 0.0012523540518115154
699.0, 0.00030530464483315904
700.0, 0.0010231876655984599
701.0, 0.001731295228937777
702.0, 0.0008421718196450488
703.0, 0.0026121488346266264
704.0, 0.0043166376215157355
705.0, 0.0034554897921999688
706.0, 0.004393789931295591
707.0, 0.004343517377842854
708.0, 0.0040675952855952855
709.0, 0.005411385875857811
710.0, 0.0038608083400403074
711.0, 0.0025206252646064165
712.0, 0.0018234276435656598
713.0, 0.0018696548921911988
714.0, 0.002601302175725268
715.0, 0.0037752782425630863
716.0, 0.003939622910660937
717.0, 0.001555883119843322
718.0, 0.00015088429569065404
719.0, 0.0016053134838635687
720.0, 0.002919773001771849
721.0, 0.006762008443723695
722.0, 0.009736686704141807
723.0, 0.01018629928857671
724.0, 0.008593722155459272
725.0, 0.005069257036188353
726.0, 0.010116899875143082
727.0, 0.01046542603171052
728.0, 0.012198366809409817
729.0, 0.014118280868379813
730.0, 0.013641132825211776
731.0, 0.010972606379402871
732.0, 0.010655723967569728
733.0, 0.01878320853181757
734.0, 0.013223221321083797
735.0, 0.012877730482857406
736.0, 0.018829244973252512
737.0, 0.015385175103721638
738.0, 0.01077880001380628
739.0, 0.01578685238507829
740.0, 0.016845826047416086
741.0, 0.02161363078339127
742.0, 0.026505025051777098
743.0, 0.027371657451812893
744.0, 0.025605398986531414
745.0, 0.02676325837866555
746.0, 0.030925879257547525
747.0, 0.03391793152929396
748.0, 0.03692437970019361
749.0, 0.04563012346998863
750.0, 0.04750210835759299
751.0, 0.05317307547412998
752.0, 0.06297199187889656
753.0, 0.07461683296755929
754.0, 0.09073163947476595
755.0, 0.11397950288023886
756.0, 0.12750029233041973
757.0, 0.15002404905488048
758.0, 0.17681907443906467
759.0, 0.19863940529685684
760.0, 0.22691895621055022
761.0, 0.2595684048200325
762.0, 0.28741609223751563
763.0, 0.3090388553155489
764.0, 0.33007731107691896
765.0, 0.33271203417475864
766.0, 0.3159787900443607
767.0, 0.2861841266132006
768.0, 0.2506028397723905
769.0, 0.2130193069930654
770.0, 0.1766868378456459
771.0, 0.1468402683473217
772.0, 0.11821895639602047
773.0, 0.1041880717118293
774.0, 0.08940442681360208
775.0, 0.08023967035005858
776.0, 0.07194785832287914
777.0, 0.0632246151262653
778.0, 0.057681801402276786
779.0, 0.0557032090793775
780.0, 0.053860496133240676
781.0, 0.05381093156844746
782.0, 0.04829476364455145
783.0, 0.04688876823830641
784.0, 0.047221190955884944
785.0, 0.04441782178726589
786.0, 0.040479700987905584
787.0, 0.04418821666190794
788.0, 0.04060362156986218
789.0, 0.0384987476681514
790.0, 0.03667733983110634
791.0, 0.03912727154275802
792.0, 0.042704985048866446
793.0, 0.0440593063491547
794.0, 0.045472233029740794
795.0, 0.053186493416583144
796.0, 0.0526189448499056
797.0, 0.05065121654965077
798.0, 0.058711872233521166
799.0, 0.06535578932455344
800.0, 0.0684770626792074
801.0, 0.07273648248991907
802.0, 0.08283396682885776
803.0, 0.0973472618003329
804.0, 0.10189644202397692
805.0, 0.12369797834986226
806.0, 0.14544752926764712
807.0, 0.16487217928771866
808.0, 0.1839488428970109
809.0, 0.20348458790512577
810.0, 0.22183640597136958
811.0, 0.23705017665311146
812.0, 0.24940846100686911
813.0, 0.2693789295674475
814.0, 0.2831854589914313
815.0, 0.29761531594648377
816.0, 0.2989455909100659
817.0, 0.29172909598441965
818.0, 0.2817935738558152
819.0, 0.25088778929381095
820.0, 0.2202217006684594
821.0, 0.1868752203654516
822.0, 0.15658808309054834
823.0, 0.13033650452570225
824.0, 0.10808379905802148
825.0, 0.0918820208793104
826.0, 0.08142026008098961
827.0, 0.0722081519067394
828.0, 0.06566369066318745
829.0, 0.059342039426002156
830.0, 0.053784756174589145
831.0, 0.05528228290601317
832.0, 0.05325882290911096
833.0, 0.047214191727056334
834.0, 0.04515924063215373
835.0, 0.04834749135154538
836.0, 0.039195698226970846
837.0, 0.04484126574075456
838.0, 0.043691497037079606
839.0, 0.0394755248706919
840.0, 0.042402972241678584
841.0, 0.04734087573600457
842.0, 0.04801088548670562
843.0, 0.04682959874239713
844.0, 0.05030447659887476
845.0, 0.04959792498736484
846.0, 0.05837641604055081
847.0, 0.05720320448274734
848.0, 0.060563287009563385
849.0, 0.0644496470783159
850.0, 0.06744765396222105
851.0, 0.07099762725513051
852.0, 0.07248981882047993
853.0, 0.07386988858368831
854.0, 0.08586212781348629
855.0, 0.0844722366131786
856.0, 0.08509712692008219
857.0, 0.09128763960879957
858.0, 0.09419250031780807
859.0, 0.0933174051232546
860.0, 0.0959244552453846
861.0, 0.09352262192840372
862.0, 0.0878691947926562
863.0, 0.08618660825305835
864.0, 0.07962615521580932
865.0, 0.07002530573018877
866.0, 0.06376003988710885
867.0, 0.057321998751792176
868.0, 0.04815169088255391
869.0, 0.045274466713318744
870.0, 0.04613959853663568
871.0, 0.04128317120190455
872.0, 0.037760056737434745
873.0, 0.03294287244130799
874.0, 0.03017741896378626
875.0, 0.02754299145866794
876.0, 0.0250478103943787
877.0, 0.024686147059719218
878.0, 0.022706858384692743
879.0, 0.022227507487510432
880.0, 0.019930507771189817
881.0, 0.019624650970893585
882.0, 0.018294588588543964
883.0, 0.013979424532798407
884.0, 0.011715564224394782
885.0, 0.01357717387330033
886.0, 0.014085981940196148
887.0, 0.013811068715480521
888.0, 0.01871442082560941
889.0, 0.01573776444235045
890.0, 0.014360781782454717
891.0, 0.01527467978486382
892.0, 0.017346838471835633
893.0, 0.018017421852627467
894.0, 0.01590377859889567
895.0, 0.013816585561138883
896.0, 0.01757655457020989
897.0, 0.01615767896081454
898.0, 0.01439346233126525
899.0, 0.015153023175536481
900.0, 0.014689347376367377
901.0, 0.01621768493582089
902.0, 0.016969780555702956
903.0, 0.01255662025880569
904.0, 0.010169175261274104
905.0, 0.010297756911023484
906.0, 0.0160591316606709
907.0, 0.014264202013265526
908.0, 0.015293970209413447
909.0, 0.013432716300014374
910.0, 0.01241324724752863
911.0, 0.014598663083032187
912.0, 0.014712197964527543
913.0, 0.010261747837190536
914.0, 0.014343618648277243
915.0, 0.0049185724027806035
916.0, 0.006316440164452504
917.0, 0.0043508244383573015
918.0, 0.0028568906928232015
919.0, 0.00391211834018976
920.0, 0.004506955452286193
921.0, 0.002648951128205997
922.0, 0.0020334051216895346
923.0, 0.0004898855439063717
924.0, 0.004349125872696822
925.0, 0.003243052768422366
926.0, 0.0034427992084110353
927.0, 0.0032175902673782274
928.0, 0.0021662619017275516
929.0, 0.0020131249452174657
930.0, 0.0032454555491953693
931.0, 0.003390661912746268
932.0, 0.0034548152280902042
933.0, 0.0027123913872943643
934.0, 0.0027220474204767424
935.0, 0.0011011502416676576
936.0, 0.0009881947581337344
937.0, 0.0011520809166262267
938.0, 0.0012980926820290858
939.0, 0.0027060672355372958
940.0, 0.004146316681379102
941.0, 0.006170198106385534
942.0, 0.001023028885249585
943.0, 0.0018437245315331982
944.0, 0.0010363411366295847
945.0, 0.0032791633263106216
946.0, 0.006533937902202523
947.0, 0.006369546930642064
948.0, 0.00420811494914264
949.0, 0.0058760158023756556
950.0, 0.00684958277340279
951.0, 0.013339812273046144
952.0, 0.013197284725355323
953.0, 0.01324253611768433
954.0, 0.01202708070987635
955.0, 0.013349176251107332
956.0, 0.014902871322257462
957.0, 0.013964187217026023
958.0, 0.015079912281033175
959.0, 0.02163711355265741
960.0, 0.012110011179551163
961.0, 0.019479058755947017
962.0, 0.02316341772155528
963.0, 0.02130597240866744
964.0, 0.02203800060332635
965.0, 0.02382593396109995
966.0, 0.023296098674496567
967.0, 0.0213503641486794
968.0, 0.020762294420433855
969.0, 0.03134309499071533
970.0, 0.031121960529691007
971.0, 0.029963501862804408
972.0, 0.037401392582783057
973.0, 0.04001577334114886
974.0, 0.04214274966412676
975.0, 0.04678381221946475
976.0, 0.05195961870140501
977.0, 0.05734971975518146
978.0, 0.06102917037673926
979.0, 0.06004696295225571
980.0, 0.062412488190173636
981.0, 0.0650412639301122
982.0, 0.05887684083559481
983.0, 0.05526657382738392
984.0, 0.050401318373979084
985.0, 0.04210752754810461
986.0, 0.037725137136131855
987.0, 0.03900345448194711
988.0, 0.03744762557743847
989.0, 0.03152169577974555
990.0, 0.03177164880201428
991.0, 0.031655440100251786
992.0, 0.029032193158717176
993.0, 0.030571933748474972
994.0, 0.031279455192323204
995.0, 0.029350846288384226
996.0, 0.03122680508192018
997.0, 0.03340378414093305
998.0, 0.03966961970796152
999.0, 0.04669603669454484
1000.0, 0.0510099208868281
1001.0, 0.06011027230345214
1002.0, 0.0706923760783322
1003.0, 0.0797653704522188
1004.0, 0.08234375944802638
1005.0, 0.07552276253365815
1006.0, 0.06584655970759948
1007.0, 0.06481914492794598
1008.0, 0.051633974692500834
1009.0, 0.04324658318680573
1010.0, 0.04550786878550217
1011.0, 0.038980479679433605
1012.0, 0.040473773442170353
1013.0, 0.038464511522995244
1014.0, 0.03354521001192622
1015.0, 0.035636978198598894
1016.0, 0.03815267348481128
1017.0, 0.031289305477949045
1018.0, 0.036106101461172074
1019.0, 0.02896167007575204
1020.0, 0.03028526133754808
1021.0, 0.03117855233468768
1022.0, 0.027282771035752773
1023.0, 0.02640083868823358
1024.0, 0.027833174874887855
1025.0, 0.026486006287627244
1026.0, 0.02427160079772607
1027.0, 0.022706829879919326
1028.0, 0.018212023395211933
1029.0, 0.021472871093732387
1030.0, 0.02323549386437251
1031.0, 0.022488680186946223
1032.0, 0.020472725926825433
1033.0, 0.01706181081680602
1034.0, 0.015974453645604195
1035.0, 0.01806094344041269
1036.0, 0.01918523954071816
1037.0, 0.018669100497869524
1038.0, 0.012962234887175966
1039.0, 0.01433660997454412
1040.0, 0.014048242608249365
1041.0, 0.01535480484334804
1042.0, 0.014100122425798818
1043.0, 0.01848847750116398
1044.0, 0.01929050103500933
1045.0, 0.015104436751343967
1046.0, 0.016277085860494877
1047.0, 0.01715157565423089
1048.0, 0.012824434743847025
1049.0, 0.01862705640822667
1050.0, 0.015199616765991398
1051.0, 0.017347602951401187
1052.0, 0.012404533759448194
1053.0, 0.012031008065996714
1054.0, 0.007753633962906927
1055.0, 0.002585426298066729
1056.0, 0.00501882479130785
1057.0, 0.006205946417774421
1058.0, 0.002410740179298267
1059.0, 0.0007439895446948349
1060.0, 0.0013104037086594743
1061.0, 0.0019763144045297234
1062.0, 0.005534377090498864
1063.0, 0.004764931638008625
1064.0, 0.003867780067568803
1065.0, 0.003356694120602203
1066.0, 0.002638560878849933
1067.0, 0.0027821876569852906
1068.0, 0.0020349039460759587
1069.0, 0.0012502341666940006
1070.0, 0.0006229887045184675
1071.0, 0.0008478212276183644
1072.0, 0.004947268299027436
1073.0, 0.004912581455858032
1074.0, 0.0033034009903037563
1075.0, 0.0053627541271817495
1076.0, 0.007565091353645695
1077.0, 0.008855305459597663
1078.0, 0.014051103004250163
1079.0, 0.018139347349868707
1080.0, 0.018511133894079906
1081.0, 0.02355052514242681
1082.0, 0.02407060816147927
1083.0, 0.028810049819089828
1084.0, 0.032884873789805744
1085.0, 0.03575320994095683
1086.0, 0.040787739588989035
1087.0, 0.044434722509693915
1088.0, 0.04592167050813887
1089.0, 0.05021736566579687
1090.0, 0.05265932993495316
1091.0, 0.06456901207067202
1092.0, 0.06951009711995412
1093.0, 0.07753275781809867
1094.0, 0.08492288701726186
1095.0, 0.09919010446706193
1096.0, 0.1083553482490006
1097.0, 0.1135569898022059
1098.0, 0.11938648022479227
1099.0, 0.12378377943832393
1100.0, 0.12294517928292663
1101.0, 0.1192692395958079
1102.0, 0.12101392414892624
1103.0, 0.11718490439005282
1104.0, 0.11183592695491616
1105.0, 0.09651101547409886
1106.0, 0.09469577316137351
1107.0, 0.08950925984061696
1108.0, 0.0796045252445914
1109.0, 0.07444065611387249
1110.0, 0.07479942980700088
1111.0, 0.07244374807685394
1112.0, 0.0657849291640678
1113.0, 0.06424453461845286
1114.0, 0.058212970427152816
1115.0, 0.054397359135448756
1116.0, 0.047689914576366364
1117.0, 0.04552331543930948
1118.0, 0.03930279984680011
1119.0, 0.033767042167257816
1120.0, 0.032311818029956314
1121.0, 0.03128926250787533
1122.0, 0.02976745607020517
1123.0, 0.03187878330946205
1124.0, 0.03143166518868053
1125.0, 0.022225776388720208
1126.0, 0.016529206486481117
1127.0, 0.01683095553301384
1128.0, 0.014258037615017186
1129.0, 0.01547881500088427
1130.0, 0.015103513393378846
1131.0, 0.012528796061331705
1132.0, 0.011208788129524343
1133.0, 0.011153560978786992
1134.0, 0.009799965016255583
1135.0, 0.008695413466403104
1136.0, 0.009718389464081215
1137.0, 0.003962102950276514
1138.0, 0.007891954803593735
1139.0, 0.003464427442772138
1140.0, 0.005860998006282359
1141.0, 0.006409861822126504
1142.0, 0.0048941304151832125
1143.0, 0.006928671647691277
1144.0, 0.008199475306425183
1145.0, 0.007651571137741352
1146.0, 0.013882491820486377
1147.0, 0.01688907411978273
1148.0, 0.009147789438580675
1149.0, 0.01770790803056699
1150.0, 0.01641021125213574
1151.0, 0.01828052689117542
1152.0, 0.016675566992833832
1153.0, 0.01882254873694119
1154.0, 0.01925317304278244
1155.0, 0.01801954995337996
1156.0, 0.018535101106633842
1157.0, 0.01934736885382512
1158.0, 0.017901150447020557
1159.0, 0.016800823482610795
1160.0, 0.017422430084117795
1161.0, 0.014166760733948253
1162.0, 0.015395911819911944
1163.0, 0.009217736840506958
1164.0, 0.008128496121974338
1165.0, 0.008576379643015724
1166.0, 0.011390188308169376
1167.0, 0.01138450846802589
1168.0, 0.009593808869209885
1169.0, 0.008865868095967169
1170.0, 0.007716947760824772
1171.0, 0.011393980135384677
1172.0, 0.013475593110135818
1173.0, 0.010432579217376727
1174.0, 0.012414382421818783
1175.0, 0.013910518988005022
1176.0, 0.011648879370968932
1177.0, 0.014609945127493779
1178.0, 0.01178631109506791
1179.0, 0.009139786114491328
1180.0, 0.008445022987101425
1181.0, 0.006496702925244334
1182.0, 0.006826989121999496
1183.0, 0.009864610011180197
1184.0, 0.006742241527831128
1185.0, 0.006712430886436711
1186.0, 0.010173923262119283
1187.0, 0.004087746369488526
1188.0, 0.0029759313736640023
1189.0, 0.00289776185874888
1190.0, 0.00728973030432913
1191.0, 0.004980404714364731
1192.0, 0.003383803082463834
1193.0, 0.003250162752651071
1194.0, 0.0006933383038846262
1195.0, 0.0018862746405336301
1196.0, 0.0030797204303311615
1197.0, 0.0007334841817146192
1198.0, 0.0016910725225311551
1199.0, 0.00020525347063015428
1200.0, 5.147954296086933e-05
1201.0, 0.0035751437218139817
1202.0, 0.0023033743124883
1203.0, 0.0029685785573783314
1204.0, 0.0016838607305833444
1205.0, 0.0005914715366520156
1206.0, 0.0013199690167747407
1207.0, 0.0017723445352259013
1208.0, 0.003330761541236716
1209.0, 0.006009322314366371
1210.0, 0.004063729585632318
1211.0, 0.004776675820079431
1212.0, 0.002132352930946436
1213.0, 0.0014743353520910304
1214.0, 0.006385946761911449
1215.0, 0.0035630962073693517
1216.0, 0.002695747023741958
1217.0, 0.00419166888492758
1218.0, 0.0031758798864192192
1219.0, 0.0016347229466866459
1220.0, 0.0015922010635306524
1221.0, 0.002735428806219408
1222.0, 0.006499401069569309
1223.0, 0.002109459394953301
1224.0, 0.004459808760054716
1225.0, 0.011917514572422823
1226.0, 0.006376400713370183
1227.0, 0.008793451644588977
1228.0, 0.012950826745104806
1229.0, 0.009491250985772685
1230.0, 0.010983503994273166
1231.0, 0.010799408837865999
1232.0, 0.008055247884969701
1233.0, 0.008226178692009626
1234.0, 0.01168513661497618
1235.0, 0.015013995768438173
1236.0, 0.01327313987499256
1237.0, 0.018498324641620538
1238.0, 0.02093567150657189
1239.0, 0.017458299119715165
1240.0, 0.02040767389483452
1241.0, 0.022818308659877273
1242.0, 0.022116043858678266
1243.0, 0.022118144155538026
1244.0, 0.02182924162254548
1245.0, 0.02054426163484511
1246.0, 0.019645336046025676
1247.0, 0.01853977926474809
1248.0, 0.017590073098013838
1249.0, 0.020278735270642438
1250.0, 0.023360176531315245
1251.0, 0.02136227508206595
1252.0, 0.01733145617727294
1253.0, 0.026588046348939416
1254.0, 0.018147321522696762
1255.0, 0.017681871383353493
1256.0, 0.01887458625743628
1257.0, 0.01618684867680826
1258.0, 0.01650474223129833
1259.0, 0.021525991809988838
1260.0, 0.025030909983463898
1261.0, 0.026079041314601783
1262.0, 0.025849081685648385
1263.0, 0.02346084594700209
1264.0, 0.024823270346412168
1265.0, 0.025465056334725115
1266.0, 0.03418502563958459
1267.0, 0.02879248441393309
1268.0, 0.03711351385646591
1269.0, 0.03292441540266504
1270.0, 0.03031579968886522
1271.0, 0.03505524429969025
1272.0, 0.038971171956141595
1273.0, 0.03927400870303166
1274.0, 0.03809087256310208
1275.0, 0.03601167278649123
1276.0, 0.03555907071352377
1277.0, 0.03596033846921317
1278.0, 0.0333358843913715
1279.0, 0.03541855063758595
1280.0, 0.02654217820580067
1281.0, 0.029361433021488578
1282.0, 0.0276473040258493
1283.0, 0.02637744068439404
1284.0, 0.021765140316839498
1285.0, 0.020626462453265573
1286.0, 0.0215473465207153
1287.0, 0.022089620794706166
1288.0, 0.022718448756306034
1289.0, 0.023547730981859662
1290.0, 0.02444703890040057
1291.0, 0.02533709545119409
1292.0, 0.026599575919438317
1293.0, 0.028748861953307676
1294.0, 0.030546407617548118
1295.0, 0.03246011164742367
1296.0, 0.029234217782063542
1297.0, 0.03681071007829685
1298.0, 0.03223181461412834
1299.0, 0.026154142837734363
1300.0, 0.026452598624457275
1301.0, 0.0239900174459385
1302.0, 0.02346329666298961
1303.0, 0.027291022872217723
1304.0, 0.029661636753435854
1305.0, 0.029291074225384805
1306.0, 0.030432744497304588
1307.0, 0.030279177072385522
1308.0, 0.026757230372577538
1309.0, 0.028982194499797505
1310.0, 0.030091751866581966
1311.0, 0.028673611288716275
1312.0, 0.02740173314861864
1313.0, 0.03329984878550238
1314.0, 0.034384430178916486
1315.0, 0.03448012362150006
1316.0, 0.03289089464323496
1317.0, 0.032801483580654926
1318.0, 0.03136411651404007
1319.0, 0.030300636298861594
1320.0, 0.029396954637437106
1321.0, 0.0278619324816755
1322.0, 0.028720193892693254
1323.0, 0.02950498741133163
1324.0, 0.02773781763956434
1325.0, 0.029565827638652377
1326.0, 0.025093523340059706
1327.0, 0.02089454273568126
1328.0, 0.02223032888182057
1329.0, 0.020828160187600978
1330.0, 0.01637856913357511
1331.0, 0.011802425008139954
1332.0, 0.010617075043149644
1333.0, 0.007257425192067203
1334.0, 0.004555769005814817
1335.0, 0.00319549746097739
1336.0, 0.0037907211998956533
1337.0, 0.005743672601305077
1338.0, 0.006063311230065657
1339.0, 0.004215239593913368
1340.0, 0.00247017959233556
1341.0, 0.002011376132126307
1342.0, 0.003182410251374052
1343.0, 0.004154484004400695
1344.0, 0.00564580886936643
1345.0, 0.005386696982642812
1346.0, 0.0047054230982984885
1347.0, 0.00517936610085148
1348.0, 0.0033216408261900754
1349.0, 0.003290698768402758
1350.0, 0.001254264637735634
1351.0, 0.002168976720259126
1352.0, 0.004619594676649808
1353.0, 0.002371093562044891
1354.0, 0.0014948060765670723
1355.0, 0.0036291997531682613
1356.0, 0.004846624593775259
1357.0, 0.003500196131386925
1358.0, 0.001744374724919711
1359.0, 0.004427102536190737
1360.0, 0.00581251229617856
1361.0, 0.0009446392410620385
1362.0, 0.0009594465910183166
1363.0, 0.0030639207883268976
1364.0, 0.004609535329297813
1365.0, 0.0030391399319152604
1366.0, 0.0037298291049565903
1367.0, 0.0028579954936311454
1368.0, 0.0048179235221584675
1369.0, 0.004089407454190257
1370.0, 0.0068721295930665414
1371.0, 0.006107383688887955
1372.0, 0.005618719663143568
1373.0, 0.007959436211127081
1374.0, 0.008552396565549696
1375.0, 0.007595152905038274
1376.0, 0.00888152622516969
1377.0, 0.011151063568203652
1378.0, 0.010315099483971144
1379.0, 0.010746260945094087
1380.0, 0.009813477773930188
1381.0, 0.009175336036005403
1382.0, 0.019441090765615964
1383.0, 0.013218748015752381
1384.0, 0.015134264633720694
1385.0, 0.012258776610331847
1386.0, 0.011512637384330214
1387.0, 0.01576627455993173
1388.0, 0.014188988855169678
1389.0, 0.013389489279761479
1390.0, 0.01567422468349855
1391.0, 0.013553349940452123
1392.0, 0.01577158768717311
1393.0, 0.018206687800699537
1394.0, 0.01430495636168866
1395.0, 0.013756099683046117
1396.0, 0.011884665403216666
1397.0, 0.01204259407536512
1398.0, 0.011606732114828187
1399.0, 0.010311937606760795
1400.0, 0.011619883999063885
1401.0, 0.008487043245022367
1402.0, 0.006549470585739547
1403.0, 0.008750351308556961
1404.0, 0.00582582170008631
1405.0, 0.004730460085096702
1406.0, 0.0030742671927934022
1407.0, 0.0043903878460390755
1408.0, 0.004047540099447778
1409.0, 0.004293043250897409
1410.0, 0.0032773521887408965
1411.0, 0.003251457423031988
1412.0, 0.007105614765888591
1413.0, 0.008115971294371532
1414.0, 0.005097745867714067
1415.0, 0.0035377354575493675
1416.0, 0.002583984665059549
1417.0, 0.007590156542976545
1418.0, 0.011236893498856346
1419.0, 0.006242066089268436
1420.0, 0.011629696539177746
1421.0, 0.011676587583246351
1422.0, 0.01147920165097844
1423.0, 0.01423158784125963
1424.0, 0.012333986882923307
1425.0, 0.018986007175381975
1426.0, 0.020295456225035795
1427.0, 0.017907118098568375
1428.0, 0.02350546032792394
1429.0, 0.0291341654823377
1430.0, 0.03272187157927606
1431.0, 0.03298910077303763
1432.0, 0.032009190837030625
1433.0, 0.03863458738337383
1434.0, 0.04696381652291848
1435.0, 0.051748417500849846
1436.0, 0.05900430115779687
1437.0, 0.06594623805087997
1438.0, 0.07324686131821304
1439.0, 0.07927230553939028
1440.0, 0.08310920114463655
1441.0, 0.09373188679914839
1442.0, 0.10223430486505619
1443.0, 0.10597129532425946
1444.0, 0.10749505127038213
1445.0, 0.11434609808410069
1446.0, 0.117006084652862
1447.0, 0.11654792676259822
1448.0, 0.11814503620435579
1449.0, 0.12457539614139623
1450.0, 0.12538232053391257
1451.0, 0.12193025771207638
1452.0, 0.12573616785307637
1453.0, 0.129211804837386
1454.0, 0.12554485369820653
1455.0, 0.1247126057821428
1456.0, 0.12504399791152437
1457.0, 0.12112303718111424
1458.0, 0.11965849646275628
1459.0, 0.11875484544308658
1460.0, 0.11167471665207465
1461.0, 0.10612291176570343
1462.0, 0.10312512218534424
1463.0, 0.09479591206047203
1464.0, 0.08491693439823568
1465.0, 0.08191650070170924
1466.0, 0.07811187115731537
1467.0, 0.07335128150846901
1468.0, 0.06345779554513045
1469.0, 0.06529695349987472
1470.0, 0.05485184549398374
1471.0, 0.056498483648672625
1472.0, 0.052090955686465136
1473.0, 0.041881165348949104
1474.0, 0.04498678213690781
1475.0, 0.04230000003597926
1476.0, 0.03998531960359985
1477.0, 0.04312979061919368
1478.0, 0.04439768903282304
1479.0, 0.04244626667050293
1480.0, 0.03900443951357145
1481.0, 0.03716904416852413
1482.0, 0.03709628415721991
1483.0, 0.035862612300474155
1484.0, 0.03236246531636889
1485.0, 0.029713852330706312
1486.0, 0.031095399414686874
1487.0, 0.024912473092656148
1488.0, 0.024583064081292398
1489.0, 0.023753856372258617
1490.0, 0.01945727916917312
1491.0, 0.01728887677299073
1492.0, 0.015603361086658173
1493.0, 0.014749343496624335
1494.0, 0.011342824340373103
1495.0, 0.011100051209733038
1496.0, 0.008290897068123929
1497.0, 0.009380557862788613
1498.0, 0.002972836456423095
1499.0, 0.01008087611924428
1500.0, 0.005197299712308439
1501.0, 0.007972327609644642
1502.0, 0.0031768211229872855
1503.0, 0.004503734634187925
1504.0, 0.004876447694120911
1505.0, 0.005750361744086589
1506.0, 0.003994281657230315
1507.0, 0.002561958664121043
1508.0, 0.003397707439301767
1509.0, 0.004671771880674457
1510.0, 0.006397537901700263
1511.0, 0.00704885324042083
1512.0, 0.008425128109247596
1513.0, 0.008232560958994162
1514.0, 0.007073486501855562
1515.0, 0.006659825776266837
1516.0, 0.006096108277322298
1517.0, 0.0037720253056305096
1518.0, 0.002339037803318433
1519.0, 0.01044351532036852
1520.0, 0.003294404021443836
1521.0, 0.0036408824452428077
1522.0, 0.008985893715156274
1523.0, 0.0037257254320117237
1524.0, 0.00692171043259711
1525.0, 0.00816968598604402
1526.0, 0.004307118918929471
1527.0, 0.009848146577326177
1528.0, 0.014265743391142697
1529.0, 0.0092425083959041
1530.0, 0.01759183293922255
1531.0, 0.015115364748567391
1532.0, 0.007928110823809897
1533.0, 0.00996041193109729
1534.0, 0.012963732717660955
1535.0, 0.011323205028524791
1536.0, 0.010106413455298736
1537.0, 0.012299448666012973
1538.0, 0.012636004415632847
1539.0, 0.012521928508911413
1540.0, 0.012672989457752469
1541.0, 0.01009375561626952
1542.0, 0.010744609566151482
1543.0, 0.012079548206401187
1544.0, 0.008764387099906753
1545.0, 0.008209292313350304
1546.0, 0.004981061618674204
1547.0, 0.005199637633392647
1548.0, 0.005955182700434658
1549.0, 0.009872805741943234
1550.0, 0.00877154714389405
1551.0, 0.0072490164347306825
1552.0, 0.011229519753493698
1553.0, 0.008901457435261162
1554.0, 0.015259317777197344
1555.0, 0.012359797686411501
1556.0, 0.003026151060427743
1557.0, 0.009968392028157417
1558.0, 0.007626133706141034
1559.0, 0.008348338699948263
1560.0, 0.0010821922794868296
1561.0, 0.013573433173881752
1562.0, 0.005397193902318195
1563.0, 0.0006455586313519972
1564.0, 0.006457886204795002
1565.0, 0.0020841238249989427
1566.0, 0.005392576376018084
1567.0, 0.004625835372845204
1568.0, 0.005984164558500657
1569.0, 0.0025247908436045524
1570.0, 0.0008471391656224346
1571.0, 0.0005342687125538665
1572, 0.0
1573, 0.0
1574, 0.0
1575, 0.0
1576, 0.0
1577, 0.0
1578, 0.0
1579, 0.0
1580, 0.0
1581, 0.0
1582, 0.0
1583, 0.0
1584, 0.0
1585, 0.0
1586, 0.0
1587, 0.0
1588, 0.0
1589, 0.0
1590, 0.0
1591, 0.0
1592, 0.0
1593, 0.0
1594, 0.0
1595, 0.0
1596, 0.0
1597, 0.0
1598, 0.0
1599, 0.0
