30, 0.0
31, 0.0
32, 0.0
33, 0.0
34, 0.0
35, 0.0
36, 0.0
37, 0.0
38, 0.0
39, 0.0
40, 0.0
41, 0.0
42, 0.0
43, 0.0
44, 0.0
45, 0.0
46, 0.0
47, 0.0
48, 0.0
49, 0.0
50, 0.0
51, 0.0
52, 0.0
53, 0.0
54, 0.0
55, 0.0
56, 0.0
57, 0.0
58, 0.0
59, 0.0
60, 0.0
61, 0.0
62, 0.0
63, 0.0
64, 0.0
65, 0.0
66, 0.0
67, 0.0
68, 0.0
69, 0.0
70, 0.0
71, 0.0
72, 0.0
73, 0.0
74, 0.0
75, 0.0
76, 0.0
77, 0.0
78, 0.0
79, 0.0
80, 0.0
81, 0.0
82, 0.0
83, 0.0
84, 0.0
85, 0.0
86, 0.0
87, 0.0
88, 0.0
89, 0.0
90, 0.0
91, 0.0
92, 0.0
93, 0.0
94, 0.0
95, 0.0
96, 0.0
97, 0.0
98, 0.0
99, 0.0
100, 0.0
101, 0.0
102, 0.0
103, 0.0
104, 0.0
105, 0.0
106, 0.0
107, 0.0
108, 0.0
109, 0.0
110.0, 0.002966725787106579
111.0, 0.006825326172794392
112.0, 0.004217241384372957
113.0, 0.0010961946635719847
114.0, 0.0014188620235034137
115.0, 0.002619541099383152
116.0, 0.003794168224998374
117.0, 0.004705245438991549
118.0, 0.003263692934735687
119.0, 0.0017514606977951418
120.0, 0.0008553950582128258
121.0, 0.000367576231828428
122.0, 0.00018772068616059324
123.0, 0.001143040758078819
124.0, 0.0005995542619516848
125.0, 0.0014575037544540487
126.0, 0.002608059286607828
127.0, 0.003681938855106996
128.0, 0.005589072213344121
129.0, 0.010236603865565082
130.0, 0.012573460398027942
131.0, 0.016131896948013365
132.0, 0.02163298246042042
133.0, 0.028328549195499136
134.0, 0.036524492421746886
135.0, 0.047171588357305165
136.0, 0.059455301695903066
137.0, 0.07321235793153029
138.0, 0.08877724431828232
139.0, 0.1075298826408802
140.0, 0.12715846316289633
141.0, 0.15003785455539626
142.0, 0.17398965561552085
143.0, 0.1961158767733072
144.0, 0.21348188050479971
145.0, 0.22652218757004894
146.0, 0.23831120288289262
147.0, 0.2511984286473228
148.0, 0.26672529209211093
149.0, 0.28478903955641244
150.0, 0.30009220684479565
151.0, 0.3136026166557435
152.0, 0.3213466214895629
153.0, 0.3185824648886598
154.0, 0.3026339663862204
155.0, 0.27427091130229214
156.0, 0.22801018424082045
157.0, 0.1848657164920777
158.0, 0.14500368303484543
159.0, 0.1104971294911942
160.0, 0.08472997981963964
161.0, 0.07364958939986921
162.0, 0.0675485128691642
163.0, 0.06719342650050034
164.0, 0.06862551719221903
165.0, 0.06958918022022882
166.0, 0.07458810032337555
167.0, 0.07815910155842737
168.0, 0.08188336029726226
169.0, 0.086865242250665
170.0, 0.09432407505242764
171.0, 0.10499520231987583
172.0, 0.1138269349060938
173.0, 0.12748662287456886
174.0, 0.13998569610522907
175.0, 0.1547350380653954
176.0, 0.17393722901698055
177.0, 0.18756081435156072
178.0, 0.2014300672547099
179.0, 0.21842250797991497
180.0, 0.233962194388904
181.0, 0.24637812388043723
182.0, 0.2577729017631987
183.0, 0.2700572233696098
184.0, 0.2821989687031574
185.0, 0.29070546490450627
186.0, 0.2958053627959594
187.0, 0.29813068697114564
188.0, 0.29442093847053213
189.0, 0.28694893190800336
190.0, 0.26975497432979884
191.0, 0.24941773064379566
192.0, 0.22978928215977193
193.0, 0.21006516678536613
194.0, 0.1908873344905194
195.0, 0.1739929413291198
196.0, 0.16119174779307666
197.0, 0.15210337396781445
198.0, 0.1464144669224488
199.0, 0.1473719854254073
200.0, 0.15247437145656134
201.0, 0.15669521168449208
202.0, 0.1593332118549245
203.0, 0.16183637491183717
204.0, 0.16671199415472407
205.0, 0.16565639277923228
206.0, 0.16976974287778823
207.0, 0.17375383022562546
208.0, 0.17978370693013743
209.0, 0.18904235595720756
210.0, 0.19283143192043037
211.0, 0.192899346347888
212.0, 0.18837147555311912
213.0, 0.17490261268309198
214.0, 0.15251168252581904
215.0, 0.1256754585971489
216.0, 0.10144903987322851
217.0, 0.08001774349479007
218.0, 0.06042888626379754
219.0, 0.044797169972640265
220.0, 0.03486784043187463
221.0, 0.02995859991033405
222.0, 0.020602820729368993
223.0, 0.015299476989451992
224.0, 0.011039414325347038
225.0, 0.007388759739595721
226.0, 0.005447044374385173
227.0, 0.00312188721989863
228.0, 0.0018030002317813841
229.0, 0.0010421150682476089
230.0, 0.0010731980918536998
231.0, 0.0021149695971323067
232.0, 0.004102340946010728
233.0, 0.002989367082483132
234.0, 0.0031173286558467458
235.0, 0.002968718323195024
236.0, 0.0018282299272122998
237.0, 0.0004790464501162109
238.0, 0.0035351549836660705
239.0, 0.0072195440370564825
240.0, 0.010349747635191258
241.0, 0.014247382637620551
242.0, 0.018946351158742988
243.0, 0.023464304401786075
244.0, 0.03198560870489432
245.0, 0.03838156571092969
246.0, 0.04210919549268718
247.0, 0.045520263094420525
248.0, 0.050098121214027215
249.0, 0.053999483288079436
250.0, 0.06235476680925193
251.0, 0.06827296339397262
252.0, 0.07587885573742507
253.0, 0.08286022822381264
254.0, 0.08492027636755592
255.0, 0.08508682373269634
256.0, 0.07981898206922994
257.0, 0.07489317107755408
258.0, 0.07157758765812625
259.0, 0.07068415582626493
260.0, 0.0725328257410508
261.0, 0.07233095336926999
262.0, 0.07569559129773193
263.0, 0.07861342722216019
264.0, 0.08166291732974561
265.0, 0.08623914434243457
266.0, 0.09275450104494978
267.0, 0.10071984027399548
268.0, 0.10614734498212168
269.0, 0.1124920400826413
270.0, 0.11906909520707484
271.0, 0.12300801539797966
272.0, 0.12168391880742278
273.0, 0.11666008369110481
274.0, 0.11161148255666847
275.0, 0.10380743074832773
276.0, 0.09411538087645997
277.0, 0.08699654647092485
278.0, 0.08668725081047875
279.0, 0.0895325413681907
280.0, 0.09686344520920816
281.0, 0.10716061189797346
282.0, 0.11964475745239359
283.0, 0.1353182144868886
284.0, 0.14796244143413778
285.0, 0.15860793934169679
286.0, 0.1698919743130908
287.0, 0.18199743130588963
288.0, 0.19498488962904875
289.0, 0.21081219870189707
290.0, 0.22309373006984087
291.0, 0.2373017665724621
292.0, 0.24372813607375624
293.0, 0.24182537779254318
294.0, 0.2341807312050475
295.0, 0.2120118219304706
296.0, 0.1831829671226661
297.0, 0.15413915715895674
298.0, 0.12779765064914544
299.0, 0.1048943929373685
300.0, 0.08452205584296718
301.0, 0.06691948909565011
302.0, 0.05257564296636001
303.0, 0.0417126934766565
304.0, 0.03339185373668316
305.0, 0.026864947867209246
306.0, 0.022034925465660833
307.0, 0.019308655836942176
308.0, 0.017311076495926187
309.0, 0.017259289481051744
310.0, 0.015541853489440885
311.0, 0.011830158701503708
312.0, 0.013162039514582599
313.0, 0.011542489308736532
314.0, 0.010662873439527182
315.0, 0.010926115504064686
316.0, 0.012640906601560684
317.0, 0.015407110771125833
318.0, 0.017410407477310492
319.0, 0.023347614788065463
320.0, 0.026420959348721858
321.0, 0.032678358205995364
322.0, 0.03939453012941988
323.0, 0.04206970099455926
324.0, 0.04607531727788958
325.0, 0.051289285394874706
326.0, 0.0551590743518426
327.0, 0.0603337773639217
328.0, 0.06731033677521403
329.0, 0.07460701092831695
330.0, 0.07984492761989641
331.0, 0.07791054905083417
332.0, 0.07346432037615915
333.0, 0.06505629844895451
334.0, 0.05485411760516564
335.0, 0.04689488556095798
336.0, 0.03720102539996979
337.0, 0.029602657226294998
338.0, 0.021418895202538535
339.0, 0.01550033481375375
340.0, 0.012072792887929392
341.0, 0.00863824638652603
342.0, 0.007003744603666399
343.0, 0.007057304968759941
344.0, 0.006948966581871701
345.0, 0.005698800921942464
346.0, 0.0038245722413685155
347.0, 0.00321036617853171
348.0, 0.005178786212064097
349.0, 0.004798043845625933
350.0, 0.004562445768935356
351.0, 0.0038767912247766284
352.0, 0.0028835989000692034
353.0, 0.0031685744572030688
354.0, 0.004521731625933393
355.0, 0.002623234620717699
356.0, 0.001321570543949533
357.0, 0.0008658608392032239
358.0, 0.000929097115803382
359.0, 0.001448086062907334
360.0, 0.0014287596414036484
361.0, 0.0005712925805626057
362.0, 0.0006350427446025477
363.0, 0.001101007329223429
364.0, 0.0013099939229935368
365.0, 0.0014376957994139505
366.0, 0.004385560073932682
367.0, 0.003217275379287381
368.0, 0.0028768827218810574
369.0, 0.0033074970929036526
370.0, 0.003316165445033723
371.0, 0.002284180802019052
372.0, 0.0034915595338579505
373.0, 0.0028530731902342444
374.0, 0.00270230255080367
375.0, 0.002625274964264232
376.0, 0.0024583431786479267
377.0, 0.003162396368185186
378.0, 0.004516216490218383
379.0, 0.0038103648160815774
380.0, 0.0027838532391993003
381.0, 0.00192134302675549
382.0, 0.0016593991151286278
383.0, 0.0023360432852835263
384.0, 0.0006366602752201278
385.0, 0.001569258377628327
386.0, 0.0039038257412920907
387.0, 0.005515926024893001
388.0, 0.005975468258084469
389.0, 0.007042723346879294
390.0, 0.010186672078587512
391.0, 0.014262213762017
392.0, 0.01873447104458909
393.0, 0.02150773465200455
394.0, 0.023037170048960588
395.0, 0.02595292178786076
396.0, 0.028044227295200043
397.0, 0.035660865492826425
398.0, 0.04173608975526532
399.0, 0.0468138524726121
400.0, 0.052094130543312356
401.0, 0.05715186116701739
402.0, 0.05555138267447441
403.0, 0.05549709128174661
404.0, 0.056104582565693964
405.0, 0.05820592078831022
406.0, 0.06207733385317309
407.0, 0.06802317217478034
408.0, 0.07887674861994491
409.0, 0.0882947547212832
410.0, 0.09633011369738573
411.0, 0.09899951611307994
412.0, 0.09728985576459388
413.0, 0.09537164641048647
414.0, 0.09658403851087655
415.0, 0.10213189688685026
416.0, 0.10912804457029358
417.0, 0.11232185779694456
418.0, 0.11177137401873316
419.0, 0.10774070462508203
420.0, 0.09501673287225605
421.0, 0.0764418093951756
422.0, 0.05853710385389354
423.0, 0.044522555012542375
424.0, 0.03376118635145068
425.0, 0.025045573958360098
426.0, 0.018863014234418923
427.0, 0.017262847502065526
428.0, 0.015290391052827193
429.0, 0.01325409376530804
430.0, 0.011461694022501447
431.0, 0.010848043321253756
432.0, 0.012359164825479056
433.0, 0.011510916783260832
434.0, 0.012897526215220983
435.0, 0.014511723233189394
436.0, 0.016016667834384987
437.0, 0.01776507880029784
438.0, 0.020195251919836232
439.0, 0.022464636160786686
440.0, 0.026216979805903276
441.0, 0.029246549563640582
442.0, 0.0328081588513532
443.0, 0.03821294567335651
444.0, 0.046183017914133116
445.0, 0.056448292526912504
446.0, 0.06641870882333825
447.0, 0.08291192385015085
448.0, 0.10084323758292627
449.0, 0.11962871774704384
450.0, 0.1384725803636258
451.0, 0.15272874752831542
452.0, 0.1626582065131957
453.0, 0.17747333982621752
454.0, 0.19146432258232107
455.0, 0.20612229106493404
456.0, 0.22294111900882957
457.0, 0.23935763585277217
458.0, 0.24097448831231308
459.0, 0.23507453283404708
460.0, 0.21966007246816874
461.0, 0.20126343563035237
462.0, 0.18396477891305713
463.0, 0.16859833232615964
464.0, 0.15621220115435197
465.0, 0.15388161056794217
466.0, 0.15774224260458347
467.0, 0.17304435163014123
468.0, 0.200153044332004
469.0, 0.23664604888623045
470.0, 0.28014495732434735
471.0, 0.32882062344106483
472.0, 0.38010124322092276
473.0, 0.42397781165937337
474.0, 0.4625555680729054
475.0, 0.5013731608413757
476.0, 0.5441177349080975
477.0, 0.5856093617237612
478.0, 0.6279806945722333
479.0, 0.6647474011357922
480.0, 0.6837767455986683
481.0, 0.6760909545177508
482.0, 0.6383465821335625
483.0, 0.5733801481750063
484.0, 0.4910923825832677
485.0, 0.4096242555361522
486.0, 0.334849796773061
487.0, 0.27416927438349287
488.0, 0.23146540968247795
489.0, 0.20357544983191198
490.0, 0.1814171296998604
491.0, 0.1749763087045634
492.0, 0.17280516432593487
493.0, 0.17758069656632652
494.0, 0.1925636095242689
495.0, 0.2173722365472503
496.0, 0.24563378018969126
497.0, 0.2928215554283892
498.0, 0.3563298062195572
499.0, 0.43153256750997315
500.0, 0.5082279477923475
501.0, 0.5803844339156978
502.0, 0.6528788844539228
503.0, 0.7190125843518174
504.0, 0.7716293839819703
505.0, 0.835136263965524
506.0, 0.8973137510544744
507.0, 0.9494233113318588
508.0, 0.9900282569490328
509.0, 0.9996256997314845
510.0, 0.9635012536637885
511.0, 0.8824590346856156
512.0, 0.7727086144931166
513.0, 0.6512538228696124
514.0, 0.5326564075703281
515.0, 0.4275188928848754
516.0, 0.3466486718583443
517.0, 0.28250130145224245
518.0, 0.23222774932397097
519.0, 0.1934801778680069
520.0, 0.16473803305734702
521.0, 0.14370088289512634
522.0, 0.12232066005496536
523.0, 0.10891977472988262
524.0, 0.0971538298440708
525.0, 0.08642772654371261
526.0, 0.07731141183415381
527.0, 0.06996497278179219
528.0, 0.06341097613480005
529.0, 0.05853394570676338
530.0, 0.05425004794655865
531.0, 0.05164045761795873
532.0, 0.048678672700689325
533.0, 0.04519901165679082
534.0, 0.042346556839740535
535.0, 0.03981760497436989
536.0, 0.036360922329387535
537.0, 0.033734105578174
538.0, 0.03081482016025358
539.0, 0.027776773691241687
540.0, 0.02587168412447778
541.0, 0.026233605477182047
542.0, 0.025920567880142124
543.0, 0.02355399889504156
544.0, 0.023101258254035854
545.0, 0.02281380947390269
546.0, 0.021926176034222616
547.0, 0.02033888700540077
548.0, 0.01794219252489799
549.0, 0.01880481141114186
550.0, 0.01939795144270751
551.0, 0.017836091089741803
552.0, 0.01699446508398589
553.0, 0.017356354309560784
554.0, 0.017129642139664124
555.0, 0.016115751833119175
556.0, 0.019641050402625707
557.0, 0.01887456389942559
558.0, 0.018344606963896542
559.0, 0.01612516526595325
560.0, 0.01365588592319086
561.0, 0.016060744329277853
562.0, 0.015962802591610144
563.0, 0.014418659758994753
564.0, 0.015604457288756136
565.0, 0.016545598859459696
566.0, 0.016909976030353373
567.0, 0.017637625383335985
568.0, 0.018978812210078418
569.0, 0.020018463866005216
570.0, 0.024555549774514653
571.0, 0.03429971379236055
572.0, 0.03898617024016672
573.0, 0.03838567205375207
574.0, 0.03734552332641793
575.0, 0.034858289694741265
576.0, 0.03727777119041544
577.0, 0.03919135400329702
578.0, 0.040721530494040266
579.0, 0.04089008003602252
580.0, 0.04008457252475095
581.0, 0.03917688968890796
582.0, 0.036714716884311126
583.0, 0.033560692722290425
584.0, 0.03013272326169775
585.0, 0.02561647055517454
586.0, 0.02121091315305369
587.0, 0.018027767990341597
588.0, 0.015991479374203373
589.0, 0.013550565743530588
590.0, 0.011442747267004045
591.0, 0.009475798367636012
592.0, 0.0078011843081725474
593.0, 0.006130384509091981
594.0, 0.004735516225735173
595.0, 0.004331121281454374
596.0, 0.003748404608104183
597.0, 0.0034443661813961407
598.0, 0.0014506254164301231
599.0, 0.001827191816060169
600.0, 0.001868074803678785
601.0, 0.0009664588071036893
602.0, 0.003427376197428467
603.0, 0.0010840668479707596
604.0, 0.0023857771901939296
605.0, 0.0025665033947077994
606.0, 0.0019028642205684652
607.0, 0.0011897817360847912
608.0, 0.0015411695816431354
609.0, 0.003604307235559161
610.0, 0.002917438467051106
611.0, 0.003475512200368023
612.0, 0.002656909679574341
613.0, 0.00309626480137806
614.0, 0.0036836815729494104
615.0, 0.0032959954917058114
616.0, 0.003870751581853874
617.0, 0.004245776704203549
618.0, 0.0029186846189141556
619.0, 0.003791922475565827
620.0, 0.00407564838915435
621.0, 0.003426809700157432
622.0, 0.003150393017607569
623.0, 0.004046189053496792
624.0, 0.005019600652799145
625.0, 0.006947728624308639
626.0, 0.007498070421227056
627.0, 0.008170625848961657
628.0, 0.00790755710570899
629.0, 0.007617014764512358
630.0, 0.011313776899006573
631.0, 0.008224795169938666
632.0, 0.009752336236721027
633.0, 0.010927476438715352
634.0, 0.01155914310367045
635.0, 0.01349250259740917
636.0, 0.01562950080074545
637.0, 0.014156894941060719
638.0, 0.020279077853914137
639.0, 0.016392059908621314
640.0, 0.014457375074893735
641.0, 0.01561950038230941
642.0, 0.018221389006718058
643.0, 0.019670269003332113
644.0, 0.018754002662627948
645.0, 0.02002340387164749
646.0, 0.021293322150747734
647.0, 0.021007385830887532
648.0, 0.02089722902030404
649.0, 0.02006668172375384
650.0, 0.01851400337733206
651.0, 0.01756767823516548
652.0, 0.014858403094192552
653.0, 0.010585559631353065
654.0, 0.011434106643045496
655.0, 0.009793905030040061
656.0, 0.006838676302569376
657.0, 0.004962410566392041
658.0, 0.004522080954513544
659.0, 0.0053843217553136875
660.0, 0.004793927628708851
661.0, 0.0028940591201179955
662.0, 0.0019979742966863253
663.0, 0.0012473025113350473
664.0, 0.0015757713333915103
665.0, 0.003948149252057696
666.0, 0.004778979720513962
667.0, 0.0007303188485396344
668.0, 0.0012130248481649081
669.0, 0.000846202971064256
670.0, 0.0021718738677704128
671.0, 0.0026833143854432103
672.0, 0.0006754820024564455
673.0, 0.001482296569063635
674.0, 0.0008825663695341676
675.0, 0.0038076887401326557
676.0, 0.0021886995643543876
677.0, 0.0010871673644326702
678.0, 0.0008816743106864183
679.0, 0.0004072908181277547
680.0, 0.00020793495922493354
681.0, 0.0003235011746675248
682.0, 0.0008275553079552782
683.0, 0.0003565585098133392
684.0, 0.00014886058820595598
685.0, 0.000853385057135904
686.0, 0.001977093926469127
687.0, 0.0024548366212054145
688.0, 0.0020739447488236007
689.0, 0.001788196386038037
690.0, 0.0012793498825818001
691.0, 0.0016828922658522966
692.0, 0.0017284641543749957
693.0, 0.0016344217206397129
694.0, 0.0017352349700807505
695.0, 0.0006031387322765979
696.0, 0.00024063449173485454
697.0, 0.0013322562316262741
698.0, 0.0017990512771975822
699.0, 0.0016361856482506238
700.0, 0.0008705497558484579
701.0, 0.00017998930779693483
702.0, 0.0005030776200989946
703.0, 0.0006980361125751662
704.0, 0.0005310957472257775
705.0, 0.0006714361894242444
706.0, 0.000723326047653341
707.0, 0.0010094952669132847
708.0, 0.001476532539638235
709.0, 0.0016153589595389124
710.0, 0.0012544661858213313
711.0, 0.003288738551024525
712.0, 0.0008947510792039593
713.0, 0.00295946576714963
714.0, 0.0031816614137537094
715.0, 0.001952424327111374
716.0, 0.0023883339815248075
717.0, 0.004412936844398407
718.0, 0.004594251051310158
719.0, 0.003172431718705487
720.0, 0.0052138624993300076
721.0, 0.0061520559265005005
722.0, 0.0069202559711752125
723.0, 0.007645718129348983
724.0, 0.0075698103593439215
725.0, 0.00786243724634895
726.0, 0.007172580599742861
727.0, 0.007224163317108899
728.0, 0.0074824530620283
729.0, 0.007848398590511549
730.0, 0.007416582250539034
731.0, 0.007466168791394075
732.0, 0.009924334737979336
733.0, 0.00925124712301738
734.0, 0.010523769483380293
735.0, 0.009349386514335832
736.0, 0.010605590481216539
737.0, 0.011882649840522215
738.0, 0.011952129268644153
739.0, 0.012148226634318814
740.0, 0.014055737668751147
741.0, 0.015570183653654009
742.0, 0.01710115209470641
743.0, 0.01819031784276735
744.0, 0.021653758644196837
745.0, 0.025066671186973512
746.0, 0.02743302382333839
747.0, 0.029879436743515696
748.0, 0.0316068796397219
749.0, 0.038226137514347065
750.0, 0.045917492069977126
751.0, 0.05284281600000828
752.0, 0.0651428825484639
753.0, 0.0800320463537096
754.0, 0.09668865372316827
755.0, 0.12016421993146967
756.0, 0.14780783277107487
757.0, 0.17455646175040837
758.0, 0.20573530351249084
759.0, 0.23300023138693948
760.0, 0.2589071431467193
761.0, 0.2831681304482087
762.0, 0.3036839370106021
763.0, 0.3209074523430897
764.0, 0.3373786216921094
765.0, 0.3348954375416042
766.0, 0.3160106547898713
767.0, 0.2873887432611683
768.0, 0.2500740514791055
769.0, 0.20866750127928269
770.0, 0.17000639495909595
771.0, 0.13731240390229343
772.0, 0.10928691262273581
773.0, 0.08806912903553982
774.0, 0.07466286845939465
775.0, 0.06519018026785782
776.0, 0.058631594159118804
777.0, 0.052868363278819955
778.0, 0.046601610170090714
779.0, 0.04271354086867524
780.0, 0.038036868738945455
781.0, 0.03536725937685975
782.0, 0.032405393764525614
783.0, 0.029945073496567484
784.0, 0.027877983834914816
785.0, 0.026366105977508773
786.0, 0.025637999587859703
787.0, 0.024882733968323828
788.0, 0.024111287349361257
789.0, 0.02294389796792942
790.0, 0.023161696777762614
791.0, 0.02278287095790314
792.0, 0.023926371755495727
793.0, 0.024985456009530272
794.0, 0.023830149449247717
795.0, 0.026435291614304923
796.0, 0.024455675127662495
797.0, 0.027971056105091457
798.0, 0.03143942538127935
799.0, 0.03430354445094912
800.0, 0.037993322129216585
801.0, 0.04231671307215268
802.0, 0.04634947603401099
803.0, 0.0518694376350808
804.0, 0.05999505895007812
805.0, 0.07734896756796254
806.0, 0.09138466775665577
807.0, 0.11124442699570034
808.0, 0.13527357782987398
809.0, 0.16028167166602422
810.0, 0.18636139887415304
811.0, 0.2141504552599039
812.0, 0.23934784827074468
813.0, 0.2572276510259914
814.0, 0.2778813034418784
815.0, 0.2917129934064889
816.0, 0.2958201419846337
817.0, 0.28826458007625955
818.0, 0.2693846832411978
819.0, 0.24362327039858434
820.0, 0.20643966235606823
821.0, 0.16960939715821305
822.0, 0.1344436765815701
823.0, 0.1066307664087987
824.0, 0.08401593340462428
825.0, 0.06696539916077636
826.0, 0.056531432559873945
827.0, 0.04986835276887214
828.0, 0.043192649065492514
829.0, 0.033376340071290075
830.0, 0.027529477568795917
831.0, 0.02667277413281359
832.0, 0.023854951634270136
833.0, 0.022001266268695703
834.0, 0.021854422194981384
835.0, 0.017760063016932323
836.0, 0.01481134166286892
837.0, 0.014958531878644018
838.0, 0.017422051358090603
839.0, 0.01482501484506616
840.0, 0.014144724325091762
841.0, 0.01214266160336505
842.0, 0.008259037955734409
843.0, 0.007061499712552156
844.0, 0.007776934380752959
845.0, 0.006125322939244456
846.0, 0.00591706973057195
847.0, 0.008079443578092867
848.0, 0.006604326420614671
849.0, 0.004103802504745576
850.0, 0.003485433660914662
851.0, 0.004482371881610036
852.0, 0.005208367191319623
853.0, 0.005711203884313064
854.0, 0.004039892565596303
855.0, 0.003679351233125367
856.0, 0.001924452016555232
857.0, 0.0019072129140757592
858.0, 0.0018504964147898326
859.0, 0.0006180589987083904
860.0, 0.0002021904040341018
861.0, 0.00043376686741793076
862.0, 0.0012634807946350715
863.0, 0.0018586691397146802
864.0, 0.003247972668902108
865.0, 0.001813522436700972
866.0, 0.0019994387693310516
867.0, 0.0029569273663776555
868.0, 0.001512255370408257
869.0, 0.00038316431646116247
870.0, 0.002121731473253319
871.0, 0.0018012769739013561
872.0, 0.0009817642319936923
873.0, 0.0011837610737220642
874.0, 0.001231801437559685
875.0, 0.000811608452276374
876.0, 0.0010342983120426898
877.0, 0.0024167200025626756
878.0, 0.002722047297488432
879.0, 0.0013758007491130615
880.0, 0.001062322567592518
881.0, 0.000436131091375609
882.0, 0.0005602463861085036
883.0, 0.00043256662776230536
884.0, 0.00114879605011534
885.0, 0.002550532578481911
886.0, 0.0019335297924777959
887.0, 0.0006985437416107304
888.0, 0.002056572616221896
889.0, 0.0005830564933335981
890.0, 0.00017378079584529885
891.0, 0.0013768271864982831
892.0, 0.0011758012782773699
893.0, 0.001253939506413684
894.0, 0.002825202522127744
895.0, 0.001449369360758564
896.0, 0.002007416004941801
897.0, 0.001061567578251692
898.0, 0.0019844936559613668
899.0, 0.0010912139498230429
900.0, 0.0011121783668889694
901.0, 0.000828548844611411
902.0, 0.00034631287704916614
903.0, 0.0008501408301840311
904.0, 0.0004454778395088415
905.0, 0.0009942571820150351
906.0, 0.00024281915000527363
907.0, 0.0012078488179784609
908.0, 0.001879121277970998
909.0, 0.002416428605648802
910.0, 0.003113650985903739
911.0, 0.003958416911306162
912.0, 0.004754576886306285
913.0, 0.0053664507860124
914.0, 0.006091844400646081
915.0, 0.00559126544076615
916.0, 0.00423438600785409
917.0, 0.003943673430872581
918.0, 0.002079711352928607
919.0, 0.0004970217032568664
920.0, 0.0013440615053217759
921.0, 0.0028565154514961703
922.0, 0.0018600265570509365
923.0, 0.002207092189916982
924.0, 0.0016167235883655544
925.0, 0.0019664649017484197
926.0, 0.0012293232147871642
927.0, 0.0003624787634097081
928.0, 0.0016067968096141988
929.0, 0.0035400603677574125
930.0, 0.0028910656492881857
931.0, 0.0011495300352894755
932.0, 0.0018132304390462346
933.0, 0.0019461009964190459
934.0, 0.0010907300643748109
935.0, 0.0027761520999681328
936.0, 0.0037949770566799465
937.0, 0.0035625802491648477
938.0, 0.00331521475387092
939.0, 0.0036147975044564756
940.0, 0.00410807953176737
941.0, 0.0055822007057408415
942.0, 0.0044356796481563165
943.0, 0.006393663573388704
944.0, 0.006525910280402753
945.0, 0.008466833809601438
946.0, 0.010987018023812248
947.0, 0.011957880822038941
948.0, 0.01279359210974263
949.0, 0.015801542700059134
950.0, 0.015300662092370975
951.0, 0.014546653147011378
952.0, 0.014510266880359191
953.0, 0.01444203924042225
954.0, 0.013244902316597917
955.0, 0.014018976917794664
956.0, 0.016077561056375412
957.0, 0.01757986827965985
958.0, 0.018757496430218863
959.0, 0.017759467718115405
960.0, 0.013938464512962006
961.0, 0.014669684834068044
962.0, 0.015033978395258574
963.0, 0.015346653064756162
964.0, 0.015944497321489993
965.0, 0.016502457739461227
966.0, 0.017237292398829495
967.0, 0.018565456721530076
968.0, 0.01989046570161837
969.0, 0.02164786562886003
970.0, 0.024095419840184807
971.0, 0.03057179483075275
972.0, 0.031076905383554777
973.0, 0.03231414900833918
974.0, 0.03521861801895419
975.0, 0.04125233109675068
976.0, 0.048789404584837805
977.0, 0.052241625665736376
978.0, 0.05507468753753159
979.0, 0.05468929106941435
980.0, 0.05055247367598216
981.0, 0.0512841551709038
982.0, 0.04508988219507759
983.0, 0.042377887528680276
984.0, 0.03969599843552317
985.0, 0.033978045043447605
986.0, 0.028587614916281968
987.0, 0.023635394284930843
988.0, 0.025500202622089616
989.0, 0.018506823824412738
990.0, 0.02197038614037843
991.0, 0.02232894335554439
992.0, 0.019615810938399144
993.0, 0.022000651758212347
994.0, 0.023810212561370815
995.0, 0.021884509835668413
996.0, 0.021580352265960303
997.0, 0.01929623522718619
998.0, 0.024793972829227462
999.0, 0.024968047878378922
1000.0, 0.027185257899843024
1001.0, 0.03222389765678513
1002.0, 0.03540567224982582
1003.0, 0.037168959332728735
1004.0, 0.0394377785663947
1005.0, 0.04151084068069013
1006.0, 0.04273861842490545
1007.0, 0.046679163535751
1008.0, 0.042779652748476414
1009.0, 0.04369274319738423
1010.0, 0.04342260263278183
1011.0, 0.04073791949580177
1012.0, 0.0396564883322157
1013.0, 0.0378165695773381
1014.0, 0.035764280746316095
1015.0, 0.03656780943675728
1016.0, 0.038486198877961376
1017.0, 0.0355508461401847
1018.0, 0.03244229928879589
1019.0, 0.03014818810212541
1020.0, 0.02678888860110724
1021.0, 0.023637209747730113
1022.0, 0.021193518478522234
1023.0, 0.019304297950873794
1024.0, 0.017475309421176012
1025.0, 0.016417279675769295
1026.0, 0.01723321903528122
1027.0, 0.018285540119018354
1028.0, 0.020028720541361057
1029.0, 0.0163895260974671
1030.0, 0.019609312166569217
1031.0, 0.016576243139378166
1032.0, 0.01595447825446287
1033.0, 0.01601842156100075
1034.0, 0.016170823311694255
1035.0, 0.01680390948290955
1036.0, 0.016946456338140365
1037.0, 0.018664458981807606
1038.0, 0.016295631422151523
1039.0, 0.015218642192268825
1040.0, 0.016966907958736593
1041.0, 0.019781710712351335
1042.0, 0.019444347876963194
1043.0, 0.020305876246792393
1044.0, 0.02158359413516116
1045.0, 0.022267185373932144
1046.0, 0.022322392447157953
1047.0, 0.019823266408282376
1048.0, 0.02443410519519748
1049.0, 0.01884970690624955
1050.0, 0.01716038578983852
1051.0, 0.021985129370089878
1052.0, 0.01918243606557547
1053.0, 0.01664978048850331
1054.0, 0.0159951543709641
1055.0, 0.013483216418729306
1056.0, 0.009080105587158974
1057.0, 0.007975529355109052
1058.0, 0.013079164158096753
1059.0, 0.015967594073373285
1060.0, 0.009505695024459887
1061.0, 0.008283082349419359
1062.0, 0.008812230552755797
1063.0, 0.008237744487137488
1064.0, 0.00855502889053903
1065.0, 0.009208502341172216
1066.0, 0.008642652017677445
1067.0, 0.008277856045626624
1068.0, 0.00980972072731564
1069.0, 0.008382871731878296
1070.0, 0.00888887042732876
1071.0, 0.00886992852615821
1072.0, 0.0073979292645727
1073.0, 0.007654134678905043
1074.0, 0.008930414725054599
1075.0, 0.009500478470758104
1076.0, 0.01048954372598426
1077.0, 0.011827484536522952
1078.0, 0.011511167140516892
1079.0, 0.012285163864902
1080.0, 0.017865416799702036
1081.0, 0.0197732273803916
1082.0, 0.016959381581250956
1083.0, 0.018676319590642247
1084.0, 0.0229588009674744
1085.0, 0.023837025774396833
1086.0, 0.02627956592614723
1087.0, 0.031126800298590027
1088.0, 0.034104694470810035
1089.0, 0.037983341455016376
1090.0, 0.04965527694865851
1091.0, 0.055019963066321925
1092.0, 0.06041960333845474
1093.0, 0.07176197981514146
1094.0, 0.08115989572837981
1095.0, 0.09096312047251134
1096.0, 0.09885413287038126
1097.0, 0.10666378893428285
1098.0, 0.11353803045027314
1099.0, 0.1167029032250799
1100.0, 0.11559504945938943
1101.0, 0.11058010437342698
1102.0, 0.10913920294204094
1103.0, 0.0974355561217594
1104.0, 0.08862240384704362
1105.0, 0.081345748346243
1106.0, 0.06877691029927639
1107.0, 0.058508989024706075
1108.0, 0.05347808299991079
1109.0, 0.047088770784733405
1110.0, 0.039573548915635456
1111.0, 0.036133566046237665
1112.0, 0.02979887336546138
1113.0, 0.026965999135667676
1114.0, 0.02907478095478103
1115.0, 0.027388244452210986
1116.0, 0.023441437386646755
1117.0, 0.019845707698301396
1118.0, 0.021487066061852564
1119.0, 0.024156242996903676
1120.0, 0.022452838540280573
1121.0, 0.020067102575318664
1122.0, 0.019633722059024167
1123.0, 0.015243568514281287
1124.0, 0.014545469273540033
1125.0, 0.016428930280820788
1126.0, 0.01710467859374873
1127.0, 0.014027754442749745
1128.0, 0.011008540077589318
1129.0, 0.010028598878960996
1130.0, 0.009041717783188834
1131.0, 0.007856611279485337
1132.0, 0.007021922565669474
1133.0, 0.006050733104837295
1134.0, 0.005020215725321292
1135.0, 0.005503080445296528
1136.0, 0.005609870622909648
1137.0, 0.006035056316679878
1138.0, 0.0050123143005878145
1139.0, 0.005492183045371566
1140.0, 0.00403064077359299
1141.0, 0.005029808310396971
1142.0, 0.0050438862534364455
1143.0, 0.004083035329463628
1144.0, 0.005264702359868959
1145.0, 0.007259672391399966
1146.0, 0.006895883244609185
1147.0, 0.008846205472944879
1148.0, 0.013151291047114554
1149.0, 0.011094150445111748
1150.0, 0.012788254130337292
1151.0, 0.013733054187925428
1152.0, 0.016444232206532967
1153.0, 0.016399103337200984
1154.0, 0.015510690614944722
1155.0, 0.01615942751522796
1156.0, 0.015963796016543897
1157.0, 0.011858075809900111
1158.0, 0.007599589772231299
1159.0, 0.00965757157069293
1160.0, 0.006609507208766273
1161.0, 0.0025577149279177556
1162.0, 0.00488988206471073
1163.0, 0.0028329655672309907
1164.0, 0.005582186289836581
1165.0, 0.005455459101896296
1166.0, 0.0038570288422765686
1167.0, 0.0017218884520469211
1168.0, 0.0004808893218736337
1169.0, 0.0020138037760540867
1170.0, 0.0037516622991147714
1171.0, 0.0019646311113583866
1172.0, 0.0023853425587032945
1173.0, 0.001364530923684486
1174.0, 0.001201319385608432
1175.0, 0.0014434535368407087
1176.0, 0.0016151917201901339
1177.0, 0.0022567921520832354
1178.0, 0.002997182002222656
1179.0, 0.0016705850207892883
1180.0, 0.0016060394464777485
1181.0, 0.0025461211412755587
1182.0, 0.000826483347562939
1183.0, 0.0009738058254711802
1184.0, 0.0036643109864119457
1185.0, 0.0015453894602408041
1186.0, 0.0034460374542764536
1187.0, 0.001978407424712785
1188.0, 0.0014443744863821214
1189.0, 0.0018424109631853824
1190.0, 0.003182307217757622
1191.0, 0.0020908017064914268
1192.0, 0.0025300755712050664
1193.0, 0.0037084301207718686
1194.0, 0.0022832303444686895
1195.0, 0.0011168795773507554
1196.0, 0.0017580618456137706
1197.0, 0.003548231924577495
1198.0, 0.00043027093292920303
1199.0, 0.002740611964924891
1200.0, 0.0013221679273484606
1201.0, 0.0027386433948523607
1202.0, 0.0012528293982855727
1203.0, 0.0010929642940464403
1204.0, 0.0008615185401618585
1205.0, 0.0011174447919016133
1206.0, 0.00238302575390405
1207.0, 0.0022035244371454515
1208.0, 0.0012768684397110013
1209.0, 0.003945886768238324
1210.0, 0.003293078324296746
1211.0, 0.0024232454929395465
1212.0, 0.0063832053232043984
1213.0, 0.0027692845507315406
1214.0, 0.001754675424427886
1215.0, 0.0005988674129007549
1216.0, 0.0024155606563810213
1217.0, 0.0021929730783381064
1218.0, 0.0008417318972232118
1219.0, 0.0011708029662209677
1220.0, 0.00190307429928698
1221.0, 0.00137278696832566
1222.0, 0.0011316720039690551
1223.0, 0.002417741784109951
1224.0, 0.0003609252985831252
1225.0, 0.000516387839779114
1226.0, 0.0023442371000887805
1227.0, 0.000720505069462954
1228.0, 0.0012391366029250884
1229.0, 0.0016588833065469411
1230.0, 0.0008986182637287291
1231.0, 0.0014975309360336759
1232.0, 0.0028475140983284393
1233.0, 0.0024441263078241672
1234.0, 0.0015264497453764357
1235.0, 0.0020777015673446087
1236.0, 0.0013081380837581522
1237.0, 0.0017698196887194191
1238.0, 0.0020654371906805
1239.0, 0.0009114179765126693
1240.0, 0.0014403191572463655
1241.0, 0.0029014393973164497
1242.0, 0.0024255303169998443
1243.0, 0.0025938598952946895
1244.0, 0.001914246714228996
1245.0, 0.0017573132168597243
1246.0, 0.0013093430208768672
1247.0, 0.0005884138275406011
1248.0, 0.0020475062053246992
1249.0, 0.0033146465624845933
1250.0, 0.0010363354162377372
1251.0, 0.004270330027604614
1252.0, 0.005593152668499696
1253.0, 0.001896327174694786
1254.0, 0.0010301293525379384
1255.0, 0.003513334529709551
1256.0, 0.005106719262955077
1257.0, 0.005365091650745339
1258.0, 0.0055313987503162266
1259.0, 0.0054770972180416344
1260.0, 0.004121082205228159
1261.0, 0.0036805165298455307
1262.0, 0.005260826428937889
1263.0, 0.004477355925643287
1264.0, 0.0011557266377568778
1265.0, 0.002071255552308791
1266.0, 0.0021061652392663577
1267.0, 0.002420282119726957
1268.0, 0.002071551705844264
1269.0, 0.0013915338258250383
1270.0, 0.0053521527198218885
1271.0, 0.0027614375645649714
1272.0, 0.0013739816498729831
1273.0, 0.0044300442554926125
1274.0, 0.006851369950579621
1275.0, 0.007883849209073125
1276.0, 0.007084926901201882
1277.0, 0.005324452168911252
1278.0, 0.006811838909727069
1279.0, 0.003423231724738544
1280.0, 0.003529824436713828
1281.0, 0.0013232153683064671
1282.0, 0.00347026384146722
1283.0, 0.003703495864520627
1284.0, 0.0047255236126446535
1285.0, 0.004147919507019332
1286.0, 0.006701759680838848
1287.0, 0.0051491684006862515
1288.0, 0.003602660345818476
1289.0, 0.0039753994411070885
1290.0, 0.0028471756443204333
1291.0, 0.002584731538378098
1292.0, 0.005101685714366693
1293.0, 0.004541342267268666
1294.0, 0.004111752458425032
1295.0, 0.006908832156008606
1296.0, 0.004176056542443872
1297.0, 0.0014054618362113968
1298.0, 0.004283621408738156
1299.0, 0.005814389907269927
1300.0, 0.0038693892206372155
1301.0, 0.005163315149855031
1302.0, 0.0037227991376773666
1303.0, 0.0019674463714393366
1304.0, 0.0017196336691674959
1305.0, 0.004271226224392565
1306.0, 0.006378489368969636
1307.0, 0.005703211283652109
1308.0, 0.006183244357845751
1309.0, 0.007092776050871595
1310.0, 0.004541904152659397
1311.0, 0.003005447404251074
1312.0, 0.0053576053047824455
1313.0, 0.004866830920752913
1314.0, 0.0027566707136995896
1315.0, 0.006375015539077876
1316.0, 0.006238481649767541
1317.0, 0.007474589121727253
1318.0, 0.007303515552262091
1319.0, 0.0064094208381492235
1320.0, 0.006009421533755088
1321.0, 0.005163918731242201
1322.0, 0.005281109799001284
1323.0, 0.0056909967436573035
1324.0, 0.0036567624505551843
1325.0, 0.0027663684294954513
1326.0, 0.004079215351691352
1327.0, 0.007704276907495138
1328.0, 0.003855800344079695
1329.0, 0.0007295281895470763
1330.0, 0.003885058049314307
1331.0, 0.0032726647289598016
1332.0, 0.005844439189596153
1333.0, 0.0038942693596905583
1334.0, 0.0031173968738709926
1335.0, 0.003276514007245059
1336.0, 0.005385955112945604
1337.0, 0.005879443222868953
1338.0, 0.004939715385208992
1339.0, 0.004738942472788838
1340.0, 0.003845159969663597
1341.0, 0.0032200540436336075
1342.0, 0.004853160091882889
1343.0, 0.004768504592146651
1344.0, 0.006324063363455459
1345.0, 0.005832885490252633
1346.0, 0.003639320651302722
1347.0, 0.0018039943262962506
1348.0, 0.004675992850598491
1349.0, 0.001588769829843953
1350.0, 0.0011644449426147377
1351.0, 0.00044622323705464185
1352.0, 0.0028103630969618693
1353.0, 0.005143685429017178
1354.0, 0.006580352332670814
1355.0, 0.004886017346473224
1356.0, 0.001637943394727544
1357.0, 0.0018945989687314182
1358.0, 0.005278396518541311
1359.0, 0.006552000469430528
1360.0, 0.0012865219716109704
1361.0, 0.001904841811088407
1362.0, 0.005527798766622484
1363.0, 0.0019052975041297896
1364.0, 0.005106413978765101
1365.0, 0.005625689161704188
1366.0, 0.0053762653765612066
1367.0, 0.005215677282684682
1368.0, 0.001742082296353945
1369.0, 0.002867544488859293
1370.0, 0.0029779609671703
1371.0, 0.001087125991986413
1372.0, 0.004413474625025072
1373.0, 0.0052808542993104685
1374.0, 0.004644834095584905
1375.0, 0.007077382995317165
1376.0, 0.005384173837809859
1377.0, 0.003344692085216253
1378.0, 0.0023670241962729073
1379.0, 0.004100282955955922
1380.0, 0.0012279146304766892
1381.0, 0.0006852862150939828
1382.0, 0.007560014911975811
1383.0, 0.0030038828860603824
1384.0, 0.0025084474938264992
1385.0, 0.001669517846885483
1386.0, 0.0014935035954099958
1387.0, 0.0035797285692924755
1388.0, 0.0022480961084886553
1389.0, 0.0026183379831494725
1390.0, 0.0017376964354579747
1391.0, 0.0013689238867300453
1392.0, 0.00186645069774502
1393.0, 0.0017263426845005555
1394.0, 0.002566235389669058
1395.0, 0.003630373351188245
1396.0, 0.003655010018391785
1397.0, 0.003866319357079513
1398.0, 0.0005639454278177354
1399.0, 0.0020395142447356095
1400.0, 0.007041979568297666
1401.0, 0.0022558429681308863
1402.0, 0.004531148904050373
1403.0, 0.0021387957860820516
1404.0, 0.005674010896913209
1405.0, 0.002072007816269412
1406.0, 0.0026925555352865908
1407.0, 0.0017960536443375644
1408.0, 0.0011408126872558765
1409.0, 0.0022280367555527507
1410.0, 0.002608233736051308
1411.0, 0.004630561503516337
1412.0, 0.005048681226472163
1413.0, 0.003265549229818648
1414.0, 0.0032802682662382955
1415.0, 0.0028954220843136363
1416.0, 0.0016583336543308956
1417.0, 0.0020894048157848377
1418.0, 0.00307054292258247
1419.0, 0.004466422174019063
1420.0, 0.0025626794340560108
1421.0, 0.005190962042835652
1422.0, 0.006752179986822021
1423.0, 0.0035214809911690032
1424.0, 0.0035667571247863968
1425.0, 0.0033307713848936276
1426.0, 0.0033932341067095715
1427.0, 0.0037739801069480374
1428.0, 0.004520134395944952
1429.0, 0.0033028629271118323
1430.0, 0.0025129507814463975
1431.0, 0.005212035200888009
1432.0, 0.004842193524672449
1433.0, 0.0030508225482303295
1434.0, 0.005241980488447454
1435.0, 0.005884033109452412
1436.0, 0.0030233052522721446
1437.0, 0.003812948152780986
1438.0, 0.005562355568083702
1439.0, 0.003097165322580876
1440.0, 0.001440314520829203
1441.0, 0.006374551890344673
1442.0, 0.0025807781872106933
1443.0, 0.0034413093272350065
1444.0, 0.004452126754939216
1445.0, 0.0034080640951278073
1446.0, 0.003865197835291357
1447.0, 0.00442204880970045
1448.0, 0.0033300214605671147
1449.0, 0.0037573989837832522
1450.0, 0.0067269418051278135
1451.0, 0.005916708666569061
1452.0, 0.007407692732017369
1453.0, 0.0038016011255260626
1454.0, 0.0007042775993888243
1455.0, 0.0022861439804225453
1456.0, 0.004453085117610641
1457.0, 0.0043609595747474954
1458.0, 0.002225416810689888
1459.0, 0.00241457841674562
1460.0, 0.0048154226845515905
1461.0, 0.003797678563431941
1462.0, 0.005540140852267246
1463.0, 0.004148306375196418
1464.0, 0.0006396449691075018
1465.0, 0.0008776160814636931
1466.0, 0.004608967239864314
1467.0, 0.003090121241626679
1468.0, 0.008151141043201065
1469.0, 0.00227675943518509
1470.0, 0.005188201010937833
1471.0, 0.002066394689356651
1472.0, 0.00722680074025763
1473.0, 0.003739423088843407
1474.0, 0.0011550457051073795
1475.0, 0.0019103747660386002
1476.0, 0.003804887010978095
1477.0, 0.004265124233486959
1478.0, 0.005278979516948382
1479.0, 0.0035712074172622303
1480.0, 0.003592619972976992
1481.0, 0.0040836519029939546
1482.0, 0.0030909950963999597
1483.0, 0.0031444198945040254
1484.0, 0.001517293203301902
1485.0, 0.00232133522866821
1486.0, 0.004658457755618356
1487.0, 0.0033237871285569085
1488.0, 0.005307294492962767
1489.0, 0.002308014034557997
1490.0, 0.0032448771450582924
1491.0, 0.0019420913243510494
1492.0, 0.0006419141307687764
1493.0, 0.0009706848863577543
1494.0, 0.00016428781268740088
1495.0, 0.000980690646999926
1496.0, 0.002264655851336602
1497.0, 0.0037667234791648433
1498.0, 0.005607556572263453
1499.0, 0.002868144793898714
1500.0, 0.0048954741644282205
1501.0, 0.0030794020127283845
1502.0, 0.0022316121318272614
1503.0, 0.001280236045229446
1504.0, 0.002536602184563187
1505.0, 0.003941348692111368
1506.0, 0.00440269376772675
1507.0, 0.007041649555987823
1508.0, 0.007224051774937064
1509.0, 0.003746579672525921
1510.0, 0.0036126177645107306
1511.0, 0.004788755793985588
1512.0, 0.0033029164573077138
1513.0, 0.00369985868193592
1514.0, 0.004913752475977263
1515.0, 0.0037273224181235344
1516.0, 0.004233839472819589
1517.0, 0.002550484895536037
1518.0, 0.0030181880822653883
1519.0, 0.0013019870125358887
1520.0, 0.0045201234845677505
1521.0, 0.0030527599492979176
1522.0, 0.0027697356682572748
1523.0, 0.003467574989094571
1524.0, 0.0012620873522757503
1525.0, 0.0020426428139631754
1526.0, 0.0024974985776901595
1527.0, 0.004075363056505108
1528.0, 0.005428021487016401
1529.0, 0.002104404737295793
1530.0, 0.005063368805753769
1531.0, 0.003282984294735322
1532.0, 0.0035522936622408236
1533.0, 0.004056532179287332
1534.0, 0.003996075334831852
1535.0, 0.002008357322941936
1536.0, 0.0018522783706909818
1537.0, 0.0014315880047125755
1538.0, 0.00032521373732910823
1539.0, 0.0024306052575568914
1540.0, 0.0027645957757441797
1541.0, 0.001919204950757782
1542.0, 0.0035564715544627056
1543.0, 0.0022694745379512244
1544.0, 0.0016167504604914292
1545.0, 0.0033275396205744495
1546.0, 0.0048025753253708265
1547.0, 0.0033379902806318076
1548.0, 0.004074263469683466
1549.0, 0.0040749249209132785
1550.0, 0.004194263047564162
1551.0, 0.004589752167475576
1552.0, 0.005358591596045239
1553.0, 0.005983415541525636
1554.0, 0.0021173841512694878
1555.0, 0.0069799371132339815
1556.0, 0.0011934364779876494
1557.0, 0.004294976199732986
1558.0, 0.002508092720643183
1559.0, 0.007198428036519346
1560.0, 0.003929601210871309
1561.0, 0.0007048638140311791
1562.0, 0.0035733310827729394
1563.0, 0.0020020393324705985
1564.0, 0.0013850468554797459
1565.0, 0.001966077964544304
1566.0, 0.0025847910879992927
1567.0, 0.0016507690247415576
1568.0, 0.0029711888854222542
1569.0, 0.0013443760000552856
1570.0, 6.088314903145548e-06
1571, 0.0
1572, 0.0
1573, 0.0
1574, 0.0
1575, 0.0
1576, 0.0
1577, 0.0
1578, 0.0
1579, 0.0
1580, 0.0
1581, 0.0
1582, 0.0
1583, 0.0
1584, 0.0
1585, 0.0
1586, 0.0
1587, 0.0
1588, 0.0
1589, 0.0
1590, 0.0
1591, 0.0
1592, 0.0
1593, 0.0
1594, 0.0
1595, 0.0
1596, 0.0
1597, 0.0
1598, 0.0
1599, 0.0
