30, 0.0
31, 0.0
32, 0.0
33, 0.0
34, 0.0
35, 0.0
36, 0.0
37, 0.0
38, 0.0
39, 0.0
40, 0.0
41, 0.0
42, 0.0
43, 0.0
44, 0.0
45, 0.0
46, 0.0
47, 0.0
48, 0.0
49, 0.0
50, 0.0
51, 0.0
52, 0.0
53, 0.0
54, 0.0
55, 0.0
56, 0.0
57, 0.0
58, 0.0
59, 0.0
60, 0.0
61, 0.0
62, 0.0
63, 0.0
64, 0.0
65, 0.0
66, 0.0
67, 0.0
68, 0.0
69, 0.0
70, 0.0
71, 0.0
72, 0.0
73, 0.0
74, 0.0
75, 0.0
76, 0.0
77, 0.0
78, 0.0
79, 0.0
80, 0.0
81, 0.0
82, 0.0
83, 0.0
84, 0.0
85, 0.0
86, 0.0
87, 0.0
88, 0.0
89, 0.0
90, 0.0
91.0, 0.004313373234146508
92.0, 0.011874918596689465
93.0, 0.010637525800625837
94.0, 0.009328467753445953
95.0, 0.007442617671745631
96.0, 0.006255055971707805
97.0, 0.006052952338503226
98.0, 0.0037913980165600707
99.0, 0.0015769744640897214
100.0, 0.0006776806849208293
101.0, 0.0009884485441631493
102.0, 0.0005669803799065623
103.0, 0.0024678887586064855
104.0, 0.006239789182419444
105.0, 0.01219371265033876
106.0, 0.023274435335446042
107.0, 0.03303863331439798
108.0, 0.04334002144968999
109.0, 0.05466330276854442
110.0, 0.06255482900641639
111.0, 0.06902342738653743
112.0, 0.06945327702756535
113.0, 0.06242861651202225
114.0, 0.049225518178466654
115.0, 0.03337481103317504
116.0, 0.019260080342962067
117.0, 0.009423834043272603
118.0, 0.005307509282509871
119.0, 0.0006084740012291723
120.0, 0.002392907070658922
121.0, 0.0032934513581318486
122.0, 0.002776041556550597
123.0, 0.0029615794395571864
124.0, 0.0020063802939468724
125.0, 0.00041794330401097134
126.0, 0.0011020505504913834
127.0, 0.004014716258733708
128.0, 0.0063953532228798295
129.0, 0.00728841141136375
130.0, 0.008051703213738774
131.0, 0.012048681575121628
132.0, 0.014788218035726297
133.0, 0.018061424594103898
134.0, 0.02299505527029207
135.0, 0.02948797228292781
136.0, 0.0355472144917046
137.0, 0.04366613253893209
138.0, 0.05404529378142922
139.0, 0.06576761588930723
140.0, 0.08281212015791736
141.0, 0.10463282782428483
142.0, 0.1299923299398832
143.0, 0.15551642994860945
144.0, 0.17480389053169976
145.0, 0.1789548527212758
146.0, 0.16972270002946477
147.0, 0.15413753865895735
148.0, 0.14076590779478435
149.0, 0.13612412798750903
150.0, 0.13779373283187613
151.0, 0.14232488190932632
152.0, 0.145565256790562
153.0, 0.15115706983195137
154.0, 0.16010371507649732
155.0, 0.17437696567097852
156.0, 0.19553409765926968
157.0, 0.22103764538977883
158.0, 0.2506556186305487
159.0, 0.2814988485050632
160.0, 0.3071513357413109
161.0, 0.31940115898602217
162.0, 0.31446929917929145
163.0, 0.2954273222094157
164.0, 0.2700409539337575
165.0, 0.24731454973844225
166.0, 0.23602126333221182
167.0, 0.23507790565328626
168.0, 0.24100295251135734
169.0, 0.2496626123837812
170.0, 0.2564999302004245
171.0, 0.25746185902005364
172.0, 0.2556087861435908
173.0, 0.2555074586882413
174.0, 0.2593932985736096
175.0, 0.2682876591401918
176.0, 0.2819141479981465
177.0, 0.29875107354600206
178.0, 0.3172108893110033
179.0, 0.3400308023327471
180.0, 0.3648092600832828
181.0, 0.3878206969933367
182.0, 0.4069291602511412
183.0, 0.4226355085222117
184.0, 0.42767097410732247
185.0, 0.42011406882977914
186.0, 0.4001348918787407
187.0, 0.36857739321190197
188.0, 0.3306553788759435
189.0, 0.2922634519205335
190.0, 0.2569695553801716
191.0, 0.22655093624867007
192.0, 0.200676819237225
193.0, 0.17985987323853575
194.0, 0.16358132977709597
195.0, 0.1507886838570554
196.0, 0.1417693279163196
197.0, 0.1365566671502414
198.0, 0.13367858303467792
199.0, 0.1332503441334484
200.0, 0.13733080450060936
201.0, 0.14471308543059658
202.0, 0.15520045691458717
203.0, 0.17032450043900668
204.0, 0.19146392081325753
205.0, 0.21590665235446646
206.0, 0.23996231818550082
207.0, 0.25658800346357236
208.0, 0.2581865699864283
209.0, 0.2403185914857933
210.0, 0.20491108394639898
211.0, 0.16236488955873069
212.0, 0.12227706490222898
213.0, 0.08923858466477204
214.0, 0.06365895008025105
215.0, 0.04538164773108231
216.0, 0.032450214623821444
217.0, 0.02238512809898502
218.0, 0.014171769515037085
219.0, 0.00855003605137347
220.0, 0.004314715879157569
221.0, 0.0010582847945978327
222.0, 0.001132300448584296
223.0, 0.0028745695135971284
224.0, 0.004819787397753138
225.0, 0.006354920027097089
226.0, 0.006929340452212999
227.0, 0.006301288224686046
228.0, 0.005667480632609691
229.0, 0.005155735275984417
230.0, 0.004309804284680095
231.0, 0.002382547066419907
232.0, 0.0008666097129841099
233.0, 0.0027330627506682355
234.0, 0.003959167927109783
235.0, 0.005789140101774905
236.0, 0.007866347514874793
237.0, 0.010075456595339063
238.0, 0.01293518104743918
239.0, 0.015922290176050076
240.0, 0.018852717370400562
241.0, 0.024261664605913107
242.0, 0.0312286381432451
243.0, 0.03867274575416537
244.0, 0.047040091952054615
245.0, 0.05881057512568033
246.0, 0.07612298796506417
247.0, 0.09773474041457705
248.0, 0.12285286348893776
249.0, 0.1493121446339211
250.0, 0.1709057965964883
251.0, 0.17872163821601533
252.0, 0.16814003749499756
253.0, 0.14126949264655406
254.0, 0.10778263849507254
255.0, 0.07979882361183009
256.0, 0.058337251015468
257.0, 0.04465182407559644
258.0, 0.03747388725700234
259.0, 0.033590464608242616
260.0, 0.0330270206870192
261.0, 0.03535731041763384
262.0, 0.039196302328087435
263.0, 0.04406774574366982
264.0, 0.05279649737538742
265.0, 0.06387534403851328
266.0, 0.07685314364417607
267.0, 0.09124291749574637
268.0, 0.10595407209620748
269.0, 0.11716277891398434
270.0, 0.12572033198422447
271.0, 0.1318261875967818
272.0, 0.13540618376223523
273.0, 0.13831478159921645
274.0, 0.14320390352087714
275.0, 0.14907925409416012
276.0, 0.1575628618278615
277.0, 0.1718012265502661
278.0, 0.18882449952580938
279.0, 0.2097771119168297
280.0, 0.23660055211711975
281.0, 0.27071567592034024
282.0, 0.3134775927247014
283.0, 0.3641353316747933
284.0, 0.4301644429142214
285.0, 0.5108824678008022
286.0, 0.602537306646782
287.0, 0.699831599241024
288.0, 0.7838919738068594
289.0, 0.8339048919317374
290.0, 0.8324915107433305
291.0, 0.7718070127712652
292.0, 0.6593052454111357
293.0, 0.531332415675708
294.0, 0.4124288535227477
295.0, 0.31388101003030155
296.0, 0.23799505031550297
297.0, 0.1827937704754744
298.0, 0.1406953122606176
299.0, 0.10907078952545525
300.0, 0.08678098285881318
301.0, 0.0692451386696117
302.0, 0.05639851491790713
303.0, 0.046891327295297894
304.0, 0.04003936565673948
305.0, 0.03531393062753027
306.0, 0.032330687136472726
307.0, 0.03082453175872616
308.0, 0.02983317506044462
309.0, 0.03003298064947521
310.0, 0.0317155800185495
311.0, 0.03216007788795173
312.0, 0.03115225660200403
313.0, 0.03022399894871189
314.0, 0.030218082637520738
315.0, 0.03127898696278905
316.0, 0.032978152080043975
317.0, 0.03546980930555708
318.0, 0.039177240645340686
319.0, 0.0448245942951389
320.0, 0.053252759859458265
321.0, 0.0664223289890032
322.0, 0.08171256329223195
323.0, 0.10122160809393481
324.0, 0.12827972985345176
325.0, 0.16303743355893913
326.0, 0.19899900131346115
327.0, 0.22566754921248033
328.0, 0.23307399347018468
329.0, 0.21587993661428773
330.0, 0.1781791695971787
331.0, 0.13469341427964704
332.0, 0.09671534103540944
333.0, 0.06919488178409003
334.0, 0.05090784404279632
335.0, 0.03772512696333912
336.0, 0.028446364670648754
337.0, 0.021787618951866247
338.0, 0.016855400191993553
339.0, 0.013488812156707271
340.0, 0.01174576123518772
341.0, 0.009742061871233353
342.0, 0.00881908604851601
343.0, 0.00905344379596345
344.0, 0.009236405033622115
345.0, 0.009437622731700498
346.0, 0.01058488077715137
347.0, 0.011186136968719911
348.0, 0.01041355456557937
349.0, 0.008570765196537442
350.0, 0.007617441784332034
351.0, 0.005212594683952765
352.0, 0.0029678238007420222
353.0, 0.002170772643907099
354.0, 0.0015607348029583433
355.0, 0.0004711890102165304
356.0, 5.424082446658087e-06
357.0, 0.00037453701563421206
358.0, 0.001015182766170259
359.0, 0.0010908168528522963
360.0, 0.0009981661079690844
361.0, 0.0017392399968582492
362.0, 0.001644088252682955
363.0, 0.0010368195733107754
364.0, 0.0021408937846354175
365.0, 0.0009932386008889432
366.0, 0.0016540814162538384
367.0, 0.0026101067414965894
368.0, 0.0022292575172472924
369.0, 0.0013882053178754334
370.0, 0.0016554593252825808
371.0, 0.0010508898213366824
372.0, 0.0002652347578145421
373.0, 0.0003866861669860171
374.0, 0.0014497042459966961
375.0, 0.0008578714508476644
376.0, 3.167210611165712e-05
377.0, 0.0005979816748817402
378.0, 0.0010037465433220469
379.0, 0.0016110800756653535
380.0, 0.001750775614221637
381.0, 0.0029747503350858904
382.0, 0.003775259572815517
383.0, 0.0034553656713517795
384.0, 0.003932055050665889
385.0, 0.005113331114464831
386.0, 0.006543578832179394
387.0, 0.008367628561417694
388.0, 0.010262748630288141
389.0, 0.011573787687023522
390.0, 0.013487623408758066
391.0, 0.01631826039070554
392.0, 0.01915704867861509
393.0, 0.022358394854317478
394.0, 0.02744866710496468
395.0, 0.033009973511101916
396.0, 0.039928993132125445
397.0, 0.04567428274193703
398.0, 0.048594787201607474
399.0, 0.049047771201180666
400.0, 0.04626630804729854
401.0, 0.042815336442625494
402.0, 0.042054924394210255
403.0, 0.04398443904400501
404.0, 0.04760333172264214
405.0, 0.053677331091526545
406.0, 0.05946149526062218
407.0, 0.06213929140737367
408.0, 0.05899395275636939
409.0, 0.05032434547536965
410.0, 0.04131198878097551
411.0, 0.035084926808922536
412.0, 0.031956881214562
413.0, 0.0320564972608157
414.0, 0.034803984839230855
415.0, 0.03826583003480142
416.0, 0.03920182932406178
417.0, 0.035458350275397704
418.0, 0.02734729661577442
419.0, 0.01790520022589675
420.0, 0.01309690242221274
421.0, 0.009657877844112869
422.0, 0.006805430780465385
423.0, 0.004305176147968738
424.0, 0.002477214879441131
425.0, 0.001944616176874816
426.0, 0.0013264345437203852
427.0, 0.0004526805165399818
428.0, 0.00022710472358756308
429.0, 0.0004657743168732673
430.0, 0.0004251980651219809
431.0, 0.00029199700308788574
432.0, 0.0007282518834148922
433.0, 0.0017987346913686732
434.0, 0.0020578389495283294
435.0, 0.0007927907093298704
436.0, 0.0014700350536868555
437.0, 0.0007904605649439394
438.0, 0.00017691830827345074
439.0, 3.462567893411419e-05
440.0, 0.00039169938644599317
441.0, 0.0012191091085668338
442.0, 0.0012571068736128654
443.0, 0.0020143023585060676
444.0, 0.0033607138840841535
445.0, 0.004580196104654348
446.0, 0.005489541910358635
447.0, 0.0065297522639924145
448.0, 0.007636608521295012
449.0, 0.009318320759317603
450.0, 0.01162639539189206
451.0, 0.014480717137030912
452.0, 0.01806836930549522
453.0, 0.021715140847599065
454.0, 0.02606105696948471
455.0, 0.029771732939161348
456.0, 0.03235825147759884
457.0, 0.035032084184656316
458.0, 0.03697165516997991
459.0, 0.04002831152065051
460.0, 0.044283168963404805
461.0, 0.04958433760639121
462.0, 0.05570611551340023
463.0, 0.061997316504379604
464.0, 0.06886679946750957
465.0, 0.07579995001486688
466.0, 0.08436820210081193
467.0, 0.09537243650697752
468.0, 0.10730800080733949
469.0, 0.1237339615436954
470.0, 0.144371705551677
471.0, 0.1700392726306841
472.0, 0.20275507801408743
473.0, 0.24482202270172998
474.0, 0.2957628092300975
475.0, 0.3531875881099865
476.0, 0.4097617349853004
477.0, 0.4519420090455209
478.0, 0.4665614980579604
479.0, 0.448079947733925
480.0, 0.3950754856282745
481.0, 0.32775804399308694
482.0, 0.26315950722402665
483.0, 0.2107619140544936
484.0, 0.17433869947311734
485.0, 0.14950945595217616
486.0, 0.1348512351033529
487.0, 0.12750915209451524
488.0, 0.12636509330498064
489.0, 0.13127225995190303
490.0, 0.13970404165867772
491.0, 0.15002574759718945
492.0, 0.16146381049174524
493.0, 0.17362619236695914
494.0, 0.1876485630225695
495.0, 0.20607296817583398
496.0, 0.22967900593035565
497.0, 0.26037297703255907
498.0, 0.2989962015446359
499.0, 0.34829087130832737
500.0, 0.41256691837896725
501.0, 0.4947352246139922
502.0, 0.5980388772130774
503.0, 0.7151441299525221
504.0, 0.8357325692529701
505.0, 0.9390129899448827
506.0, 0.9950065402679444
507.0, 0.9821194405952152
508.0, 0.8949953040126999
509.0, 0.7540305831408154
510.0, 0.5997821333765803
511.0, 0.4645369965438654
512.0, 0.3584435096401711
513.0, 0.2789929962869943
514.0, 0.22053035115054131
515.0, 0.17728151401503717
516.0, 0.14424608708669345
517.0, 0.11867317320104369
518.0, 0.10060058875290283
519.0, 0.08588390802458998
520.0, 0.07267354305956227
521.0, 0.06169256595670814
522.0, 0.05320114610629485
523.0, 0.046265783678809784
524.0, 0.04006300443064528
525.0, 0.035606440545242535
526.0, 0.031169726944533398
527.0, 0.027332146724288135
528.0, 0.02463094254536373
529.0, 0.02235824066520479
530.0, 0.019100456005604696
531.0, 0.01645392067080392
532.0, 0.01436902980816956
533.0, 0.012520215301487126
534.0, 0.011008590716336503
535.0, 0.009877129042916849
536.0, 0.00850944140410076
537.0, 0.007628960330685554
538.0, 0.006603601135321522
539.0, 0.005508875655761363
540.0, 0.004584584619188147
541.0, 0.003362063411726096
542.0, 0.003199729660822102
543.0, 0.0028253806710601
544.0, 0.0020454295553639463
545.0, 0.0015150052454794324
546.0, 0.0014389104322720116
547.0, 0.0013038154528546048
548.0, 0.000769892099638272
549.0, 0.0011241235303417242
550.0, 0.0007085544635613919
551.0, 8.082397099383556e-05
552.0, 0.00037988498379418087
553.0, 0.0001571797082765272
554.0, 0.0007234269284528499
555.0, 0.0006986501222063587
556.0, 0.00038944972633576534
557.0, 0.0006356883410813083
558.0, 0.0011270317924966867
559.0, 0.000320278808608928
560.0, 8.993841311935095e-05
561.0, 0.0005124850657003062
562.0, 0.0007623498310388681
563.0, 0.0005523214201705901
564.0, 0.0010371800762350417
565.0, 0.0022888693994940457
566.0, 0.002500977880343694
567.0, 0.002386707002733188
568.0, 0.0036593265253182772
569.0, 0.005556282186442795
570.0, 0.006274818939247005
571.0, 0.00795359768114042
572.0, 0.009630564557815776
573.0, 0.011872696130296055
574.0, 0.014401577513901614
575.0, 0.016649918406733244
576.0, 0.018655839574528325
577.0, 0.021493007972790034
578.0, 0.021470464524424315
579.0, 0.020005036129110632
580.0, 0.01766974130942771
581.0, 0.014861609134280713
582.0, 0.012093896088887295
583.0, 0.008744161197528149
584.0, 0.006291343501068322
585.0, 0.004451296564259809
586.0, 0.0031986685022498784
587.0, 0.002181315877226327
588.0, 0.0011790201098772792
589.0, 0.0015125321574856387
590.0, 0.0005788840983308075
591.0, 0.0004838935854301142
592.0, 0.0008478629877265371
593.0, 0.0006342606865765815
594.0, 0.0005469072343960235
595.0, 0.001060276560008739
596.0, 0.0007554359433528564
597.0, 0.0007234774085616697
598.0, 0.0007468290124741512
599.0, 0.0005726688075582675
600.0, 0.00018888137130133217
601.0, 0.0005354759942674334
602.0, 0.00010306565004395133
603.0, 9.193772870762e-05
604.0, 0.000304070388217394
605.0, 0.00038266460215195277
606.0, 0.0004925393559277996
607.0, 0.0008348006182035508
608.0, 0.0013323597884880261
609.0, 0.0024407897630742293
610.0, 0.0026755473066947823
611.0, 0.0024104991187987065
612.0, 0.002674033895470022
613.0, 0.0034884638864166673
614.0, 0.003777057167697256
615.0, 0.0039876240506283534
616.0, 0.004782584866046441
617.0, 0.005575293036415702
618.0, 0.006237697765100069
619.0, 0.007499012965515178
620.0, 0.009043609527583873
621.0, 0.010730940396459167
622.0, 0.011400805170175726
623.0, 0.012847405801857632
624.0, 0.01559165288643186
625.0, 0.018411740975427575
626.0, 0.02051124637603851
627.0, 0.02353914731450127
628.0, 0.02739797044944083
629.0, 0.03061487602061172
630.0, 0.0333618583751083
631.0, 0.03551835675104696
632.0, 0.03576635571986613
633.0, 0.0354825003051482
634.0, 0.03392971967323393
635.0, 0.03194938314109763
636.0, 0.02990980029342298
637.0, 0.028498291350914407
638.0, 0.02834555916249156
639.0, 0.027803659881840505
640.0, 0.027753031454241937
641.0, 0.030454232569156445
642.0, 0.03253928295987665
643.0, 0.033564998744146826
644.0, 0.03540499635547662
645.0, 0.036352977783950635
646.0, 0.03650062111881981
647.0, 0.03486226731639683
648.0, 0.03155809147936636
649.0, 0.027788127221811388
650.0, 0.02360584842905338
651.0, 0.018672436986065324
652.0, 0.015903108573422933
653.0, 0.013658880232588239
654.0, 0.01103587072895901
655.0, 0.009318357190421692
656.0, 0.008484227564421173
657.0, 0.0072861073796057245
658.0, 0.005941280052930759
659.0, 0.005408634750440451
660.0, 0.004728789782937037
661.0, 0.0038198491966483458
662.0, 0.0027780033689319564
663.0, 0.0021265106964719295
664.0, 0.0025783869337739126
665.0, 0.002573925370336025
666.0, 0.0021654686729786687
667.0, 0.0023398483233890415
668.0, 0.00200869031395212
669.0, 0.0013963942006506944
670.0, 0.0012676308034643667
671.0, 0.0010838165189803936
672.0, 0.001368533452469629
673.0, 0.0018612128242422783
674.0, 0.001073710094018688
675.0, 0.0007502803167613383
676.0, 0.0013883189406116068
677.0, 0.001544032649034104
678.0, 0.0012398207693130338
679.0, 0.001024417944118755
680.0, 0.0002893800786735489
681.0, 0.0003027440222306803
682.0, 0.0009075632921210198
683.0, 0.0009513174796206794
684.0, 0.000331652278284913
685.0, 0.0009642843692439584
686.0, 0.0011652301789792964
687.0, 0.000817760200335961
688.0, 0.0004796390621593416
689.0, 0.0003187324630537958
690.0, 0.0001477203093985362
691.0, 9.209621162095459e-05
692.0, 0.00010162674288687885
693.0, 0.0004453201390657334
694.0, 0.00016401390267352253
695.0, 0.0006009087100682799
696.0, 0.0008579169310764191
697.0, 0.0005049187592429316
698.0, 0.0002550314808451668
699.0, 0.0003339177083676601
700.0, 5.736603485188092e-06
701.0, 4.3996478577732704e-05
702.0, 2.8380083634037524e-05
703.0, 0.00020334062453632217
704.0, 0.0003742973736202067
705.0, 7.804528236908748e-05
706.0, 0.0005111083609868907
707.0, 0.00030704598919489373
708.0, 0.00012629094375280468
709.0, 9.215489742998358e-05
710.0, 0.00015073698334519222
711.0, 9.003132242164382e-05
712.0, 0.0002253427439312658
713.0, 0.00018566269644829184
714.0, 0.0013707199842311237
715.0, 0.001229968568015294
716.0, 0.0010609041612333694
717.0, 0.0016172453864510866
718.0, 0.002236678915053426
719.0, 0.0023870881339166966
720.0, 0.002156689359768676
721.0, 0.0024025825404918083
722.0, 0.002222640054250598
723.0, 0.001793220668153774
724.0, 0.0016336241311943817
725.0, 0.0016416278435671353
726.0, 0.0013712150254649375
727.0, 0.00021977235837947851
728.0, 0.00041405380191206274
729.0, 0.0009293755993463412
730.0, 0.00043772778386330256
731.0, 0.0001520094264657055
732.0, 0.0007850332468233202
733.0, 0.0011378290440349054
734.0, 0.0019816067080680243
735.0, 0.0014263338504535755
736.0, 0.0015088703292987732
737.0, 0.0013616114822908895
738.0, 0.0012164608798092586
739.0, 0.0017047615457232317
740.0, 0.0024890276366290273
741.0, 0.00267004522247924
742.0, 0.0023441530526723256
743.0, 0.003071756536422829
744.0, 0.0039426838590884495
745.0, 0.004536340696911143
746.0, 0.005555877848341887
747.0, 0.007112622420771118
748.0, 0.008106972135150034
749.0, 0.009242591425922628
750.0, 0.010672905621561273
751.0, 0.011919622641542076
752.0, 0.013571653121389967
753.0, 0.015201587355006402
754.0, 0.01699192897335983
755.0, 0.020038527541608158
756.0, 0.023217089137037326
757.0, 0.028222840055914147
758.0, 0.03321256970266335
759.0, 0.03935139228441344
760.0, 0.04636115418267062
761.0, 0.05227168028181223
762.0, 0.055514579311394495
763.0, 0.055443156789723204
764.0, 0.05162079035114842
765.0, 0.044991152790762226
766.0, 0.0381045768055077
767.0, 0.030717290912962207
768.0, 0.02473493839715431
769.0, 0.021645306670779747
770.0, 0.018107886737796
771.0, 0.01696624230750063
772.0, 0.016942956523632906
773.0, 0.01639899420481787
774.0, 0.015494085882829387
775.0, 0.014982258797375959
776.0, 0.013942539675599969
777.0, 0.011673036130901778
778.0, 0.009968355255369753
779.0, 0.007859988139178173
780.0, 0.005825308791531531
781.0, 0.005699225277412784
782.0, 0.005264519851432162
783.0, 0.004259270186577135
784.0, 0.003365998097811188
785.0, 0.002542444627379967
786.0, 0.002689867234867352
787.0, 0.0024996198654144573
788.0, 0.001754933888666514
789.0, 0.0022063684880095757
790.0, 0.0025858525556609023
791.0, 0.002462869349764363
792.0, 0.003019308257975223
793.0, 0.0037863842958175326
794.0, 0.0036389152229172354
795.0, 0.003608834769920588
796.0, 0.003853521398765891
797.0, 0.004963782039181091
798.0, 0.006372530859329753
799.0, 0.007145476773876041
800.0, 0.007629306228153173
801.0, 0.00935033182197007
802.0, 0.010750833283841944
803.0, 0.012062847495275123
804.0, 0.013338346083582456
805.0, 0.015880774376509203
806.0, 0.018612852200537846
807.0, 0.0214205049473793
808.0, 0.025670904638862072
809.0, 0.0307621675626772
810.0, 0.03652370834573363
811.0, 0.04209542735730416
812.0, 0.04877794815518684
813.0, 0.05374342250817955
814.0, 0.05662325490329426
815.0, 0.05553118809779365
816.0, 0.049090926858530476
817.0, 0.04123236155624462
818.0, 0.03331882811390369
819.0, 0.026074806023891384
820.0, 0.019098161380052374
821.0, 0.014306964833706118
822.0, 0.011205119895981537
823.0, 0.00944438029551416
824.0, 0.008652476314466827
825.0, 0.00671957097746729
826.0, 0.005848483266517566
827.0, 0.0060125665192505675
828.0, 0.004853358239076686
829.0, 0.0036321056574209684
830.0, 0.0037949932366091203
831.0, 0.004014382007798024
832.0, 0.0033671052098040704
833.0, 0.0030910455994473734
834.0, 0.002682962406670388
835.0, 0.0034008440894836684
836.0, 0.002600987706400414
837.0, 0.0015608612464889538
838.0, 0.0015739246884840126
839.0, 0.0019140514683791921
840.0, 0.0018735352544090467
841.0, 0.0018056512373439996
842.0, 0.0014023429320295228
843.0, 0.0018499135347653972
844.0, 0.0019430189997812965
845.0, 0.0008021048159110613
846.0, 0.0011160924794889168
847.0, 0.0016081090761508642
848.0, 0.0011869795618483616
849.0, 0.0010243512960025117
850.0, 0.0007021695250039128
851.0, 0.0001123603380426114
852.0, 0.00024535414925889033
853.0, 0.00030541262610436353
854.0, 0.0005722594762332727
855.0, 0.0002130192966834387
856.0, 0.00031673489558615617
857.0, 0.0004470140924011365
858.0, 0.00012136835954252472
859.0, 0.0005184224006772265
860.0, 0.0005528046489738833
861.0, 0.00047872962361996736
862.0, 0.0002793776161528501
863.0, 0.00017341837917565753
864.0, 0.00021250593214906858
865.0, 3.480857875932938e-05
866.0, 0.0002288331560069515
867.0, 0.00030486162262581833
868.0, 0.0005639487962642349
869.0, 0.000602595498054764
870.0, 0.00017516670838946876
871.0, 7.096556390550798e-05
872.0, 0.00017266468712401356
873.0, 7.262164745364516e-05
874.0, 0.0005441670011223259
875.0, 0.0005428945030912182
876.0, 0.00014359023564971052
877.0, 0.0004821023104535501
878.0, 0.000532452820213419
879.0, 0.0002538927168210593
880.0, 8.769645524616591e-05
881.0, 0.00022198533369877029
882.0, 0.00043024575750644754
883.0, 0.0005049886685665619
884.0, 0.0005747315030803106
885.0, 0.0007752525709359355
886.0, 0.0005391882444284382
887.0, 0.00013661876928902804
888.0, 0.0012301015836547963
889.0, 0.0010325556083047665
890.0, 0.0007164659270713859
891.0, 0.0006105509973169036
892.0, 0.00042144549241343105
893.0, 0.0006804794567734488
894.0, 0.0008784327821025399
895.0, 0.0004941567498576952
896.0, 0.0008381036482696361
897.0, 0.0006791494969233165
898.0, 0.0007797414171710364
899.0, 0.0008485740710106441
900.0, 0.0006554845006121059
901.0, 0.0005297497537795798
902.0, 0.0005434444933669835
903.0, 0.0009087802396679949
904.0, 0.0006053990999081457
905.0, 0.0006995150865472377
906.0, 0.0007768542769846145
907.0, 0.0004746611834168485
908.0, 0.00031533636681465134
909.0, 0.0010182935332224438
910.0, 0.0014515725976363275
911.0, 0.0013443703598377472
912.0, 0.001974939131010195
913.0, 0.0011326292699628238
914.0, 0.0009101812182745807
915.0, 0.00018533794318798864
916.0, 0.00023250886134877432
917.0, 0.0006543599001518232
918.0, 0.0006648598209743081
919.0, 0.00032503115572870883
920.0, 0.0005184423258698772
921.0, 0.00025865451238055414
922.0, 0.0001779174884931958
923.0, 0.0007365582572779767
924.0, 0.0008049427424571161
925.0, 0.0001781219002467606
926.0, 0.00015186370664811767
927.0, 0.000147076874133735
928.0, 0.00028648518548639817
929.0, 4.1794018701257394e-05
930.0, 0.00015299465511348206
931.0, 0.0005773724188481502
932.0, 0.00025943744053568416
933.0, 0.00021352456054944178
934.0, 0.0006840947463636906
935.0, 0.00024170772842888158
936.0, 0.0003477345049203139
937.0, 0.0005615384285546377
938.0, 0.0004787910373174963
939.0, 0.00011608724764284403
940.0, 0.00023192291091177593
941.0, 0.0007394782367994439
942.0, 0.0003686025291431066
943.0, 0.0005793142824939072
944.0, 0.0008421847893200686
945.0, 0.0014041291688900097
946.0, 0.0010633606479368033
947.0, 0.0005423460550819525
948.0, 0.0007265198558601049
949.0, 0.001161902765732968
950.0, 0.0012004984751074865
951.0, 0.0009974048903870919
952.0, 0.0011776303227312582
953.0, 0.001233679547888901
954.0, 0.0017889901122486152
955.0, 0.0012302217566084377
956.0, 0.001591765445207121
957.0, 0.0020954404124294457
958.0, 0.002210728480548401
959.0, 0.002269155221307019
960.0, 0.0022381466032074405
961.0, 0.0027178549675226393
962.0, 0.003098585782612838
963.0, 0.0033674141874634987
964.0, 0.004255161661666095
965.0, 0.004179540605798133
966.0, 0.004485843392233018
967.0, 0.00555758290459343
968.0, 0.0057101194089052044
969.0, 0.006098240395058547
970.0, 0.007533968238213655
971.0, 0.008132461521397297
972.0, 0.009029380964198298
973.0, 0.010061836206894418
974.0, 0.01084144864833397
975.0, 0.01260110328663428
976.0, 0.013901378958005983
977.0, 0.013866575316042105
978.0, 0.014471307376210066
979.0, 0.014064647780595749
980.0, 0.011822204250184832
981.0, 0.010105413535931338
982.0, 0.008606133544981309
983.0, 0.006126226182089154
984.0, 0.005542181387728941
985.0, 0.004657277135860736
986.0, 0.003749800501748169
987.0, 0.002855151672320625
988.0, 0.0026826886051339563
989.0, 0.00237991284555469
990.0, 0.0017515205161360047
991.0, 0.0018176025388421556
992.0, 0.0014796525707086792
993.0, 0.0007708812570514865
994.0, 0.001971169274856517
995.0, 0.0023668543588267585
996.0, 0.002441559412888967
997.0, 0.0025613648909049696
998.0, 0.003523728946705474
999.0, 0.00429014756079537
1000.0, 0.005250914195493534
1001.0, 0.006144040944366831
1002.0, 0.006830495900681732
1003.0, 0.008209528815739196
1004.0, 0.010155092975968828
1005.0, 0.011762242449001554
1006.0, 0.01293704650944312
1007.0, 0.013477142001737212
1008.0, 0.013856812494870556
1009.0, 0.014854627071726929
1010.0, 0.01469946512063868
1011.0, 0.01560836885318563
1012.0, 0.016601684593613927
1013.0, 0.016846693389688874
1014.0, 0.017594993056882228
1015.0, 0.01692011766173637
1016.0, 0.016177710462033944
1017.0, 0.015636623360575776
1018.0, 0.014040747670687167
1019.0, 0.0143526259950069
1020.0, 0.014784390017264965
1021.0, 0.015211988181392343
1022.0, 0.015776311577410846
1023.0, 0.017356443495488073
1024.0, 0.020167997021450314
1025.0, 0.022481991188109063
1026.0, 0.02422893050420244
1027.0, 0.026911482119269182
1028.0, 0.030901159241565758
1029.0, 0.03412366641220061
1030.0, 0.03762093344112149
1031.0, 0.03971803039841921
1032.0, 0.04053224086904768
1033.0, 0.03916763352318891
1034.0, 0.03608260010213803
1035.0, 0.03171298953851776
1036.0, 0.02663945732908042
1037.0, 0.0219369646166782
1038.0, 0.018003696761582685
1039.0, 0.014520161101988074
1040.0, 0.012604843084267134
1041.0, 0.010545393415812596
1042.0, 0.009772444565983071
1043.0, 0.007920408896425998
1044.0, 0.006526653504041708
1045.0, 0.0061223891140924904
1046.0, 0.005180542007737849
1047.0, 0.004186879860762741
1048.0, 0.003783395091991294
1049.0, 0.003359181819399265
1050.0, 0.0025572490992067515
1051.0, 0.0016198151537649365
1052.0, 0.0009549805701286252
1053.0, 0.0011917359535712254
1054.0, 0.00046955306485647576
1055.0, 4.567549772963567e-05
1056.0, 5.549287649575551e-05
1057.0, 0.000506244077893509
1058.0, 0.0005376954677615397
1059.0, 0.0006271429120001153
1060.0, 0.00043923990588265075
1061.0, 0.0005507532871855108
1062.0, 0.0010053755598314006
1063.0, 0.0006309516464202077
1064.0, 0.0005633998873415678
1065.0, 0.0008724978372657462
1066.0, 0.0005707794726864821
1067.0, 0.0005155195837939056
1068.0, 0.000502048153937123
1069.0, 0.00015109964128172108
1070.0, 0.0006375175519091387
1071.0, 0.001443241969729087
1072.0, 0.00214285420158993
1073.0, 0.0021688771335385566
1074.0, 0.00221502689617052
1075.0, 0.002698549982755398
1076.0, 0.0031012741597301664
1077.0, 0.004017828368096469
1078.0, 0.004712162144648361
1079.0, 0.004971222230479302
1080.0, 0.005443197889362184
1081.0, 0.0058552453117798635
1082.0, 0.0077336580775597035
1083.0, 0.009009052638756189
1084.0, 0.011221040004557085
1085.0, 0.01290886702545342
1086.0, 0.015167036408868805
1087.0, 0.01809680093890512
1088.0, 0.02078809672521512
1089.0, 0.023976334403802244
1090.0, 0.028080126438925473
1091.0, 0.03305951202273097
1092.0, 0.0377860967570617
1093.0, 0.043050364028464544
1094.0, 0.04870935166700876
1095.0, 0.054942511486348086
1096.0, 0.061692413512776254
1097.0, 0.0666288001705418
1098.0, 0.06915545863428647
1099.0, 0.07000344863239556
1100.0, 0.06745946093596933
1101.0, 0.06355334410992869
1102.0, 0.05949077477466727
1103.0, 0.05395499991262579
1104.0, 0.048732702563108764
1105.0, 0.04486464885381854
1106.0, 0.042553466705359665
1107.0, 0.03925166240919156
1108.0, 0.03822731357691775
1109.0, 0.036804148503510374
1110.0, 0.03533210782663539
1111.0, 0.03389932488784314
1112.0, 0.03387749876272145
1113.0, 0.0337402693746775
1114.0, 0.03322317992348206
1115.0, 0.03296415796035825
1116.0, 0.03217325347339501
1117.0, 0.030110629116427562
1118.0, 0.027171638107076037
1119.0, 0.023762417589647176
1120.0, 0.020573214918452
1121.0, 0.017967235993082524
1122.0, 0.015668235604514146
1123.0, 0.013462856456081538
1124.0, 0.011660932401888055
1125.0, 0.010101924520892754
1126.0, 0.009099495263459293
1127.0, 0.0083515880678409
1128.0, 0.007741396595777724
1129.0, 0.0069238557671995535
1130.0, 0.006359765624754892
1131.0, 0.005985950612937469
1132.0, 0.005459084149339524
1133.0, 0.00515724940443552
1134.0, 0.0048859843816466105
1135.0, 0.004749518759006093
1136.0, 0.004787333806983124
1137.0, 0.004026468708801708
1138.0, 0.004720159619918753
1139.0, 0.004827410513906517
1140.0, 0.004439115240579955
1141.0, 0.004684734356960927
1142.0, 0.005135823983085486
1143.0, 0.004393759015860673
1144.0, 0.00419239498691167
1145.0, 0.005167130215580293
1146.0, 0.005305015413045534
1147.0, 0.005499134501993371
1148.0, 0.006332663531169104
1149.0, 0.005826381225530375
1150.0, 0.005724162515146324
1151.0, 0.007295534538138011
1152.0, 0.006486266391917909
1153.0, 0.006300342986144225
1154.0, 0.00553070945937722
1155.0, 0.0052623443848500255
1156.0, 0.004457707123445922
1157.0, 0.003861557464072706
1158.0, 0.0037069069806235583
1159.0, 0.0035236251496051853
1160.0, 0.003337717190633378
1161.0, 0.003232218058720987
1162.0, 0.0030440170954658223
1163.0, 0.002660758054865
1164.0, 0.002301021729066616
1165.0, 0.0027167569427886304
1166.0, 0.003170912233898279
1167.0, 0.00281233968304951
1168.0, 0.0025800639006596147
1169.0, 0.001770727327853123
1170.0, 0.0011826500060180254
1171.0, 0.0016045964379726887
1172.0, 0.0020563013974054405
1173.0, 0.0019936081861470774
1174.0, 0.0016246103092831875
1175.0, 0.0016273210500117414
1176.0, 0.0007572641994509809
1177.0, 0.0011872864741374661
1178.0, 0.001705713228431205
1179.0, 0.0011469506151888876
1180.0, 0.001049055976803107
1181.0, 0.0008016732729617882
1182.0, 0.0006754798271309964
1183.0, 0.0009439463830274645
1184.0, 0.0006393482533210553
1185.0, 0.00033541665871518716
1186.0, 0.00018942956892477962
1187.0, 0.00028735989834779226
1188.0, 0.0005055728511909328
1189.0, 0.0002557034756977228
1190.0, 0.001057397939784112
1191.0, 0.000907468075198622
1192.0, 0.0007774263017051196
1193.0, 0.00029422124033791553
1194.0, 0.0002373763184354666
1195.0, 0.0001523098371096118
1196.0, 0.00014686054179772502
1197.0, 0.0007765366784760214
1198.0, 0.00038585858357853314
1199.0, 0.00012699860523068292
1200.0, 0.0004720669433033936
1201.0, 0.00022894563588964832
1202.0, 0.0006816534312220648
1203.0, 0.00029847672550790884
1204.0, 0.0004794613781737843
1205.0, 0.00022916600545769858
1206.0, 0.0005081890094351234
1207.0, 0.00023064717045755132
1208.0, 0.0004289076265964975
1209.0, 0.0003852384542099953
1210.0, 0.00013596496089748457
1211.0, 0.00015329550234426643
1212.0, 0.0004797673566640294
1213.0, 0.00018109645593151837
1214.0, 0.0011500966907324948
1215.0, 0.00040438775978012464
1216.0, 2.6829822076856604e-05
1217.0, 0.00044085410560556077
1218.0, 0.0001573867009067941
1219.0, 0.0006211929885848204
1220.0, 0.0011635621251705592
1221.0, 0.0006301404366795356
1222.0, 0.0004336552735128952
1223.0, 0.0006071032163829333
1224.0, 0.0007527666179897474
1225.0, 0.0009817831972646388
1226.0, 0.001295725547111542
1227.0, 0.0016335167052706856
1228.0, 0.0013088224593016955
1229.0, 0.0008115715348734698
1230.0, 0.0013166572818077158
1231.0, 0.002189021658018522
1232.0, 0.0011302949287269129
1233.0, 0.0024505069919797543
1234.0, 0.0028978862331287196
1235.0, 0.0032845576260499085
1236.0, 0.0032577600939677435
1237.0, 0.0034755133046757867
1238.0, 0.003456817429334166
1239.0, 0.0032406995104422376
1240.0, 0.004123797957165804
1241.0, 0.003963510777804173
1242.0, 0.004534804038582779
1243.0, 0.00507496930922988
1244.0, 0.005151495154927972
1245.0, 0.0051778134571898345
1246.0, 0.005046265910911372
1247.0, 0.004474711013744522
1248.0, 0.0041187782751735385
1249.0, 0.0038376501535727576
1250.0, 0.003531666977792699
1251.0, 0.004286323652731973
1252.0, 0.004148045296399609
1253.0, 0.00458465313383202
1254.0, 0.004100216299576027
1255.0, 0.0038753901062134376
1256.0, 0.004201709209362917
1257.0, 0.003951802081371315
1258.0, 0.004315182363494639
1259.0, 0.004122920420917474
1260.0, 0.0035310419761596717
1261.0, 0.003010323534336686
1262.0, 0.0035794950512408603
1263.0, 0.004333666013508571
1264.0, 0.002837095378274893
1265.0, 0.0020018904105095756
1266.0, 0.0017991390019902352
1267.0, 0.0022260023322308938
1268.0, 0.002083024636549186
1269.0, 0.0017640808985291306
1270.0, 0.0015233369205201576
1271.0, 0.000842628615259285
1272.0, 0.0010254828719359816
1273.0, 0.0015801113319527636
1274.0, 0.0014866737879306918
1275.0, 0.0010563195800075659
1276.0, 0.0006567177959903413
1277.0, 0.0002294173036423581
1278.0, 0.0001637090359275139
1279.0, 0.0008597555609918407
1280.0, 0.0002833071038508676
1281.0, 0.00043887645155877284
1282.0, 0.0012156190208304095
1283.0, 4.619969125359267e-05
1284.0, 0.000554093481712744
1285, 0.0
1286, 0.0
1287, 0.0
1288, 0.0
1289, 0.0
1290, 0.0
1291, 0.0
1292, 0.0
1293, 0.0
1294, 0.0
1295, 0.0
1296, 0.0
1297, 0.0
1298, 0.0
1299, 0.0
1300, 0.0
1301, 0.0
1302, 0.0
1303, 0.0
1304, 0.0
1305, 0.0
1306, 0.0
1307, 0.0
1308, 0.0
1309, 0.0
1310, 0.0
1311, 0.0
1312, 0.0
1313, 0.0
1314, 0.0
1315, 0.0
1316, 0.0
1317, 0.0
1318, 0.0
1319, 0.0
1320, 0.0
1321, 0.0
1322, 0.0
1323, 0.0
1324, 0.0
1325, 0.0
1326, 0.0
1327, 0.0
1328, 0.0
1329, 0.0
1330, 0.0
1331, 0.0
1332, 0.0
1333, 0.0
1334, 0.0
1335, 0.0
1336, 0.0
1337, 0.0
1338, 0.0
1339, 0.0
1340, 0.0
1341, 0.0
1342, 0.0
1343, 0.0
1344, 0.0
1345, 0.0
1346, 0.0
1347, 0.0
1348, 0.0
1349, 0.0
1350, 0.0
1351, 0.0
1352, 0.0
1353, 0.0
1354, 0.0
1355, 0.0
1356, 0.0
1357, 0.0
1358, 0.0
1359, 0.0
1360, 0.0
1361, 0.0
1362, 0.0
1363, 0.0
1364, 0.0
1365, 0.0
1366, 0.0
1367, 0.0
1368, 0.0
1369, 0.0
1370, 0.0
1371, 0.0
1372, 0.0
1373, 0.0
1374, 0.0
1375, 0.0
1376, 0.0
1377, 0.0
1378, 0.0
1379, 0.0
1380, 0.0
1381, 0.0
1382, 0.0
1383, 0.0
1384, 0.0
1385, 0.0
1386, 0.0
1387, 0.0
1388, 0.0
1389, 0.0
1390, 0.0
1391, 0.0
1392, 0.0
1393, 0.0
1394, 0.0
1395, 0.0
1396, 0.0
1397, 0.0
1398, 0.0
1399, 0.0
1400, 0.0
1401, 0.0
1402, 0.0
1403, 0.0
1404, 0.0
1405, 0.0
1406, 0.0
1407, 0.0
1408, 0.0
1409, 0.0
1410, 0.0
1411, 0.0
1412, 0.0
1413, 0.0
1414, 0.0
1415, 0.0
1416, 0.0
1417, 0.0
1418, 0.0
1419, 0.0
1420, 0.0
1421, 0.0
1422, 0.0
1423, 0.0
1424, 0.0
1425, 0.0
1426, 0.0
1427, 0.0
1428, 0.0
1429, 0.0
1430, 0.0
1431, 0.0
1432, 0.0
1433, 0.0
1434, 0.0
1435, 0.0
1436, 0.0
1437, 0.0
1438, 0.0
1439, 0.0
1440, 0.0
1441, 0.0
1442, 0.0
1443, 0.0
1444, 0.0
1445, 0.0
1446, 0.0
1447, 0.0
1448, 0.0
1449, 0.0
1450, 0.0
1451, 0.0
1452, 0.0
1453, 0.0
1454, 0.0
1455, 0.0
1456, 0.0
1457, 0.0
1458, 0.0
1459, 0.0
1460, 0.0
1461, 0.0
1462, 0.0
1463, 0.0
1464, 0.0
1465, 0.0
1466, 0.0
1467, 0.0
1468, 0.0
1469, 0.0
1470, 0.0
1471, 0.0
1472, 0.0
1473, 0.0
1474, 0.0
1475, 0.0
1476, 0.0
1477, 0.0
1478, 0.0
1479, 0.0
1480, 0.0
1481, 0.0
1482, 0.0
1483, 0.0
1484, 0.0
1485, 0.0
1486, 0.0
1487, 0.0
1488, 0.0
1489, 0.0
1490, 0.0
1491, 0.0
1492, 0.0
1493, 0.0
1494, 0.0
1495, 0.0
1496, 0.0
1497, 0.0
1498, 0.0
1499, 0.0
1500, 0.0
1501, 0.0
1502, 0.0
1503, 0.0
1504, 0.0
1505, 0.0
1506, 0.0
1507, 0.0
1508, 0.0
1509, 0.0
1510, 0.0
1511, 0.0
1512, 0.0
1513, 0.0
1514, 0.0
1515, 0.0
1516, 0.0
1517, 0.0
1518, 0.0
1519, 0.0
1520, 0.0
1521, 0.0
1522, 0.0
1523, 0.0
1524, 0.0
1525, 0.0
1526, 0.0
1527, 0.0
1528, 0.0
1529, 0.0
1530, 0.0
1531, 0.0
1532, 0.0
1533, 0.0
1534, 0.0
1535, 0.0
1536, 0.0
1537, 0.0
1538, 0.0
1539, 0.0
1540, 0.0
1541, 0.0
1542, 0.0
1543, 0.0
1544, 0.0
1545, 0.0
1546, 0.0
1547, 0.0
1548, 0.0
1549, 0.0
1550, 0.0
1551, 0.0
1552, 0.0
1553, 0.0
1554, 0.0
1555, 0.0
1556, 0.0
1557, 0.0
1558, 0.0
1559, 0.0
1560, 0.0
1561, 0.0
1562, 0.0
1563, 0.0
1564, 0.0
1565, 0.0
1566, 0.0
1567, 0.0
1568, 0.0
1569, 0.0
1570, 0.0
1571, 0.0
1572, 0.0
1573, 0.0
1574, 0.0
1575, 0.0
1576, 0.0
1577, 0.0
1578, 0.0
1579, 0.0
1580, 0.0
1581, 0.0
1582, 0.0
1583, 0.0
1584, 0.0
1585, 0.0
1586, 0.0
1587, 0.0
1588, 0.0
1589, 0.0
1590, 0.0
1591, 0.0
1592, 0.0
1593, 0.0
1594, 0.0
1595, 0.0
1596, 0.0
1597, 0.0
1598, 0.0
1599, 0.0
