30, 0.0
31, 0.0
32, 0.0
33, 0.0
34, 0.0
35, 0.0
36, 0.0
37, 0.0
38, 0.0
39, 0.0
40, 0.0
41, 0.0
42, 0.0
43, 0.0
44, 0.0
45, 0.0
46, 0.0
47, 0.0
48, 0.0
49, 0.0
50, 0.0
51, 0.0
52, 0.0
53, 0.0
54, 0.0
55, 0.0
56, 0.0
57, 0.0
58, 0.0
59, 0.0
60, 0.0
61, 0.0
62, 0.0
63, 0.0
64, 0.0
65, 0.0
66, 0.0
67, 0.0
68, 0.0
69, 0.0
70, 0.0
71, 0.0
72, 0.0
73, 0.0
74, 0.0
75, 0.0
76, 0.0
77, 0.0
78, 0.0
79, 0.0
80, 0.0
81, 0.0
82, 0.0
83, 0.0
84, 0.0
85, 0.0
86, 0.0
87, 0.0
88, 0.0
89, 0.0
90, 0.0
91, 0.0
92, 0.0
93, 0.0
94, 0.0
95, 0.0
96, 0.0
97, 0.0
98, 0.0
99, 0.0
100, 0.0
101, 0.0
102, 0.0
103, 0.0
104, 0.0
105, 0.0
106, 0.0
107, 0.0
108, 0.0
109, 0.0
110, 0.0
111, 0.0
112, 0.0
113, 0.0
114, 0.0
115, 0.0
116, 0.0
117, 0.0
118, 0.0
119, 0.0
120, 0.0
121, 0.0
122, 0.0
123, 0.0
124, 0.0
125, 0.0
126, 0.0
127, 0.0
128, 0.0
129, 0.0
130, 0.0
131, 0.0
132, 0.0
133, 0.0
134, 0.0
135, 0.0
136, 0.0
137, 0.0
138, 0.0
139, 0.0
140, 0.0
141, 0.0
142, 0.0
143, 0.0
144, 0.0
145, 0.0
146, 0.0
147, 0.0
148, 0.0
149, 0.0
150, 0.0
151, 0.0
152, 0.0
153, 0.0
154, 0.0
155, 0.0
156, 0.0
157, 0.0
158, 0.0
159, 0.0
160, 0.0
161, 0.0
162, 0.0
163, 0.0
164, 0.0
165, 0.0
166, 0.0
167, 0.0
168, 0.0
169, 0.0
170, 0.0
171, 0.0
172, 0.0
173, 0.0
174, 0.0
175, 0.0
176, 0.0
177, 0.0
178, 0.0
179, 0.0
180, 0.0
181, 0.0
182, 0.0
183, 0.0
184, 0.0
185, 0.0
186, 0.0
187, 0.0
188, 0.0
189, 0.0
190, 0.0
191, 0.0
192, 0.0
193.0, 0.0027992392375787993
194.0, 0.007827707104213965
195.0, 0.0022897234704383467
196.0, 0.0003507872964313724
197.0, 0.009191483812162725
198.0, 0.026330373525352606
199.0, 0.042121851719150866
200.0, 0.05471412376034332
201.0, 0.05908969788062741
202.0, 0.05307959317635409
203.0, 0.06911197029412454
204.0, 0.07112995391494059
205.0, 0.06391140886923447
206.0, 0.05945057964554305
207.0, 0.04717072891047175
208.0, 0.047838398212070435
209.0, 0.0480887468007638
210.0, 0.04704081032715304
211.0, 0.045857100917660557
212.0, 0.02227495276497922
213.0, 0.022441105361590837
214.0, 0.018432590040633908
215.0, 0.003113656742065244
216.0, 0.003333317068020325
217.0, 0.00565749313345206
218.0, 0.008566184402724369
219.0, 0.007508115628594457
220.0, 0.010867501617097791
221.0, 0.022913146899253972
222.0, 0.025764705644342186
223.0, 0.02854711045222017
224.0, 0.032102738195915796
225.0, 0.031654768700646985
226.0, 0.044246521959411006
227.0, 0.03694928194313011
228.0, 0.029909789302167818
229.0, 0.03318232546235793
230.0, 0.025012985771050666
231.0, 0.013066802299943663
232.0, 0.015337743495294447
233.0, 0.033381946217256625
234.0, 0.04979113981067564
235.0, 0.04786120751910102
236.0, 0.06209696263901054
237.0, 0.06849942224137527
238.0, 0.06411798607400557
239.0, 0.06216773138583626
240.0, 0.06935764266047373
241.0, 0.06628213442265292
242.0, 0.06530826901674008
243.0, 0.06532006843418756
244.0, 0.05725275687691877
245.0, 0.052986242902605604
246.0, 0.05631836316438375
247.0, 0.04786822836216419
248.0, 0.029335139257112914
249.0, 0.028442989098311142
250.0, 0.02328296153932205
251.0, 0.024182935149234527
252.0, 0.024501157509469094
253.0, 0.017960414214889437
254.0, 0.02191763961579979
255.0, 0.01108490466921706
256.0, 0.013717306054360683
257.0, 0.03356650197721007
258.0, 0.044440412274054146
259.0, 0.026172076015661145
260.0, 0.009661475638229427
261.0, 0.008801312438567747
262.0, 0.02004683877048795
263.0, 0.031214654815543096
264.0, 0.032828804333432667
265.0, 0.0303765574125656
266.0, 0.04000825260592971
267.0, 0.05426092000494527
268.0, 0.055623702576835125
269.0, 0.04618335814474474
270.0, 0.04132198434499435
271.0, 0.045527662155169665
272.0, 0.052347468946903716
273.0, 0.051709451165518255
274.0, 0.05075304853244281
275.0, 0.053414395631509765
276.0, 0.06157680323197414
277.0, 0.07235940519821787
278.0, 0.0750190369167666
279.0, 0.0776609151464645
280.0, 0.08498068209681142
281.0, 0.0983522700499018
282.0, 0.11356238540029981
283.0, 0.11821475086421725
284.0, 0.11666928433270107
285.0, 0.13945368392044036
286.0, 0.15428064083375928
287.0, 0.14156984235687067
288.0, 0.16701949755856957
289.0, 0.1595138914276947
290.0, 0.16035580182913792
291.0, 0.17865191733430838
292.0, 0.18994358984527412
293.0, 0.19543537793391375
294.0, 0.1928495920863124
295.0, 0.18833274273379
296.0, 0.1884770673082512
297.0, 0.19420195984104974
298.0, 0.195565112804864
299.0, 0.2039593253442219
300.0, 0.2010537764757602
301.0, 0.18738642245156528
302.0, 0.1771981549400699
303.0, 0.16658897455791258
304.0, 0.1776369730038904
305.0, 0.17435194681625255
306.0, 0.15679150397268277
307.0, 0.14713330876866368
308.0, 0.1416748474650058
309.0, 0.11801250516843868
310.0, 0.11117274154251597
311.0, 0.11334671726714572
312.0, 0.1005692800986148
313.0, 0.09580441950995801
314.0, 0.0849121546507852
315.0, 0.07336666397632426
316.0, 0.06308299992457823
317.0, 0.05271116237224448
318.0, 0.06043348690163947
319.0, 0.04297024640325383
320.0, 0.03171779640418653
321.0, 0.03526214552668525
322.0, 0.03525114345114479
323.0, 0.02938824556036809
324.0, 0.049878782948445236
325.0, 0.04592543160204636
326.0, 0.026668662981627612
327.0, 0.037188946627284364
328.0, 0.042164364410671104
329.0, 0.04251265776598452
330.0, 0.04374414793630947
331.0, 0.04001191191645719
332.0, 0.027103982824816263
333.0, 0.026578441733458268
334.0, 0.04020424534204342
335.0, 0.04103954620832805
336.0, 0.02524675814610704
337.0, 0.00851879808888664
338.0, 0.0036970398858094736
339.0, 0.005945556513437159
340.0, 0.015612344358959342
341.0, 0.01403036704137565
342.0, 0.0024777313823877967
343.0, 0.0015584017586839694
344.0, 0.004254258084142928
345.0, 0.0052899192685947425
346.0, 0.013288217479552729
347.0, 0.0051411662727508505
348.0, 0.02022357242612375
349.0, 0.006966545449726508
350.0, 0.004246587348811552
351.0, 0.004263787556985312
352.0, 0.016786969873637658
353.0, 0.017207164585376314
354.0, 0.020818067258675105
355.0, 0.004434083676248176
356.0, 0.005213219766461454
357.0, 0.009996870424756419
358.0, 0.019677864762276304
359.0, 0.002334808845405554
360.0, 0.002734916406073517
361.0, 0.0026334059832038535
362.0, 0.010564885448821884
363.0, 0.01294683240301706
364.0, 0.0023175202267253802
365.0, 0.015931192683988588
366.0, 0.021919425594587885
367.0, 0.018706789370520525
368.0, 0.028607162936830296
369.0, 0.0323482955917883
370.0, 0.029674726710666358
371.0, 0.03748953971917479
372.0, 0.04731684953905167
373.0, 0.051547571560245475
374.0, 0.0708594538049455
375.0, 0.07993393345067999
376.0, 0.07123723496681425
377.0, 0.06250447189416078
378.0, 0.06463046779502098
379.0, 0.06497614544318227
380.0, 0.06093663744878768
381.0, 0.043295685510456434
382.0, 0.040195271398935445
383.0, 0.04783459674943335
384.0, 0.03999523583575283
385.0, 0.025459197597008786
386.0, 0.030235232246660748
387.0, 0.03637752838339437
388.0, 0.037254058502616476
389.0, 0.037697385637267974
390.0, 0.042439668079824446
391.0, 0.04557758822926617
392.0, 0.032529258311639
393.0, 0.029690353592923463
394.0, 0.04447533148049309
395.0, 0.042987745446402624
396.0, 0.055733402617057386
397.0, 0.032167776263892986
398.0, 0.03620218670200013
399.0, 0.06490656541276767
400.0, 0.06269329583683264
401.0, 0.0679868312602719
402.0, 0.06249525616831532
403.0, 0.05060758055980477
404.0, 0.052571474886318484
405.0, 0.07207246369012775
406.0, 0.0758534442555022
407.0, 0.07048654557626186
408.0, 0.051775097383369995
409.0, 0.05274254877664743
410.0, 0.06623057911564977
411.0, 0.05600162013047181
412.0, 0.058175238011237675
413.0, 0.06249904935635694
414.0, 0.055850682483593574
415.0, 0.04958857624749315
416.0, 0.04989459858382904
417.0, 0.043297635191673914
418.0, 0.027158632232735756
419.0, 0.021673199329302756
420.0, 0.024525525049782688
421.0, 0.02438800499525854
422.0, 0.015864428746149285
423.0, 0.004100449330408491
424.0, 0.01310845545186397
425.0, 0.012343872153683478
426.0, 0.006717247394163052
427.0, 0.008244475180608167
428.0, 0.00846644984968352
429.0, 0.009352136923372398
430.0, 0.007850871846122105
431.0, 0.014301329182758924
432.0, 0.00605971332868189
433.0, 0.00646712246961717
434.0, 0.02512590342207497
435.0, 0.011066806969723543
436.0, 0.008003574766553181
437.0, 0.010977565395299826
438.0, 0.0035249390263245306
439.0, 0.006647663322233621
440.0, 0.004463570852920529
441.0, 0.016526937570962894
442.0, 0.027279642114458765
443.0, 0.024483301856163833
444.0, 0.004740008097929826
445.0, 0.012793986335136686
446.0, 0.024866052907723167
447.0, 0.028459654572866453
448.0, 0.028018904260473054
449.0, 0.03456208022321383
450.0, 0.05508520602070576
451.0, 0.056394582393177246
452.0, 0.04147682135993596
453.0, 0.03784806532535773
454.0, 0.050352271930737394
455.0, 0.062302760282816234
456.0, 0.06391851101410277
457.0, 0.0672798847998976
458.0, 0.06303246053450322
459.0, 0.07127592788514753
460.0, 0.07948033401749172
461.0, 0.058689003976651104
462.0, 0.06544970707999448
463.0, 0.06568813220071155
464.0, 0.06405595155402068
465.0, 0.06891084071997397
466.0, 0.07485161629560194
467.0, 0.06087628594370067
468.0, 0.044491458008198495
469.0, 0.051897786694121824
470.0, 0.05157677511847629
471.0, 0.04000196917504587
472.0, 0.04062007096156632
473.0, 0.0572807023287159
474.0, 0.042677379128823384
475.0, 0.03174748089979967
476.0, 0.033288175510534396
477.0, 0.0455091008955601
478.0, 0.06387687767858806
479.0, 0.05969454029826744
480.0, 0.038146413486886376
481.0, 0.03344241172044006
482.0, 0.0312652887290954
483.0, 0.029117268749887182
484.0, 0.051369225092135644
485.0, 0.07057358982808624
486.0, 0.0629348086119443
487.0, 0.04113093113022855
488.0, 0.027969620005706793
489.0, 0.03670063636165562
490.0, 0.06483912913060676
491.0, 0.05416877223711865
492.0, 0.054663879370672935
493.0, 0.055140460370779625
494.0, 0.056433980269736894
495.0, 0.062323232595111355
496.0, 0.0578763722820759
497.0, 0.049891292476404295
498.0, 0.05050738060895373
499.0, 0.052675105188127236
500.0, 0.04801978496439623
501.0, 0.04091709778884724
502.0, 0.04600139291420976
503.0, 0.043842887031643844
504.0, 0.05103134767755212
505.0, 0.05619361339061009
506.0, 0.056998602311225714
507.0, 0.054335388519624876
508.0, 0.03229960577726959
509.0, 0.03175012834948558
510.0, 0.04141847632578273
511.0, 0.03682243553264948
512.0, 0.03170376256463041
513.0, 0.04091259562709567
514.0, 0.036825273974051456
515.0, 0.03520437732017334
516.0, 0.03444259415160748
517.0, 0.040280279510709255
518.0, 0.04224679686485419
519.0, 0.032017203114480496
520.0, 0.02886258600516649
521.0, 0.02880899631180873
522.0, 0.021764972834904295
523.0, 0.02381400316149458
524.0, 0.03144615838854152
525.0, 0.028074832794302576
526.0, 0.013942690973234357
527.0, 0.017372220284859206
528.0, 0.014504048690578523
529.0, 0.020588005451196965
530.0, 0.033953717820051056
531.0, 0.03571496826863486
532.0, 0.021164484518557118
533.0, 0.011871883531520832
534.0, 0.017969229800196267
535.0, 0.019049645456466795
536.0, 0.005021333734184728
537.0, 0.008541804049272437
538.0, 0.01732515029266758
539.0, 0.014669048161760435
540.0, 0.009647234199060129
541.0, 0.007561916121867411
542.0, 0.007330561152902784
543.0, 0.007234877196814742
544.0, 0.002578662633839638
545.0, 0.0007967099364778652
546.0, 0.0006452288076033262
547.0, 0.0048179504210482255
548.0, 0.008961242067748308
549.0, 0.002437930280565332
550.0, 0.01156392978451284
551.0, 0.002228173398515154
552.0, 0.0053593608858957175
553.0, 0.0037317174691660487
554.0, 0.0037061011213866584
555.0, 0.011910234807690065
556.0, 0.010055407969020793
557.0, 0.007863447829063213
558.0, 0.02408182731350123
559.0, 0.015684899566005484
560.0, 0.009460963563445252
561.0, 0.013549297334381302
562.0, 0.01195074894057155
563.0, 0.022364137212100732
564.0, 0.016892852713542232
565.0, 0.02086614384734906
566.0, 0.016885965142865833
567.0, 0.00996929206906729
568.0, 0.013474114635561822
569.0, 0.010537305269469787
570.0, 0.02666535127458322
571.0, 0.015366849447981178
572.0, 0.01632969871271473
573.0, 0.010886290680066826
574.0, 0.005347437117652022
575.0, 0.011209409808288846
576.0, 0.027614583214380237
577.0, 0.02210420619995088
578.0, 0.02596010006489354
579.0, 0.026619309565751464
580.0, 0.019594412583575405
581.0, 0.021757572015957554
582.0, 0.021209441145337037
583.0, 0.009762090054520346
584.0, 0.004830384705476325
585.0, 0.004685167014627726
586.0, 0.010304662016226552
587.0, 0.014926666664253742
588.0, 0.0031276914018421235
589.0, 0.014471774854236187
590.0, 0.01514558083591233
591.0, 0.013387704603995102
592.0, 0.01062889158710645
593.0, 0.0067029825161242
594.0, 0.009665956601188387
595.0, 0.02552236986627092
596.0, 0.012845834510059703
597.0, 0.014761023872728056
598.0, 0.018410489505628257
599.0, 0.014489802184901231
600.0, 0.010527785360619216
601.0, 0.012059744670842944
602.0, 0.0037498367059267453
603.0, 0.021875689897475816
604.0, 0.027834845341182864
605.0, 0.023500059148975048
606.0, 0.024891260572994713
607.0, 0.027142490173441218
608.0, 0.011912458783919649
609.0, 0.016863373654446085
610.0, 0.0161757497187684
611.0, 0.007104558777821076
612.0, 0.006936497500740095
613.0, 0.006906984781525227
614.0, 0.0007051702600215948
615.0, 0.02451030381221494
616.0, 0.019605538493895916
617.0, 0.02708877340887266
618.0, 0.021980144791817438
619.0, 0.009890762636351417
620.0, 0.012638258371704568
621.0, 0.022170027747675892
622.0, 0.02025492350835793
623.0, 0.018620793527985176
624.0, 0.017901064962084545
625.0, 0.016324990630957308
626.0, 0.020315244593244994
627.0, 0.022171616018509335
628.0, 0.004914259768359604
629.0, 0.0244485423060338
630.0, 0.031465104248186236
631.0, 0.016158714142241924
632.0, 0.0030508270863723454
633.0, 0.003154712071173236
634.0, 0.001546438029088239
635.0, 0.007404440069230655
636.0, 0.016476919184554874
637.0, 0.008697668987497518
638.0, 0.0008477877722486294
639.0, 0.001063145432985471
640.0, 0.003603143083036575
641.0, 0.001797909343252338
642.0, 0.0032900437251822618
643.0, 0.005234264050651137
644.0, 0.0010206657029100362
645.0, 0.009257144542679457
646.0, 0.005776420432282052
647.0, 0.0012395292667154757
648.0, 0.0022288446973030398
649.0, 0.007173409616467154
650.0, 0.011986200516274028
651.0, 0.002345392731298004
652.0, 0.001671423077710854
653.0, 0.005823848989295592
654.0, 0.002695836552542563
655.0, 0.015774290641005443
656.0, 0.0027161811745565387
657.0, 0.007848310113119046
658.0, 0.001761830807552435
659.0, 0.012822080110958149
660.0, 0.01375036640711378
661.0, 0.010023659073410324
662.0, 0.012912042387217533
663.0, 0.008070787166231396
664.0, 0.006462877773936891
665.0, 0.003478394007767731
666.0, 0.008240790212744075
667.0, 0.015125904140113276
668.0, 0.01154981029250117
669.0, 0.018284790255968422
670.0, 0.02201139131659788
671.0, 0.008237420165964541
672.0, 0.006845736047541279
673.0, 0.012724170976227283
674.0, 0.0288365239282451
675.0, 0.03990423449991187
676.0, 0.031042873527479614
677.0, 0.04455402378632963
678.0, 0.043697059292901574
679.0, 0.04204251869596915
680.0, 0.03887925095889186
681.0, 0.048871949353120336
682.0, 0.0662375992969536
683.0, 0.07598854588293456
684.0, 0.08566286866408308
685.0, 0.07244737507681163
686.0, 0.0923655350633919
687.0, 0.0876666130254824
688.0, 0.08574875111490977
689.0, 0.09600714769548767
690.0, 0.10537379724996992
691.0, 0.11601740368864531
692.0, 0.12581982664775027
693.0, 0.1317140513306087
694.0, 0.13261511393196984
695.0, 0.1335007260976003
696.0, 0.13560328074771266
697.0, 0.1408227377522656
698.0, 0.15262377214657458
699.0, 0.1679923341275007
700.0, 0.16500277269877897
701.0, 0.16604074131785662
702.0, 0.1769053310199722
703.0, 0.19587457962473545
704.0, 0.20416424052580753
705.0, 0.19707242951762147
706.0, 0.20370033018412625
707.0, 0.21021077134252325
708.0, 0.17953682590169218
709.0, 0.1617004920941951
710.0, 0.16178775963289244
711.0, 0.15360522395179757
712.0, 0.13945239747468013
713.0, 0.14263677396640362
714.0, 0.12237487138277256
715.0, 0.09853003044649951
716.0, 0.09566215688613469
717.0, 0.09091001081491375
718.0, 0.09981215955257344
719.0, 0.11000986369168897
720.0, 0.10683590783153037
721.0, 0.11305981805179925
722.0, 0.12222001624824272
723.0, 0.11903894391949646
724.0, 0.11716142576907052
725.0, 0.1313100305486531
726.0, 0.12998415634454008
727.0, 0.12128613972053044
728.0, 0.13589360494341535
729.0, 0.14306381232911788
730.0, 0.14410851907750424
731.0, 0.1625950238642093
732.0, 0.1736435870815327
733.0, 0.17358134919946253
734.0, 0.16584396879118798
735.0, 0.15620676902745004
736.0, 0.15256324984917302
737.0, 0.1481180402328918
738.0, 0.12879245596820574
739.0, 0.11414440163830882
740.0, 0.1200129570993343
741.0, 0.09397694254959663
742.0, 0.06243641081257725
743.0, 0.06514761928285528
744.0, 0.06474493572202288
745.0, 0.05592933145067166
746.0, 0.039261368074230474
747.0, 0.019752275138511795
748.0, 0.034812615277553596
749.0, 0.029387151780979462
750.0, 0.021172351020143823
751.0, 0.029284040649270798
752.0, 0.01274507013696173
753.0, 0.003523423060932407
754.0, 0.024642051623129997
755.0, 0.025093278047784443
756.0, 0.014853239900308481
757.0, 0.008791508278617492
758.0, 0.008492915529173292
759.0, 0.024124166892049333
760.0, 0.050504640670586284
761.0, 0.036824423356275095
762.0, 0.04067111128960904
763.0, 0.04677223911374527
764.0, 0.04240143212436882
765.0, 0.04485937484675749
766.0, 0.05999614002347235
767.0, 0.06733793674239263
768.0, 0.059923672442560395
769.0, 0.0693824413182409
770.0, 0.06512227195944945
771.0, 0.0723998003485162
772.0, 0.07921664060628683
773.0, 0.07451153420654673
774.0, 0.07053233568491199
775.0, 0.07510142212046536
776.0, 0.07681483444859556
777.0, 0.06813016302084292
778.0, 0.057203307017036915
779.0, 0.05757648169548867
780.0, 0.05019914088517316
781.0, 0.0428365449165041
782.0, 0.04216136326661969
783.0, 0.0420128563220099
784.0, 0.02729420945920085
785.0, 0.015561156862494195
786.0, 0.0047520315347141405
787.0, 0.014995627480103434
788.0, 0.013416354940193855
789.0, 0.005840561061130138
790.0, 0.0090772540914245
791.0, 0.0026130757474794254
792.0, 0.008559258486046778
793.0, 0.008511312350756322
794.0, 0.020969128841062373
795.0, 0.013899204339206994
796.0, 0.022817988010573116
797.0, 0.03273485357427392
798.0, 0.049671330402025385
799.0, 0.04658081329271539
800.0, 0.045121287752926176
801.0, 0.06569364573261208
802.0, 0.06908286748906936
803.0, 0.09319458150693792
804.0, 0.10324243653535711
805.0, 0.10265225262367426
806.0, 0.1201325775845233
807.0, 0.13242245365409255
808.0, 0.14126009434954806
809.0, 0.16302177950307017
810.0, 0.17880427568819304
811.0, 0.19426969953750942
812.0, 0.20146506194063532
813.0, 0.23121667446662988
814.0, 0.2596288066316711
815.0, 0.2665167430763633
816.0, 0.2916189822745754
817.0, 0.3254462331744972
818.0, 0.3367549214780633
819.0, 0.3468049695099186
820.0, 0.3632804500293158
821.0, 0.38045160988437376
822.0, 0.3815119581139797
823.0, 0.38243250100155407
824.0, 0.3719699326962315
825.0, 0.364301354233368
826.0, 0.3654259996311094
827.0, 0.35420759378615846
828.0, 0.33490278140345925
829.0, 0.33061215078818423
830.0, 0.3327294813256429
831.0, 0.31024794824067425
832.0, 0.3167625605704859
833.0, 0.3208903302750973
834.0, 0.3333266680258559
835.0, 0.3546244253061913
836.0, 0.3726930388399645
837.0, 0.40812160094584826
838.0, 0.45592206955630926
839.0, 0.5054444864847748
840.0, 0.578822304102836
841.0, 0.6299360727505778
842.0, 0.6876547614264128
843.0, 0.7591743000531106
844.0, 0.8407787775507942
845.0, 0.9152199922007338
846.0, 0.9480744102267745
847.0, 0.9979742445118198
848.0, 0.9941023385421708
849.0, 0.9911616147421977
850.0, 0.9484051079761683
851.0, 0.905785530331987
852.0, 0.8419365840461966
853.0, 0.7684311424168742
854.0, 0.698106218455196
855.0, 0.6215476355430352
856.0, 0.5692266197636452
857.0, 0.5026044075826293
858.0, 0.4537734923851241
859.0, 0.37706339766427716
860.0, 0.3278405808414162
861.0, 0.274246456175174
862.0, 0.2276233268909623
863.0, 0.20186392707169465
864.0, 0.1668482824660025
865.0, 0.1436480861987248
866.0, 0.13935363804686382
867.0, 0.09430181504263743
868.0, 0.08464232980597418
869.0, 0.0751682968889616
870.0, 0.06071519925988005
871.0, 0.05728867039565758
872.0, 0.05667539367718434
873.0, 0.04990411610809674
874.0, 0.04295830744921964
875.0, 0.03616113775810048
876.0, 0.03493717324659221
877.0, 0.014625781107432248
878.0, 0.007547093108735428
879.0, 0.019462638145644133
880.0, 0.021482420125480343
881.0, 0.010891180058997805
882.0, 0.01150776627302615
883.0, 0.014888152549481908
884.0, 0.0022823462669766684
885.0, 0.015669968709869087
886.0, 0.004657329076889432
887.0, 0.009548634861070875
888.0, 0.0022043971734943563
889.0, 0.011707903447899223
890.0, 0.005086847250257169
891.0, 0.004174792578689303
892.0, 0.010302729021236587
893.0, 0.0014751635737627828
894.0, 0.004364551563210961
895.0, 0.005388316576549554
896.0, 0.002319204545873334
897.0, 0.003323026656422797
898.0, 0.001129657570220025
899.0, 0.0029255590927478783
900.0, 0.0028027784942405614
901.0, 0.010654823135111666
902.0, 0.01612423031956422
903.0, 0.007514094667352177
904.0, 0.001011887012534778
905.0, 0.002596854800584307
906.0, 0.004024881356919189
907.0, 0.009306587617074263
908.0, 0.0018898301540367294
909.0, 0.0057170328107426244
910.0, 0.010560675272645523
911.0, 0.004294368031905501
912.0, 0.01127625930614976
913.0, 0.002665558908500267
914.0, 0.0028503666945063357
915.0, 0.008785270822566697
916.0, 0.009513603704386767
917.0, 0.003314543769881715
918.0, 0.003796045688258004
919.0, 0.017948125083264755
920.0, 0.02044267162691596
921.0, 0.02283783615909451
922.0, 0.011778749662831278
923.0, 0.001758733131517378
924.0, 0.01088363274847962
925.0, 0.02147895102230634
926.0, 0.022382726036623276
927.0, 0.006990805698577363
928.0, 0.007502250979957497
929.0, 0.009624617389134634
930.0, 0.008661563771457421
931.0, 0.011228249214574406
932.0, 0.012636542470091825
933.0, 0.011911806610181243
934.0, 0.017137491028432702
935.0, 0.012005843926502424
936.0, 0.004063686005898429
937.0, 0.01485839075805576
938.0, 0.018016148511218594
939.0, 0.015134743370081636
940.0, 0.013664860116691933
941.0, 0.016861093957225425
942.0, 0.018176468958836192
943.0, 0.0072316618522176865
944.0, 0.011258907751949218
945.0, 0.032394203831151235
946.0, 0.025139323265541802
947.0, 0.0033277927922164066
948.0, 0.014560564769716827
949.0, 0.012887992826998476
950.0, 0.011299324876380919
951.0, 0.029314892799073164
952.0, 0.011868056571810077
953.0, 0.004897590147232283
954.0, 0.010256486141169512
955.0, 0.01891764334286847
956.0, 0.02389270259331502
957.0, 0.02472296079851429
958.0, 0.021432282290694125
959.0, 0.012296415749226436
960.0, 0.01565338583624834
961.0, 0.011254721776340041
962.0, 0.023321930541296436
963.0, 0.01641043665888825
964.0, 0.021202255664929445
965.0, 0.01180619280452241
966.0, 0.018990208309477292
967.0, 0.014111701429593438
968.0, 0.008314838015341624
969.0, 0.01882482398116394
970.0, 0.013457496905334104
971.0, 0.015843789150212294
972.0, 0.018680899823045983
973.0, 0.012284356014742655
974.0, 0.01882118051683565
975.0, 0.015498074599930911
976.0, 0.011895259697157339
977.0, 0.010826159323251257
978.0, 0.010853339123174328
979.0, 0.016616861334656275
980.0, 0.020403287879338247
981.0, 0.017121327024489576
982.0, 0.014737993389223245
983.0, 0.016610801345008787
984.0, 0.020386332831405604
985.0, 0.01047164837635782
986.0, 0.01007187420144642
987.0, 0.017930334462851198
988.0, 0.016208293624086594
989.0, 0.018539529433047326
990.0, 0.02823697904791168
991.0, 0.021282855946013705
992.0, 0.013209696972372405
993.0, 0.012880008339656314
994.0, 0.01059807282821803
995.0, 0.0210174085559499
996.0, 0.024632487145493518
997.0, 0.020143804002512655
998.0, 0.011363521830812663
999.0, 0.009574052420503177
1000.0, 0.010814450519806146
1001.0, 0.01379323443679916
1002.0, 0.0225111855635748
1003.0, 0.020274601681237948
1004.0, 0.011065453742075666
1005.0, 0.00771431124713972
1006.0, 0.011109878313224728
1007.0, 0.015469058749238162
1008.0, 0.013428383864948788
1009.0, 0.003755823695750148
1010.0, 0.013208972919405046
1011.0, 0.0094006434855563
1012.0, 0.006719242175527661
1013.0, 0.00595563124425882
1014.0, 0.0021708812402826943
1015.0, 0.00559587469741663
1016.0, 0.01148353472764655
1017.0, 0.015589782339360128
1018.0, 0.007978171479126552
1019.0, 0.003962897893482694
1020.0, 0.010084976221177272
1021.0, 0.004657629745654242
1022.0, 0.0020312388338790685
1023.0, 0.004076205246745978
1024.0, 0.006488109120370397
1025.0, 0.011542819792615441
1026.0, 0.0039956686937134825
1027.0, 0.01309925115588207
1028.0, 0.004419183553907869
1029.0, 0.01187575456839441
1030.0, 0.016318474379565323
1031.0, 0.001382738841904599
1032.0, 0.0006720185589206089
1033.0, 0.007407062352041898
1034.0, 0.004125732550212715
1035.0, 0.0157053704121397
1036.0, 0.002275624937604006
1037.0, 0.002941440586497356
1038.0, 0.013071920990020447
1039.0, 0.011582160613906838
1040.0, 0.00816808394997598
1041.0, 0.01874807853791522
1042.0, 0.034328368907895965
1043.0, 0.02361180769554811
1044.0, 0.014218158984687894
1045.0, 0.007342220191098705
1046.0, 0.010052054270875736
1047.0, 0.023228675627881962
1048.0, 0.020674488772556055
1049.0, 0.020899666761594295
1050.0, 0.004961707613244849
1051.0, 0.0029665837888604354
1052.0, 0.0026397667042013418
1053.0, 0.015482611923691285
1054.0, 0.022571953832678703
1055.0, 0.01208486398700118
1056.0, 0.0031108790011827544
1057.0, 0.00611977370763926
1058.0, 0.00858521146898393
1059.0, 0.015111938489834876
1060.0, 0.01922472435086126
1061.0, 0.01743200485510734
1062.0, 0.023455661412314893
1063.0, 0.028344294814283973
1064.0, 0.023849849942283834
1065.0, 0.029251895314933194
1066.0, 0.024886805577931777
1067.0, 0.013387338278276852
1068.0, 0.013106747859505101
1069.0, 0.030379554680934638
1070.0, 0.03668453954440614
1071.0, 0.027975560739977964
1072.0, 0.032192507936854874
1073.0, 0.02747949450151632
1074.0, 0.023029914708329192
1075.0, 0.028812025412563252
1076.0, 0.0407719885556613
1077.0, 0.03876221182684013
1078.0, 0.024025840793388053
1079.0, 0.02997633590595004
1080.0, 0.03874594773203118
1081.0, 0.03353902710051444
1082.0, 0.02193977086800717
1083.0, 0.02940491337327941
1084.0, 0.04239335596363878
1085.0, 0.05184281292330436
1086.0, 0.03405648316891897
1087.0, 0.03916150100978336
1088.0, 0.03566393742709098
1089.0, 0.037772036131138415
1090.0, 0.03361342089191354
1091.0, 0.03604521128203252
1092.0, 0.04784576186438129
1093.0, 0.04743713683850664
1094.0, 0.04084383963683937
1095.0, 0.033751729192500676
1096.0, 0.026566895739177237
1097.0, 0.029419042290086142
1098.0, 0.040375962160647434
1099.0, 0.02438592456260145
1100.0, 0.020388920664908248
1101.0, 0.032516519667781046
1102.0, 0.04031463288725616
1103.0, 0.03887577474947319
1104.0, 0.04112580902849077
1105.0, 0.032526275522108156
1106.0, 0.023722063005923565
1107.0, 0.020217841135890913
1108.0, 0.029462594157883052
1109.0, 0.03592203726671751
1110.0, 0.032555765428173976
1111.0, 0.02601697502751514
1112.0, 0.022607812665840273
1113.0, 0.03728957460572341
1114.0, 0.03817695885201511
1115.0, 0.010815069450559506
1116.0, 0.017388103547326096
1117.0, 0.01984890168370686
1118.0, 0.024467926429492602
1119.0, 0.025555530272844736
1120.0, 0.01414067439709752
1121.0, 0.01614714793080507
1122.0, 0.022710986105889838
1123.0, 0.025674987040793396
1124.0, 0.01704801596576509
1125.0, 0.019374465253179398
1126.0, 0.012245220213576954
1127.0, 0.0016931233602651722
1128.0, 0.008755534870374261
1129.0, 0.015184372575467538
1130.0, 0.014424129714143854
1131.0, 0.013997765447517572
1132.0, 0.015609472350237416
1133.0, 0.020588062931215394
1134.0, 0.023640374661691683
1135.0, 0.028501900713664537
1136.0, 0.023325752294614584
1137.0, 0.011591263667503668
1138.0, 0.00823130425623717
1139.0, 0.029154749344601293
1140.0, 0.022574853096591605
1141.0, 0.017462858704726508
1142.0, 0.01370855144463292
1143.0, 0.02262988892949968
1144.0, 0.02894559948278804
1145.0, 0.030130511066877013
1146.0, 0.015962347509251778
1147.0, 0.01648449740098345
1148.0, 0.029598456936266497
1149.0, 0.013925915771181276
1150.0, 0.0035553171785765083
1151.0, 0.017638842295499845
1152.0, 0.01890134641929427
1153.0, 0.002592612269702987
1154.0, 0.008466576647586549
1155.0, 0.009452976329168986
1156.0, 0.020204534574251833
1157.0, 0.024287004782564084
1158.0, 0.014899319981377963
1159.0, 0.015878300585802595
1160.0, 0.0035994477813715794
1161.0, 0.010740551432097397
1162.0, 0.013382334239629904
1163.0, 0.023818269425891835
1164.0, 0.020874037168449794
1165.0, 0.02004898022501694
1166.0, 0.008352847314349005
1167.0, 0.009657099175083428
1168.0, 0.012717072903117023
1169.0, 0.00976024598619386
1170.0, 0.006739162178665125
1171.0, 0.002279686174041763
1172.0, 0.007927445750945537
1173.0, 0.0001477323425425963
1174, 0.0
1175, 0.0
1176, 0.0
1177, 0.0
1178, 0.0
1179, 0.0
1180, 0.0
1181, 0.0
1182, 0.0
1183, 0.0
1184, 0.0
1185, 0.0
1186, 0.0
1187, 0.0
1188, 0.0
1189, 0.0
1190, 0.0
1191, 0.0
1192, 0.0
1193, 0.0
1194, 0.0
1195, 0.0
1196, 0.0
1197, 0.0
1198, 0.0
1199, 0.0
1200, 0.0
1201, 0.0
1202, 0.0
1203, 0.0
1204, 0.0
1205, 0.0
1206, 0.0
1207, 0.0
1208, 0.0
1209, 0.0
1210, 0.0
1211, 0.0
1212, 0.0
1213, 0.0
1214, 0.0
1215, 0.0
1216, 0.0
1217, 0.0
1218, 0.0
1219, 0.0
1220, 0.0
1221, 0.0
1222, 0.0
1223, 0.0
1224, 0.0
1225, 0.0
1226, 0.0
1227, 0.0
1228, 0.0
1229, 0.0
1230, 0.0
1231, 0.0
1232, 0.0
1233, 0.0
1234, 0.0
1235, 0.0
1236, 0.0
1237, 0.0
1238, 0.0
1239, 0.0
1240, 0.0
1241, 0.0
1242, 0.0
1243, 0.0
1244, 0.0
1245, 0.0
1246, 0.0
1247, 0.0
1248, 0.0
1249, 0.0
1250, 0.0
1251, 0.0
1252, 0.0
1253, 0.0
1254, 0.0
1255, 0.0
1256, 0.0
1257, 0.0
1258, 0.0
1259, 0.0
1260, 0.0
1261, 0.0
1262, 0.0
1263, 0.0
1264, 0.0
1265, 0.0
1266, 0.0
1267, 0.0
1268, 0.0
1269, 0.0
1270, 0.0
1271, 0.0
1272, 0.0
1273, 0.0
1274, 0.0
1275, 0.0
1276, 0.0
1277, 0.0
1278, 0.0
1279, 0.0
1280, 0.0
1281, 0.0
1282, 0.0
1283, 0.0
1284, 0.0
1285, 0.0
1286, 0.0
1287, 0.0
1288, 0.0
1289, 0.0
1290, 0.0
1291, 0.0
1292, 0.0
1293, 0.0
1294, 0.0
1295, 0.0
1296, 0.0
1297, 0.0
1298, 0.0
1299, 0.0
1300, 0.0
1301, 0.0
1302, 0.0
1303, 0.0
1304, 0.0
1305, 0.0
1306, 0.0
1307, 0.0
1308, 0.0
1309, 0.0
1310, 0.0
1311, 0.0
1312, 0.0
1313, 0.0
1314, 0.0
1315, 0.0
1316, 0.0
1317, 0.0
1318, 0.0
1319, 0.0
1320, 0.0
1321, 0.0
1322, 0.0
1323, 0.0
1324, 0.0
1325, 0.0
1326, 0.0
1327, 0.0
1328, 0.0
1329, 0.0
1330, 0.0
1331, 0.0
1332, 0.0
1333, 0.0
1334, 0.0
1335, 0.0
1336, 0.0
1337, 0.0
1338, 0.0
1339, 0.0
1340, 0.0
1341, 0.0
1342, 0.0
1343, 0.0
1344, 0.0
1345, 0.0
1346, 0.0
1347, 0.0
1348, 0.0
1349, 0.0
1350, 0.0
1351, 0.0
1352, 0.0
1353, 0.0
1354, 0.0
1355, 0.0
1356, 0.0
1357, 0.0
1358, 0.0
1359, 0.0
1360, 0.0
1361, 0.0
1362, 0.0
1363, 0.0
1364, 0.0
1365, 0.0
1366, 0.0
1367, 0.0
1368, 0.0
1369, 0.0
1370, 0.0
1371, 0.0
1372, 0.0
1373, 0.0
1374, 0.0
1375, 0.0
1376, 0.0
1377, 0.0
1378, 0.0
1379, 0.0
1380, 0.0
1381, 0.0
1382, 0.0
1383, 0.0
1384, 0.0
1385, 0.0
1386, 0.0
1387, 0.0
1388, 0.0
1389, 0.0
1390, 0.0
1391, 0.0
1392, 0.0
1393, 0.0
1394, 0.0
1395, 0.0
1396, 0.0
1397, 0.0
1398, 0.0
1399, 0.0
1400, 0.0
1401, 0.0
1402, 0.0
1403, 0.0
1404, 0.0
1405, 0.0
1406, 0.0
1407, 0.0
1408, 0.0
1409, 0.0
1410, 0.0
1411, 0.0
1412, 0.0
1413, 0.0
1414, 0.0
1415, 0.0
1416, 0.0
1417, 0.0
1418, 0.0
1419, 0.0
1420, 0.0
1421, 0.0
1422, 0.0
1423, 0.0
1424, 0.0
1425, 0.0
1426, 0.0
1427, 0.0
1428, 0.0
1429, 0.0
1430, 0.0
1431, 0.0
1432, 0.0
1433, 0.0
1434, 0.0
1435, 0.0
1436, 0.0
1437, 0.0
1438, 0.0
1439, 0.0
1440, 0.0
1441, 0.0
1442, 0.0
1443, 0.0
1444, 0.0
1445, 0.0
1446, 0.0
1447, 0.0
1448, 0.0
1449, 0.0
1450, 0.0
1451, 0.0
1452, 0.0
1453, 0.0
1454, 0.0
1455, 0.0
1456, 0.0
1457, 0.0
1458, 0.0
1459, 0.0
1460, 0.0
1461, 0.0
1462, 0.0
1463, 0.0
1464, 0.0
1465, 0.0
1466, 0.0
1467, 0.0
1468, 0.0
1469, 0.0
1470, 0.0
1471, 0.0
1472, 0.0
1473, 0.0
1474, 0.0
1475, 0.0
1476, 0.0
1477, 0.0
1478, 0.0
1479, 0.0
1480, 0.0
1481, 0.0
1482, 0.0
1483, 0.0
1484, 0.0
1485, 0.0
1486, 0.0
1487, 0.0
1488, 0.0
1489, 0.0
1490, 0.0
1491, 0.0
1492, 0.0
1493, 0.0
1494, 0.0
1495, 0.0
1496, 0.0
1497, 0.0
1498, 0.0
1499, 0.0
1500, 0.0
1501, 0.0
1502, 0.0
1503, 0.0
1504, 0.0
1505, 0.0
1506, 0.0
1507, 0.0
1508, 0.0
1509, 0.0
1510, 0.0
1511, 0.0
1512, 0.0
1513, 0.0
1514, 0.0
1515, 0.0
1516, 0.0
1517, 0.0
1518, 0.0
1519, 0.0
1520, 0.0
1521, 0.0
1522, 0.0
1523, 0.0
1524, 0.0
1525, 0.0
1526, 0.0
1527, 0.0
1528, 0.0
1529, 0.0
1530, 0.0
1531, 0.0
1532, 0.0
1533, 0.0
1534, 0.0
1535, 0.0
1536, 0.0
1537, 0.0
1538, 0.0
1539, 0.0
1540, 0.0
1541, 0.0
1542, 0.0
1543, 0.0
1544, 0.0
1545, 0.0
1546, 0.0
1547, 0.0
1548, 0.0
1549, 0.0
1550, 0.0
1551, 0.0
1552, 0.0
1553, 0.0
1554, 0.0
1555, 0.0
1556, 0.0
1557, 0.0
1558, 0.0
1559, 0.0
1560, 0.0
1561, 0.0
1562, 0.0
1563, 0.0
1564, 0.0
1565, 0.0
1566, 0.0
1567, 0.0
1568, 0.0
1569, 0.0
1570, 0.0
1571, 0.0
1572, 0.0
1573, 0.0
1574, 0.0
1575, 0.0
1576, 0.0
1577, 0.0
1578, 0.0
1579, 0.0
1580, 0.0
1581, 0.0
1582, 0.0
1583, 0.0
1584, 0.0
1585, 0.0
1586, 0.0
1587, 0.0
1588, 0.0
1589, 0.0
1590, 0.0
1591, 0.0
1592, 0.0
1593, 0.0
1594, 0.0
1595, 0.0
1596, 0.0
1597, 0.0
1598, 0.0
1599, 0.0
