30, 0.0
31, 0.0
32, 0.0
33, 0.0
34, 0.0
35, 0.0
36, 0.0
37, 0.0
38, 0.0
39, 0.0
40, 0.0
41, 0.0
42, 0.0
43, 0.0
44, 0.0
45, 0.0
46, 0.0
47, 0.0
48, 0.0
49, 0.0
50, 0.0
51, 0.0
52, 0.0
53, 0.0
54, 0.0
55, 0.0
56, 0.0
57, 0.0
58, 0.0
59, 0.0
60, 0.0
61, 0.0
62, 0.0
63, 0.0
64, 0.0
65, 0.0
66, 0.0
67, 0.0
68, 0.0
69, 0.0
70, 0.0
71, 0.0
72, 0.0
73, 0.0
74, 0.0
75, 0.0
76, 0.0
77, 0.0
78, 0.0
79, 0.0
80, 0.0
81, 0.0
82, 0.0
83, 0.0
84, 0.0
85, 0.0
86, 0.0
87, 0.0
88, 0.0
89, 0.0
90, 0.0
91, 0.0
92, 0.0
93, 0.0
94, 0.0
95, 0.0
96, 0.0
97.0, 3.426803748407122e-05
98.0, 0.0002755922451183826
99.0, 0.00017346774620714478
100.0, 0.00011153646255865094
101.0, 0.0003305185362785137
102.0, 0.0002826929993005153
103.0, 0.0002486518974259956
104.0, 0.000227702953732891
105.0, 0.00018544550108144222
106.0, 0.0004871045440450906
107.0, 0.0009228296904492593
108.0, 0.0014178670254661957
109.0, 0.0011074859646247536
110.0, 0.000743796413631976
111.0, 0.0005838796945593966
112.0, 0.0012512332064061322
113.0, 0.0013462246292376525
114.0, 0.0014486094247700464
115.0, 0.0017210309177869948
116.0, 0.0022570811362135138
117.0, 0.0022703371479031896
118.0, 0.0021637923454731712
119.0, 0.0024562312845844763
120.0, 0.002276268023916465
121.0, 0.00229422713172899
122.0, 0.0026063369522258037
123.0, 0.0031266517886459977
124.0, 0.004397649953744062
125.0, 0.006044746643851594
126.0, 0.007848452976394154
127.0, 0.010770230921495007
128.0, 0.01360538558040227
129.0, 0.01654485304970159
130.0, 0.020732594451535604
131.0, 0.02538729105935289
132.0, 0.03071207488725612
133.0, 0.03688696150558206
134.0, 0.03979488912567696
135.0, 0.03848016932359377
136.0, 0.03350541114784295
137.0, 0.025162730924972503
138.0, 0.01930060041643651
139.0, 0.014055794825554394
140.0, 0.009174864841191887
141.0, 0.007329800872098115
142.0, 0.005427311304705927
143.0, 0.003692774893235571
144.0, 0.002434197220083729
145.0, 0.002199554351578133
146.0, 0.0021309390257196904
147.0, 0.002167784608293861
148.0, 0.0025267226923352225
149.0, 0.002510915779020127
150.0, 0.0026368927133227616
151.0, 0.0032268525727697844
152.0, 0.0030326923483129558
153.0, 0.003318685559352874
154.0, 0.004169983612007395
155.0, 0.00587964195634049
156.0, 0.007754626361188003
157.0, 0.011484536347083366
158.0, 0.017578275759298493
159.0, 0.025102295682829897
160.0, 0.033723868677474435
161.0, 0.04359314898325842
162.0, 0.05519852295924975
163.0, 0.06881078905142976
164.0, 0.0826722553045559
165.0, 0.09514613941938495
166.0, 0.09928240792314624
167.0, 0.08849197999794349
168.0, 0.0716514937934523
169.0, 0.05246148614897792
170.0, 0.03831840479954168
171.0, 0.027422404445600568
172.0, 0.01954802436738138
173.0, 0.014957960635591168
174.0, 0.013001941915976603
175.0, 0.011935195629780735
176.0, 0.011358080071591527
177.0, 0.010711073841226113
178.0, 0.010348398621402502
179.0, 0.009401392573071692
180.0, 0.007076764050112836
181.0, 0.006027368580757901
182.0, 0.0046557144654952864
183.0, 0.0031819087079370976
184.0, 0.0024347604839146646
185.0, 0.001780986075567069
186.0, 0.0018716195073831142
187.0, 0.002730300195275916
188.0, 0.0010780799620220714
189.0, 0.0013031568714568724
190.0, 0.0017960673088251566
191.0, 0.0008755358712506634
192.0, 0.000977338553420329
193.0, 0.0010063553725666587
194.0, 0.0009292422549159847
195.0, 0.000971670407925356
196.0, 0.0014122984487466366
197.0, 0.001612937001144827
198.0, 0.0013356003040046025
199.0, 0.001335327117301054
200.0, 0.0010409603924090563
201.0, 0.0009418278656242217
202.0, 0.0017211772425114265
203.0, 0.001512008734270532
204.0, 0.0014728099171241633
205.0, 0.001630603410248422
206.0, 0.0015487729761838305
207.0, 0.0015866539629729218
208.0, 0.0018673859988516043
209.0, 0.0024293461013961044
210.0, 0.002011727224187703
211.0, 0.0016788168422210046
212.0, 0.0016511528854141035
213.0, 0.002299345533637163
214.0, 0.0027786364509672736
215.0, 0.0031867640353183437
216.0, 0.003620746977798012
217.0, 0.004457140186316702
218.0, 0.004808165960354592
219.0, 0.00507586150859147
220.0, 0.0054207028149224415
221.0, 0.005729573472089386
222.0, 0.005951565097473342
223.0, 0.006098692707986937
224.0, 0.006171153891955971
225.0, 0.007046873703490968
226.0, 0.008334676357037678
227.0, 0.010051421209554656
228.0, 0.0124769098285986
229.0, 0.014752002264941473
230.0, 0.016318117712185914
231.0, 0.016920950572566887
232.0, 0.01663471870089501
233.0, 0.014307740023774697
234.0, 0.011313485073149216
235.0, 0.00897769769957634
236.0, 0.005965395540873754
237.0, 0.004002989840648518
238.0, 0.0028973678774765533
239.0, 0.0018613534720876021
240.0, 0.0014572998332851531
241.0, 0.0012202483220325904
242.0, 0.0010177951018388108
243.0, 0.0007622454599113915
244.0, 0.0005582031644458854
245.0, 0.00038669518044376003
246.0, 0.00023778472913910996
247.0, 0.00017681307422007757
248.0, 8.634379807998531e-05
249.0, 9.59042114634348e-05
250.0, 0.0004939637159344981
251.0, 0.00046808741848261315
252.0, 0.0004232069372771577
253.0, 0.000458193858793396
254.0, 0.0007201812318085603
255.0, 0.0005186811306547423
256.0, 0.00037468489880462997
257.0, 0.0005251563028642835
258.0, 0.00016701008067358038
259.0, 0.00010102448459343073
260.0, 0.00024928470305959373
261.0, 0.0005520897446052516
262.0, 0.0004031957536643326
263.0, 0.0007120980237827181
264.0, 0.0012125849106918401
265.0, 0.0008711815319519947
266.0, 0.0008900689597883684
267.0, 0.0012520642640111556
268.0, 0.0019055667452943662
269.0, 0.0023365322747477754
270.0, 0.00327394536483955
271.0, 0.004108887256667113
272.0, 0.004425813853300096
273.0, 0.005220187162233067
274.0, 0.005797194762101542
275.0, 0.006041632544115552
276.0, 0.005722225652378485
277.0, 0.004396025602306264
278.0, 0.003403988548458361
279.0, 0.00293025459534848
280.0, 0.003105483099437451
281.0, 0.002460043826337285
282.0, 0.00223217280935763
283.0, 0.0028431183606248064
284.0, 0.004267706358082395
285.0, 0.006026535065703638
286.0, 0.00801508775603645
287.0, 0.010182110041156113
288.0, 0.013025951433000098
289.0, 0.016625967209226784
290.0, 0.020584533690220355
291.0, 0.024306528067183523
292.0, 0.025970292677676882
293.0, 0.026437891914874258
294.0, 0.025414721058405004
295.0, 0.021348383879577763
296.0, 0.016768675976943318
297.0, 0.01207405102821405
298.0, 0.007729169421996468
299.0, 0.00671522406727313
300.0, 0.0047510699337297594
301.0, 0.0029852137041953128
302.0, 0.0021346739367038596
303.0, 0.0015425137191800377
304.0, 0.0010739968284271145
305.0, 0.000627634248224231
306.0, 7.446028949008315e-05
307.0, 0.0007778863939895415
308.0, 0.0008159874626434209
309.0, 0.00035267123602188225
310.0, 0.00013504417587072786
311.0, 0.00014528645696075887
312.0, 0.0001878548708137882
313.0, 0.00026499261806156257
314.0, 0.0006093818318059151
315.0, 0.0003135404978401436
316.0, 7.199389959632605e-05
317.0, 0.00019398331373620694
318.0, 0.0007824814392528796
319.0, 0.0011052857898628447
320.0, 0.001119753994045053
321.0, 0.0007606921376044579
322.0, 0.0006169823757602965
323.0, 0.0006048562604865965
324.0, 0.0009652888404608939
325.0, 0.002123470317585022
326.0, 0.0034817095567317496
327.0, 0.003948596334432464
328.0, 0.0041354265567601
329.0, 0.006097600329717438
330.0, 0.00681517028773746
331.0, 0.007053325535778838
332.0, 0.006970102221775854
333.0, 0.00649401003864192
334.0, 0.005734212331258498
335.0, 0.004696084126617536
336.0, 0.0034057825177916754
337.0, 0.002374182230839272
338.0, 0.0013528213814739487
339.0, 0.0006207867610770597
340.0, 0.0004068767215941231
341.0, 0.0002391052382611958
342.0, 0.00030690622455187874
343.0, 0.0005053223133853837
344.0, 0.0007074343234470193
345.0, 0.00023514961765626238
346.0, 0.00011831008016334238
347.0, 0.0004514243394910995
348.0, 0.0013338475395482203
349.0, 0.0010105160532453046
350.0, 0.0006714486986315231
351.0, 0.0006461140765994624
352.0, 0.0014663102095033873
353.0, 0.0017395793767173231
354.0, 0.002429845794088328
355.0, 0.003697703902234445
356.0, 0.004653935487883453
357.0, 0.006015514093727858
358.0, 0.007341112158980518
359.0, 0.008350098096749175
360.0, 0.008048912531769497
361.0, 0.008027605226858954
362.0, 0.008176412832456736
363.0, 0.00842120173055594
364.0, 0.008332055627230845
365.0, 0.007891223529976784
366.0, 0.007230915499911809
367.0, 0.006495278344596766
368.0, 0.005614954501399261
369.0, 0.00572661659535356
370.0, 0.006416483685723773
371.0, 0.0068616204269144054
372.0, 0.009118858625750152
373.0, 0.0113633252592945
374.0, 0.013554293864007146
375.0, 0.016203259228206885
376.0, 0.0241649638015536
377.0, 0.02843600407379712
378.0, 0.028391053692248234
379.0, 0.02938418323951842
380.0, 0.027955796899867023
381.0, 0.02482358744270386
382.0, 0.02027950820748035
383.0, 0.015036958753529842
384.0, 0.011850632526016692
385.0, 0.009659954273673657
386.0, 0.008074198937717336
387.0, 0.00784347696330755
388.0, 0.00781409881108647
389.0, 0.007818649841350125
390.0, 0.0077515656894578035
391.0, 0.007755978508228267
392.0, 0.008200804214802931
393.0, 0.008778394579802534
394.0, 0.009209350460925993
395.0, 0.007285964738748649
396.0, 0.005910004806425737
397.0, 0.004802729762672546
398.0, 0.0035705349105718456
399.0, 0.0036262233700865157
400.0, 0.002616132341627694
401.0, 0.0014552924967936576
402.0, 0.0019603840615956365
403.0, 0.0006598093643606545
404.0, 0.0002554334908771456
405.0, 0.0007220503635958293
406.0, 0.0014395670564184729
407.0, 0.0012678043110484353
408.0, 0.000778741680552815
409.0, 0.0003294484811433482
410.0, 0.0007529581902602754
411.0, 0.0005126224706293889
412.0, 0.0004383919645955284
413.0, 0.0005372590028469492
414.0, 0.00011446590547440952
415.0, 0.00016623464183235863
416.0, 0.0004356921124572574
417.0, 0.0007820208292655061
418.0, 0.0008216627827497905
419.0, 0.0008900616613847435
420.0, 0.0009122849375573838
421.0, 0.000880884290971445
422.0, 0.0009453116861578499
423.0, 0.0019183586061516395
424.0, 0.002185640447085207
425.0, 0.0012449258022542288
426.0, 0.001616084051175768
427.0, 0.00199822310082636
428.0, 0.0017372327228000939
429.0, 0.000610280587177669
430.0, 0.0009669996620342743
431.0, 0.0008762943478419801
432.0, 0.0007700750118379934
433.0, 0.0009490181719915904
434.0, 0.0018080960483693228
435.0, 0.002242518209614131
436.0, 0.0023784406808876573
437.0, 0.0023231878872531763
438.0, 0.003004947881952819
439.0, 0.0030618113218116574
440.0, 0.00298960013646855
441.0, 0.0032249517476413145
442.0, 0.002635129597584907
443.0, 0.0024612907226336392
444.0, 0.002223031796578049
445.0, 0.0014228358003763337
446.0, 0.00185504652190276
447.0, 0.002021595798039622
448.0, 0.001931764886733694
449.0, 0.0016079345324719664
450.0, 0.0025703931747229135
451.0, 0.0033559671395168027
452.0, 0.004277951047380505
453.0, 0.005790274934308125
454.0, 0.007632239346049123
455.0, 0.010257535284658144
456.0, 0.01284427477723942
457.0, 0.014224310719103364
458.0, 0.015901537504043273
459.0, 0.015528755197068046
460.0, 0.013608760286661584
461.0, 0.010987487804064434
462.0, 0.008856070512103851
463.0, 0.006898163013002922
464.0, 0.00525763669064714
465.0, 0.004206696101355785
466.0, 0.003295423073781899
467.0, 0.002391579713869294
468.0, 0.0017295085003206493
469.0, 0.001716843170553989
470.0, 0.0014133940407400987
471.0, 0.000910534631075192
472.0, 0.0006046657333751883
473.0, 0.0011559018443941574
474.0, 0.0010896735917805672
475.0, 0.0014524024739239732
476.0, 0.0016642671113808688
477.0, 0.0006119576568814988
478.0, 0.0008098625784441807
479.0, 0.001443369148774601
480.0, 0.00227159264880959
481.0, 0.003002500079591373
482.0, 0.0026056488549946887
483.0, 0.003964204080573752
484.0, 0.006106934700730306
485.0, 0.007135092386749192
486.0, 0.009771925784762547
487.0, 0.013279659210589245
488.0, 0.016927076682119457
489.0, 0.01965171634185377
490.0, 0.024360649778598104
491.0, 0.027106176478036006
492.0, 0.027237823904894144
493.0, 0.02405709675883812
494.0, 0.020334967800292803
495.0, 0.016254235421537228
496.0, 0.01237161056647828
497.0, 0.009456312237816632
498.0, 0.0069276433497339985
499.0, 0.005307462865457682
500.0, 0.004550422897593527
501.0, 0.00458248809773414
502.0, 0.003794678084879103
503.0, 0.0022673476620714895
504.0, 0.0012505103199711468
505.0, 0.002205428518905786
506.0, 0.0007920695673962514
507.0, 0.0008671132329266567
508.0, 0.0014440428371467443
509.0, 0.001430565279029018
510.0, 0.0008361973357280493
511.0, 0.00032206811061141603
512.0, 0.00019677392073254565
513.0, 0.0007238686524784743
514.0, 0.0006063428166483006
515.0, 0.00047021492967995514
516.0, 0.00032884919349123235
517.0, 0.00019458740889234958
518.0, 0.00010396329738499935
519.0, 0.00027065332766737634
520.0, 0.0004162115233045577
521.0, 0.0003679633013552896
522.0, 0.000494565430107189
523.0, 0.000375681865388425
524.0, 0.000274709000508275
525.0, 0.00031612064790369855
526.0, 0.00014786031190826542
527.0, 0.00028929801617915557
528.0, 0.0006522945875836896
529.0, 0.0010780505300462297
530.0, 0.0006540414136948041
531.0, 0.000582394691420208
532.0, 0.0009093357056009333
533.0, 0.0013956227041723981
534.0, 0.0005278653946899401
535.0, 0.00038104920527191747
536.0, 0.00045422179554692905
537.0, 0.000518301127598773
538.0, 0.00027390583776195786
539.0, 0.00025639798313436743
540.0, 0.0004976244420461022
541.0, 0.0008499126425849762
542.0, 0.0007880019626477461
543.0, 0.0012684780891534593
544.0, 0.0015117866123533286
545.0, 0.0015251997665969804
546.0, 0.0017027304254145022
547.0, 0.0027112766467345373
548.0, 0.0035255196655219743
549.0, 0.004573394558909572
550.0, 0.006967317765366935
551.0, 0.00681510047144167
552.0, 0.007914619361933653
553.0, 0.009851960180186432
554.0, 0.01154315040322821
555.0, 0.010515215630613075
556.0, 0.008925328778053665
557.0, 0.00735040400850705
558.0, 0.006343313735258813
559.0, 0.0051557728995370936
560.0, 0.004131882072577091
561.0, 0.003645804092536359
562.0, 0.003883722725774444
563.0, 0.002082987603469211
564.0, 0.0018891951170315348
565.0, 0.0017790854132189932
566.0, 0.0010295296206552771
567.0, 0.001972354011556156
568.0, 0.0018997081246006724
569.0, 0.0013743455724425629
570.0, 0.0009087640675743046
571.0, 0.002060687417776024
572.0, 0.002465397025130957
573.0, 0.0022298999751607655
574.0, 0.0015935867429522734
575.0, 0.0013579534256425356
576.0, 0.0029238293953246695
577.0, 0.003825150256886004
578.0, 0.003970917600753965
579.0, 0.004434108391434967
580.0, 0.004545102170259898
581.0, 0.005381217606588709
582.0, 0.0068296483123594905
583.0, 0.008465375824015318
584.0, 0.009816434528946162
585.0, 0.012305112459036045
586.0, 0.0157746882716572
587.0, 0.019924923743904623
588.0, 0.024931835476819167
589.0, 0.030817979506241447
590.0, 0.03707884071640692
591.0, 0.04325133974189663
592.0, 0.04875883692321711
593.0, 0.05217454092844338
594.0, 0.052336231290501495
595.0, 0.04892673435175025
596.0, 0.04425622401233098
597.0, 0.03857790588158473
598.0, 0.03241536381159341
599.0, 0.026283634834669643
600.0, 0.021519104109384533
601.0, 0.017897082026129392
602.0, 0.015413847426288353
603.0, 0.013386534162673401
604.0, 0.010141287527465726
605.0, 0.008214770427324405
606.0, 0.007859835820685052
607.0, 0.007731297348860199
608.0, 0.005737539896511636
609.0, 0.005165484831887958
610.0, 0.004295977866259666
611.0, 0.003513178739288169
612.0, 0.0032039760579604887
613.0, 0.0023681236722676324
614.0, 0.0028869398693016366
615.0, 0.003000626130806339
616.0, 0.001951315903727094
617.0, 0.002370701089046855
618.0, 0.00262057624941885
619.0, 0.0027392888516540974
620.0, 0.0027992167746283014
621.0, 0.003035111502561131
622.0, 0.0031464930040826186
623.0, 0.003281867680760018
624.0, 0.0034357237037558647
625.0, 0.0035262996498418853
626.0, 0.0037532716355157857
627.0, 0.0039357651942798465
628.0, 0.004083257716751103
629.0, 0.004230781796468392
630.0, 0.004210167722507339
631.0, 0.00378567167272725
632.0, 0.0033509634109999925
633.0, 0.0032666704329629486
634.0, 0.004016651962922725
635.0, 0.004147770817107145
636.0, 0.004367769572827219
637.0, 0.00463485592646504
638.0, 0.0030471942659800293
639.0, 0.004144698447415268
640.0, 0.004562132082660219
641.0, 0.004327433993618685
642.0, 0.005717276688884427
643.0, 0.005563375284709182
644.0, 0.0060893730966597856
645.0, 0.0067890115536464
646.0, 0.006588160053395388
647.0, 0.007376288381217768
648.0, 0.008082576167854821
649.0, 0.008709239016646443
650.0, 0.009299849731397119
651.0, 0.010210520888470286
652.0, 0.011070956504113523
653.0, 0.012296818724169175
654.0, 0.013897579720240064
655.0, 0.015060708914947688
656.0, 0.015916874155092544
657.0, 0.016970679234971007
658.0, 0.018144538908884754
659.0, 0.019005007414511853
660.0, 0.02148808518229663
661.0, 0.02482525227700421
662.0, 0.029116930393042053
663.0, 0.03449506061137342
664.0, 0.03965048903195521
665.0, 0.04588885060777123
666.0, 0.05354683700133488
667.0, 0.0623270387615762
668.0, 0.06853267150737534
669.0, 0.07401549530047989
670.0, 0.07569185749700794
671.0, 0.07361736729331038
672.0, 0.07115138520615248
673.0, 0.0672630291001643
674.0, 0.06339429835748975
675.0, 0.06075622703756406
676.0, 0.06084294385963928
677.0, 0.06034495003199139
678.0, 0.061817591730263785
679.0, 0.06531703763429539
680.0, 0.0707822618093871
681.0, 0.07817472849532293
682.0, 0.089234220637307
683.0, 0.10423151758672418
684.0, 0.1251997774262867
685.0, 0.15934275952235327
686.0, 0.20735574993361264
687.0, 0.2701514545384299
688.0, 0.3526159770007622
689.0, 0.4620908322167949
690.0, 0.6015504712753049
691.0, 0.7541229874761496
692.0, 0.8955916645463814
693.0, 0.9991830185546144
694.0, 0.9879914919054942
695.0, 0.8655882008339871
696.0, 0.7120581458922097
697.0, 0.5609087609679994
698.0, 0.41296897259903753
699.0, 0.31401640495397454
700.0, 0.2381865327216767
701.0, 0.180910219270274
702.0, 0.14091150359388335
703.0, 0.11339424076171561
704.0, 0.09105224947639134
705.0, 0.0735778297958212
706.0, 0.06062103601353003
707.0, 0.05175406599937285
708.0, 0.045952941564861086
709.0, 0.04018311935225462
710.0, 0.034072358676017905
711.0, 0.029915455676613367
712.0, 0.0274309370019324
713.0, 0.024143711852425205
714.0, 0.021031793817159906
715.0, 0.01981396098098783
716.0, 0.017716230378396796
717.0, 0.015912182671243915
718.0, 0.014067416159746356
719.0, 0.01207655533376156
720.0, 0.010651130019479139
721.0, 0.010978177909106384
722.0, 0.010396736687459171
723.0, 0.008902753388239946
724.0, 0.008133900715712284
725.0, 0.007997560505032987
726.0, 0.007447747532658345
727.0, 0.006562504246241098
728.0, 0.005615700589181369
729.0, 0.00630044386165145
730.0, 0.005213068668475
731.0, 0.004474669902682554
732.0, 0.0046871663729819825
733.0, 0.004546126364812032
734.0, 0.0036090974681383535
735.0, 0.004086177526315872
736.0, 0.004671811262617749
737.0, 0.0029740716572338806
738.0, 0.0038589560830261326
739.0, 0.00347375595018083
740.0, 0.002777350734290323
741.0, 0.00255642361568072
742.0, 0.003611003371738963
743.0, 0.0022558729518112374
744.0, 0.0014402904092997448
745.0, 0.0015292514465748272
746.0, 0.001710508279507308
747.0, 0.002757699457194573
748.0, 0.0022102938608994835
749.0, 0.0010610213402334632
750.0, 0.000381214803946435
751.0, 0.0008538873522003044
752.0, 0.0013265720619456813
753.0, 0.0009563375311395283
754.0, 5.202209945201707e-05
755.0, 0.00027069959588288666
756.0, 0.0009503112225864353
757.0, 0.0012324217687610557
758.0, 0.0010765256353268136
759.0, 0.0006661780783972463
760.0, 0.0020294284479564217
761.0, 0.001600392218370002
762.0, 0.0015684049310117395
763.0, 0.002293607739036019
764.0, 0.001691885608190161
765.0, 0.0022191537529347508
766.0, 0.0020643599733411234
767.0, 0.0012599430898061945
768.0, 0.0002458057891570166
769.0, 0.0010046488600032276
770.0, 0.0006032487273673561
771.0, 0.00031952965467794194
772.0, 0.0005461741745575792
773.0, 0.00023400774024557274
774.0, 0.0006601576282865671
775.0, 0.0005922885964721556
776.0, 0.00030282488607103955
777.0, 0.0004310826469030619
778.0, 0.000649977590419006
779.0, 0.0005081018874264317
780.0, 0.0003960622297471396
781.0, 0.0004613550394311186
782.0, 0.00041119590790205296
783.0, 0.0009537705283278767
784.0, 0.0007660388782936834
785.0, 0.00046880375261741967
786.0, 0.0011998446034884955
787.0, 0.00040320679861429267
788.0, 0.0003972039423158129
789.0, 0.0007759422936380609
790.0, 0.0010650551324421851
791.0, 0.0002818219943294892
792.0, 0.00011223923123188528
793.0, 0.00022777999727991287
794.0, 0.0003350949900736936
795.0, 0.00013912933426811892
796.0, 0.0006578159475597721
797.0, 0.00038708099503587427
798.0, 0.00020542340650580549
799.0, 0.00042444950042640054
800.0, 0.0005041078383940766
801.0, 0.0008234709236018099
802.0, 0.0010035120849495422
803.0, 0.0009393636667302495
804.0, 0.0005904868016155934
805.0, 0.00016748335688978767
806.0, 0.0005785317192607247
807.0, 0.0006243101817658344
808.0, 0.0002425424739382612
809.0, 0.0009166460702090727
810.0, 0.0011098285936322566
811.0, 0.0007304968646781926
812.0, 0.0006417006118097542
813.0, 0.0015802291682035627
814.0, 0.001512687434494897
815.0, 0.0016036999670346534
816.0, 0.0019807705630031803
817.0, 0.002554954622521116
818.0, 0.0029975307197174115
819.0, 0.004158247449359132
820.0, 0.00488458155790473
821.0, 0.005930699634376582
822.0, 0.007762653123786798
823.0, 0.008793492461054474
824.0, 0.011207668921550147
825.0, 0.014172861247384419
826.0, 0.01665341262402945
827.0, 0.017220814448632306
828.0, 0.018860030502538865
829.0, 0.018675257923098126
830.0, 0.017159157681528755
831.0, 0.01474556014428002
832.0, 0.011595684443151127
833.0, 0.00920494657087397
834.0, 0.007459205106213448
835.0, 0.006021343905888346
836.0, 0.004448423538308701
837.0, 0.002428429518020694
838.0, 0.0025756775067307816
839.0, 0.0021118329948535564
840.0, 0.0008867136682017679
841.0, 0.001906129471988551
842.0, 0.0018562814020014124
843.0, 0.0018808312435859397
844.0, 0.0015155591854410279
845.0, 0.0005097096447292355
846.0, 0.0006456637955074896
847.0, 0.0021915861861001506
848.0, 0.0024473132749040227
849.0, 0.0019360622001691797
850.0, 0.0028334856974947162
851.0, 0.002614209454603463
852.0, 0.0030561236375283548
853.0, 0.00418312592946461
854.0, 0.005486997951283648
855.0, 0.0050957416798513705
856.0, 0.006392886408412361
857.0, 0.00834621964963726
858.0, 0.010211200623526203
859.0, 0.011465152975950304
860.0, 0.013653547184420406
861.0, 0.016812930350673203
862.0, 0.020641197844821484
863.0, 0.02457220869000709
864.0, 0.02767765937775044
865.0, 0.02824014295352488
866.0, 0.027563226677504892
867.0, 0.02621194841000644
868.0, 0.024698145110032627
869.0, 0.02357584755220704
870.0, 0.022813060315771974
871.0, 0.022937079794565902
872.0, 0.023843638983787514
873.0, 0.025400220092050924
874.0, 0.028993741931664683
875.0, 0.03250126953443763
876.0, 0.036397371547524524
877.0, 0.04038521935213613
878.0, 0.04357432912862253
879.0, 0.04763226153086915
880.0, 0.05115309592424029
881.0, 0.05333558511013904
882.0, 0.053731840374480255
883.0, 0.05229566008291042
884.0, 0.0484804349251271
885.0, 0.04383218157589709
886.0, 0.038982028216273966
887.0, 0.03437304065486004
888.0, 0.029802174954498217
889.0, 0.02481720092588056
890.0, 0.021888314023612496
891.0, 0.019922853983312096
892.0, 0.016015378374908993
893.0, 0.014328825538614887
894.0, 0.013649498359452054
895.0, 0.012315899913631115
896.0, 0.010145180641538645
897.0, 0.00898830653708767
898.0, 0.009663594087456864
899.0, 0.008554355426709756
900.0, 0.007524581417270275
901.0, 0.00804349721019357
902.0, 0.008791731234370468
903.0, 0.007753037102764723
904.0, 0.007937280239120562
905.0, 0.009326074744824544
906.0, 0.010983662724374723
907.0, 0.010651270244454855
908.0, 0.01166904953702196
909.0, 0.014324934876298387
910.0, 0.01788163663349742
911.0, 0.02077387908514347
912.0, 0.027245363691639053
913.0, 0.03268661220405105
914.0, 0.04057110052395474
915.0, 0.05161906269276375
916.0, 0.06244895368171528
917.0, 0.07416381490018914
918.0, 0.08059742925937262
919.0, 0.08130038708320184
920.0, 0.07714248275597135
921.0, 0.07109830518993593
922.0, 0.06072358592467643
923.0, 0.050668492724047214
924.0, 0.04223622868228977
925.0, 0.03577507736206448
926.0, 0.02970101356196761
927.0, 0.026032176554599877
928.0, 0.022881885962382196
929.0, 0.020230735966622695
930.0, 0.018835673457455928
931.0, 0.017702220800666114
932.0, 0.016785132610821017
933.0, 0.016879579767756697
934.0, 0.01730407948106175
935.0, 0.01578348728268936
936.0, 0.015593950179904668
937.0, 0.015584338206390819
938.0, 0.014918604562717772
939.0, 0.013528366465214046
940.0, 0.01276444788256959
941.0, 0.01115419159772053
942.0, 0.010076590395202109
943.0, 0.009350525376341316
944.0, 0.00867569651767739
945.0, 0.007857161002549427
946.0, 0.007562835332810608
947.0, 0.007244269233001714
948.0, 0.006777518637899061
949.0, 0.006195312618220975
950.0, 0.0060234190609804224
951.0, 0.00578138019745281
952.0, 0.005619781679209071
953.0, 0.005265395307788266
954.0, 0.004461256255011936
955.0, 0.005342336368067859
956.0, 0.004399827904409627
957.0, 0.0041156960124219865
958.0, 0.004715245834520718
959.0, 0.005135501141214197
960.0, 0.004603497626745014
961.0, 0.004082630043810482
962.0, 0.003887852929771703
963.0, 0.0040147048235535665
964.0, 0.004157920152042732
965.0, 0.0047229968249491525
966.0, 0.005430206817212207
967.0, 0.005949620675510458
968.0, 0.006318406304953474
969.0, 0.007107322678346272
970.0, 0.007595443348558429
971.0, 0.008323681793974724
972.0, 0.009872380957548684
973.0, 0.012102149207791317
974.0, 0.01339602039004288
975.0, 0.016799702803015196
976.0, 0.018815791196177274
977.0, 0.022548554400075936
978.0, 0.029510701255916053
979.0, 0.035303133935209584
980.0, 0.044401136209969966
981.0, 0.05702785467194542
982.0, 0.07126828158236737
983.0, 0.08558282938968198
984.0, 0.10139333660825357
985.0, 0.11296913732904239
986.0, 0.11274909480634353
987.0, 0.10386752516077948
988.0, 0.0911405059574232
989.0, 0.07488178447032419
990.0, 0.060505632076231226
991.0, 0.04894920414108469
992.0, 0.039495158696660086
993.0, 0.03122859396514292
994.0, 0.02562757280915571
995.0, 0.021416510846433968
996.0, 0.018349004940383294
997.0, 0.016234508372346572
998.0, 0.014687918651239265
999.0, 0.012133029942069306
1000.0, 0.010514009790058924
1001.0, 0.009347794400942149
1002.0, 0.008946983213063028
1003.0, 0.009480515770583162
1004.0, 0.007287619526707614
1005.0, 0.0071716749807814615
1006.0, 0.006721839233609266
1007.0, 0.0057657927683201875
1008.0, 0.00500358670972299
1009.0, 0.0049620423667420714
1010.0, 0.004181880817548617
1011.0, 0.0032655061138573975
1012.0, 0.00247507002350128
1013.0, 0.0019203761916280558
1014.0, 0.0014885049416229442
1015.0, 0.0016037130915836184
1016.0, 0.0014253082165689467
1017.0, 0.0010999325413689016
1018.0, 0.0011729864849903543
1019.0, 0.0015126713412008327
1020.0, 0.0005737476952161671
1021.0, 0.00021412186594934522
1022.0, 0.0006183191602628144
1023.0, 0.001124310491936888
1024.0, 0.00018046506268460202
1025.0, 0.00035425528257750836
1026.0, 0.000872346585446779
1027.0, 0.0010598058170870688
1028.0, 0.0004306433224900331
1029.0, 0.00029649344328592603
1030.0, 0.0006109501677655037
1031.0, 0.0009630955837337963
1032.0, 0.0009190552381370689
1033.0, 0.0002629394427168873
1034.0, 0.0009344820617694907
1035.0, 0.0007781831025514449
1036.0, 0.00040724854663008465
1037.0, 0.00012641270242579747
1038.0, 0.00010747379769691227
1039.0, 0.0002910659942392436
1040.0, 0.000415334589398941
1041.0, 0.0007354991954527677
1042.0, 0.0009564272785026854
1043.0, 0.0008100042107361581
1044.0, 0.0013381694367072016
1045.0, 0.0005094431916531508
1046.0, 0.0009482783505107206
1047.0, 0.0016574511235744366
1048.0, 0.001210146311913672
1049.0, 0.000930497538864664
1050.0, 0.0012768917036942336
1051.0, 0.0015029738843319043
1052.0, 0.0013849176510234982
1053.0, 0.0010198596740299902
1054.0, 0.0013004467056862766
1055.0, 0.0027149859361291885
1056.0, 0.002534441763368499
1057.0, 0.0021724066064315243
1058.0, 0.00299175879135484
1059.0, 0.004304037185312746
1060.0, 0.003729578990586995
1061.0, 0.004214136009763772
1062.0, 0.005425814655538818
1063.0, 0.006605441453122854
1064.0, 0.006867732371570329
1065.0, 0.008349283269516247
1066.0, 0.010092959752484011
1067.0, 0.011917139346206189
1068.0, 0.013903469368684092
1069.0, 0.016477622344446472
1070.0, 0.02236240554728593
1071.0, 0.030893320609085378
1072.0, 0.03935250132417048
1073.0, 0.04991857865776205
1074.0, 0.06998091839402622
1075.0, 0.09010691689248779
1076.0, 0.11211497999148382
1077.0, 0.12837436220921675
1078.0, 0.13335297539653537
1079.0, 0.12373115541589892
1080.0, 0.10110116915175726
1081.0, 0.08444968343789923
1082.0, 0.0685459001416486
1083.0, 0.05358737904482181
1084.0, 0.04198674227124262
1085.0, 0.032176301872794646
1086.0, 0.026175897920796883
1087.0, 0.01939896772082287
1088.0, 0.01385157547176712
1089.0, 0.012115059375828937
1090.0, 0.00966391738849746
1091.0, 0.007255308949125691
1092.0, 0.0064294548617484055
1093.0, 0.005900741053433845
1094.0, 0.004539246041425865
1095.0, 0.003190221702845603
1096.0, 0.0026584881662033524
1097.0, 0.0029406777084158074
1098.0, 0.0024215227086463306
1099.0, 0.0011066369076312187
1100.0, 0.0019008937183107458
1101.0, 0.001415042873432017
1102.0, 0.0017513325892485976
1103.0, 0.0014628309836279166
1104.0, 0.0006520377932328396
1105.0, 0.0009239891815081887
1106.0, 0.0007909396489724561
1107.0, 0.0010264524261758166
1108.0, 0.0006733362444993786
1109.0, 0.0002719183714464135
1110.0, 0.0008473510809560713
1111.0, 0.0003786982789577648
1112.0, 0.00043854420196579947
1113.0, 0.0004979558001992146
1114.0, 0.0004997784443304776
1115.0, 0.0005085431855147026
1116.0, 0.0005196439952964584
1117.0, 0.0009951195422408469
1118.0, 0.0010690498472717552
1119.0, 0.0010521801637522021
1120.0, 0.0012174081698845486
1121.0, 0.0014210236794125204
1122.0, 0.0013943510716378296
1123.0, 0.0016616630689237663
1124.0, 0.0021456651985039005
1125.0, 0.002521106127199205
1126.0, 0.0023022294577467197
1127.0, 0.0023820987120303228
1128.0, 0.002024590677300358
1129.0, 0.0020957573353599765
1130.0, 0.0024783428339903305
1131.0, 0.0026452178565278647
1132.0, 0.0029043852439563887
1133.0, 0.0036981367678823734
1134.0, 0.004777179394428591
1135.0, 0.005182414575026207
1136.0, 0.0045513630034793445
1137.0, 0.004728861594248853
1138.0, 0.006357421465744803
1139.0, 0.005859646989069614
1140.0, 0.006327237095159528
1141.0, 0.008053484836316712
1142.0, 0.0069302757139270525
1143.0, 0.008942150578108661
1144.0, 0.009129340167195212
1145.0, 0.00940453456916494
1146.0, 0.010481110426884687
1147.0, 0.012110838437099465
1148.0, 0.012896144406940351
1149.0, 0.014079811047325752
1150.0, 0.015883969975588986
1151.0, 0.017972548659278345
1152.0, 0.01981621370761749
1153.0, 0.020795001091718068
1154.0, 0.023714035378687416
1155.0, 0.026590721097272608
1156.0, 0.029406202214496094
1157.0, 0.03258471376498884
1158.0, 0.03682420576117693
1159.0, 0.04070563356554203
1160.0, 0.045612598670120165
1161.0, 0.05019152498464359
1162.0, 0.05557273153532907
1163.0, 0.06339010672325592
1164.0, 0.0697750413691039
1165.0, 0.0774282690253878
1166.0, 0.08700737088304865
1167.0, 0.09835531455207709
1168.0, 0.10995808348142218
1169.0, 0.11786124421559026
1170.0, 0.13480430439189517
1171.0, 0.146252154759819
1172.0, 0.15391678650610144
1173.0, 0.15862198474210698
1174.0, 0.1594971733096265
1175.0, 0.15252136345503492
1176.0, 0.14459404108706364
1177.0, 0.13398596401077847
1178.0, 0.12033481980087124
1179.0, 0.10473042126053349
1180.0, 0.0912028954926267
1181.0, 0.08004570353282855
1182.0, 0.07007051567003345
1183.0, 0.06072133874236268
1184.0, 0.05236978913381167
1185.0, 0.046338438414551805
1186.0, 0.04049509563814428
1187.0, 0.03579601308733605
1188.0, 0.03158463972616921
1189.0, 0.02779071418904623
1190.0, 0.02466422328087937
1191.0, 0.022719665946774402
1192.0, 0.020235297840347777
1193.0, 0.01857104336214027
1194.0, 0.0174986830428193
1195.0, 0.016419572169636285
1196.0, 0.014622764002592593
1197.0, 0.01327930782408126
1198.0, 0.013128723849279787
1199.0, 0.012597924891088514
1200.0, 0.011064741314479359
1201.0, 0.008957063862164688
1202.0, 0.009161592587860427
1203.0, 0.008277438652427863
1204.0, 0.00833707258481684
1205.0, 0.007698626913922403
1206.0, 0.006335513782513477
1207.0, 0.00746564072661859
1208.0, 0.006941019890213458
1209.0, 0.006696773839447018
1210.0, 0.005399554234835528
1211.0, 0.004031086477127892
1212.0, 0.004212983515656662
1213.0, 0.004693478809530468
1214.0, 0.005351529853474016
1215.0, 0.005184838055260523
1216.0, 0.00461910914749598
1217.0, 0.004061064399406791
1218.0, 0.0035838506021181804
1219.0, 0.004372445164912499
1220.0, 0.004105459240173593
1221.0, 0.003807771907532532
1222.0, 0.003773131689103197
1223.0, 0.0037508391457831067
1224.0, 0.0027733705624020527
1225.0, 0.003356450013914468
1226.0, 0.003409672676405536
1227.0, 0.002890404437384138
1228.0, 0.0023131478357118675
1229.0, 0.0024138616601253973
1230.0, 0.00208167017005082
1231.0, 0.0022910481450007136
1232.0, 0.0021191392927153085
1233.0, 0.0018018596717645496
1234.0, 0.0018173363504971223
1235.0, 0.002232673244355702
1236.0, 0.002413583017066625
1237.0, 0.0024197208222861972
1238.0, 0.002082324654208617
1239.0, 0.0018782437206523877
1240.0, 0.002464396891621466
1241.0, 0.002344284972658133
1242.0, 0.002637343010410169
1243.0, 0.0019429299210142804
1244.0, 0.0016274993733456347
1245.0, 0.0022785807984752357
1246.0, 0.0023298634991011343
1247.0, 0.0008077945810406266
1248.0, 0.0005460446197099022
1249.0, 0.0012310070632251078
1250.0, 0.0016109423509548
1251.0, 0.0008736894793712701
1252.0, 0.001158988418660089
1253.0, 0.0007873650603915441
1254.0, 0.0007841505875929163
1255.0, 0.0014684143249762726
1256.0, 0.0019083268935500993
1257.0, 0.0007211828156102572
1258.0, 0.0017303042734045137
1259.0, 0.0013368313842938187
1260.0, 0.0015961662050954315
1261.0, 0.0020705338148983483
1262.0, 0.0019392783143339933
1263.0, 0.0008393453941590214
1264.0, 0.0010433567603557365
1265.0, 0.0016640685319449704
1266.0, 0.0020546186921915396
1267.0, 0.0016499325434075236
1268.0, 0.0006235064612540562
1269.0, 0.0012500673312591212
1270.0, 0.002342247104573227
1271.0, 0.0014273362478710535
1272.0, 0.0004710060074605122
1273.0, 0.0006270153714645888
1274.0, 0.0017130622285148921
1275.0, 0.0015057297494347971
1276.0, 0.0009782118135059795
1277.0, 0.00042612350228173957
1278.0, 0.0007333036416769125
1279.0, 0.0014613135523625182
1280.0, 0.0006538151934843444
1281.0, 0.0012758916900265718
1282.0, 0.0005762322284129367
1283.0, 0.0007482612237054812
1284.0, 0.0008712069904200607
1285.0, 0.00015859648672321875
1286.0, 0.00022695977786303217
1287.0, 0.0007356167068782398
1288.0, 0.0006194825203468261
1289.0, 0.0003165786979302502
1290.0, 0.0001615634543057669
1291.0, 0.0004565163417825772
1292.0, 0.0016894326240958248
1293.0, 0.0010699471753834158
1294.0, 0.0008479732702958755
1295.0, 0.0007664633758275525
1296.0, 0.0005846506718571358
1297.0, 0.00034231665398997785
1298.0, 0.0007533557938829781
1299.0, 0.0007463175332727513
1300.0, 0.0007533844749553411
1301.0, 0.0007638947463027111
1302.0, 0.0007260961852300627
1303.0, 0.0006155549746112006
1304.0, 0.0004244559139711724
1305.0, 0.00014269814669524798
1306.0, 0.0005964266639852869
1307.0, 0.0007069223553000363
1308.0, 0.00014054932164531537
1309.0, 0.0001679745989801271
1310.0, 0.0004315159663271582
1311.0, 0.0005704793773533797
1312.0, 0.000643054135557962
1313.0, 0.0006422243570199173
1314.0, 0.0006574832291164789
1315.0, 0.0009538003700359534
1316.0, 0.00016419411916134094
1317.0, 0.0019860168594993902
1318.0, 0.0022760294813971935
1319.0, 0.0016622881788661617
1320.0, 0.0015843045327143613
1321.0, 0.00043207736640909957
1322.0, 0.0020245485847257237
1323.0, 0.0019488534544948163
1324.0, 0.0010136599649812831
1325.0, 0.0007316168401291154
1326.0, 0.0017134982145936824
1327.0, 0.0012499451627897827
1328.0, 0.0027765001068092102
1329.0, 0.001754485530668894
1330.0, 0.0005273396699363236
1331.0, 0.0005344537593409103
1332.0, 0.0017775334127620944
1333.0, 0.002300943826257778
1334.0, 0.0013671440995297207
1335.0, 0.0015436785692310218
1336.0, 0.0018645299409575835
1337.0, 0.0016874724879538889
1338.0, 0.0009969177974797694
1339.0, 0.0005323861171071525
1340.0, 0.0008421915452537142
1341.0, 0.0006641510833373205
1342.0, 0.0009620679581307413
1343.0, 0.0014787963973237565
1344.0, 0.0014372066203489427
1345.0, 0.002323341022120505
1346.0, 0.002655917701103607
1347.0, 0.0020905468893325746
1348.0, 0.001624718564798739
1349.0, 0.001854525484468502
1350.0, 0.002528397106607008
1351.0, 0.0016823758802368978
1352.0, 0.0021419446682154142
1353.0, 0.002348440272581018
1354.0, 0.001908843800194836
1355.0, 0.0013850008133366514
1356.0, 0.001639406279823127
1357.0, 0.0020802484943754354
1358.0, 0.0009957604970586267
1359.0, 0.0010985702450341643
1360.0, 0.001344452355659277
1361.0, 0.0009807517458932033
1362.0, 0.00027141297962969795
1363.0, 0.0014205387132589808
1364.0, 0.0017958369710205356
1365.0, 0.0011533666372670385
1366.0, 0.0009631439603804046
1367.0, 0.0010388660391406014
1368.0, 0.0005840008022177472
1369.0, 0.0014386565348824937
1370.0, 0.002293063476885593
1371.0, 0.00268660060778129
1372.0, 0.0020001247997570464
1373.0, 0.0017417036836989274
1374.0, 0.003033541954745567
1375.0, 0.0015402093799520202
1376.0, 0.0024654900291600536
1377.0, 0.002312826633396719
1378.0, 0.0023032108665113305
1379.0, 0.002161835660797415
1380.0, 0.0012163054410270165
1381.0, 0.0003655178685107802
1382.0, 0.0015352767005870098
1383.0, 0.0017426524860514687
1384.0, 0.0013423046257129388
1385.0, 0.001649403959839865
1386.0, 0.002908229092051061
1387.0, 0.0023566632612464365
1388.0, 0.0027247659429603167
1389.0, 0.0021719709469620436
1390.0, 0.0023261220807171052
1391.0, 0.0025751399051588564
1392.0, 0.001999450989981278
1393.0, 0.0008458420584132189
1394.0, 0.0014938811999988825
1395.0, 0.001989135127477044
1396.0, 0.0029089740236391075
1397.0, 0.002829081527502065
1398.0, 0.0017748694378169237
1399.0, 0.002112034606142702
1400.0, 0.0022968127798230556
1401.0, 0.0024027318642370976
1402.0, 0.0016944031053528336
1403.0, 0.0014224616301722686
1404.0, 0.0018017941935092071
1405.0, 0.0016735016520493175
1406.0, 0.0007712256785557279
1407.0, 0.001144917951032537
1408.0, 0.0021248276743442303
1409.0, 0.0021008649608875636
1410.0, 0.001039985450742114
1411.0, 0.00047158150260091065
1412.0, 0.0026276277194326107
1413.0, 0.0013829753711857037
1414.0, 0.0019009382077278703
1415.0, 0.0012374495244258058
1416.0, 0.0005903402542776297
1417.0, 0.0019209693761405163
1418.0, 0.002842688055114486
1419.0, 0.0027320308024909442
1420.0, 0.0009016570231951896
1421.0, 0.0008631432747008044
1422.0, 0.0013105696662887322
1423.0, 0.0009328112574622398
1424.0, 0.0012505561309590785
1425.0, 0.0014378042665391547
1426.0, 0.00105131445672775
1427.0, 0.001171221452126454
1428.0, 0.0013633129651382772
1429.0, 0.001557416810289817
1430.0, 0.002186978426877257
1431.0, 0.0022617740706592834
1432.0, 0.001225555255034333
1433.0, 0.0007498767426453682
1434.0, 0.0011617963351226027
1435.0, 0.0017677850913678224
1436.0, 0.001552411955220765
1437.0, 0.00032444977530343136
1438.0, 0.0025335666470904777
1439.0, 0.0034852559010727637
1440.0, 0.00256681384820973
1441.0, 0.0016349945468264507
1442.0, 0.0018683655065711553
1443.0, 0.0017136679908734066
1444.0, 0.0026162349854790263
1445.0, 0.002496642438092761
1446.0, 0.0018090167834756905
1447.0, 0.001131632958833602
1448.0, 0.0012211214430025547
1449.0, 0.0024633972235005067
1450.0, 0.0029341920821356125
1451.0, 0.0024963423169551227
1452.0, 0.001921938726504585
1453.0, 0.0025024856107278455
1454.0, 0.0030413734655431153
1455.0, 0.002345066392554129
1456.0, 0.0029401828289211725
1457.0, 0.002820905218877995
1458.0, 0.001971519140435652
1459.0, 0.0027929103225829326
1460.0, 0.0029597028988568213
1461.0, 0.0019277277365251243
1462.0, 0.0028312605599978605
1463.0, 0.0024098279620495115
1464.0, 0.002473268825670411
1465.0, 0.002547581426641259
1466.0, 0.003268114518276781
1467.0, 0.003574846053234311
1468.0, 0.002490400616283791
1469.0, 0.003155042717960563
1470.0, 0.002281149235619719
1471.0, 0.0016883152779387579
1472.0, 0.0020816377740887574
1473.0, 0.002648471245243819
1474.0, 0.002600476660420648
1475.0, 0.002205129435723262
1476.0, 0.002641843087115873
1477.0, 0.002461263081034138
1478.0, 0.0024877874412332487
1479.0, 0.0021383325967520464
1480.0, 0.0017307881702174615
1481.0, 0.002074639555447613
1482.0, 0.002864531400162994
1483.0, 0.0045158739013295614
1484.0, 0.0018834834993508472
1485.0, 0.001432900737432856
1486.0, 0.0017125852888350427
1487.0, 0.0011885958529198144
1488.0, 0.0019778790316012044
1489.0, 0.0012590298815767465
1490.0, 0.003218028061642575
1491.0, 0.0021670833901760453
1492.0, 0.0014983776725450047
1493.0, 0.0014904470504676194
1494.0, 0.0010091702487374484
1495.0, 0.0027916604000713116
1496.0, 0.002442905139616631
1497.0, 0.001883464825047634
1498.0, 0.0025345237410073504
1499.0, 0.002293456001683884
1500.0, 0.0015216933870455382
1501.0, 0.002980747659644985
1502.0, 0.0016289301268054453
1503.0, 0.00126349094401456
1504.0, 0.0004807040591012922
1505.0, 0.0006230363881302004
1506.0, 0.0010610099938653844
1507.0, 0.0007958502783129459
1508.0, 0.00031784152017702035
1509.0, 0.0002995397823611943
1510.0, 0.0004196711782398444
1511.0, 0.0010411821639664668
1512.0, 0.0012246789362906605
1513.0, 0.0014184753709289408
1514.0, 0.0024439443046509394
1515.0, 0.0024165369331077026
1516.0, 0.0007421105394862674
1517.0, 0.000188667690263257
1518.0, 0.0017937741807829062
1519.0, 0.002423235531736597
1520.0, 0.0013942109209677752
1521.0, 0.0016767132025616199
1522.0, 0.00173585699197525
1523.0, 0.0016008093775346113
1524.0, 0.0010835958143479547
1525.0, 0.0004080470162903155
1526.0, 7.82484129000067e-07
1527, 0.0
1528, 0.0
1529, 0.0
1530, 0.0
1531, 0.0
1532, 0.0
1533, 0.0
1534, 0.0
1535, 0.0
1536, 0.0
1537, 0.0
1538, 0.0
1539, 0.0
1540, 0.0
1541, 0.0
1542, 0.0
1543, 0.0
1544, 0.0
1545, 0.0
1546, 0.0
1547, 0.0
1548, 0.0
1549, 0.0
1550, 0.0
1551, 0.0
1552, 0.0
1553, 0.0
1554, 0.0
1555, 0.0
1556, 0.0
1557, 0.0
1558, 0.0
1559, 0.0
1560, 0.0
1561, 0.0
1562, 0.0
1563, 0.0
1564, 0.0
1565, 0.0
1566, 0.0
1567, 0.0
1568, 0.0
1569, 0.0
1570, 0.0
1571, 0.0
1572, 0.0
1573, 0.0
1574, 0.0
1575, 0.0
1576, 0.0
1577, 0.0
1578, 0.0
1579, 0.0
1580, 0.0
1581, 0.0
1582, 0.0
1583, 0.0
1584, 0.0
1585, 0.0
1586, 0.0
1587, 0.0
1588, 0.0
1589, 0.0
1590, 0.0
1591, 0.0
1592, 0.0
1593, 0.0
1594, 0.0
1595, 0.0
1596, 0.0
1597, 0.0
1598, 0.0
1599, 0.0
