30, 0.0
31, 0.0
32, 0.0
33, 0.0
34, 0.0
35, 0.0
36, 0.0
37, 0.0
38, 0.0
39, 0.0
40, 0.0
41, 0.0
42, 0.0
43, 0.0
44, 0.0
45, 0.0
46, 0.0
47, 0.0
48, 0.0
49, 0.0
50, 0.0
51, 0.0
52, 0.0
53, 0.0
54, 0.0
55, 0.0
56, 0.0
57, 0.0
58, 0.0
59, 0.0
60, 0.0
61, 0.0
62, 0.0
63, 0.0
64, 0.0
65, 0.0
66, 0.0
67, 0.0
68, 0.0
69, 0.0
70, 0.0
71, 0.0
72, 0.0
73, 0.0
74, 0.0
75, 0.0
76, 0.0
77, 0.0
78, 0.0
79, 0.0
80, 0.0
81, 0.0
82, 0.0
83, 0.0
84, 0.0
85, 0.0
86, 0.0
87, 0.0
88, 0.0
89, 0.0
90, 0.0
91, 0.0
92, 0.0
93, 0.0
94, 0.0
95, 0.0
96, 0.0
97, 0.0
98, 0.0
99, 0.0
100, 0.0
101, 0.0
102, 0.0
103, 0.0
104, 0.0
105, 0.0
106, 0.0
107, 0.0
108, 0.0
109, 0.0
110, 0.0
111, 0.0
112, 0.0
113, 0.0
114, 0.0
115, 0.0
116, 0.0
117, 0.0
118.0, 0.000583741824525243
119.0, 0.0027377706973121117
120.0, 0.008054397698603015
121.0, 0.007358363528921438
122.0, 0.0014758437064323338
123.0, 0.00833233903503888
124.0, 0.007600324169631261
125.0, 0.005471719297182726
126.0, 0.006755634739584715
127.0, 0.009832052877020984
128.0, 0.009401814929396462
129.0, 0.006623239518302558
130.0, 0.007222625888058314
131.0, 0.0041212446888156135
132.0, 0.00437675636573003
133.0, 0.011740495040379955
134.0, 0.00840673790608426
135.0, 0.009925778236889901
136.0, 0.012373930067625025
137.0, 0.007177249968341295
138.0, 0.009891468389740544
139.0, 0.010815603727700102
140.0, 0.008035394962989488
141.0, 0.010911399547374148
142.0, 0.008392954397146745
143.0, 0.006975458582241126
144.0, 0.014511018875410262
145.0, 0.00838540805791068
146.0, 0.007730556494902688
147.0, 0.012541340633639552
148.0, 0.011632548941968534
149.0, 0.011198160670333699
150.0, 0.011486188919273074
151.0, 0.012755913332569396
152.0, 0.012845817405790369
153.0, 0.014666602346930275
154.0, 0.016455298552612473
155.0, 0.01372440210875048
156.0, 0.017923727931910445
157.0, 0.019540723381736468
158.0, 0.016684663690634267
159.0, 0.021994555255793382
160.0, 0.024896659824985998
161.0, 0.026602864184901934
162.0, 0.02818389172826969
163.0, 0.03208960463932289
164.0, 0.035756302955702084
165.0, 0.038909172528095955
166.0, 0.041464626189479326
167.0, 0.047468165933850115
168.0, 0.05427822721791983
169.0, 0.06068227991023557
170.0, 0.06762205131177007
171.0, 0.07261069718583262
172.0, 0.07760646403816765
173.0, 0.08643261488296355
174.0, 0.09782046062677818
175.0, 0.1056558681494619
176.0, 0.10912207606755318
177.0, 0.11250043229529513
178.0, 0.12143899043497187
179.0, 0.12758436556480224
180.0, 0.12385150315215929
181.0, 0.13865275240208835
182.0, 0.14206095142868733
183.0, 0.13679012256237388
184.0, 0.1328866400030751
185.0, 0.12918415470605876
186.0, 0.12639767340985464
187.0, 0.12417063729694004
188.0, 0.11319976908105159
189.0, 0.1095942423649198
190.0, 0.10757715482979974
191.0, 0.10125720062220239
192.0, 0.10542953484584282
193.0, 0.10896276949814775
194.0, 0.11102686283037846
195.0, 0.11200848746444994
196.0, 0.11818620599130877
197.0, 0.12106717404445108
198.0, 0.11779646723642616
199.0, 0.12644767257761916
200.0, 0.1259111426678941
201.0, 0.12330792908467161
202.0, 0.12746020351674237
203.0, 0.11713404507840443
204.0, 0.10945471735129708
205.0, 0.10535656821817516
206.0, 0.10080517248419073
207.0, 0.10233625155874802
208.0, 0.10531112090424606
209.0, 0.10752093365963432
210.0, 0.09766350499602626
211.0, 0.09292275258397595
212.0, 0.09371976999304818
213.0, 0.10183755826861152
214.0, 0.10159226128613846
215.0, 0.10329435765801484
216.0, 0.10610565078936547
217.0, 0.10103522086178
218.0, 0.09673830938112632
219.0, 0.09160401061145206
220.0, 0.08484144623665577
221.0, 0.0756196145472188
222.0, 0.06889904918588743
223.0, 0.06135511279805854
224.0, 0.04852444830140312
225.0, 0.049506480954796594
226.0, 0.04825289648142387
227.0, 0.04357938477726041
228.0, 0.03695318827349013
229.0, 0.03683674572242694
230.0, 0.03628496187881915
231.0, 0.03313847204023785
232.0, 0.03500251589752727
233.0, 0.03631207384882279
234.0, 0.03774147524045546
235.0, 0.040026390804683364
236.0, 0.04161946875109063
237.0, 0.045398908322292486
238.0, 0.05116776736977137
239.0, 0.05808130918045872
240.0, 0.06262845332705297
241.0, 0.0712459933859466
242.0, 0.08415143405683989
243.0, 0.08409240927893645
244.0, 0.09434841307366551
245.0, 0.10549200011007281
246.0, 0.11047629575738577
247.0, 0.11955126369924048
248.0, 0.12904245723571373
249.0, 0.13728186846449053
250.0, 0.1408396068323071
251.0, 0.15769808190094972
252.0, 0.16807279971276098
253.0, 0.17316116152324615
254.0, 0.1998364645821702
255.0, 0.22335181831943718
256.0, 0.24957413739372392
257.0, 0.28176143954407135
258.0, 0.32531894334983164
259.0, 0.3612471780698692
260.0, 0.39597358284313844
261.0, 0.4373154222199213
262.0, 0.47574848913272383
263.0, 0.5043320450190872
264.0, 0.5208391770329037
265.0, 0.5185716763503586
266.0, 0.5110280165183211
267.0, 0.4958224934010399
268.0, 0.4706830502867557
269.0, 0.4238692568907669
270.0, 0.3849367640763612
271.0, 0.3446865653300409
272.0, 0.29686526275573094
273.0, 0.2658834890584098
274.0, 0.23265839278060327
275.0, 0.19988890666171347
276.0, 0.172105714878737
277.0, 0.15036337757241175
278.0, 0.13443734602543292
279.0, 0.12277191440229362
280.0, 0.11023075422487047
281.0, 0.09352314404108338
282.0, 0.08280100392945013
283.0, 0.08057282317727392
284.0, 0.07560865162978371
285.0, 0.07134408963873509
286.0, 0.06692807858358751
287.0, 0.061731785198987116
288.0, 0.04990656351654337
289.0, 0.04596915652643009
290.0, 0.04601335930502755
291.0, 0.04405299379619195
292.0, 0.04006522051410115
293.0, 0.0417714461944261
294.0, 0.045654871787568725
295.0, 0.0365191323417655
296.0, 0.04091529891606093
297.0, 0.04060285048409929
298.0, 0.032714987228353004
299.0, 0.04062011063075539
300.0, 0.04275655708654985
301.0, 0.04130566952371374
302.0, 0.03747735797260081
303.0, 0.045061086762666944
304.0, 0.04008821689046361
305.0, 0.03252911399707901
306.0, 0.03499774461677529
307.0, 0.03925399265442797
308.0, 0.03888884741349271
309.0, 0.03576274071546553
310.0, 0.035595863707691695
311.0, 0.03421931772441909
312.0, 0.03072226847291456
313.0, 0.02650542214878163
314.0, 0.03027565002004762
315.0, 0.026622608135232935
316.0, 0.02445117883622143
317.0, 0.026782149334645174
318.0, 0.02010465827796542
319.0, 0.014548228043661194
320.0, 0.012216691498845128
321.0, 0.015146372006800843
322.0, 0.015418567464164258
323.0, 0.01392374296375768
324.0, 0.011533451712180188
325.0, 0.00948551357181655
326.0, 0.010853941856334275
327.0, 0.008411756456782927
328.0, 0.005038739947363591
329.0, 0.011087858850697694
330.0, 0.007280334754793885
331.0, 0.004002402196707233
332.0, 0.0031019840422722026
333.0, 0.0016126050704632308
334.0, 0.0007323128750005035
335.0, 0.0003976598327927648
336.0, 0.0006931462889189703
337.0, 0.002736748957059295
338.0, 0.004574592058669716
339.0, 0.004319239034251622
340.0, 0.0004181378994668538
341.0, 0.001198039540295333
342.0, 0.003203600762675731
343.0, 0.004436845668463165
344.0, 0.002168975804057435
345.0, 0.0034612885165407636
346.0, 0.0038828001031762554
347.0, 0.003989242074921698
348.0, 0.00566981427565995
349.0, 0.003702820291065567
350.0, 0.004508596136558623
351.0, 0.007090911655516358
352.0, 0.0038219973858609293
353.0, 0.0034635699199300055
354.0, 0.004005278570944374
355.0, 0.005373637016539628
356.0, 0.010958961493380775
357.0, 0.012233003541890941
358.0, 0.012666092073505397
359.0, 0.013555930048103973
360.0, 0.00982345196756115
361.0, 0.014832414761738143
362.0, 0.020153919560203924
363.0, 0.01944550491862174
364.0, 0.022749296951570807
365.0, 0.03246890259907578
366.0, 0.0387085464073601
367.0, 0.029025275705576656
368.0, 0.0368351278602121
369.0, 0.03843721638221512
370.0, 0.03796676984239226
371.0, 0.045257480479699685
372.0, 0.04931896676376482
373.0, 0.05254074040770214
374.0, 0.05482411984251768
375.0, 0.05498098673883281
376.0, 0.05830566882682697
377.0, 0.06779010475919059
378.0, 0.07901702082640572
379.0, 0.0698772848626361
380.0, 0.07962718435601664
381.0, 0.0826045525754871
382.0, 0.07439969768801943
383.0, 0.08251237045927472
384.0, 0.08684167328563218
385.0, 0.09038367628661767
386.0, 0.09446812405174705
387.0, 0.09864904360634881
388.0, 0.10086735438214277
389.0, 0.10707644683314554
390.0, 0.120734448162407
391.0, 0.11630099665041906
392.0, 0.12550885296327782
393.0, 0.13700663043264624
394.0, 0.14032883907592295
395.0, 0.14622167723838486
396.0, 0.15173230354621767
397.0, 0.15894353803641115
398.0, 0.17074778368201085
399.0, 0.19434165687422875
400.0, 0.20057723393509783
401.0, 0.1996329997961148
402.0, 0.2114989998046927
403.0, 0.2183391755621482
404.0, 0.21950954199437514
405.0, 0.21848151472947372
406.0, 0.22332747127089794
407.0, 0.226383944123447
408.0, 0.2236342162137528
409.0, 0.21823180675589823
410.0, 0.22166931840068357
411.0, 0.21390316015063138
412.0, 0.2077986118179355
413.0, 0.2039905237892421
414.0, 0.19385233485327816
415.0, 0.17786459381985262
416.0, 0.16896934114162984
417.0, 0.16735399478305438
418.0, 0.15383238315479147
419.0, 0.13485357076374152
420.0, 0.12202629290115691
421.0, 0.11755472149926784
422.0, 0.1059994528719616
423.0, 0.10551800009334614
424.0, 0.09827754022099343
425.0, 0.07912305297756614
426.0, 0.07939894663373874
427.0, 0.0781236861345588
428.0, 0.07269362855691036
429.0, 0.06270047426974167
430.0, 0.06531902775586118
431.0, 0.05835724504305533
432.0, 0.05029595952797424
433.0, 0.046789751697050526
434.0, 0.05073039772313693
435.0, 0.050523424792970166
436.0, 0.04714297239894352
437.0, 0.04157130661545194
438.0, 0.049098509397349395
439.0, 0.041140567676347446
440.0, 0.03355642711872037
441.0, 0.040493911508577944
442.0, 0.04130635160744159
443.0, 0.03808876414519288
444.0, 0.03510684984964193
445.0, 0.03676953708531444
446.0, 0.036536144944083165
447.0, 0.03475774055845643
448.0, 0.031451981441158475
449.0, 0.02658701332400147
450.0, 0.035817964748055056
451.0, 0.03362322504478385
452.0, 0.028432279219976292
453.0, 0.03172804196941482
454.0, 0.023478344106491293
455.0, 0.02573530009346357
456.0, 0.028241801634246333
457.0, 0.015570487731111993
458.0, 0.018799485945555867
459.0, 0.023921906710136394
460.0, 0.027502767419409203
461.0, 0.025393685558185556
462.0, 0.026738045303720044
463.0, 0.027282910735903596
464.0, 0.029287615105087143
465.0, 0.03677279581116353
466.0, 0.027994065035617435
467.0, 0.026129603541041768
468.0, 0.030007500263819264
469.0, 0.03544831153415524
470.0, 0.03154879072184024
471.0, 0.030730033816243493
472.0, 0.03464630679144711
473.0, 0.044794476386265325
474.0, 0.03946695240049583
475.0, 0.04481981511409498
476.0, 0.052631599863145126
477.0, 0.045930463386333595
478.0, 0.04853952673465942
479.0, 0.0503658517788583
480.0, 0.05006205482822578
481.0, 0.04653879911913424
482.0, 0.03933901354450387
483.0, 0.036304606877173295
484.0, 0.0357685809325952
485.0, 0.03417633652029387
486.0, 0.02728525207681028
487.0, 0.023109122292344794
488.0, 0.021288640436865684
489.0, 0.0205001876849631
490.0, 0.015043768898647086
491.0, 0.012464788325117507
492.0, 0.01140715037290338
493.0, 0.009223102929229617
494.0, 0.004788538420125721
495.0, 0.003492227650798172
496.0, 0.0033489370189818462
497.0, 0.0012338756756302
498.0, 0.0031541839937325924
499.0, 0.005004710693896088
500.0, 0.005923408470162761
501.0, 0.0050055672717438954
502.0, 0.004980492596712448
503.0, 0.003468714870450649
504.0, 0.001695380640783016
505.0, 0.0011702257272890502
506.0, 0.00718915952796592
507.0, 0.00537502274023328
508.0, 0.001440029308741899
509.0, 0.0015882613782774542
510.0, 0.0085176667486847
511.0, 0.008788338091334644
512.0, 0.007747031913991543
513.0, 0.010189858293699902
514.0, 0.0034929204458200615
515.0, 0.005080664390027139
516.0, 0.006283218054241884
517.0, 0.0005736859048112166
518.0, 0.0027764288579418582
519.0, 0.0067105154403074825
520.0, 0.00685982146643799
521.0, 0.0005085373116552796
522.0, 0.0066539255909321
523.0, 0.008332860073479111
524.0, 0.0072995224250551475
525.0, 0.0050697486999072994
526.0, 0.0071274406951260015
527.0, 0.0038063867824769553
528.0, 0.0031159579625991587
529.0, 0.008161898954956354
530.0, 0.012012312568046116
531.0, 0.014414510765241702
532.0, 0.017271788750080553
533.0, 0.020278025263675892
534.0, 0.017210574720972777
535.0, 0.014263547337004247
536.0, 0.01631545604470823
537.0, 0.023453257835548795
538.0, 0.028979789401573846
539.0, 0.02818886383652586
540.0, 0.030634905718969246
541.0, 0.03547061627717109
542.0, 0.03175247905953345
543.0, 0.03836711758311561
544.0, 0.044839516923327216
545.0, 0.04743547435779071
546.0, 0.04152317564420222
547.0, 0.052364551385923566
548.0, 0.06125505175313374
549.0, 0.06535321894157696
550.0, 0.06385973878417951
551.0, 0.07401354896670576
552.0, 0.08400578599427012
553.0, 0.09458078923706399
554.0, 0.1083106399415057
555.0, 0.10589092288271426
556.0, 0.10353707827554696
557.0, 0.10627269291910059
558.0, 0.11889970929489814
559.0, 0.12104943725165922
560.0, 0.12462970231764067
561.0, 0.12486282122525427
562.0, 0.11819634261968008
563.0, 0.11552384100066071
564.0, 0.11538779966486246
565.0, 0.10999789903797907
566.0, 0.09670349780345679
567.0, 0.09805126604734374
568.0, 0.0893172332247555
569.0, 0.07874049773675637
570.0, 0.0711261544181003
571.0, 0.07305991631909406
572.0, 0.06533091846132996
573.0, 0.05658911212939338
574.0, 0.04954323467871534
575.0, 0.044217900525890114
576.0, 0.04385748318876152
577.0, 0.037219762948645305
578.0, 0.028324286817127817
579.0, 0.033479743943007415
580.0, 0.022575403926393216
581.0, 0.014091531724157644
582.0, 0.0130372899253034
583.0, 0.024195525704050102
584.0, 0.01227746197159201
585.0, 0.012395045755356342
586.0, 0.01921602234187714
587.0, 0.02397892035044416
588.0, 0.00841575915284105
589.0, 0.007540204787048858
590.0, 0.0132017437887725
591.0, 0.01819268686599061
592.0, 0.017910476101378057
593.0, 0.009128477055254734
594.0, 0.0025609131772523328
595.0, 0.003202555726853988
596.0, 0.004847918783901679
597.0, 0.006534998590167204
598.0, 0.009877700859917644
599.0, 0.013157197619215287
600.0, 0.00716687813355517
601.0, 0.009090640500230023
602.0, 0.008484673810724796
603.0, 0.007142114479850843
604.0, 0.014863240030102438
605.0, 0.010137484349861075
606.0, 0.01602696331368188
607.0, 0.026062793516797626
608.0, 0.026547516239816223
609.0, 0.02165130839561078
610.0, 0.018540752218691784
611.0, 0.020791375088228994
612.0, 0.030534864461531433
613.0, 0.020804656538908374
614.0, 0.024581109196294536
615.0, 0.027432031168656463
616.0, 0.02349687919320486
617.0, 0.037364931107758084
618.0, 0.03497826151233341
619.0, 0.03092433781593436
620.0, 0.03174575617647768
621.0, 0.0421559518969238
622.0, 0.043389086531423135
623.0, 0.04026878742317
624.0, 0.040003947825304316
625.0, 0.05676158941974683
626.0, 0.05310398675803224
627.0, 0.055191357017724256
628.0, 0.055910284854139264
629.0, 0.042810542013144486
630.0, 0.0596819217501695
631.0, 0.06031411027353332
632.0, 0.055732684327210055
633.0, 0.05626240202390184
634.0, 0.07395272516831111
635.0, 0.06781528215458871
636.0, 0.06124308216847384
637.0, 0.06281145209880805
638.0, 0.060350760114323845
639.0, 0.06606626471598963
640.0, 0.06734202609160411
641.0, 0.061951216526796554
642.0, 0.05235094867353714
643.0, 0.053587120242440514
644.0, 0.0546522386869554
645.0, 0.05221636768230348
646.0, 0.04337731633484701
647.0, 0.044218881090998266
648.0, 0.04634355720937134
649.0, 0.047949729096115064
650.0, 0.047366700494244025
651.0, 0.041126691476279495
652.0, 0.03352318499214934
653.0, 0.03213626068901249
654.0, 0.039112747491987544
655.0, 0.04875286961103299
656.0, 0.045739837927914466
657.0, 0.039764080941782194
658.0, 0.034352676042428275
659.0, 0.032557973639416246
660.0, 0.043213950165665246
661.0, 0.04830511899315627
662.0, 0.045067592965838274
663.0, 0.032760017187929875
664.0, 0.03861527571592379
665.0, 0.03617410412596952
666.0, 0.03908980060255007
667.0, 0.05126433920416239
668.0, 0.03460151280860826
669.0, 0.04779862947793854
670.0, 0.05166588469164771
671.0, 0.04236411047201431
672.0, 0.04839343313632235
673.0, 0.05445345916091629
674.0, 0.05254087593855317
675.0, 0.051299552687462585
676.0, 0.0655531450921126
677.0, 0.06934374447136622
678.0, 0.07226387733008191
679.0, 0.07743771292845367
680.0, 0.0866895228072065
681.0, 0.09440347735946432
682.0, 0.09615017657698068
683.0, 0.10186828192209059
684.0, 0.11430075426286596
685.0, 0.1288884698704683
686.0, 0.14311363941648242
687.0, 0.15088512007695715
688.0, 0.15682161732163502
689.0, 0.17057499196666842
690.0, 0.1838254639367209
691.0, 0.20557993042694375
692.0, 0.22482944503519184
693.0, 0.23473925899727535
694.0, 0.2688808761831815
695.0, 0.28151100252686584
696.0, 0.312333634560969
697.0, 0.3617136028694566
698.0, 0.37035708542210555
699.0, 0.41921511041276927
700.0, 0.4537487650922765
701.0, 0.48236217413877325
702.0, 0.5335983012472049
703.0, 0.5799547154166027
704.0, 0.623805821016864
705.0, 0.6640576551662369
706.0, 0.7033582856955753
707.0, 0.7743849942761479
708.0, 0.8452577377535211
709.0, 0.8998741264708111
710.0, 0.9330549442402282
711.0, 0.9468618158829853
712.0, 0.9840861808785106
713.0, 0.9617273166390717
714.0, 0.9073497310936054
715.0, 0.8736062330144224
716.0, 0.7695520267455918
717.0, 0.6872717825087844
718.0, 0.597927363142258
719.0, 0.4931087628637075
720.0, 0.43774032279404074
721.0, 0.3905128108087542
722.0, 0.3366599111547297
723.0, 0.2822390703709968
724.0, 0.25008061568571993
725.0, 0.21774870949450134
726.0, 0.1925445582365013
727.0, 0.17241880421275352
728.0, 0.15526148686991378
729.0, 0.15232186294952066
730.0, 0.13469404564754575
731.0, 0.12214827537217535
732.0, 0.11999598157922374
733.0, 0.11502184196699215
734.0, 0.10586187495217317
735.0, 0.09692755742476668
736.0, 0.09177490120665197
737.0, 0.09432224842958542
738.0, 0.09042469148014803
739.0, 0.0953402391175738
740.0, 0.09792750986188097
741.0, 0.0947508947109733
742.0, 0.10981970555561467
743.0, 0.1032213963037667
744.0, 0.1076351967364474
745.0, 0.12022075755647675
746.0, 0.11783953077418913
747.0, 0.12465355627049307
748.0, 0.1273388710094171
749.0, 0.1281217068969133
750.0, 0.12920754400748233
751.0, 0.1267478470335838
752.0, 0.1321737354602034
753.0, 0.13382140595665673
754.0, 0.12879114290705157
755.0, 0.12046088340532685
756.0, 0.12171125778898122
757.0, 0.12431108044479032
758.0, 0.12253625294558179
759.0, 0.11264283662163334
760.0, 0.11886457180814519
761.0, 0.10975301384424399
762.0, 0.10299058544084924
763.0, 0.10253128071260095
764.0, 0.09507187550123893
765.0, 0.08503213815918993
766.0, 0.07820297211922396
767.0, 0.07088950803651459
768.0, 0.058501607705828254
769.0, 0.069986416133999
770.0, 0.06411323476993933
771.0, 0.0566317755484595
772.0, 0.05595235854324272
773.0, 0.06298861456882428
774.0, 0.052311114381211714
775.0, 0.0498139989451752
776.0, 0.04971517316213931
777.0, 0.03910050419363946
778.0, 0.047275367896310594
779.0, 0.04912540164597799
780.0, 0.05147633953316394
781.0, 0.055535373011598034
782.0, 0.05041344957421474
783.0, 0.051598585889320175
784.0, 0.04992738754763406
785.0, 0.04749673442880901
786.0, 0.04916895627003144
787.0, 0.04095339477043256
788.0, 0.042324367860748106
789.0, 0.042315932397583654
790.0, 0.03865280879987455
791.0, 0.0470441826408614
792.0, 0.033664964474920796
793.0, 0.03102083971757134
794.0, 0.03390115648539799
795.0, 0.02818911896859256
796.0, 0.024171476527758744
797.0, 0.021579506924787866
798.0, 0.02082742398130633
799.0, 0.022070777240305497
800.0, 0.025222191097125736
801.0, 0.01455569949463609
802.0, 0.01069987885857486
803.0, 0.010469093543428435
804.0, 0.006733329409285862
805.0, 0.008818934342409018
806.0, 0.01541248599145637
807.0, 0.01424328090292891
808.0, 0.00585904481502181
809.0, 0.008994892363921087
810.0, 0.014211926599537305
811.0, 0.009216780117364287
812.0, 0.0028732066698267064
813.0, 0.005111101741565383
814.0, 0.006284405660309723
815.0, 0.006022142858270126
816.0, 0.007236915800925049
817.0, 0.010123570853967
818.0, 0.012568524534976767
819.0, 0.005233315742229303
820.0, 0.0032532405007038687
821.0, 0.003858579323262475
822.0, 0.0039526339135701975
823.0, 0.004557263847975712
824.0, 0.0017149739387696075
825.0, 0.003437055842273439
826.0, 0.009256055141577756
827.0, 0.014357804059466406
828.0, 0.006156552296963854
829.0, 0.008321998579410524
830.0, 0.009402637424508139
831.0, 0.004826021337008054
832.0, 0.008087349863990984
833.0, 0.007753016201992649
834.0, 0.007410415586718515
835.0, 0.0065103482993417875
836.0, 0.003906243717542346
837.0, 0.0063160570627643076
838.0, 0.011833676027254655
839.0, 0.010355586189429531
840.0, 0.002973745207430285
841.0, 0.005092662733551035
842.0, 0.0016865797775856496
843.0, 0.004584447588007395
844.0, 0.006678220425203422
845.0, 0.002276926493028595
846.0, 0.0032540727925811025
847.0, 0.007148763859462542
848.0, 0.005698103663834638
849.0, 0.0022360967339091465
850.0, 0.006365215436168161
851.0, 0.004079676900949904
852.0, 0.005732580595299812
853.0, 0.007708704166937523
854.0, 0.007225911332303929
855.0, 0.001986986873664021
856.0, 0.0069410937054304135
857.0, 0.007022219633180972
858.0, 0.007041291108308292
859.0, 0.012454878319403399
860.0, 0.0022274063301094948
861.0, 0.004263963828273114
862.0, 0.004227955603646073
863.0, 0.0018448913500046058
864.0, 0.006063652220837299
865.0, 0.004815759797314876
866.0, 0.0068278904152759504
867.0, 0.0058368340089043555
868.0, 0.0005279920247211883
869.0, 0.0026245961507329676
870.0, 0.0010781804902382799
871.0, 0.003934052194107478
872.0, 0.005725476698947429
873.0, 0.0006966907879344423
874.0, 0.008417118725693935
875.0, 0.009917770679944723
876.0, 0.008049950587614874
877.0, 0.007273944388852342
878.0, 0.014382588802270373
879.0, 0.005213067172979791
880.0, 0.009183194993348704
881.0, 0.012113000317204043
882.0, 0.008129794519605715
883.0, 0.009622511843598483
884.0, 0.0032907285558392662
885.0, 0.00356251660279108
886.0, 0.007163875101430417
887.0, 0.008568039634093806
888.0, 0.0062227861570645455
889.0, 0.005044099554201275
890.0, 0.0059066975445215214
891.0, 0.007657635776043992
892.0, 0.008056602942671014
893.0, 0.014170685326623765
894.0, 0.014046523434093055
895.0, 0.016592095109594373
896.0, 0.02024911240554798
897.0, 0.007852858082674517
898.0, 0.009011373107607015
899.0, 0.01274280097129655
900.0, 0.019255808628596934
901.0, 0.026602873721480933
902.0, 0.020726595530673714
903.0, 0.018566969766453927
904.0, 0.019640812941932206
905.0, 0.02245366521840431
906.0, 0.025094239174231602
907.0, 0.026528720658358734
908.0, 0.026092846444303503
909.0, 0.027690461138610442
910.0, 0.03059642040995235
911.0, 0.03101445649491667
912.0, 0.024280017118575557
913.0, 0.028434830487420088
914.0, 0.03327463189554919
915.0, 0.03353970787179992
916.0, 0.030519381341148056
917.0, 0.040764682386895526
918.0, 0.03563869003906523
919.0, 0.027619197473004273
920.0, 0.028978109386783
921.0, 0.04170296878848323
922.0, 0.03109589134092294
923.0, 0.03146048204171686
924.0, 0.03370239127649623
925.0, 0.023726298916272783
926.0, 0.02887764250315889
927.0, 0.035112020532998306
928.0, 0.028845905594108406
929.0, 0.020887920138551237
930.0, 0.03306457621813341
931.0, 0.023229629406410143
932.0, 0.022566075199867086
933.0, 0.026774787151272798
934.0, 0.028627760371452367
935.0, 0.01651266991125168
936.0, 0.013258989564678724
937.0, 0.021572892827217895
938.0, 0.024546471186816285
939.0, 0.019270488059305212
940.0, 0.030237212331585182
941.0, 0.023439044560027524
942.0, 0.01978618891244894
943.0, 0.02250333860151217
944.0, 0.030431338847210682
945.0, 0.03341838029445533
946.0, 0.035965374266210284
947.0, 0.031961317094350045
948.0, 0.03088235769787934
949.0, 0.040594772136321323
950.0, 0.037232542395712456
951.0, 0.0327575321266767
952.0, 0.032757550202302387
953.0, 0.03397898610737727
954.0, 0.030800191671925624
955.0, 0.03185278591621581
956.0, 0.03199435623825474
957.0, 0.0347713961751433
958.0, 0.038631554854586185
959.0, 0.039007671402653425
960.0, 0.03761946701942155
961.0, 0.03661712312894429
962.0, 0.036175104042024626
963.0, 0.03598258752174543
964.0, 0.03523250213471457
965.0, 0.034347189823577394
966.0, 0.033756555770811165
967.0, 0.03256736127033945
968.0, 0.030983329176157193
969.0, 0.030838467765178557
970.0, 0.029601249881023237
971.0, 0.028033358530628737
972.0, 0.031194175688740257
973.0, 0.03575930155962516
974.0, 0.019786216761181544
975.0, 0.03074766143035359
976.0, 0.028947410037265142
977.0, 0.028416532492318076
978.0, 0.037779638499596896
979.0, 0.036914955249646685
980.0, 0.023693447282905483
981.0, 0.023756808875649578
982.0, 0.030702086930135312
983.0, 0.03441806328979264
984.0, 0.027653669846592094
985.0, 0.03822698394528916
986.0, 0.033439471579250334
987.0, 0.026832834749876595
988.0, 0.03402099261089867
989.0, 0.03575227002438752
990.0, 0.02324383714098978
991.0, 0.03036242886590137
992.0, 0.039911467843528434
993.0, 0.030252978606588272
994.0, 0.03545683590749296
995.0, 0.030772957490375268
996.0, 0.029776614246465452
997.0, 0.03193332454000536
998.0, 0.03236289115002819
999.0, 0.02617539314303592
1000.0, 0.03348775831282982
1001.0, 0.030435029535512997
1002.0, 0.026854483038540367
1003.0, 0.03919006288853511
1004.0, 0.028612043493514237
1005.0, 0.03300102194736492
1006.0, 0.03148572210727275
1007.0, 0.02655815824004054
1008.0, 0.029186008802104355
1009.0, 0.03960985900106587
1010.0, 0.03422025896591618
1011.0, 0.037689935486044185
1012.0, 0.04251190925924777
1013.0, 0.031136185843110672
1014.0, 0.03579651656912849
1015.0, 0.03832045071195797
1016.0, 0.03716416831531837
1017.0, 0.03329935575944509
1018.0, 0.02990348392889996
1019.0, 0.04102508086144539
1020.0, 0.04192925155032849
1021.0, 0.03391799859035914
1022.0, 0.027270714290073304
1023.0, 0.03467333612390928
1024.0, 0.043561195033106494
1025.0, 0.04086193176220501
1026.0, 0.040981446260788014
1027.0, 0.04094880430764893
1028.0, 0.03304828287999773
1029.0, 0.04092551707504278
1030.0, 0.037755795302455
1031.0, 0.039696336283423825
1032.0, 0.043290385091654726
1033.0, 0.038527930636001406
1034.0, 0.029432233034575497
1035.0, 0.026678865166105285
1036.0, 0.025041285061786506
1037.0, 0.025140994278511724
1038.0, 0.02826900646545253
1039.0, 0.024912733217048712
1040.0, 0.02940910462453698
1041.0, 0.0314613265283999
1042.0, 0.03447373622622875
1043.0, 0.04220210108133781
1044.0, 0.03264208818565088
1045.0, 0.0319696961069825
1046.0, 0.03784711314408748
1047.0, 0.04033739741387804
1048.0, 0.03237047848052239
1049.0, 0.03172265626205956
1050.0, 0.03394294760860776
1051.0, 0.04114723350908088
1052.0, 0.042578555367961575
1053.0, 0.03340409266396539
1054.0, 0.04220228280322928
1055.0, 0.04563829581383168
1056.0, 0.04182411539708833
1057.0, 0.03874557844900441
1058.0, 0.042927471140097595
1059.0, 0.05233095059811964
1060.0, 0.043600487148748486
1061.0, 0.04166569174565877
1062.0, 0.044871852260849665
1063.0, 0.04779519181608613
1064.0, 0.043253569049722336
1065.0, 0.04231018778186324
1066.0, 0.04469524186786029
1067.0, 0.047994222163682744
1068.0, 0.04784497093843207
1069.0, 0.0369905934486023
1070.0, 0.054785318397782445
1071.0, 0.04630870677817384
1072.0, 0.03979674819681254
1073.0, 0.0483173903066921
1074.0, 0.06506287221402846
1075.0, 0.05134457121370931
1076.0, 0.052441808885167675
1077.0, 0.05798612709161256
1078.0, 0.05911150482772353
1079.0, 0.04963315840910693
1080.0, 0.048104725914233565
1081.0, 0.06214534583383875
1082.0, 0.06293004067477105
1083.0, 0.055610618589951394
1084.0, 0.058691415226327814
1085.0, 0.05443050111100544
1086.0, 0.059453701163105145
1087.0, 0.05797630779005825
1088.0, 0.054382538505915595
1089.0, 0.056360135665140365
1090.0, 0.05606788082488599
1091.0, 0.05530833463656883
1092.0, 0.0574018663492655
1093.0, 0.05855901255798414
1094.0, 0.056340431005502525
1095.0, 0.05582308383577665
1096.0, 0.058838749941401834
1097.0, 0.06144610493123764
1098.0, 0.058958478788562016
1099.0, 0.054805798752478235
1100.0, 0.06569915255388184
1101.0, 0.06105655512449006
1102.0, 0.0685025906864823
1103.0, 0.0655901329596389
1104.0, 0.05578504112721318
1105.0, 0.06689983748321215
1106.0, 0.060513304328539054
1107.0, 0.0647242370385066
1108.0, 0.06276722161022322
1109.0, 0.060717774272975214
1110.0, 0.07213420582591616
1111.0, 0.06498594957256217
1112.0, 0.07012892958172187
1113.0, 0.06786928371732966
1114.0, 0.06259622842448793
1115.0, 0.06313920876441534
1116.0, 0.06742516245945483
1117.0, 0.06782116330675624
1118.0, 0.06588792991057194
1119.0, 0.06406202138392873
1120.0, 0.06375661602164305
1121.0, 0.06402778480396065
1122.0, 0.061852712619973466
1123.0, 0.06280011484591884
1124.0, 0.06130969411231506
1125.0, 0.05661963392791023
1126.0, 0.05328261672763017
1127.0, 0.05175372891951866
1128.0, 0.04210550624560885
1129.0, 0.04478222715956904
1130.0, 0.04722999373211373
1131.0, 0.02909839394639749
1132.0, 0.03739158483726328
1133.0, 0.037793375709128225
1134.0, 0.03546573106783365
1135.0, 0.030137789194864418
1136.0, 0.02289498789613437
1137.0, 0.02224125015307583
1138.0, 0.0259700004241129
1139.0, 0.016608912688938497
1140.0, 0.015178574944513372
1141.0, 0.023633726090649287
1142.0, 0.014600705786228286
1143.0, 0.010005410785683712
1144.0, 0.008607382919925998
1145.0, 0.007146417987024898
1146.0, 0.006298786189343811
1147.0, 0.008340166984011271
1148.0, 0.007629572773477614
1149.0, 0.010794822684702455
1150.0, 0.009980914484887126
1151.0, 0.007277938599589968
1152.0, 0.00585779932908361
1153.0, 0.003704111385891661
1154.0, 0.0017920375052038811
1155.0, 0.0028976201944506588
1156.0, 0.0037217660290469207
1157.0, 0.003982767330692926
1158.0, 0.007651794381773122
1159.0, 0.0031457761043083895
1160.0, 0.002661984693069363
1161.0, 0.0042598054600606235
1162.0, 0.006929529640729094
1163.0, 0.009670385098264043
1164.0, 0.007880402367319543
1165.0, 0.006701074805723865
1166.0, 0.003939803757647677
1167.0, 0.0012865693812722403
1168.0, 0.0012991626971707616
1169.0, 0.006593859296018465
1170.0, 0.008059180331220486
1171.0, 0.00617596390377231
1172.0, 0.0057510258019243775
1173.0, 0.005852161708500671
1174.0, 0.0014838990815423895
1175.0, 0.0059172263999088485
1176.0, 0.006152814731803438
1177.0, 0.005397889681876072
1178.0, 0.005378473087246075
1179.0, 0.0063948574512976974
1180.0, 0.005650956787684179
1181.0, 0.0027453626850734727
1182.0, 0.0033822905993488063
1183.0, 0.0029346027523055387
1184.0, 0.0023264176565584316
1185.0, 0.009759305350416466
1186.0, 0.008011623328095812
1187.0, 0.005182609267036504
1188.0, 0.005651011856150375
1189.0, 0.006504162259025719
1190.0, 0.00402537899413341
1191.0, 0.006808894614001735
1192.0, 0.004390225173737688
1193.0, 0.00485195330455157
1194.0, 0.008360774315256555
1195.0, 0.011196798587539776
1196.0, 0.006243706013838413
1197.0, 0.0037870114776853412
1198.0, 0.002850838594688002
1199.0, 0.006200197147083532
1200.0, 0.009753006292924266
1201.0, 0.008715211962494604
1202.0, 0.013628382909162145
1203.0, 0.010631795492589365
1204.0, 0.01022557422576106
1205.0, 0.008044881039347042
1206.0, 0.005114889780228074
1207.0, 0.013636868082897324
1208.0, 0.00788346253943031
1209.0, 0.011667678746912914
1210.0, 0.008919377452591559
1211.0, 0.0020848538753466617
1212.0, 0.001733859769491682
1213.0, 0.00826135818521282
1214.0, 0.009445120325162476
1215.0, 0.010903876696713794
1216.0, 0.010538467627315678
1217.0, 0.008672726319847817
1218.0, 0.009955736970268882
1219.0, 0.0035461247123710063
1220.0, 0.008120357238649156
1221.0, 0.0062784130297762015
1222.0, 0.002518395464251469
1223.0, 0.0066978044197451994
1224.0, 0.01031413105599717
1225.0, 0.004429904358944544
1226.0, 0.004921348784610084
1227.0, 0.009997530671155826
1228.0, 0.014583635109110904
1229.0, 0.012855451620838561
1230.0, 0.004775627679986851
1231.0, 0.008059043030650689
1232.0, 0.013765177868371817
1233.0, 0.013395188446504266
1234.0, 0.00630609351653978
1235.0, 0.011277269362475226
1236.0, 0.012297112768088495
1237.0, 0.010628609449356894
1238.0, 0.00971278030380368
1239.0, 0.011011145911034206
1240.0, 0.013768069752886837
1241.0, 0.01421530594756714
1242.0, 0.012975821094918107
1243.0, 0.014784759931554753
1244.0, 0.015418711708760866
1245.0, 0.012228038345823387
1246.0, 0.008206731849945099
1247.0, 0.009413740318205391
1248.0, 0.011123825842180045
1249.0, 0.012399825108923668
1250.0, 0.012199045202633362
1251.0, 0.011279934898712984
1252.0, 0.01669951743620581
1253.0, 0.008822881646919032
1254.0, 0.00630468287446742
1255.0, 0.007729483181245491
1256.0, 0.009667110112428033
1257.0, 0.009098479691397739
1258.0, 0.006936019100930307
1259.0, 0.002583499498512196
1260.0, 0.0071318193638676445
1261.0, 0.011424459984312834
1262.0, 0.008887518544101717
1263.0, 0.005872335216562107
1264.0, 0.012748172584451541
1265.0, 0.008414115119397178
1266.0, 0.006557582179746389
1267.0, 0.008073373719418684
1268.0, 0.008638726558154721
1269.0, 0.007494957483967809
1270.0, 0.006374472238614609
1271.0, 0.009667469132499551
1272.0, 0.011049255817237803
1273.0, 0.009551628947875151
1274.0, 0.008080258916683226
1275.0, 0.001064401626844443
1276.0, 0.006470044140731778
1277.0, 0.004638320433185404
1278.0, 0.004952777240984833
1279.0, 0.009760379567625335
1280.0, 0.007111496169890897
1281.0, 0.013982334154724368
1282.0, 0.0066133861839459095
1283.0, 0.004160914687735863
1284.0, 0.008453331389155461
1285.0, 0.011884536114015583
1286.0, 0.00042940068350815885
1287.0, 0.0035168486486843297
1288.0, 0.008129622369882338
1289.0, 0.005776393946231224
1290.0, 0.0026756672608676535
1291.0, 0.006210059330614401
1292.0, 0.00172752423398652
1293.0, 0.0007212596453559843
1294.0, 0.0022191603263968357
1295.0, 0.0026842125140127634
1296.0, 0.0016990562855447398
1297.0, 0.0016889277823569472
1298.0, 0.006250201990097862
1299.0, 0.005090285345688934
1300.0, 0.005001379353853743
1301.0, 0.007853867748957754
1302.0, 0.010959988301924585
1303.0, 0.009104831872845222
1304.0, 0.010045342572256238
1305.0, 0.0032990009768625096
1306.0, 0.003246353650592575
1307.0, 0.0034230203650219004
1308.0, 0.0006922205369723469
1309.0, 0.003186133693032514
1310.0, 0.012795188718620298
1311.0, 0.009639435736218937
1312.0, 0.008060541999780098
1313.0, 0.007407487035856825
1314.0, 0.005477131135625489
1315.0, 0.006116163606736327
1316.0, 0.005488866984444026
1317.0, 0.006430404987050507
1318.0, 0.005453577322671411
1319.0, 0.005455474396969984
1320.0, 0.00807912263590347
1321.0, 0.0058190139220480296
1322.0, 0.0057230730984822765
1323.0, 0.006191341013753013
1324.0, 0.00742406642877647
1325.0, 0.008122053531644462
1326.0, 0.006680395392305585
1327.0, 0.002806997770175167
1328.0, 0.011256927167382984
1329.0, 0.0070614654216283315
1330.0, 0.004442698482659375
1331.0, 0.004429770950877202
1332.0, 0.0023494347765169584
1333.0, 0.006431057526654387
1334.0, 0.014877520911554774
1335.0, 0.0066440131497757255
1336.0, 0.0035092028368522953
1337.0, 0.0065728721860098364
1338.0, 0.004690331953860207
1339.0, 0.004195940689536581
1340.0, 0.008548706724462733
1341.0, 0.007040691438753876
1342.0, 0.00914357769019737
1343.0, 0.013894951790652211
1344.0, 0.013174304227263426
1345.0, 0.007022349990214733
1346.0, 0.008090104477218193
1347.0, 0.011378798835721949
1348.0, 0.010019429824815632
1349.0, 0.010399423402830031
1350.0, 0.021077958273514337
1351.0, 0.01461631766732465
1352.0, 0.014313168377330935
1353.0, 0.018875926074191727
1354.0, 0.018358390797800946
1355.0, 0.013654481353713244
1356.0, 0.013661701528417607
1357.0, 0.021707143706123228
1358.0, 0.009966351438312971
1359.0, 0.013380768126075974
1360.0, 0.01830493875835938
1361.0, 0.017356699772039425
1362.0, 0.014525354361270677
1363.0, 0.024168537893237804
1364.0, 0.0122343045382853
1365.0, 0.010921465443224065
1366.0, 0.019149388273898876
1367.0, 0.023898142027435593
1368.0, 0.016139942041832504
1369.0, 0.02351254385889861
1370.0, 0.024471873759485712
1371.0, 0.02170637604058183
1372.0, 0.015103105335083576
1373.0, 0.01306016578085224
1374.0, 0.019867888989681278
1375.0, 0.010227620179159836
1376.0, 0.014489445338080288
1377.0, 0.020067406801134488
1378.0, 0.020616254292218313
1379.0, 0.019673102653358185
1380.0, 0.0211873197539289
1381.0, 0.015594957409973818
1382.0, 0.01981279647881296
1383.0, 0.021627412215119417
1384.0, 0.02101841748591437
1385.0, 0.019841774195824363
1386.0, 0.02142477435952741
1387.0, 0.029969694941250156
1388.0, 0.02215741307196692
1389.0, 0.018580671679846183
1390.0, 0.023424146886520975
1391.0, 0.026125482196509536
1392.0, 0.02273471827597361
1393.0, 0.028472553913371848
1394.0, 0.017752052161008242
1395.0, 0.018686744139355622
1396.0, 0.02658153301367052
1397.0, 0.029029666026014048
1398.0, 0.023494266009618223
1399.0, 0.022510630128501085
1400.0, 0.024076129172691255
1401.0, 0.02152119593610356
1402.0, 0.01915009609251848
1403.0, 0.01883618389468578
1404.0, 0.020707171483363162
1405.0, 0.02338530188907367
1406.0, 0.02450099270880416
1407.0, 0.012345822822139326
1408.0, 0.02027745036623251
1409.0, 0.020820668252590217
1410.0, 0.01407060410361878
1411.0, 0.01962737745809789
1412.0, 0.025975428533550626
1413.0, 0.01992881874976463
1414.0, 0.01504864830201592
1415.0, 0.01465498379656627
1416.0, 0.01678044338486466
1417.0, 0.017868660950001912
1418.0, 0.01737223660572812
1419.0, 0.03303261888595856
1420.0, 0.02110280786725078
1421.0, 0.0200522485358561
1422.0, 0.02112245184912381
1423.0, 0.015395574974188798
1424.0, 0.020346755589143086
1425.0, 0.01657608227304253
1426.0, 0.019120619870315894
1427.0, 0.019304849411628733
1428.0, 0.01781555503746273
1429.0, 0.017857565437418624
1430.0, 0.02149557673442175
1431.0, 0.023621802528053723
1432.0, 0.01876376253818046
1433.0, 0.01917684428191827
1434.0, 0.019025156077797888
1435.0, 0.019367859831973564
1436.0, 0.022719159098806258
1437.0, 0.017863515803184994
1438.0, 0.019680393615370793
1439.0, 0.02700044772616408
1440.0, 0.02654422177075346
1441.0, 0.02308031778156857
1442.0, 0.024567471051853286
1443.0, 0.02903665495723381
1444.0, 0.0185064459741545
1445.0, 0.023251092898178796
1446.0, 0.028029615153299756
1447.0, 0.023215087277769067
1448.0, 0.0152451201700988
1449.0, 0.0196682065712831
1450.0, 0.022823071784166017
1451.0, 0.026734346927092922
1452.0, 0.01845386449898273
1453.0, 0.03273564621096796
1454.0, 0.048012944736169065
1455.0, 0.03301268097469392
1456.0, 0.024678641695371713
1457.0, 0.034130630592472476
1458.0, 0.024182773204004148
1459.0, 0.02463227642274233
1460.0, 0.028595257474818222
1461.0, 0.027411992525646186
1462.0, 0.027545727781638857
1463.0, 0.03419194626981266
1464.0, 0.02155639240098671
1465.0, 0.021728484992617533
1466.0, 0.0246340453523014
1467.0, 0.02232579322123899
1468.0, 0.020048772975515765
1469.0, 0.041151492671884476
1470.0, 0.018041860955228375
1471.0, 0.024519933275430086
1472.0, 0.03070659549941998
1473.0, 0.031592138918540534
1474.0, 0.031909596223335134
1475.0, 0.033645281313637324
1476.0, 0.03297932136357939
1477.0, 0.028507370846165794
1478.0, 0.020346562451295545
1479.0, 0.014046904565367366
1480.0, 0.016136210889542632
1481.0, 0.026275549954501966
1482.0, 0.025781318259880778
1483.0, 0.033397979039565096
1484.0, 0.02375971817668349
1485.0, 0.019528422301261308
1486.0, 0.02005019655076351
1487.0, 0.02019182643830433
1488.0, 0.020957189173473546
1489.0, 0.015056282970698184
1490.0, 0.016024074655104848
1491.0, 0.016283616597306382
1492.0, 0.017943024409283994
1493.0, 0.018540955091608836
1494.0, 0.01737748990399164
1495.0, 0.026588262517840716
1496.0, 0.01666140586961938
1497.0, 0.01716119051433835
1498.0, 0.0203853743620394
1499.0, 0.015074734692459964
1500.0, 0.010202707509668979
1501.0, 0.023760961774762286
1502.0, 0.003038600850631467
1503.0, 0.006851474894511749
1504.0, 0.009320015871244139
1505.0, 0.006164488583517351
1506.0, 0.007510445016653085
1507.0, 0.015981896092484814
1508.0, 0.011949054184810577
1509.0, 0.01089416602594917
1510.0, 0.006818129119812542
1511.0, 0.00428343137159257
1512.0, 0.0019978564351334433
1513.0, 0.005018293040781975
1514.0, 0.016081037234458393
1515.0, 0.015089346280970636
1516.0, 0.01252233194171735
1517.0, 0.003987900559236892
1518.0, 0.006378757472028521
1519.0, 0.006614316073063698
1520, 0.0
1521, 0.0
1522, 0.0
1523, 0.0
1524, 0.0
1525, 0.0
1526, 0.0
1527, 0.0
1528, 0.0
1529, 0.0
1530, 0.0
1531, 0.0
1532, 0.0
1533, 0.0
1534, 0.0
1535, 0.0
1536, 0.0
1537, 0.0
1538, 0.0
1539, 0.0
1540, 0.0
1541, 0.0
1542, 0.0
1543, 0.0
1544, 0.0
1545, 0.0
1546, 0.0
1547, 0.0
1548, 0.0
1549, 0.0
1550, 0.0
1551, 0.0
1552, 0.0
1553, 0.0
1554, 0.0
1555, 0.0
1556, 0.0
1557, 0.0
1558, 0.0
1559, 0.0
1560, 0.0
1561, 0.0
1562, 0.0
1563, 0.0
1564, 0.0
1565, 0.0
1566, 0.0
1567, 0.0
1568, 0.0
1569, 0.0
1570, 0.0
1571, 0.0
1572, 0.0
1573, 0.0
1574, 0.0
1575, 0.0
1576, 0.0
1577, 0.0
1578, 0.0
1579, 0.0
1580, 0.0
1581, 0.0
1582, 0.0
1583, 0.0
1584, 0.0
1585, 0.0
1586, 0.0
1587, 0.0
1588, 0.0
1589, 0.0
1590, 0.0
1591, 0.0
1592, 0.0
1593, 0.0
1594, 0.0
1595, 0.0
1596, 0.0
1597, 0.0
1598, 0.0
1599, 0.0
