30, 0.0
31, 0.0
32, 0.0
33, 0.0
34, 0.0
35, 0.0
36, 0.0
37, 0.0
38, 0.0
39, 0.0
40, 0.0
41, 0.0
42, 0.0
43, 0.0
44, 0.0
45, 0.0
46, 0.0
47, 0.0
48, 0.0
49, 0.0
50, 0.0
51, 0.0
52, 0.0
53, 0.0
54, 0.0
55, 0.0
56, 0.0
57, 0.0
58, 0.0
59, 0.0
60, 0.0
61, 0.0
62, 0.0
63, 0.0
64, 0.0
65, 0.0
66, 0.0
67, 0.0
68, 0.0
69, 0.0
70, 0.0
71, 0.0
72, 0.0
73, 0.0
74, 0.0
75, 0.0
76, 0.0
77, 0.0
78, 0.0
79, 0.0
80, 0.0
81, 0.0
82, 0.0
83, 0.0
84, 0.0
85, 0.0
86, 0.0
87, 0.0
88, 0.0
89, 0.0
90, 0.0
91, 0.0
92, 0.0
93, 0.0
94, 0.0
95, 0.0
96, 0.0
97, 0.0
98, 0.0
99, 0.0
100, 0.0
101, 0.0
102, 0.0
103, 0.0
104, 0.0
105, 0.0
106, 0.0
107, 0.0
108, 0.0
109, 0.0
110, 0.0
111.0, 0.001207049092725067
112.0, 0.0013095602730715345
113.0, 0.0008952588746579877
114.0, 0.004110508318552304
115.0, 0.006138574667676757
116.0, 0.006903109447136995
117.0, 0.006113150488780978
118.0, 0.004636855631636912
119.0, 0.0031912875430902634
120.0, 0.0027700195363021688
121.0, 0.0066263476116852505
122.0, 0.009830785527394519
123.0, 0.012798633357395712
124.0, 0.01562639663207408
125.0, 0.01650674887456532
126.0, 0.017891907080991882
127.0, 0.021154471025661297
128.0, 0.029372858548708372
129.0, 0.03329833604667235
130.0, 0.03765853403372422
131.0, 0.04297560291206711
132.0, 0.043773724622435006
133.0, 0.04763508547021249
134.0, 0.05345306644109217
135.0, 0.060614526512038636
136.0, 0.07170332489351026
137.0, 0.08071553638376176
138.0, 0.08832402657423138
139.0, 0.10044531925600708
140.0, 0.11010060770391222
141.0, 0.11925880650934158
142.0, 0.12891846401293972
143.0, 0.13949822825446806
144.0, 0.14916218275915608
145.0, 0.15848492608083592
146.0, 0.16884921582958298
147.0, 0.18176821005436278
148.0, 0.19140539186721647
149.0, 0.19629748686138107
150.0, 0.2019774147369786
151.0, 0.21022947466521336
152.0, 0.21575550932882975
153.0, 0.21150029156676456
154.0, 0.20980091375261098
155.0, 0.2055713718931273
156.0, 0.1975680712146965
157.0, 0.18208322606737098
158.0, 0.16969481906615735
159.0, 0.1555468438019026
160.0, 0.13667341601182123
161.0, 0.12033999947721055
162.0, 0.10593381259212349
163.0, 0.09343548004300059
164.0, 0.08328557000835604
165.0, 0.07430719107749036
166.0, 0.06633835219055269
167.0, 0.05938134903486603
168.0, 0.05337121667955704
169.0, 0.04790971057416477
170.0, 0.04329949878423607
171.0, 0.040034294895046715
172.0, 0.03573004523192388
173.0, 0.032214289998742505
174.0, 0.029470581021911135
175.0, 0.02701206290402079
176.0, 0.02455929316852113
177.0, 0.02234813213791263
178.0, 0.02050022299664667
179.0, 0.019103405647712006
180.0, 0.01745349980774317
181.0, 0.016303265875048305
182.0, 0.016914525060192708
183.0, 0.016029556069809422
184.0, 0.016185562349969155
185.0, 0.017285560785514683
186.0, 0.01664538014966726
187.0, 0.017369716879441496
188.0, 0.017815661073862583
189.0, 0.017008993798277368
190.0, 0.02064428937737435
191.0, 0.023858583661316244
192.0, 0.02611529001816848
193.0, 0.026193584194916457
194.0, 0.027336587196654244
195.0, 0.027382389982117603
196.0, 0.026425042151008434
197.0, 0.028795104437420005
198.0, 0.03100243781365897
199.0, 0.03341406854650693
200.0, 0.03632410853049642
201.0, 0.03638210542111146
202.0, 0.03662507848662325
203.0, 0.0367692085141419
204.0, 0.03589914020433441
205.0, 0.03917386857394116
206.0, 0.04231772012864751
207.0, 0.04400840610738548
208.0, 0.0415842928362928
209.0, 0.040960087781162356
210.0, 0.04296882972197604
211.0, 0.04869589725704532
212.0, 0.04751352183785411
213.0, 0.04898868554264616
214.0, 0.051976785342715284
215.0, 0.053121123211195435
216.0, 0.05724397697149688
217.0, 0.06152002138157212
218.0, 0.06548626066938164
219.0, 0.07099399730396368
220.0, 0.07638236778517994
221.0, 0.08058631224099733
222.0, 0.08263966412383451
223.0, 0.08849923922846423
224.0, 0.09131760536217633
225.0, 0.09238549223321214
226.0, 0.09463639791285323
227.0, 0.09458683152488599
228.0, 0.09475877034306524
229.0, 0.09526366948502586
230.0, 0.09308941935662768
231.0, 0.09099720957848693
232.0, 0.08987937637016963
233.0, 0.09039868411572645
234.0, 0.08439921073846365
235.0, 0.08223309623438713
236.0, 0.0816948914261269
237.0, 0.0790325838552909
238.0, 0.0746435952900381
239.0, 0.0724243630089833
240.0, 0.07169101219133542
241.0, 0.0659028920836893
242.0, 0.06364981470439243
243.0, 0.05949711010709216
244.0, 0.05109593910872327
245.0, 0.049561338567451596
246.0, 0.04663648480840292
247.0, 0.04254110462365744
248.0, 0.0373387698676153
249.0, 0.035771223113351125
250.0, 0.032707960479139306
251.0, 0.028685475786555673
252.0, 0.02691466382523054
253.0, 0.027514222285477483
254.0, 0.027801105789349734
255.0, 0.027097003265367275
256.0, 0.027109749366797806
257.0, 0.02770334367504662
258.0, 0.02808658167676041
259.0, 0.02761465940252742
260.0, 0.027530860584252873
261.0, 0.028288602534049193
262.0, 0.028727508755841697
263.0, 0.026494597482434636
264.0, 0.026325798074104345
265.0, 0.025672229946704817
266.0, 0.024044417346037125
267.0, 0.02109239486116537
268.0, 0.021909177421694435
269.0, 0.021844165741062866
270.0, 0.019289425856105605
271.0, 0.024224368663581988
272.0, 0.027405159746844404
273.0, 0.02884167780201655
274.0, 0.028269893594668645
275.0, 0.031198242228945534
276.0, 0.033571654262664695
277.0, 0.03520598515091952
278.0, 0.036102026576935974
279.0, 0.03503187103735346
280.0, 0.03385972949929812
281.0, 0.032888898921916994
282.0, 0.03162394788166968
283.0, 0.030085139452787613
284.0, 0.02853168240122412
285.0, 0.027043684438421114
286.0, 0.024468350575339602
287.0, 0.024783438091759466
288.0, 0.024870226503134984
289.0, 0.021322920914288467
290.0, 0.01692481841637239
291.0, 0.015783849431258795
292.0, 0.016238463102893206
293.0, 0.014034961265779411
294.0, 0.011529275994998167
295.0, 0.008925042018972955
296.0, 0.007083894999547624
297.0, 0.010363043163948631
298.0, 0.010040461583197161
299.0, 0.008873734016199022
300.0, 0.008329396745461739
301.0, 0.013809240354365064
302.0, 0.014849421996475997
303.0, 0.015118013778125257
304.0, 0.017810006254278612
305.0, 0.01994742737367294
306.0, 0.02114733871683092
307.0, 0.023360277506228426
308.0, 0.030345804321547903
309.0, 0.030352382214079748
310.0, 0.031438242401660314
311.0, 0.0336670229152455
312.0, 0.03326730089352695
313.0, 0.03377714262340888
314.0, 0.03541720014697513
315.0, 0.03796513821600953
316.0, 0.03867963739189506
317.0, 0.03989272829304808
318.0, 0.0418827697414366
319.0, 0.04483910777530028
320.0, 0.04723714241716323
321.0, 0.048101653940051066
322.0, 0.04851197116571094
323.0, 0.049648708944670765
324.0, 0.048293854287124495
325.0, 0.04716863262594776
326.0, 0.04622263406588448
327.0, 0.045044466167303614
328.0, 0.04481329028701429
329.0, 0.0443498636158099
330.0, 0.04401086222822725
331.0, 0.045965213923758526
332.0, 0.046571661404819054
333.0, 0.04798422567335412
334.0, 0.0507826871726418
335.0, 0.05391415787173477
336.0, 0.056134432181823575
337.0, 0.059410556898446536
338.0, 0.06481785388014208
339.0, 0.06930567573280617
340.0, 0.07276551353115496
341.0, 0.0780650613502279
342.0, 0.08824388574175951
343.0, 0.095191206038115
344.0, 0.10463388107044673
345.0, 0.11453914328998115
346.0, 0.12114788812026761
347.0, 0.1315464605314451
348.0, 0.14225284311751982
349.0, 0.15317449310640002
350.0, 0.1652103786183661
351.0, 0.17767195907548716
352.0, 0.1855645181237785
353.0, 0.18911002815067304
354.0, 0.1950284870506781
355.0, 0.19889348491583195
356.0, 0.20112051056083025
357.0, 0.20204259692292534
358.0, 0.20406338665848878
359.0, 0.2026466291457651
360.0, 0.19821603950160782
361.0, 0.19100849162101372
362.0, 0.18608574580115114
363.0, 0.18236621215287635
364.0, 0.17831905521727623
365.0, 0.17243527574456666
366.0, 0.16658981955804744
367.0, 0.15752379127659477
368.0, 0.14792054063100277
369.0, 0.14191714354854676
370.0, 0.13261823616906462
371.0, 0.12392500749678656
372.0, 0.11577794671660672
373.0, 0.10733084947895369
374.0, 0.09899878446670353
375.0, 0.09352801458258889
376.0, 0.08892477505533429
377.0, 0.0766811053634231
378.0, 0.07356264484230633
379.0, 0.06792262763886041
380.0, 0.057934954419115225
381.0, 0.05025205584778861
382.0, 0.046877269682298404
383.0, 0.04262756940950601
384.0, 0.03599812660145622
385.0, 0.032074137426126255
386.0, 0.029779945286152076
387.0, 0.028005824342298362
388.0, 0.026012066832194463
389.0, 0.021078502840645292
390.0, 0.01829530863413444
391.0, 0.015953146897770134
392.0, 0.012771923447889211
393.0, 0.013296506325468822
394.0, 0.010300129932407347
395.0, 0.006739114484486169
396.0, 0.0058770374539569604
397.0, 0.009492503614777686
398.0, 0.009235656282415822
399.0, 0.007025496831943184
400.0, 0.006026424673512223
401.0, 0.0046789867169581435
402.0, 0.0025295779269726027
403.0, 0.0007857628182797693
404.0, 0.002001382105816088
405.0, 0.0027851212836907274
406.0, 0.0018710945170127616
407.0, 0.0002408232827296223
408.0, 0.0009109096322615776
409.0, 0.0015980243821018295
410.0, 0.001522719354857698
411.0, 0.001119948135405707
412.0, 0.002428439497057112
413.0, 0.0037695659780847767
414.0, 0.0037067309852275346
415.0, 0.002322293327451343
416.0, 0.0017070378309538578
417.0, 0.004452110843109089
418.0, 0.00434307741287973
419.0, 0.0005959532836597847
420.0, 0.001075071828118068
421.0, 0.0033624655459415643
422.0, 0.00529285353512267
423.0, 0.0058350216762767795
424.0, 0.003780763793492796
425.0, 0.0027916135752543104
426.0, 0.0023752312508150074
427.0, 0.0024156446489027508
428.0, 0.004174090325332655
429.0, 0.004036562842175714
430.0, 0.002669879165711798
431.0, 0.0006260391041603776
432.0, 0.001487503155574283
433.0, 0.0010019359905075423
434.0, 0.0005273683437435799
435.0, 0.0009919729942094986
436.0, 0.0012138815330274616
437.0, 0.001179834386672158
438.0, 0.0009704611410290686
439.0, 0.0006541327141768842
440.0, 0.0007248534849741421
441.0, 0.0014400715047324657
442.0, 0.0027123104513045297
443.0, 0.004471469947967003
444.0, 0.0021668587507911946
445.0, 0.000971399001900785
446.0, 0.0010548170507703879
447.0, 0.0026173055700548535
448.0, 0.001680968925361673
449.0, 0.0007876546979350293
450.0, 0.0004368498445264032
451.0, 0.0012003095196521736
452.0, 0.0003839957052999836
453.0, 0.002357117266542741
454.0, 0.004586734147368151
455.0, 0.003512574971265588
456.0, 0.0009793852124305516
457.0, 0.0006925919442644158
458.0, 0.002484255803482277
459.0, 0.005968571019255708
460.0, 0.0035701820772559177
461.0, 0.0035915903016826988
462.0, 0.004079493959662599
463.0, 0.0013679010260555504
464.0, 0.0027887276768056198
465.0, 0.0035804577990559664
466.0, 0.0044343017026216
467.0, 0.0069399479167744065
468.0, 0.0056328871982977684
469.0, 0.003463989710566033
470.0, 0.0020585736382439674
471.0, 0.0038015050721824013
472.0, 0.0014134890919517084
473.0, 0.002510009937393388
474.0, 0.0042281446531682665
475.0, 0.0008677105280431017
476.0, 0.004061843146274499
477.0, 0.0048809948498253625
478.0, 0.004853709180610533
479.0, 0.007611795429621747
480.0, 0.007520702814210624
481.0, 0.006080151812776693
482.0, 0.004471928184551226
483.0, 0.0044575918939311334
484.0, 0.005200951394394703
485.0, 0.006842457848806189
486.0, 0.007885316184081757
487.0, 0.0058962769057186604
488.0, 0.005435136012718987
489.0, 0.006615166864569496
490.0, 0.007611917441267219
491.0, 0.005601762371557225
492.0, 0.009764246285728615
493.0, 0.008475189560482184
494.0, 0.006145985553482536
495.0, 0.010082926688454667
496.0, 0.010436884453092639
497.0, 0.009621874649848799
498.0, 0.008728905868862305
499.0, 0.009070761673196317
500.0, 0.008249154067065424
501.0, 0.008821155451195333
502.0, 0.00973555031990256
503.0, 0.00959855028112294
504.0, 0.009336790006087758
505.0, 0.009930169945107592
506.0, 0.010369322485832624
507.0, 0.00951557619885026
508.0, 0.009702959802717173
509.0, 0.01055141203303473
510.0, 0.011595602529900157
511.0, 0.012363742823182559
512.0, 0.011673742679540125
513.0, 0.011249979325458813
514.0, 0.011424014444824613
515.0, 0.012401832398548373
516.0, 0.011234315784596896
517.0, 0.0120129231877257
518.0, 0.012442526626267207
519.0, 0.010960172217122185
520.0, 0.01106892243652289
521.0, 0.012188307729398969
522.0, 0.01393026002599784
523.0, 0.01572362467139169
524.0, 0.01329589710145047
525.0, 0.011342626630223285
526.0, 0.010298862514526205
527.0, 0.010422978462444282
528.0, 0.011799670276626541
529.0, 0.013397930543775713
530.0, 0.014080189479698711
531.0, 0.013716366124605996
532.0, 0.01494064735509547
533.0, 0.012224998077296021
534.0, 0.011851495313124995
535.0, 0.014945186928870704
536.0, 0.01556366251674656
537.0, 0.013616383059460568
538.0, 0.013821027293154377
539.0, 0.016235384842538995
540.0, 0.0158417312854938
541.0, 0.013699906101912745
542.0, 0.014740880687125037
543.0, 0.016986991939234124
544.0, 0.011399101037656185
545.0, 0.015198075623765765
546.0, 0.01747946033457976
547.0, 0.017167093173254124
548.0, 0.01570902280986629
549.0, 0.014003715058122253
550.0, 0.014901488358328453
551.0, 0.016353734661482985
552.0, 0.014334373202718059
553.0, 0.01523696366058885
554.0, 0.01412293034221602
555.0, 0.012888019479326869
556.0, 0.0143712062638001
557.0, 0.01691212564040238
558.0, 0.017207071740871237
559.0, 0.016190290243508425
560.0, 0.01485738999149851
561.0, 0.01322568053928061
562.0, 0.014905412239458675
563.0, 0.015935000411243107
564.0, 0.013722565292252437
565.0, 0.012780077855514924
566.0, 0.015065730193964065
567.0, 0.014222293052425273
568.0, 0.00889146917634433
569.0, 0.014474010525563002
570.0, 0.014801452379018051
571.0, 0.014799659215741853
572.0, 0.015073711622559837
573.0, 0.009742726484930766
574.0, 0.013183698943225198
575.0, 0.014112229155801024
576.0, 0.011464215312903314
577.0, 0.011006522891238046
578.0, 0.00793411260031758
579.0, 0.0076169060007225
580.0, 0.009793744239558718
581.0, 0.012099341026275131
582.0, 0.011041133058550034
583.0, 0.012072043659909996
584.0, 0.011702290631459639
585.0, 0.004259659434736258
586.0, 0.007752538401242342
587.0, 0.00656495120108334
588.0, 0.005541592636751254
589.0, 0.009660064927336658
590.0, 0.011059687731841872
591.0, 0.009592218999457792
592.0, 0.007812473678290136
593.0, 0.007064203122326198
594.0, 0.003453298879246844
595.0, 0.005932555902355651
596.0, 0.009019065297367845
597.0, 0.009748668105977687
598.0, 0.005123125669044588
599.0, 0.0032919565596044365
600.0, 0.004828952028873521
601.0, 0.007625884050485306
602.0, 0.004604549788716945
603.0, 0.003921101739877395
604.0, 0.005089293224015989
605.0, 0.006149208945030193
606.0, 0.003460360533216536
607.0, 0.0057273782277214745
608.0, 0.005726658498045429
609.0, 0.005866132577567559
610.0, 0.009600384729542999
611.0, 0.0028609476131691886
612.0, 0.0016469366588797373
613.0, 0.002164802659413291
614.0, 0.0018005218749838664
615.0, 0.006013170677967667
616.0, 0.0046579702648709784
617.0, 0.004803208404064366
618.0, 0.00805619854511139
619.0, 0.004401085727201761
620.0, 0.0068044350862536225
621.0, 0.006564459444937052
622.0, 0.003916837333152697
623.0, 0.0069089215737020695
624.0, 0.006717724339433135
625.0, 0.006684053044945307
626.0, 0.006689190515414494
627.0, 0.005703178622585759
628.0, 0.005689221802061777
629.0, 0.006000927704458093
630.0, 0.005789050908466356
631.0, 0.004396323911162867
632.0, 0.0073292645514650605
633.0, 0.007424821012873806
634.0, 0.006686955869077133
635.0, 0.006501398979354234
636.0, 0.007821476488782212
637.0, 0.00905071225070122
638.0, 0.008321590084158864
639.0, 0.007117674126982283
640.0, 0.01308462870499198
641.0, 0.009523420428122209
642.0, 0.007380633635734071
643.0, 0.006703730663689403
644.0, 0.0039039702131685268
645.0, 0.0047634041183983
646.0, 0.005452533030704746
647.0, 0.006742665642070572
648.0, 0.009501642600239958
649.0, 0.007734277545145779
650.0, 0.010085288028474911
651.0, 0.01071268140416223
652.0, 0.007607570249700936
653.0, 0.011892143071194173
654.0, 0.011572799660343925
655.0, 0.010430864312415286
656.0, 0.009167416505801823
657.0, 0.006132432527558601
658.0, 0.009576855600001424
659.0, 0.013115584096081979
660.0, 0.015466630726327493
661.0, 0.016096914454048646
662.0, 0.009272832168019551
663.0, 0.009735175666776542
664.0, 0.01267413053808131
665.0, 0.013546740507702857
666.0, 0.015738770256994522
667.0, 0.018636111532468864
668.0, 0.017326864664497312
669.0, 0.012214113332224592
670.0, 0.015958905634992634
671.0, 0.018459916169143085
672.0, 0.01959915957302198
673.0, 0.021925481348318888
674.0, 0.031036762706077466
675.0, 0.034486468253471604
676.0, 0.0406169996912418
677.0, 0.04816217182629478
678.0, 0.05490775966217806
679.0, 0.05803550002518628
680.0, 0.05449846250977454
681.0, 0.04823515662979758
682.0, 0.043145200981461095
683.0, 0.048499623774644784
684.0, 0.040133084619490916
685.0, 0.03460797881494195
686.0, 0.03396822123173338
687.0, 0.03214485605516636
688.0, 0.029572021072299923
689.0, 0.025912424844194006
690.0, 0.023564220549020777
691.0, 0.02518062740096958
692.0, 0.022028824139455602
693.0, 0.017598542228310463
694.0, 0.01728149916484843
695.0, 0.022316016341593973
696.0, 0.020714886698326898
697.0, 0.020764068626163184
698.0, 0.02109565029670065
699.0, 0.02126565891320648
700.0, 0.02109950946195535
701.0, 0.019738360401542435
702.0, 0.01695785426380472
703.0, 0.013741290364204913
704.0, 0.011320584045269436
705.0, 0.011703408453160275
706.0, 0.015519536191885525
707.0, 0.017699346190772746
708.0, 0.015261045715532596
709.0, 0.007108404120692284
710.0, 0.013224263070849906
711.0, 0.013912671890650215
712.0, 0.010891819079221609
713.0, 0.016959190969107307
714.0, 0.012534122995923177
715.0, 0.015012060957003111
716.0, 0.01852398909973071
717.0, 0.016951931457385605
718.0, 0.015314631187801048
719.0, 0.020793913034915373
720.0, 0.02521821706988899
721.0, 0.026996457829630092
722.0, 0.033073774561092374
723.0, 0.040381109699262674
724.0, 0.04489794715311535
725.0, 0.04946367629333319
726.0, 0.0591890864208848
727.0, 0.07117991889826866
728.0, 0.0677065649860286
729.0, 0.0626299539272319
730.0, 0.06549281547537063
731.0, 0.07461181994203003
732.0, 0.06951373648978315
733.0, 0.06692406039652692
734.0, 0.06788852743565836
735.0, 0.06407639378312319
736.0, 0.06753672998705951
737.0, 0.06637266343147857
738.0, 0.061387029799971946
739.0, 0.05487896126747686
740.0, 0.05442196156664231
741.0, 0.05265826588971285
742.0, 0.05015308065274205
743.0, 0.049648652791582065
744.0, 0.05957857206315981
745.0, 0.06449285008305049
746.0, 0.06934025899290949
747.0, 0.07582494857545416
748.0, 0.08505658564962902
749.0, 0.0888757103385909
750.0, 0.0857074584198597
751.0, 0.08226681354294435
752.0, 0.0801210444825512
753.0, 0.06817747687386666
754.0, 0.06565776912591807
755.0, 0.06526061926133717
756.0, 0.06662874496378376
757.0, 0.07150797641093169
758.0, 0.10080542981495776
759.0, 0.11618702157244278
760.0, 0.12610562538632142
761.0, 0.13495774213641812
762.0, 0.12811191071866565
763.0, 0.11828508963529931
764.0, 0.10305189202150261
765.0, 0.08226902907914878
766.0, 0.0570908949427799
767.0, 0.05151072796924963
768.0, 0.04119885558123952
769.0, 0.03287002638976468
770.0, 0.03092725475322173
771.0, 0.02059446559645507
772.0, 0.017746403657021355
773.0, 0.01719220503741601
774.0, 0.015318782840648101
775.0, 0.007557752031457054
776.0, 0.011089719180418263
777.0, 0.01160032755646563
778.0, 0.008224996479774408
779.0, 0.002272719190250675
780.0, 0.004631745292733931
781.0, 0.005361829081530133
782.0, 0.003586964425605249
783.0, 0.0011649345150769462
784.0, 0.0030933161578485984
785.0, 0.0014116653682517376
786.0, 0.0020538704516838853
787.0, 0.0037003093267348208
788.0, 0.0049616232437146085
789.0, 0.007270903307090687
790.0, 0.004192391733802613
791.0, 0.002073207773897502
792.0, 0.0024001045325067957
793.0, 0.0039059643093489185
794.0, 0.0017122173104773101
795.0, 0.0032241788536876647
796.0, 0.005675985319572081
797.0, 0.006180376483617431
798.0, 0.0035179041555921963
799.0, 0.003059027915790169
800.0, 0.0020815316717453175
801.0, 0.0012098257452384117
802.0, 0.003316086896562616
803.0, 0.0068713476327100075
804.0, 0.004373805163473505
805.0, 0.0035426495688298514
806.0, 0.008144102658473562
807.0, 0.0036527011986169423
808.0, 0.0015991764998822425
809.0, 0.0011861601195967933
810.0, 0.0014937699403186138
811.0, 0.0012341641739400618
812.0, 0.0019427360170398923
813.0, 0.0013600652937542155
814.0, 0.0018516182156846138
815.0, 0.003973810635756764
816.0, 0.0032787296697859222
817.0, 0.006739973770713711
818.0, 0.006143021074838945
819.0, 0.0038930385869154344
820.0, 0.00528754273078007
821.0, 0.004044590325952439
822.0, 0.001645488760910446
823.0, 0.0003739149117031301
824.0, 0.0009358945983604221
825.0, 0.0019315939035651256
826.0, 0.001513705356523154
827.0, 0.001389350121030065
828.0, 0.0016753610947411828
829.0, 0.002108547441750141
830.0, 0.0007555588473520256
831.0, 0.0026571785149760636
832.0, 0.0036913208879631107
833.0, 0.002701568826425092
834.0, 0.0004315045110234877
835.0, 0.0008738393292932668
836.0, 0.0008133988935436027
837.0, 0.0004232726655269923
838.0, 0.00041595018959924494
839.0, 0.0034748402169064276
840.0, 0.00281133691201997
841.0, 0.002959576193036653
842.0, 0.003439185230041349
843.0, 0.0020654218409772596
844.0, 0.001801789132071728
845.0, 0.002143690106790335
846.0, 0.0018207835896508777
847.0, 0.001709970736902276
848.0, 0.006888189317793473
849.0, 0.0058178198741406515
850.0, 0.005738286703636648
851.0, 0.008925320441335928
852.0, 0.014606611458980373
853.0, 0.002430830052556323
854.0, 0.004217539652985675
855.0, 0.007163563895459487
856.0, 0.0087720992551303
857.0, 0.01172763064541704
858.0, 0.011730740739092315
859.0, 0.007000418010749044
860.0, 0.005055267331687068
861.0, 0.008383241685959662
862.0, 0.00795403998142147
863.0, 0.004887722376665655
864.0, 0.007644912857279974
865.0, 0.012464141045357799
866.0, 0.014143565076049197
867.0, 0.018577455445211655
868.0, 0.0226573923397891
869.0, 0.024231540886868186
870.0, 0.023589120157956486
871.0, 0.02285469799604073
872.0, 0.02091683139900798
873.0, 0.014559457018554704
874.0, 0.009724579741228694
875.0, 0.00924407291928656
876.0, 0.008968259180118633
877.0, 0.009484256775797116
878.0, 0.008936172009795438
879.0, 0.00905131442613129
880.0, 0.011335519688341896
881.0, 0.009159092939397666
882.0, 0.01037385701287938
883.0, 0.01280678242377432
884.0, 0.013542402445234315
885.0, 0.008642382082948168
886.0, 0.008500319818918745
887.0, 0.009400927334503125
888.0, 0.01127584541520146
889.0, 0.013165625354174615
890.0, 0.012070256007950971
891.0, 0.009919462335571323
892.0, 0.010699189567976225
893.0, 0.011588337656508529
894.0, 0.010395290891598744
895.0, 0.012696606284721933
896.0, 0.00815883600985929
897.0, 0.008062020494181022
898.0, 0.009833101007488925
899.0, 0.006328142022546431
900.0, 0.008294579992771962
901.0, 0.009790694466421824
902.0, 0.013497145371012024
903.0, 0.018001856568552313
904.0, 0.017421449424098866
905.0, 0.008918171238468593
906.0, 0.01162408353444626
907.0, 0.015627704369673687
908.0, 0.014514048084455954
909.0, 0.011784899596706765
910.0, 0.013747432404950825
911.0, 0.014222463273515245
912.0, 0.014320175603348691
913.0, 0.015946691518875136
914.0, 0.018873984840426617
915.0, 0.01967369769116735
916.0, 0.01727165703700043
917.0, 0.012700773178208334
918.0, 0.008437680762886344
919.0, 0.015215280394493262
920.0, 0.014525502509062777
921.0, 0.01315931493142991
922.0, 0.012476380902469688
923.0, 0.009346586176299144
924.0, 0.014507319458904072
925.0, 0.017973404385584427
926.0, 0.01874001460814884
927.0, 0.017459154210288732
928.0, 0.017654960755389904
929.0, 0.018961802889827566
930.0, 0.01709295853122494
931.0, 0.015259415167141232
932.0, 0.015876212477271785
933.0, 0.015299791449374425
934.0, 0.01788928918893233
935.0, 0.020080771118753917
936.0, 0.017371534324085336
937.0, 0.008623939334595307
938.0, 0.024451423951925032
939.0, 0.018096921371685643
940.0, 0.016195277433135365
941.0, 0.020101416866699445
942.0, 0.02013045290655702
943.0, 0.01613870663385562
944.0, 0.014097481047436038
945.0, 0.01575953089369154
946.0, 0.01875532138354281
947.0, 0.0168181301946088
948.0, 0.021994239329120324
949.0, 0.02178165009177548
950.0, 0.02152286807153403
951.0, 0.021896122327983707
952.0, 0.016250457805171984
953.0, 0.015763161629019414
954.0, 0.01458926948131231
955.0, 0.013467730124425219
956.0, 0.013283645205135945
957.0, 0.014522134765333719
958.0, 0.01744178329362291
959.0, 0.018858941187440987
960.0, 0.01963046475406522
961.0, 0.020100936804177846
962.0, 0.016190538801254886
963.0, 0.017094306192864447
964.0, 0.01603936105280107
965.0, 0.014816395223124192
966.0, 0.016125149389054873
967.0, 0.016592667415541204
968.0, 0.017126954609367997
969.0, 0.016851705285461458
970.0, 0.016466298305488663
971.0, 0.016976108274602233
972.0, 0.016656564858923122
973.0, 0.01917518067122824
974.0, 0.01869499937450114
975.0, 0.016393451097451057
976.0, 0.016608378944635026
977.0, 0.017774122601386604
978.0, 0.012979898132338238
979.0, 0.013979793982185082
980.0, 0.019073697931090077
981.0, 0.017845402427519832
982.0, 0.014547557611067762
983.0, 0.020894686484893947
984.0, 0.019231759256477493
985.0, 0.011691403839773072
986.0, 0.017734413410291305
987.0, 0.019660016199702278
988.0, 0.017235770298924015
989.0, 0.016054584931820427
990.0, 0.017419753942560467
991.0, 0.01789115277825902
992.0, 0.020195039973382296
993.0, 0.021264467544988716
994.0, 0.02276333846271386
995.0, 0.023532569489193047
996.0, 0.018223081102806623
997.0, 0.021194208554868456
998.0, 0.02386258120112488
999.0, 0.02031796613312634
1000.0, 0.01549972339730483
1001.0, 0.03223080875430005
1002.0, 0.020594076373549854
1003.0, 0.017435476864618583
1004.0, 0.01993711503637664
1005.0, 0.02312691312716676
1006.0, 0.021568979830218323
1007.0, 0.02181081808169888
1008.0, 0.021979440102313452
1009.0, 0.02301431889563902
1010.0, 0.02557218145937171
1011.0, 0.029589053756162182
1012.0, 0.026339068244965368
1013.0, 0.022533129480016678
1014.0, 0.02202857901042392
1015.0, 0.02451103881121772
1016.0, 0.02162508364151069
1017.0, 0.02696524031618936
1018.0, 0.02640775178157567
1019.0, 0.025116509316317717
1020.0, 0.026203358551112606
1021.0, 0.02575299435830417
1022.0, 0.031193406096660593
1023.0, 0.027428900848905487
1024.0, 0.02778254585005788
1025.0, 0.03526197930049637
1026.0, 0.028182259821613227
1027.0, 0.028223046424820823
1028.0, 0.02998806733756057
1029.0, 0.03226937239948452
1030.0, 0.03465671430963429
1031.0, 0.03774486280962935
1032.0, 0.03175903618878401
1033.0, 0.030634535818097008
1034.0, 0.03485551736614161
1035.0, 0.038726970734682384
1036.0, 0.0270612434050155
1037.0, 0.03130781784752105
1038.0, 0.03563986846247194
1039.0, 0.040511217636679975
1040.0, 0.045413221998496865
1041.0, 0.0472706283393277
1042.0, 0.049182191208476764
1043.0, 0.04666282989527626
1044.0, 0.047011254610210385
1045.0, 0.049720798509735445
1046.0, 0.04405705547899069
1047.0, 0.044012008575123614
1048.0, 0.0488639837618513
1049.0, 0.05422436286692909
1050.0, 0.05736944411122328
1051.0, 0.057480029673895996
1052.0, 0.06479432623118389
1053.0, 0.06834623802357875
1054.0, 0.07121014567402968
1055.0, 0.07719456306178436
1056.0, 0.09034656228005532
1057.0, 0.10582748127397598
1058.0, 0.11065059722666533
1059.0, 0.1162275107146418
1060.0, 0.1236162752881867
1061.0, 0.1282683415560037
1062.0, 0.1398047464410996
1063.0, 0.15963640042350177
1064.0, 0.1728396604900626
1065.0, 0.18155517852120398
1066.0, 0.19514734357152505
1067.0, 0.21530203918503543
1068.0, 0.24996792077751304
1069.0, 0.2780642506528312
1070.0, 0.3078271112253182
1071.0, 0.35159109606720507
1072.0, 0.39030803230116895
1073.0, 0.45249638770160844
1074.0, 0.4947998708906337
1075.0, 0.5293025407303751
1076.0, 0.5757310205178562
1077.0, 0.635920777853939
1078.0, 0.7321476374973882
1079.0, 0.8615006668480055
1080.0, 0.963635070256359
1081.0, 0.9920395859941469
1082.0, 0.9483010475004529
1083.0, 0.841353572438294
1084.0, 0.727077850130652
1085.0, 0.6102683365722734
1086.0, 0.49815261721127446
1087.0, 0.4071090862668777
1088.0, 0.3433232555978427
1089.0, 0.28836868153983325
1090.0, 0.24110039106050546
1091.0, 0.20423730176270244
1092.0, 0.18297655293800208
1093.0, 0.15339438686699908
1094.0, 0.1335985694767999
1095.0, 0.12145837255093175
1096.0, 0.1085270952116775
1097.0, 0.08609844869013131
1098.0, 0.08243124815331167
1099.0, 0.07108319314344279
1100.0, 0.06622721097914107
1101.0, 0.06283317723234957
1102.0, 0.05312960123048142
1103.0, 0.04937451440949008
1104.0, 0.04587250983682112
1105.0, 0.04120519986407861
1106.0, 0.03667180683729617
1107.0, 0.034350994992443
1108.0, 0.03718764008678656
1109.0, 0.029315470363552868
1110.0, 0.031272790139344094
1111.0, 0.030131831159450007
1112.0, 0.02167292142721846
1113.0, 0.018126343564375362
1114.0, 0.02349416578970199
1115.0, 0.02179162224284399
1116.0, 0.019054706767939498
1117.0, 0.0194580810851672
1118.0, 0.024531869744756202
1119.0, 0.02459020416885818
1120.0, 0.024928211470553175
1121.0, 0.024677831428178882
1122.0, 0.024969962210157837
1123.0, 0.026352385971139414
1124.0, 0.021500365476864628
1125.0, 0.0233844989564648
1126.0, 0.02048410704976716
1127.0, 0.014383934584454404
1128.0, 0.009827239205685722
1129.0, 0.012837886476379623
1130.0, 0.018369781273765692
1131.0, 0.01487141187193538
1132.0, 0.011226220887241588
1133.0, 0.010229510122400419
1134.0, 0.005592566720654926
1135.0, 0.008530353918923575
1136.0, 0.009301455262408055
1137.0, 0.00966177742753206
1138.0, 0.010636578134255692
1139.0, 0.012426949535500258
1140.0, 0.012482803886052338
1141.0, 0.010494533756609071
1142.0, 0.010840933312236786
1143.0, 0.01166758762473222
1144.0, 0.01123989276811162
1145.0, 0.013581578987976798
1146.0, 0.011846177239530405
1147.0, 0.011287050350466826
1148.0, 0.011366462779934925
1149.0, 0.012249681466298498
1150.0, 0.015593812141619952
1151.0, 0.003998068015804186
1152.0, 0.0037036249754319305
1153.0, 0.007180425066292913
1154.0, 0.008943203618135184
1155.0, 0.0072237901275294695
1156.0, 0.017382522048138314
1157.0, 0.00899562759493212
1158.0, 0.007182786161653157
1159.0, 0.009300067447729758
1160.0, 0.009664535109208724
1161.0, 0.01359506224004077
1162.0, 0.01058120379306302
1163.0, 0.014787421869150734
1164.0, 0.015476188208658589
1165.0, 0.011288373320515178
1166.0, 0.01256615630678034
1167.0, 0.008307303444983653
1168.0, 0.011162939777210586
1169.0, 0.012665143868155449
1170.0, 0.011176359161509547
1171.0, 0.008835756685119317
1172.0, 0.010281203685584026
1173.0, 0.00993459817211734
1174.0, 0.008427010202661055
1175.0, 0.011146314778995652
1176.0, 0.017829477288995237
1177.0, 0.017504203300575012
1178.0, 0.003998492725670508
1179.0, 0.011916387009895203
1180.0, 0.014600827992575512
1181.0, 0.00864130338049823
1182.0, 0.006903880857441756
1183.0, 0.01513406382037394
1184.0, 0.0153109086043069
1185.0, 0.013435278896148756
1186.0, 0.013339840288873328
1187.0, 0.01561933261069019
1188.0, 0.01455410096644701
1189.0, 0.013077793629718537
1190.0, 0.014769304081770178
1191.0, 0.016365875465091495
1192.0, 0.016852746635937717
1193.0, 0.017200893014631173
1194.0, 0.01470379852894535
1195.0, 0.013821460463724376
1196.0, 0.017429896769621145
1197.0, 0.019574965251628114
1198.0, 0.015115575925675777
1199.0, 0.008132513469885132
1200.0, 0.01765527087032474
1201.0, 0.013723573263483078
1202.0, 0.013362335152935566
1203.0, 0.015899366925722105
1204.0, 0.005385365341941771
1205.0, 0.01236157997187343
1206.0, 0.011945042770929129
1207.0, 0.01550415621802397
1208.0, 0.01922929940329563
1209.0, 0.01840955302627952
1210.0, 0.018451629924824315
1211.0, 0.017172633867954402
1212.0, 0.015209478469993702
1213.0, 0.013694371658359118
1214.0, 0.011394854324280678
1215.0, 0.006501459379077651
1216.0, 0.01219721599522446
1217.0, 0.010819172543336236
1218.0, 0.0104040366958021
1219.0, 0.008118886291050125
1220.0, 0.0030775173844358322
1221.0, 0.005143080956315124
1222.0, 0.012462143478322385
1223.0, 0.009455907683732785
1224.0, 0.008449323259512363
1225.0, 0.013048453186035341
1226.0, 0.018297249778881752
1227.0, 0.011490845069696175
1228.0, 0.006346860460014321
1229.0, 0.011743082183840922
1230.0, 0.016745821088764688
1231.0, 0.014667918144770501
1232.0, 0.012959575559135583
1233.0, 0.0024000617743920455
1234.0, 0.005756412015346847
1235.0, 0.009868130753307645
1236.0, 0.012605605318695135
1237.0, 0.0161068840639126
1238.0, 0.014362277140676253
1239.0, 0.009823553950513637
1240.0, 0.014327322638854867
1241.0, 0.01664615412949
1242.0, 0.012306562390722475
1243.0, 0.0077235990152430024
1244.0, 0.008320859136404506
1245.0, 0.009293903390556437
1246.0, 0.010639239267666073
1247.0, 0.011789649065388097
1248.0, 0.010453813963263725
1249.0, 0.0008682921555910753
1250.0, 0.01617647596992216
1251.0, 0.00770485194946857
1252.0, 0.008143039818557084
1253.0, 0.013609686953287275
1254.0, 0.0037258515970556814
1255.0, 0.01394966971748741
1256.0, 0.0046571108977670386
1257.0, 0.0008920153229418319
1258.0, 0.0022039777887458037
1259.0, 0.006631887403026263
1260.0, 0.014150329699303413
1261.0, 0.00506717087876009
1262.0, 0.006955594194351378
1263.0, 0.0059259846008950096
1264.0, 0.0031792696784223346
1265.0, 0.0030461048625362625
1266.0, 0.004909762850733313
1267.0, 0.010514441975247067
1268.0, 0.006684857649972495
1269.0, 0.004676761192668541
1270.0, 0.006029223679303028
1271.0, 0.0058297817839686825
1272.0, 0.0008159886437608321
1273.0, 0.006105202544286522
1274.0, 0.006165451711964668
1275.0, 0.0051067826424275545
1276.0, 0.004897272393666805
1277.0, 0.0030787078518094606
1278.0, 0.0007262452631943415
1279.0, 0.006846787434266683
1280.0, 0.005328222312979617
1281.0, 0.001621433094165091
1282.0, 0.0017423081000275203
1283.0, 0.003390862277730522
1284.0, 0.003168336339447111
1285.0, 0.003035275671218201
1286.0, 0.003565653870379223
1287.0, 0.0030994366734318603
1288.0, 0.0010900063662918188
1289.0, 0.002215371115463119
1290.0, 0.0044309092704737625
1291.0, 0.006372105041854223
1292.0, 0.006139598626283522
1293.0, 0.0045690686392895405
1294.0, 0.003535119092361812
1295.0, 0.0016881696533981375
1296.0, 0.0016042839240108134
1297.0, 0.0034016220611842733
1298.0, 0.005739187179303829
1299.0, 0.006469470420407528
1300.0, 0.0038352991953615762
1301.0, 0.001493936799374877
1302.0, 0.002195579026631912
1303.0, 0.0018387894047249024
1304.0, 0.0018518037018659358
1305.0, 0.0027285865048514695
1306.0, 0.0028076976583026924
1307.0, 0.003948577349366482
1308.0, 0.005516884893328008
1309.0, 0.004475759100818027
1310.0, 0.005698379750979187
1311.0, 0.008569754090314097
1312.0, 0.0014903952570298343
1313.0, 0.0073180439610018265
1314.0, 0.010271314644557225
1315.0, 0.010854094304893336
1316.0, 0.007565344125079456
1317.0, 0.002587392173915449
1318.0, 0.006597754468690751
1319.0, 0.0027929474259184937
1320.0, 0.0074117127305067115
1321.0, 0.008828179219738115
1322.0, 0.0061496486058807065
1323.0, 0.0055015820260547865
1324.0, 0.016633898352145248
1325.0, 0.003574986389526872
1326.0, 0.016160284628105166
1327.0, 0.018633996964644885
1328.0, 0.008390454787112565
1329.0, 0.002786799579507483
1330.0, 0.01425873019199752
1331.0, 0.019744019795634296
1332.0, 0.02150123814271822
1333.0, 0.022478601484978444
1334.0, 0.02315441017606321
1335.0, 0.02275413025485496
1336.0, 0.022327971369102955
1337.0, 0.02150549071238121
1338.0, 0.02592913129154808
1339.0, 0.03007419144595816
1340.0, 0.034217575129643046
1341.0, 0.04108233873808488
1342.0, 0.04325398890705417
1343.0, 0.044701306299949825
1344.0, 0.04683892547077262
1345.0, 0.0511652670955871
1346.0, 0.05830267591341349
1347.0, 0.0674577203644392
1348.0, 0.07494624330128424
1349.0, 0.0741703913320666
1350.0, 0.06831148148589279
1351.0, 0.06946833238599237
1352.0, 0.07262109959668404
1353.0, 0.0653522599463988
1354.0, 0.06479416335992733
1355.0, 0.0706441015431372
1356.0, 0.06350580454181645
1357.0, 0.06257354232130982
1358.0, 0.0672874233127407
1359.0, 0.06389496221490751
1360.0, 0.061827565216632456
1361.0, 0.06386405354901632
1362.0, 0.06237571108085335
1363.0, 0.06190438950760175
1364.0, 0.06418154728332601
1365.0, 0.06743108415422394
1366.0, 0.06825713480591002
1367.0, 0.06853246093838761
1368.0, 0.0693829933434206
1369.0, 0.06680076121098391
1370.0, 0.06415014607457564
1371.0, 0.0670821272994921
1372.0, 0.07100558541942449
1373.0, 0.06456863114917058
1374.0, 0.0583061066873637
1375.0, 0.05993331737609893
1376.0, 0.06103314841458748
1377.0, 0.05418975103687923
1378.0, 0.06294095259467901
1379.0, 0.05890678467269347
1380.0, 0.05913465116862534
1381.0, 0.05572938985624837
1382.0, 0.04948782250435247
1383.0, 0.04653722946506377
1384.0, 0.05281190206679484
1385.0, 0.05744312484783443
1386.0, 0.05463547517280364
1387.0, 0.04790645274403984
1388.0, 0.046609141417213534
1389.0, 0.051489200717898025
1390.0, 0.044091525177506
1391.0, 0.050323730556952495
1392.0, 0.04256089989782846
1393.0, 0.03752253583693595
1394.0, 0.040120055526583744
1395.0, 0.04390298188270093
1396.0, 0.03488687728523482
1397.0, 0.03692013151951156
1398.0, 0.036527150970414764
1399.0, 0.034344652227536125
1400.0, 0.03321999616084828
1401.0, 0.03514711523174169
1402.0, 0.03966921982840406
1403.0, 0.041805347224410094
1404.0, 0.03898407472069789
1405.0, 0.03800182683564744
1406.0, 0.04520732875934624
1407.0, 0.051350367130335785
1408.0, 0.04464981846283636
1409.0, 0.06480034360492017
1410.0, 0.07886148585525388
1411.0, 0.07987952695803852
1412.0, 0.08714667717069616
1413.0, 0.09833546647406285
1414.0, 0.10169504038060169
1415.0, 0.1061440527398255
1416.0, 0.11398717489526486
1417.0, 0.10838324373139416
1418.0, 0.10314937907634557
1419.0, 0.09878355723345245
1420.0, 0.09092337814868066
1421.0, 0.0798486277470166
1422.0, 0.07739473219484326
1423.0, 0.06235816522765182
1424.0, 0.05529430504068463
1425.0, 0.05067869448170064
1426.0, 0.042413719610925826
1427.0, 0.034691515953918846
1428.0, 0.035115785744403404
1429.0, 0.02932186740063968
1430.0, 0.028175429143160305
1431.0, 0.02614199369592806
1432.0, 0.01930441455573168
1433.0, 0.011186583220684172
1434.0, 0.018650922309562612
1435.0, 0.016009113183929377
1436.0, 0.018572502848797807
1437.0, 0.01947713497084331
1438.0, 0.016683147952451204
1439.0, 0.012041246788553438
1440.0, 0.007951853771716366
1441.0, 0.015549802878589265
1442.0, 0.018815697697815752
1443.0, 0.013712209873307023
1444.0, 0.010451306850790909
1445.0, 0.012364942959482279
1446.0, 0.00975482430098537
1447.0, 0.01264066537205111
1448.0, 0.009889640404605535
1449.0, 0.011576065451105694
1450.0, 0.007838086277422811
1451.0, 0.005980664335453519
1452.0, 0.016368050774744326
1453.0, 0.00480676689053089
1454.0, 0.005979925392323459
1455.0, 0.01247654955865241
1456.0, 0.00828168693834763
1457.0, 0.004964617959090995
1458.0, 0.011124498126214917
1459.0, 0.008270671929506496
1460.0, 0.003422065441489295
1461.0, 0.009309151284257272
1462.0, 0.010110250676828287
1463.0, 0.007095759546126794
1464.0, 0.008269914505263607
1465.0, 0.016592990011622965
1466.0, 0.00241668357172836
1467.0, 0.01778177529445006
1468.0, 0.010192444769042953
1469.0, 0.005237307717863579
1470.0, 0.008164706103525399
1471.0, 0.011458936764675512
1472.0, 0.012590209580151977
1473.0, 0.012146567955755205
1474.0, 0.017884451078070202
1475.0, 0.01446344147352026
1476.0, 0.006329296328766643
1477.0, 0.0013514033344914085
1478.0, 0.003722602040040152
1479.0, 0.01268664563905544
1480.0, 0.007859486878524271
1481.0, 0.014559449579104801
1482.0, 0.009711348564469393
1483.0, 0.0039036093497596003
1484.0, 0.01027000838115773
1485.0, 0.007462443602027837
1486.0, 0.00397478041054009
1487.0, 0.0023503087754505555
1488.0, 0.0012587220473779662
1489.0, 0.0006593114278241139
1490.0, 0.0020344288841706885
1491.0, 0.005735427122366722
1492.0, 0.003251071530405398
1493.0, 0.014890369108827552
1494.0, 0.015843727790204404
1495.0, 0.010075954691104758
1496.0, 0.007382944412588727
1497.0, 0.008638276969280049
1498.0, 0.0010608337890511505
1499.0, 0.012832493562550087
1500.0, 0.003446508388813295
1501.0, 0.003689830778624215
1502.0, 0.003324056067400911
1503, 0.0
1504, 0.0
1505, 0.0
1506, 0.0
1507, 0.0
1508, 0.0
1509, 0.0
1510, 0.0
1511, 0.0
1512, 0.0
1513, 0.0
1514, 0.0
1515, 0.0
1516, 0.0
1517, 0.0
1518, 0.0
1519, 0.0
1520, 0.0
1521, 0.0
1522, 0.0
1523, 0.0
1524, 0.0
1525, 0.0
1526, 0.0
1527, 0.0
1528, 0.0
1529, 0.0
1530, 0.0
1531, 0.0
1532, 0.0
1533, 0.0
1534, 0.0
1535, 0.0
1536, 0.0
1537, 0.0
1538, 0.0
1539, 0.0
1540, 0.0
1541, 0.0
1542, 0.0
1543, 0.0
1544, 0.0
1545, 0.0
1546, 0.0
1547, 0.0
1548, 0.0
1549, 0.0
1550, 0.0
1551, 0.0
1552, 0.0
1553, 0.0
1554, 0.0
1555, 0.0
1556, 0.0
1557, 0.0
1558, 0.0
1559, 0.0
1560, 0.0
1561, 0.0
1562, 0.0
1563, 0.0
1564, 0.0
1565, 0.0
1566, 0.0
1567, 0.0
1568, 0.0
1569, 0.0
1570, 0.0
1571, 0.0
1572, 0.0
1573, 0.0
1574, 0.0
1575, 0.0
1576, 0.0
1577, 0.0
1578, 0.0
1579, 0.0
1580, 0.0
1581, 0.0
1582, 0.0
1583, 0.0
1584, 0.0
1585, 0.0
1586, 0.0
1587, 0.0
1588, 0.0
1589, 0.0
1590, 0.0
1591, 0.0
1592, 0.0
1593, 0.0
1594, 0.0
1595, 0.0
1596, 0.0
1597, 0.0
1598, 0.0
1599, 0.0
