30, 0.0
31, 0.0
32, 0.0
33, 0.0
34, 0.0
35, 0.0
36, 0.0
37, 0.0
38, 0.0
39, 0.0
40, 0.0
41, 0.0
42, 0.0
43, 0.0
44, 0.0
45, 0.0
46, 0.0
47, 0.0
48, 0.0
49, 0.0
50, 0.0
51, 0.0
52, 0.0
53, 0.0
54, 0.0
55, 0.0
56, 0.0
57, 0.0
58, 0.0
59, 0.0
60, 0.0
61, 0.0
62, 0.0
63, 0.0
64, 0.0
65, 0.0
66, 0.0
67, 0.0
68, 0.0
69, 0.0
70, 0.0
71, 0.0
72, 0.0
73, 0.0
74, 0.0
75, 0.0
76, 0.0
77, 0.0
78, 0.0
79, 0.0
80, 0.0
81, 0.0
82, 0.0
83, 0.0
84, 0.0
85, 0.0
86, 0.0
87, 0.0
88, 0.0
89, 0.0
90, 0.0
91, 0.0
92, 0.0
93, 0.0
94, 0.0
95, 0.0
96, 0.0
97, 0.0
98, 0.0
99, 0.0
100, 0.0
101, 0.0
102, 0.0
103, 0.0
104, 0.0
105, 0.0
106, 0.0
107, 0.0
108, 0.0
109, 0.0
110, 0.0
111, 0.0
112, 0.0
113, 0.0
114, 0.0
115, 0.0
116, 0.0
117, 0.0
118, 0.0
119, 0.0
120, 0.0
121, 0.0
122, 0.0
123, 0.0
124, 0.0
125, 0.0
126, 0.0
127, 0.0
128, 0.0
129, 0.0
130, 0.0
131, 0.0
132, 0.0
133, 0.0
134, 0.0
135.0, 6.485279055762832e-05
136.0, 1.0801892031705247e-05
137.0, 7.315173402086474e-05
138.0, 0.0003594885999281095
139.0, 0.0015570455148561477
140.0, 0.0036165540978746434
141.0, 0.009306407599060462
142.0, 0.013993914979025744
143.0, 0.014577888996282566
144.0, 0.010963300568361275
145.0, 0.007828589724599148
146.0, 0.00547876836325698
147.0, 0.004149135605155431
148.0, 0.004563696714950668
149.0, 0.005292864542509679
150.0, 0.005620239657437751
151.0, 0.005990113422925036
152.0, 0.006359186894127377
153.0, 0.005844193176596074
154.0, 0.005479809502975871
155.0, 0.004987020098308511
156.0, 0.004386931650327975
157.0, 0.004057044394615788
158.0, 0.0047178159802360505
159.0, 0.005586262875733583
160.0, 0.006708671701006682
161.0, 0.007648744924346248
162.0, 0.0068455416341737475
163.0, 0.005179416568872507
164.0, 0.0037358569306755116
165.0, 0.002483444349351638
166.0, 0.0009971183445034407
167.0, 0.0006974475635977313
168.0, 0.0004516931420409407
169.0, 0.00011874999124709168
170.0, 0.00021116307982395864
171.0, 0.0015060475110786596
172.0, 0.001931119582573053
173.0, 0.002653539004161317
174.0, 0.004108696876732346
175.0, 0.005572324665331609
176.0, 0.007641087897430355
177.0, 0.009398844186489863
178.0, 0.011321536691635142
179.0, 0.013813963522822803
180.0, 0.015980476407333844
181.0, 0.016810439186695465
182.0, 0.017732266998515413
183.0, 0.019573655092293005
184.0, 0.022277113913730565
185.0, 0.026502284918535655
186.0, 0.03275063245411351
187.0, 0.03895975861783467
188.0, 0.04403494334052303
189.0, 0.04971419753783134
190.0, 0.050358701639883846
191.0, 0.04797597299522488
192.0, 0.043169561244211854
193.0, 0.03495078919989601
194.0, 0.028278306269208936
195.0, 0.022796017522543083
196.0, 0.018159032415612533
197.0, 0.01449363426020244
198.0, 0.012628095722423247
199.0, 0.010676730221346239
200.0, 0.010388006283224747
201.0, 0.011986619541779233
202.0, 0.013842823918408112
203.0, 0.015921856996359302
204.0, 0.019216976258735054
205.0, 0.02373625563636065
206.0, 0.029213497678014632
207.0, 0.035697451288376536
208.0, 0.04315388151702246
209.0, 0.051302765013319276
210.0, 0.06018931022014712
211.0, 0.0697307066607293
212.0, 0.07917805865381383
213.0, 0.08572936642352952
214.0, 0.08604601637410093
215.0, 0.08037258151942259
216.0, 0.07164525372623129
217.0, 0.05965402380537557
218.0, 0.04790713834183796
219.0, 0.03748806546639943
220.0, 0.028571865329619604
221.0, 0.022544903076452738
222.0, 0.017682624723130497
223.0, 0.01425138476460847
224.0, 0.011896117908907343
225.0, 0.009575672872468972
226.0, 0.007825156933479634
227.0, 0.006061038809664172
228.0, 0.004675250685016043
229.0, 0.003816375356804058
230.0, 0.002811575009409235
231.0, 0.0023154451738956775
232.0, 0.0018191013205834437
233.0, 0.001336007921401191
234.0, 0.0010907086703067688
235.0, 0.0008102919748309503
236.0, 0.000518396491736237
237.0, 0.0001921191783633156
238.0, 8.433645552557122e-05
239.0, 0.0004222923419687243
240.0, 0.00011751286047257736
241.0, 0.00027943838345265967
242.0, 0.0004294399273885489
243.0, 0.0003313360373179757
244.0, 6.494371412129659e-05
245.0, 0.0005552736608618994
246.0, 0.0008904432662077532
247.0, 0.0004664137869624728
248.0, 0.00015856501450888004
249.0, 0.0004369372695355166
250.0, 0.0001247535771888485
251.0, 0.0005952808040268836
252.0, 0.0005293332931635159
253.0, 0.00031736195402195334
254.0, 0.000561341024593901
255.0, 0.001119410901050486
256.0, 0.0016374055461464752
257.0, 0.0018699036763356123
258.0, 0.0017669714058315639
259.0, 0.0021177508099957513
260.0, 0.002998215208658489
261.0, 0.004555839210187699
262.0, 0.006578435686597122
263.0, 0.0077741483687697845
264.0, 0.008867249801757196
265.0, 0.011306237551891377
266.0, 0.014107146764287473
267.0, 0.01609279964342096
268.0, 0.01968578195006496
269.0, 0.02339803803390585
270.0, 0.02612409475825553
271.0, 0.027960788653473005
272.0, 0.029226904580208584
273.0, 0.029120530208118174
274.0, 0.028422522679426472
275.0, 0.026818492721732406
276.0, 0.02503711899049079
277.0, 0.02411446492197488
278.0, 0.022962731544713698
279.0, 0.02293011073760032
280.0, 0.0233118320003063
281.0, 0.023609781774301928
282.0, 0.02418111833518914
283.0, 0.024785453323718107
284.0, 0.024975930246882695
285.0, 0.02316065866563656
286.0, 0.019231461794285542
287.0, 0.016713040634659445
288.0, 0.014251965930445316
289.0, 0.011993883675678645
290.0, 0.010511469023691789
291.0, 0.00981961234486692
292.0, 0.008396544208422533
293.0, 0.0068290645782387634
294.0, 0.005517578249856298
295.0, 0.004828149030132051
296.0, 0.004650552481646926
297.0, 0.004064035671276049
298.0, 0.0038174573123396396
299.0, 0.003184619848438135
300.0, 0.0024371393413637477
301.0, 0.0024080083780223644
302.0, 0.0025738358594924304
303.0, 0.002501428616518259
304.0, 0.002409946511094656
305.0, 0.002285181404192396
306.0, 0.0018830655992807636
307.0, 0.0017770425590363525
308.0, 0.0017279797203591208
309.0, 0.0015731358053834854
310.0, 0.0011516086270406817
311.0, 0.0006269331846601872
312.0, 0.0008074010198881387
313.0, 0.0006393763349281034
314.0, 0.00033515859623247746
315.0, 0.0003629103186832111
316.0, 0.0006679165600698097
317.0, 0.00037090706772962363
318.0, 0.0003187508699901551
319.0, 0.00014106832361286957
320.0, 0.0002008932676133544
321.0, 0.00033828761038467493
322.0, 0.00047732688988731794
323.0, 0.0001612619054339533
324.0, 0.0005129906245903841
325.0, 0.00044618233631990296
326.0, 7.281136098803928e-05
327.0, 0.0005167709953960941
328.0, 0.0004963200277447478
329.0, 0.00011116220460138143
330.0, 0.00016243634816313985
331.0, 7.679430065142271e-05
332.0, 0.0006245163928410072
333.0, 0.0007585871340926156
334.0, 0.0007253285583027864
335.0, 0.0008218032380077212
336.0, 0.0010137063966052758
337.0, 0.0012968709391404708
338.0, 0.001507512135799588
339.0, 0.0013704339438012259
340.0, 0.0011335196254861559
341.0, 0.0013913570347762842
342.0, 0.0014647242450082857
343.0, 0.001363307592814859
344.0, 0.0011962173288108417
345.0, 0.0010138382384049522
346.0, 0.0009104468383417943
347.0, 0.0012224290862023733
348.0, 0.0012323433248293074
349.0, 0.0013687602911578675
350.0, 0.001651021331714944
351.0, 0.0017163072416058736
352.0, 0.0018830895187382964
353.0, 0.0017765992546364849
354.0, 0.0021398906729612425
355.0, 0.0025425478061241306
356.0, 0.0023377000884521383
357.0, 0.002487039852059498
358.0, 0.002550256940016681
359.0, 0.002758418508092297
360.0, 0.0028368188765783213
361.0, 0.002674115935920051
362.0, 0.0031130227495589336
363.0, 0.003143923888865076
364.0, 0.0031463240121012087
365.0, 0.0030391268383657614
366.0, 0.0029204034788729996
367.0, 0.00325564993780122
368.0, 0.002667728299700785
369.0, 0.0024939301562689545
370.0, 0.002866697314243603
371.0, 0.0030715489362764083
372.0, 0.0025874937818312293
373.0, 0.0021668071170148164
374.0, 0.0022309572391728595
375.0, 0.0021908481014383894
376.0, 0.0018973307968226207
377.0, 0.0016875482379632648
378.0, 0.0014479487741873266
379.0, 0.001508910476035447
380.0, 0.001395990963329495
381.0, 0.0011927614874512086
382.0, 0.0012094346136518879
383.0, 0.0012371245496635614
384.0, 0.0009470994642890419
385.0, 0.0009847060883275021
386.0, 0.0008544160479046256
387.0, 0.0003826858524738028
388.0, 0.0005187272824836826
389.0, 0.00035849462301714953
390.0, 0.00029720513223248254
391.0, 0.0001884824971777807
392.0, 5.974773697222743e-05
393.0, 0.0003176344007609867
394.0, 0.00019110689865646873
395.0, 0.00015363235621073258
396.0, 0.00032655956677087007
397.0, 0.0004105133848167569
398.0, 9.348026247509874e-05
399.0, 2.9404016769020348e-05
400.0, 0.0005177606032564381
401.0, 0.00040115738808121183
402.0, 0.00013967283665888283
403.0, 0.00045252948311732096
404.0, 0.00041260605093982304
405.0, 0.00043416368998572003
406.0, 0.0002925658578115045
407.0, 0.00011534613427518623
408.0, 5.5057725708873574e-05
409.0, 4.2716839010862944e-05
410.0, 0.00047652534625725463
411.0, 0.0003563648298533751
412.0, 0.00015289053280488667
413.0, 0.00017468955884276878
414.0, 0.00013831382463174325
415.0, 0.0001116916126416724
416.0, 6.989344448890116e-05
417.0, 4.290220095010206e-05
418.0, 0.0002084676309684409
419.0, 0.0003179126894351452
420.0, 9.39546277438278e-05
421.0, 6.708691541249323e-05
422.0, 9.076011384032995e-05
423.0, 9.20569097408194e-05
424.0, 0.00017966126637014752
425.0, 0.00032971900325101027
426.0, 0.00017850925531064262
427.0, 2.0285510526226793e-05
428.0, 0.0002055167166714769
429.0, 0.0004493038724031321
430.0, 0.0003522890767052749
431.0, 0.000382692590063803
432.0, 0.00023929739867205066
433.0, 0.00048773863034483783
434.0, 0.0005459268149742374
435.0, 0.0002048601307286575
436.0, 0.0003242502843276986
437.0, 0.0006093501342857825
438.0, 0.0008574001729013528
439.0, 0.0008095541105980936
440.0, 0.0004539691648852581
441.0, 0.00011385302979388564
442.0, 0.00013574481429010852
443.0, 0.00012799875741848288
444.0, 6.17520589612322e-05
445.0, 6.281031147646747e-05
446.0, 5.4190862415466854e-05
447.0, 0.00047041325018537837
448.0, 0.0002199893449210489
449.0, 0.0003101412921265731
450.0, 0.0006558172275761908
451.0, 0.0007471456865095953
452.0, 0.00035024892473789346
453.0, 0.0004182635995278875
454.0, 0.0004294782830720723
455.0, 0.0002271838389843091
456.0, 0.00019222572658724132
457.0, 0.0004484476841236904
458.0, 0.000585496499935603
459.0, 0.0004917534624600862
460.0, 0.0006986852945145106
461.0, 0.0006984569300065163
462.0, 0.0006506615745906477
463.0, 0.0007695955553528549
464.0, 0.0005771834771627994
465.0, 0.0007602685315022484
466.0, 0.0009651248511499822
467.0, 0.000876311227152663
468.0, 0.0006785690606776534
469.0, 0.0006466717510469175
470.0, 0.0003684658468293241
471.0, 0.0007413447874185942
472.0, 0.0007536519150208422
473.0, 0.0005834321394390453
474.0, 0.0006452675128182735
475.0, 0.0006886497301248612
476.0, 0.00021794046705748515
477.0, 0.0005933597294853301
478.0, 0.0010048758081327438
479.0, 0.0009359369569234584
480.0, 0.0005267648578522923
481.0, 0.0002537570116765998
482.0, 0.0003463968215092722
483.0, 0.0006193982403829232
484.0, 0.0006015862755619858
485.0, 0.0003536225786543578
486.0, 0.0003001518119843806
487.0, 0.00048343699996363534
488.0, 0.00048645991804382267
489.0, 0.0003907784043063365
490.0, 0.0007343207506366014
491.0, 0.0011014904262985053
492.0, 0.0005532077555711315
493.0, 0.000526958290305992
494.0, 0.0005033834322556982
495.0, 0.000643479749826248
496.0, 0.00045897540429114015
497.0, 7.711385685090123e-05
498.0, 0.0003472443835043403
499.0, 0.0008446979963117169
500.0, 0.000985312198069897
501.0, 0.001054442676217137
502.0, 0.0011116207659603776
503.0, 0.0009866538898749317
504.0, 0.00048790799766669187
505.0, 8.063701163088623e-05
506.0, 0.000387228207484358
507.0, 0.0002468922247562458
508.0, 0.0001701470819328517
509.0, 0.0007393003185690818
510.0, 0.0005429443360123503
511.0, 5.638428742681288e-05
512.0, 0.0005245106194668481
513.0, 0.0006841171596975389
514.0, 0.0004285405938957499
515.0, 0.0003205830723681599
516.0, 0.00019887758753585978
517.0, 0.0001726502900986667
518.0, 0.0002964354215476944
519.0, 0.00040411485519606323
520.0, 0.00034496706823822736
521.0, 0.0007241197101029397
522.0, 0.0003809842716000277
523.0, 0.00031787321169117835
524.0, 0.0005710603018976792
525.0, 0.0004932544954173325
526.0, 0.00027479839131196843
527.0, 0.0003688835055062258
528.0, 0.0007249673139384288
529.0, 0.0003429492241925308
530.0, 0.00020765383126551107
531.0, 0.00030621411508956984
532.0, 0.00027183476541069347
533.0, 1.5356951918674257e-05
534.0, 5.212357090152607e-05
535.0, 0.0001941915406205068
536.0, 0.0004275143937050284
537.0, 0.0006161293926529031
538.0, 0.00046893705464021585
539.0, 0.0004329707061130319
540.0, 5.1266850439201246e-05
541.0, 3.853533685306292e-05
542.0, 0.0001753982181725483
543.0, 0.0002700421846698897
544.0, 0.000379754850252366
545.0, 0.00040552292069098033
546.0, 0.00018888060264718044
547.0, 0.0005822148269493627
548.0, 0.00020940195381133366
549.0, 0.0002551318758767093
550.0, 0.0003988226087853386
551.0, 0.00010436011171975089
552.0, 0.0001734998988786177
553.0, 0.00026120863883931687
554.0, 0.0008571074791924462
555.0, 0.0009744065644516662
556.0, 0.0008437651344218667
557.0, 0.0006388841542062206
558.0, 0.00030682856290663795
559.0, 0.00021295635520483805
560.0, 0.00039809223592059194
561.0, 0.00042587633443022147
562.0, 0.00021101188311139634
563.0, 2.5494741372334373e-05
564.0, 2.189217889786388e-05
565.0, 0.00013593385569595428
566.0, 0.0002213054672892543
567.0, 0.00018692258574991963
568.0, 7.610937723142328e-05
569.0, 8.25627449147024e-06
570.0, 9.646281119355861e-05
571.0, 0.0003098621026572995
572.0, 0.0003081087347324045
573.0, 0.00026264140636524943
574.0, 0.00027581312625709297
575.0, 0.0004445697938802159
576.0, 0.0005765024564746268
577.0, 0.0003146431528578003
578.0, 0.0003973380315903021
579.0, 0.0003733364622702191
580.0, 0.000531661585864919
581.0, 0.0006020798641063428
582.0, 0.0002747213951175498
583.0, 5.928338143689303e-05
584.0, 0.0003449244389846852
585.0, 0.0009748870013722503
586.0, 0.0008106991804588921
587.0, 0.0004640957015022924
588.0, 0.00024256968335171721
589.0, 0.00010365631119793237
590.0, 0.0006219580150647162
591.0, 0.0006941716819027063
592.0, 0.0005261988480762141
593.0, 0.00031369568832305313
594.0, 0.00021408144143760034
595.0, 0.0003461996155347137
596.0, 0.0006933977842617802
597.0, 0.00038492203452452923
598.0, 0.0003558383980440612
599.0, 0.0004028803102649258
600.0, 0.00041275754461033294
601.0, 0.00048149177090385655
602.0, 0.0005825262130246797
603.0, 0.0003642028757092399
604.0, 0.0002651379725064266
605.0, 0.000295552510125953
606.0, 0.000257397853425376
607.0, 0.0004996384557919016
608.0, 0.0008739175732409617
609.0, 0.0006281438936125536
610.0, 5.582442269416622e-05
611.0, 0.00015557878993683049
612.0, 0.0005382876651941133
613.0, 0.0005407234542915706
614.0, 0.00035210396907199896
615.0, 0.0001841749415107118
616.0, 6.758144928993578e-05
617.0, 0.0006239275209037394
618.0, 0.000668482936319173
619.0, 0.000339010329452612
620.0, 0.00024799518457515744
621.0, 0.0004558842622993797
622.0, 0.0007150802087649703
623.0, 0.0008944592403890387
624.0, 0.0006201271357876374
625.0, 0.0006642160757390327
626.0, 0.0005066536340485996
627.0, 0.0001791776231965687
628.0, 0.00024868751475807773
629.0, 0.0007063196988070703
630.0, 0.00013571409018188255
631.0, 7.615912285504841e-05
632.0, 0.00015509112909779509
633.0, 0.0002126830077461467
634.0, 5.3154606735182915e-05
635.0, 3.6778321754093684e-05
636.0, 8.190913224325643e-06
637.0, 0.0004956956887573268
638.0, 9.826626977458877e-05
639.0, 0.00012016889631491894
640.0, 0.00016728539491651007
641.0, 0.0001791775161526305
642.0, 0.0005302717477663894
643.0, 0.0002843514774329467
644.0, 0.00023599804627062035
645.0, 0.0003217637820422743
646.0, 0.00022499973297023565
647.0, 0.00026268542717106997
648.0, 0.0003410960254489786
649.0, 5.571047846921852e-05
650.0, 2.572212016329757e-05
651.0, 0.0002500972886454989
652.0, 0.0004609093852236191
653.0, 0.0003918182209457879
654.0, 0.00019875084190728188
655.0, 0.00021523019973788347
656.0, 0.00041609653559835123
657.0, 0.00029846533975102135
658.0, 0.00016254158406840748
659.0, 0.0003912801755441424
660.0, 0.00023758343832636916
661.0, 0.000250074459487237
662.0, 0.00048572296126507753
663.0, 0.00031790762866888554
664.0, 0.0006127355033762946
665.0, 0.0005677171486827529
666.0, 0.0007162403213684778
667.0, 0.0006952808802088057
668.0, 0.00039698121482106293
669.0, 0.00022330928097757287
670.0, 0.0004127005300428459
671.0, 0.0003322805236752763
672.0, 0.0001238012271158019
673.0, 0.0001958703997827862
674.0, 0.00027171465599825235
675.0, 0.0003743764590647356
676.0, 0.0005292068118294164
677.0, 0.000577678907025039
678.0, 0.0006906282846025366
679.0, 0.0009177552963900486
680.0, 0.0005441621849581837
681.0, 0.0005660567085680592
682.0, 0.00107767967233871
683.0, 0.0014838347710870016
684.0, 0.0015831666231956064
685.0, 0.001683940283392773
686.0, 0.0020996747041744507
687.0, 0.0021111939922723844
688.0, 0.0024852630523695494
689.0, 0.0027893392110659816
690.0, 0.003599325701253577
691.0, 0.0053576994369516065
692.0, 0.006830396120252956
693.0, 0.009812359911381557
694.0, 0.013176743774207939
695.0, 0.017895688838266276
696.0, 0.02501511556821799
697.0, 0.03405926314483427
698.0, 0.04605866449053331
699.0, 0.06609296530732438
700.0, 0.09752931004362497
701.0, 0.12836660729613414
702.0, 0.1267967184068651
703.0, 0.10611798580844918
704.0, 0.10311648015559666
705.0, 0.11753167205963604
706.0, 0.11332296142421645
707.0, 0.0725377274517287
708.0, 0.046836783689882255
709.0, 0.0236004068800539
710.0, 0.011787312749063732
711.0, 0.008339925536176993
712.0, 0.006202925677575723
713.0, 0.004975004335224223
714.0, 0.003728274082214137
715.0, 0.0038452956815673888
716.0, 0.00336732911345157
717.0, 0.0023073885030848013
718.0, 0.0016717567204627816
719.0, 0.0016474603015110497
720.0, 0.0017168475907770582
721.0, 0.0015402604115903574
722.0, 0.0013161093548473694
723.0, 0.0014044271515173676
724.0, 0.0013737975434991217
725.0, 0.0014105251940479272
726.0, 0.0011411364553265367
727.0, 0.000841432900845584
728.0, 0.000891747128088907
729.0, 0.0007978717852932817
730.0, 0.0007423036276231164
731.0, 0.000336544478761067
732.0, 0.0005490762410982645
733.0, 0.000815768293435342
734.0, 0.0007993750867443528
735.0, 0.0006666907350926992
736.0, 0.0005658621630665764
737.0, 0.00021611354169032013
738.0, 0.00021542615263797887
739.0, 0.0004922481225266423
740.0, 0.0007346420180676164
741.0, 0.0007027182522020368
742.0, 0.000666297734111142
743.0, 0.0004481670200435279
744.0, 0.00021012545232205074
745.0, 0.0002443003631276963
746.0, 0.0003048971440947246
747.0, 0.0006967024143940874
748.0, 0.0008137512100180532
749.0, 0.00085074232238771
750.0, 0.0007440758240183722
751.0, 0.0006079062965930219
752.0, 0.0008280877570303938
753.0, 0.0005984839154528211
754.0, 0.0004361073467752465
755.0, 0.0004570018232936753
756.0, 0.0002852396836009217
757.0, 0.0002614264730352186
758.0, 0.00018176332178070103
759.0, 3.084857645145546e-05
760.0, 0.0006261422282777897
761.0, 0.0004885442372490536
762.0, 0.00031485122581089803
763.0, 0.0007359999249204015
764.0, 0.0005345053396600028
765.0, 0.00010529788953322223
766.0, 3.297375966171801e-05
767.0, 9.520647029164122e-05
768.0, 7.887604457964902e-05
769.0, 6.874849957399379e-05
770.0, 0.00022835612547952584
771.0, 0.0007123877609072145
772.0, 0.0006651529092615382
773.0, 0.000474414474044736
774.0, 0.0004560046319333153
775.0, 0.0003989526478658996
776.0, 0.000522401122426802
777.0, 9.015581872679557e-05
778.0, 0.0002997433343606157
779.0, 0.00038829524862949577
780.0, 0.0003616867425341547
781.0, 0.0001201609528609254
782.0, 4.9090038867623325e-05
783.0, 0.00025979147709072293
784.0, 0.00039528907894028655
785.0, 0.0006592862559073289
786.0, 0.0008135444461115504
787.0, 0.00010567984106007777
788.0, 0.00040319574526829734
789.0, 0.0007072800131108884
790.0, 0.00027119680886900056
791.0, 0.00011699531350777604
792.0, 2.5322175475950715e-06
793.0, 4.2497352939078547e-05
794.0, 0.0003774642371002223
795.0, 0.0007837248763843164
796.0, 0.000324015569570514
797.0, 0.00036294483683813684
798.0, 0.00041271968949202774
799.0, 6.437393710250752e-05
800.0, 7.523845752203998e-05
801.0, 0.00017634241528770227
802.0, 0.000490470556142876
803.0, 0.0004915447684993323
804.0, 0.00013068542699147488
805.0, 6.058944193511515e-05
806.0, 0.0002928513854436422
807.0, 0.00029289660103102677
808.0, 0.00011146421272961967
809.0, 0.00014148284152327152
810.0, 0.00024281639010423052
811.0, 0.0003508889526971918
812.0, 0.00016839725136239285
813.0, 0.0004129272169483833
814.0, 0.0005343105287474454
815.0, 0.00040141846581890993
816.0, 0.00032343741157486337
817.0, 0.0003164768040907699
818.0, 0.00012115598842118667
819.0, 0.0001122437855504675
820.0, 0.0006694494080609559
821.0, 0.00045843418934592514
822.0, 0.00022015458527961914
823.0, 0.0003878644759517347
824.0, 0.0006437313352316806
825.0, 0.0004930880677096412
826.0, 1.3964913849911925e-05
827.0, 8.886041923963422e-06
828.0, 0.00024534699028804446
829.0, 0.00039125600397902917
830.0, 0.0005992468712023323
831.0, 0.00034969337433046624
832.0, 7.649104894351241e-05
833.0, 0.00022070483183148947
834.0, 0.0003768138665263746
835.0, 0.00015677524661066307
836.0, 6.975994679237271e-05
837.0, 0.00027355314145794096
838.0, 0.00010990570468166413
839.0, 0.0007175066594511881
840.0, 0.0006931368081540404
841.0, 0.0005984908662816067
842.0, 0.0007842991962763089
843.0, 0.0008880615299293788
844.0, 0.00094900325964084
845.0, 0.0009354941797732082
846.0, 0.0004160677087115629
847.0, 0.0004855100140128375
848.0, 0.0003334510683320608
849.0, 0.00036744801734398533
850.0, 0.000770908435654676
851.0, 0.0013778802739893672
852.0, 0.0016033367547437867
853.0, 0.0012289115209587192
854.0, 0.000879345716752617
855.0, 0.0007583002366395913
856.0, 0.00044832255008651667
857.0, 0.0006156885048806115
858.0, 0.000449427745568276
859.0, 0.00010237930552561446
860.0, 0.00012683447378801385
861.0, 0.0005679220141227938
862.0, 0.0005733221880197629
863.0, 0.00012155610490022352
864.0, 0.0004157348381011498
865.0, 0.00040472762162043857
866.0, 0.0005216352308047368
867.0, 9.008103100085335e-05
868.0, 0.00011838578747498646
869.0, 0.0004919724757238299
870.0, 0.00037490325020551565
871.0, 0.0001361824483514746
872.0, 0.00030861657672961627
873.0, 0.0002728127839772068
874.0, 0.0004202943171227364
875.0, 0.000543551568467207
876.0, 0.001044313091776675
877.0, 0.0012116026749037752
878.0, 0.0007826394115733804
879.0, 0.00023360541065806084
880.0, 0.0002783508890167503
881.0, 0.000628299509114361
882.0, 0.0004861367284625724
883.0, 0.0006375262090370168
884.0, 0.000892375943897161
885.0, 0.0005637473818463259
886.0, 0.0003812372908461312
887.0, 0.0005351527316227791
888.0, 0.00048561283474234833
889.0, 0.0008389004468212244
890.0, 0.001214283582987287
891.0, 0.0009378511311697266
892.0, 0.0006759145922529564
893.0, 0.0006884555871027013
894.0, 0.0005761984882071306
895.0, 0.0005555383003452233
896.0, 0.0007297697699544406
897.0, 0.0009067982919649425
898.0, 0.0008975302965851883
899.0, 0.0007407599739388406
900.0, 0.0007899909475184233
901.0, 0.00085193709802188
902.0, 0.00046651938372250097
903.0, 3.285556663493073e-05
904.0, 0.00010306795412918096
905.0, 0.0002307583593175533
906.0, 0.000384786715621147
907.0, 0.0003317855742138286
908.0, 0.0002913605879953633
909.0, 0.00037824087838816316
910.0, 0.0005509724410374137
911.0, 0.0003673295500632741
912.0, 0.00019171773949735438
913.0, 0.0006317077732233395
914.0, 0.0003711133730652928
915.0, 0.0004063460293300682
916.0, 0.0001228159797795331
917.0, 0.00031568824642156935
918.0, 0.00019497561858577072
919.0, 0.00012284106593879219
920.0, 0.0001310367050338476
921.0, 0.0001359501303634945
922.0, 0.00028485498585335123
923.0, 0.00037948772715927964
924.0, 0.00037994089856875456
925.0, 0.00023499906833578913
926.0, 0.0003597867129518864
927.0, 9.533971926521982e-05
928.0, 0.0002531202211094792
929.0, 0.0005279580948814421
930.0, 0.00038836188781034715
931.0, 0.00013264188568514495
932.0, 0.00018811539860723686
933.0, 0.00055249765217162
934.0, 0.00039215471909867235
935.0, 0.00010049423338289705
936.0, 2.1759469640341786e-05
937.0, 0.00018651798115028228
938.0, 0.00010496985125032509
939.0, 0.00033228629975608394
940.0, 0.0001980771760870921
941.0, 0.00022147158042983703
942.0, 0.0004587342931755758
943.0, 0.00029640824410331136
944.0, 0.0002597149312655526
945.0, 0.0005419746562735488
946.0, 3.762087197358979e-05
947.0, 8.664180387070724e-05
948.0, 2.3641140679729858e-05
949.0, 2.0214252571370648e-05
950.0, 0.0001797049803242276
951.0, 0.0002114971164763378
952.0, 0.0002850362126465228
953.0, 0.0003419860712748082
954.0, 0.0001827174352974652
955.0, 0.00028093090462990217
956.0, 0.0005869143568613772
957.0, 9.74637746509744e-05
958.0, 7.18780942289555e-05
959.0, 0.00024366467625164167
960.0, 0.00017041764632148956
961.0, 9.100958163947818e-05
962.0, 0.0004325840932609186
963.0, 0.0004901223829238335
964.0, 0.00046294555499171245
965.0, 0.0006424364818676043
966.0, 0.0006138721340657845
967.0, 0.0005757078860272131
968.0, 0.0007557662391620417
969.0, 0.0004792900414913173
970.0, 8.747474240443408e-05
971.0, 0.00022543551165060628
972.0, 0.0008796451764192063
973.0, 0.0007169893689522971
974.0, 0.0006275060139166076
975.0, 0.0006847743135218396
976.0, 0.0005454086011171357
977.0, 0.0005746423928315782
978.0, 0.0006939880547278703
979.0, 0.0005538837714437621
980.0, 0.0009780952292676118
981.0, 0.0014976284474677122
982.0, 0.0008676521135843723
983.0, 0.0009786898800803782
984.0, 0.00106746178933966
985.0, 0.0014680456359247474
986.0, 0.0011497268217294525
987.0, 0.0009438163924407358
988.0, 0.0008191785684051372
989.0, 0.000479701074253478
990.0, 0.00044754707577118757
991.0, 0.0004540968243911548
992.0, 0.00012329619269920165
993.0, 0.00013456174815299005
994.0, 0.00032464620090007825
995.0, 0.0005861062191213174
996.0, 0.0008041763141461333
997.0, 0.0006294782284415478
998.0, 0.0006095788631847341
999.0, 0.0009737649697728582
1000.0, 0.0009290761807473148
1001.0, 0.0008129044871832045
1002.0, 0.0006816132707283272
1003.0, 5.613333101936567e-05
1004.0, 0.00020475555251855666
1005.0, 0.0009464863671717315
1006.0, 0.0005837945422694445
1007.0, 0.0007587957751129353
1008.0, 0.0005909888312948654
1009.0, 0.0005576621217415205
1010.0, 0.00040334052700065446
1011.0, 0.0005963172724203121
1012.0, 0.000566481493468923
1013.0, 0.00014120233112375702
1014.0, 0.00036265305703462144
1015.0, 0.0009713337778153742
1016.0, 0.0007190702214414308
1017.0, 0.00032144162505306074
1018.0, 0.0006613378520848765
1019.0, 0.0003308107892909349
1020.0, 0.00016653657389947762
1021.0, 0.000532592649410249
1022.0, 0.0001762162666466563
1023.0, 0.00014062709896429487
1024.0, 0.0002536572633443712
1025.0, 0.0002490925957271855
1026.0, 0.00018664794540331522
1027.0, 0.0004730284705482483
1028.0, 0.0003282994417470985
1029.0, 0.00010807559648060486
1030.0, 0.0004146591030291234
1031.0, 0.0003727849453130627
1032.0, 0.00042748504938177966
1033.0, 0.00010084156760547338
1034.0, 0.0004075759684507401
1035.0, 0.00015479294217733979
1036.0, 2.1723220136395886e-05
1037.0, 0.000367850826206823
1038.0, 0.000591585121493549
1039.0, 0.0005628068833153278
1040.0, 0.00019252101715208316
1041.0, 0.00025194659509535235
1042.0, 0.0006880272401319781
1043.0, 0.0005178078587125161
1044.0, 0.0008355068769542298
1045.0, 0.0010038848329981763
1046.0, 0.0009326925623369555
1047.0, 0.0005301847253859792
1048.0, 0.0006059411604469578
1049.0, 0.0014934566899053334
1050.0, 0.0005324494687058102
1051.0, 0.0006487221908410307
1052.0, 0.0009759084431237744
1053.0, 0.0011394241686512865
1054.0, 0.0018580981487666113
1055.0, 0.0022988458556774997
1056.0, 0.002408683603294347
1057.0, 0.003052044023861428
1058.0, 0.0036616783278853827
1059.0, 0.004595389988376734
1060.0, 0.0045973986488077314
1061.0, 0.0038751158303005602
1062.0, 0.003308624712294086
1063.0, 0.002951377421896679
1064.0, 0.0034878074052026734
1065.0, 0.003295765440437598
1066.0, 0.0032862225029168307
1067.0, 0.0034289427106012653
1068.0, 0.004318441443475648
1069.0, 0.004802384544945078
1070.0, 0.004993182012281521
1071.0, 0.006296070101109374
1072.0, 0.007782629867370644
1073.0, 0.009077896788341576
1074.0, 0.01083058642501947
1075.0, 0.013554808603890646
1076.0, 0.018435815960637054
1077.0, 0.02744189639670016
1078.0, 0.04573815524139012
1079.0, 0.07620262691649764
1080.0, 0.12601971815489735
1081.0, 0.19909034676275472
1082.0, 0.29599535047097153
1083.0, 0.4405946324234885
1084.0, 0.7598491491373035
1085.0, 0.9988524705895565
1086.0, 0.790796462995855
1087.0, 0.33426208432487764
1088.0, 0.11357253679082041
1089.0, 0.0475092180183421
1090.0, 0.02737154851402213
1091.0, 0.01964509386469419
1092.0, 0.01676367802453437
1093.0, 0.014739094483804586
1094.0, 0.013346681125437906
1095.0, 0.013828087518831793
1096.0, 0.013862472363369542
1097.0, 0.01379164534211775
1098.0, 0.014769877098447366
1099.0, 0.015016840280419321
1100.0, 0.015309128109950127
1101.0, 0.016989797620332835
1102.0, 0.018099953938537475
1103.0, 0.019102202906278898
1104.0, 0.02073898454407563
1105.0, 0.021516677144412702
1106.0, 0.02272163635561845
1107.0, 0.023215530672361703
1108.0, 0.023143468583879095
1109.0, 0.024622043861295316
1110.0, 0.023661321686512044
1111.0, 0.023214689614945435
1112.0, 0.02317432338727089
1113.0, 0.023019723068109902
1114.0, 0.021551580621527
1115.0, 0.019787427228608864
1116.0, 0.0181669021914225
1117.0, 0.017452891916755968
1118.0, 0.01668935765085116
1119.0, 0.015774053376617417
1120.0, 0.01419732124345015
1121.0, 0.012302946451148293
1122.0, 0.011946879276985256
1123.0, 0.011418437389132171
1124.0, 0.009605728864402275
1125.0, 0.00868779892104348
1126.0, 0.008507823784916576
1127.0, 0.008349518075383588
1128.0, 0.006788674888304803
1129.0, 0.006314889166458956
1130.0, 0.005961302636201796
1131.0, 0.0054357831847237975
1132.0, 0.0039741554523916355
1133.0, 0.004425429044942877
1134.0, 0.004106945744823133
1135.0, 0.0036613663219236927
1136.0, 0.003448040208295424
1137.0, 0.00335098743718033
1138.0, 0.002819494858644126
1139.0, 0.002207248357797924
1140.0, 0.0021917789418694597
1141.0, 0.0018848061302278373
1142.0, 0.001532529123877191
1143.0, 0.0015946742518362761
1144.0, 0.001631264355108249
1145.0, 0.0008370817888412875
1146.0, 0.0007579296944528478
1147.0, 0.0012246081226403365
1148.0, 0.0010737984823667856
1149.0, 0.0005299749629192008
1150.0, 0.0007481720888001985
1151.0, 0.0004830306515315369
1152.0, 9.318289747102527e-05
1153.0, 0.0003581570574083407
1154.0, 0.0003116531608800252
1155.0, 0.0001364848669438746
1156.0, 0.0003104366589501417
1157.0, 0.0003002693461092222
1158.0, 0.0003863364392532729
1159.0, 0.0004000531204286817
1160.0, 0.00027509263789489
1161.0, 0.0005186997425929519
1162.0, 0.00048643382651720725
1163.0, 0.000556834838866867
1164.0, 0.0005225621426052354
1165.0, 4.1700325189750186e-05
1166.0, 0.0002481655597372958
1167.0, 0.0004416722304456006
1168.0, 7.905337151484182e-05
1169.0, 0.0004460993488733253
1170.0, 0.0005303022575750005
1171.0, 0.00016285532458857965
1172.0, 0.00017233612082283013
1173.0, 0.00010020467812225841
1174.0, 0.00019672552494997745
1175.0, 0.0003636017769134136
1176.0, 9.087025778411083e-05
1177.0, 3.161762186459085e-05
1178.0, 0.000589953136898171
1179.0, 0.000701507969192621
1180.0, 0.0009929781375562466
1181.0, 0.0014386720388680615
1182.0, 0.001867776221323354
1183.0, 0.002596391593117915
1184.0, 0.0025206974162208925
1185.0, 0.0029488114628140757
1186.0, 0.004182980795634235
1187.0, 0.004492427665326336
1188.0, 0.0043166550436366455
1189.0, 0.0071325170946635015
1190.0, 0.007780997177114253
1191.0, 0.009257546829932205
1192.0, 0.012079188461404497
1193.0, 0.01361055313611991
1194.0, 0.014984073550652259
1195.0, 0.017498436743772893
1196.0, 0.020656360407653604
1197.0, 0.02383978044307335
1198.0, 0.02672140807803972
1199.0, 0.030036622242925297
1200.0, 0.0349234964921323
1201.0, 0.03839919854915518
1202.0, 0.04181050006976575
1203.0, 0.04428250039177388
1204.0, 0.047507548063895504
1205.0, 0.048570149467766915
1206.0, 0.04744514149417444
1207.0, 0.047155708573061866
1208.0, 0.046893828697434504
1209.0, 0.04525999704361974
1210.0, 0.04241234929268467
1211.0, 0.04038347536101764
1212.0, 0.037956487280606445
1213.0, 0.036008312247652816
1214.0, 0.03350992486241798
1215.0, 0.03220491014889423
1216.0, 0.029660284954841513
1217.0, 0.02860053487447898
1218.0, 0.028531978940326833
1219.0, 0.028899460465139193
1220.0, 0.02926657359336924
1221.0, 0.02843210650422364
1222.0, 0.028997397165476606
1223.0, 0.031078460475795624
1224.0, 0.03206138785930295
1225.0, 0.03490769668441651
1226.0, 0.036376019849268304
1227.0, 0.038816697026695816
1228.0, 0.0422210339191875
1229.0, 0.04466230320207416
1230.0, 0.047169574982800756
1231.0, 0.050211101147327845
1232.0, 0.05335423927805771
1233.0, 0.05668546079803024
1234.0, 0.05937339547014796
1235.0, 0.06133265745720875
1236.0, 0.06201479896523971
1237.0, 0.06239190914086305
1238.0, 0.06338835916007525
1239.0, 0.06404972357256321
1240.0, 0.06443512186940076
1241.0, 0.06261923709631975
1242.0, 0.05978180341185534
1243.0, 0.05832520757076643
1244.0, 0.056258913216158016
1245.0, 0.05158495907830012
1246.0, 0.04770238249739572
1247.0, 0.044316175867702076
1248.0, 0.04257933005776804
1249.0, 0.0376412725515688
1250.0, 0.032359857619333715
1251.0, 0.028472921875111232
1252.0, 0.027616775886394808
1253.0, 0.02447785526917316
1254.0, 0.020855476590573775
1255.0, 0.017355368576128932
1256.0, 0.014819647203130792
1257.0, 0.013846860357721619
1258.0, 0.010440561595410545
1259.0, 0.009569213281956956
1260.0, 0.007609544549220184
1261.0, 0.005109115095975501
1262.0, 0.004086114287906647
1263.0, 0.0033789312387033452
1264.0, 0.001376429916475679
1265.0, 0.0008914753064817734
1266.0, 0.0008394944449455703
1267.0, 0.0002686822672930589
1268.0, 0.0002374578779781755
1269.0, 0.0002970696059427176
1270.0, 2.1836554962858185e-05
1271.0, 0.0001347997906122945
1272, 0.0
1273, 0.0
1274, 0.0
1275, 0.0
1276, 0.0
1277, 0.0
1278, 0.0
1279, 0.0
1280, 0.0
1281, 0.0
1282, 0.0
1283, 0.0
1284, 0.0
1285, 0.0
1286, 0.0
1287, 0.0
1288, 0.0
1289, 0.0
1290, 0.0
1291, 0.0
1292, 0.0
1293, 0.0
1294, 0.0
1295, 0.0
1296, 0.0
1297, 0.0
1298, 0.0
1299, 0.0
1300, 0.0
1301, 0.0
1302, 0.0
1303, 0.0
1304, 0.0
1305, 0.0
1306, 0.0
1307, 0.0
1308, 0.0
1309, 0.0
1310, 0.0
1311, 0.0
1312, 0.0
1313, 0.0
1314, 0.0
1315, 0.0
1316, 0.0
1317, 0.0
1318, 0.0
1319, 0.0
1320, 0.0
1321, 0.0
1322, 0.0
1323, 0.0
1324, 0.0
1325, 0.0
1326, 0.0
1327, 0.0
1328, 0.0
1329, 0.0
1330, 0.0
1331, 0.0
1332, 0.0
1333, 0.0
1334, 0.0
1335, 0.0
1336, 0.0
1337, 0.0
1338, 0.0
1339, 0.0
1340, 0.0
1341, 0.0
1342, 0.0
1343, 0.0
1344, 0.0
1345, 0.0
1346, 0.0
1347, 0.0
1348, 0.0
1349, 0.0
1350, 0.0
1351, 0.0
1352, 0.0
1353, 0.0
1354, 0.0
1355, 0.0
1356, 0.0
1357, 0.0
1358, 0.0
1359, 0.0
1360, 0.0
1361, 0.0
1362, 0.0
1363, 0.0
1364, 0.0
1365, 0.0
1366, 0.0
1367, 0.0
1368, 0.0
1369, 0.0
1370, 0.0
1371, 0.0
1372, 0.0
1373, 0.0
1374, 0.0
1375, 0.0
1376, 0.0
1377, 0.0
1378, 0.0
1379, 0.0
1380, 0.0
1381, 0.0
1382, 0.0
1383, 0.0
1384, 0.0
1385, 0.0
1386, 0.0
1387, 0.0
1388, 0.0
1389, 0.0
1390, 0.0
1391, 0.0
1392, 0.0
1393, 0.0
1394, 0.0
1395, 0.0
1396, 0.0
1397, 0.0
1398, 0.0
1399, 0.0
1400, 0.0
1401, 0.0
1402, 0.0
1403, 0.0
1404, 0.0
1405, 0.0
1406, 0.0
1407, 0.0
1408, 0.0
1409, 0.0
1410, 0.0
1411, 0.0
1412, 0.0
1413, 0.0
1414, 0.0
1415, 0.0
1416, 0.0
1417, 0.0
1418, 0.0
1419, 0.0
1420, 0.0
1421, 0.0
1422, 0.0
1423, 0.0
1424, 0.0
1425, 0.0
1426, 0.0
1427, 0.0
1428, 0.0
1429, 0.0
1430, 0.0
1431, 0.0
1432, 0.0
1433, 0.0
1434, 0.0
1435, 0.0
1436, 0.0
1437, 0.0
1438, 0.0
1439, 0.0
1440, 0.0
1441, 0.0
1442, 0.0
1443, 0.0
1444, 0.0
1445, 0.0
1446, 0.0
1447, 0.0
1448, 0.0
1449, 0.0
1450, 0.0
1451, 0.0
1452, 0.0
1453, 0.0
1454, 0.0
1455, 0.0
1456, 0.0
1457, 0.0
1458, 0.0
1459, 0.0
1460, 0.0
1461, 0.0
1462, 0.0
1463, 0.0
1464, 0.0
1465, 0.0
1466, 0.0
1467, 0.0
1468, 0.0
1469, 0.0
1470, 0.0
1471, 0.0
1472, 0.0
1473, 0.0
1474, 0.0
1475, 0.0
1476, 0.0
1477, 0.0
1478, 0.0
1479, 0.0
1480, 0.0
1481, 0.0
1482, 0.0
1483, 0.0
1484, 0.0
1485, 0.0
1486, 0.0
1487, 0.0
1488, 0.0
1489, 0.0
1490, 0.0
1491, 0.0
1492, 0.0
1493, 0.0
1494, 0.0
1495, 0.0
1496, 0.0
1497, 0.0
1498, 0.0
1499, 0.0
1500, 0.0
1501, 0.0
1502, 0.0
1503, 0.0
1504, 0.0
1505, 0.0
1506, 0.0
1507, 0.0
1508, 0.0
1509, 0.0
1510, 0.0
1511, 0.0
1512, 0.0
1513, 0.0
1514, 0.0
1515, 0.0
1516, 0.0
1517, 0.0
1518, 0.0
1519, 0.0
1520, 0.0
1521, 0.0
1522, 0.0
1523, 0.0
1524, 0.0
1525, 0.0
1526, 0.0
1527, 0.0
1528, 0.0
1529, 0.0
1530, 0.0
1531, 0.0
1532, 0.0
1533, 0.0
1534, 0.0
1535, 0.0
1536, 0.0
1537, 0.0
1538, 0.0
1539, 0.0
1540, 0.0
1541, 0.0
1542, 0.0
1543, 0.0
1544, 0.0
1545, 0.0
1546, 0.0
1547, 0.0
1548, 0.0
1549, 0.0
1550, 0.0
1551, 0.0
1552, 0.0
1553, 0.0
1554, 0.0
1555, 0.0
1556, 0.0
1557, 0.0
1558, 0.0
1559, 0.0
1560, 0.0
1561, 0.0
1562, 0.0
1563, 0.0
1564, 0.0
1565, 0.0
1566, 0.0
1567, 0.0
1568, 0.0
1569, 0.0
1570, 0.0
1571, 0.0
1572, 0.0
1573, 0.0
1574, 0.0
1575, 0.0
1576, 0.0
1577, 0.0
1578, 0.0
1579, 0.0
1580, 0.0
1581, 0.0
1582, 0.0
1583, 0.0
1584, 0.0
1585, 0.0
1586, 0.0
1587, 0.0
1588, 0.0
1589, 0.0
1590, 0.0
1591, 0.0
1592, 0.0
1593, 0.0
1594, 0.0
1595, 0.0
1596, 0.0
1597, 0.0
1598, 0.0
1599, 0.0
