30, 0.0
31, 0.0
32, 0.0
33, 0.0
34, 0.0
35, 0.0
36, 0.0
37, 0.0
38, 0.0
39, 0.0
40, 0.0
41, 0.0
42, 0.0
43, 0.0
44, 0.0
45, 0.0
46, 0.0
47, 0.0
48, 0.0
49, 0.0
50, 0.0
51, 0.0
52, 0.0
53, 0.0
54, 0.0
55, 0.0
56, 0.0
57, 0.0
58, 0.0
59, 0.0
60, 0.0
61, 0.0
62, 0.0
63, 0.0
64, 0.0
65, 0.0
66, 0.0
67, 0.0
68, 0.0
69, 0.0
70, 0.0
71, 0.0
72, 0.0
73, 0.0
74, 0.0
75, 0.0
76, 0.0
77, 0.0
78, 0.0
79, 0.0
80, 0.0
81, 0.0
82, 0.0
83, 0.0
84, 0.0
85, 0.0
86, 0.0
87, 0.0
88, 0.0
89, 0.0
90, 0.0
91, 0.0
92, 0.0
93, 0.0
94, 0.0
95, 0.0
96, 0.0
97, 0.0
98, 0.0
99, 0.0
100, 0.0
101, 0.0
102, 0.0
103, 0.0
104, 0.0
105, 0.0
106, 0.0
107, 0.0
108, 0.0
109, 0.0
110, 0.0
111, 0.0
112, 0.0
113, 0.0
114, 0.0
115, 0.0
116, 0.0
117, 0.0
118, 0.0
119, 0.0
120, 0.0
121, 0.0
122, 0.0
123, 0.0
124, 0.0
125, 0.0
126, 0.0
127, 0.0
128, 0.0
129, 0.0
130, 0.0
131, 0.0
132, 0.0
133, 0.0
134, 0.0
135, 0.0
136, 0.0
137, 0.0
138, 0.0
139, 0.0
140, 0.0
141, 0.0
142, 0.0
143, 0.0
144, 0.0
145, 0.0
146, 0.0
147, 0.0
148, 0.0
149, 0.0
150, 0.0
151, 0.0
152, 0.0
153, 0.0
154, 0.0
155, 0.0
156, 0.0
157, 0.0
158, 0.0
159, 0.0
160, 0.0
161, 0.0
162, 0.0
163.0, 2.236167220188528e-05
164.0, 0.0064831690713256646
165.0, 0.00954718794867816
166.0, 0.00635192797067311
167.0, 0.0008816566546949159
168.0, 0.003469745794894848
169.0, 0.005344984778762206
170.0, 0.004370903666570708
171.0, 0.0017679006176697396
172.0, 0.00016662604037854498
173.0, 0.003964241324509984
174.0, 0.005263259809505063
175.0, 0.0019285836604179844
176.0, 0.003416422253649926
177.0, 0.0069755520152097175
178.0, 0.006969272291027752
179.0, 0.0060294534009667266
180.0, 0.01590640700513931
181.0, 0.015862399107594728
182.0, 0.014541109950821501
183.0, 0.013597223140498105
184.0, 0.009551595942914489
185.0, 0.01313279877169431
186.0, 0.011882822408530128
187.0, 0.00945849153527264
188.0, 0.010612297961018442
189.0, 0.004897852103955159
190.0, 0.00566596567286194
191.0, 0.006591876630312649
192.0, 0.002721724916177289
193.0, 0.0024704281194536854
194.0, 0.0038826344131653403
195.0, 0.0027213006974563247
196.0, 0.0008534847404037425
197.0, 0.0016370237375902164
198.0, 0.0005592543957442384
199.0, 0.002105945331553792
200.0, 0.006558947242918251
201.0, 0.012580586080058869
202.0, 0.006454469216392035
203.0, 0.00673153778844808
204.0, 0.008851274884323036
205.0, 0.0057603471724606186
206.0, 0.01198797698910846
207.0, 0.015341838160789023
208.0, 0.012907342191781366
209.0, 0.0064027846054634085
210.0, 0.0011780675003310534
211.0, 0.0009062922174020463
212.0, 3.8416093378123484e-05
213.0, 0.0008799925516644307
214.0, 0.0009627097373609442
215.0, 0.0009990368867660267
216.0, 0.0007250446246336406
217.0, 0.0007046956999256368
218.0, 0.0005414292990048811
219.0, 0.000742232598971672
220.0, 0.0015108473627801007
221.0, 0.001765258315123428
222.0, 0.003944656188838931
223.0, 0.0018718950289057282
224.0, 0.0035142933802303957
225.0, 0.004274503436825128
226.0, 0.004082675947710236
227.0, 0.00789397453022338
228.0, 0.014279833615000136
229.0, 0.018080373020360797
230.0, 0.019976750241723875
231.0, 0.022856932311867046
232.0, 0.027050782076630857
233.0, 0.032022174596806216
234.0, 0.04093570532692055
235.0, 0.0523745664111984
236.0, 0.0568685677417089
237.0, 0.0663486931013351
238.0, 0.08241545910864913
239.0, 0.10267105719752453
240.0, 0.12334430821360581
241.0, 0.14646131068856297
242.0, 0.1479457345917189
243.0, 0.11964528623158788
244.0, 0.07413644585351828
245.0, 0.046803736197039224
246.0, 0.03370610003576827
247.0, 0.027129650594408052
248.0, 0.025041383476379492
249.0, 0.030452993458104424
250.0, 0.02235700681389433
251.0, 0.019576704471458383
252.0, 0.020139342460455862
253.0, 0.015134712732280349
254.0, 0.019982315986695955
255.0, 0.016643955268892292
256.0, 0.014017640161958531
257.0, 0.018181874741672363
258.0, 0.018777427955212256
259.0, 0.023101131238295436
260.0, 0.029628128597166573
261.0, 0.035833102226898075
262.0, 0.04014229794940362
263.0, 0.04768000169604646
264.0, 0.05632454716095339
265.0, 0.06705100131348302
266.0, 0.07816269018628239
267.0, 0.0796109178577857
268.0, 0.073102409912532
269.0, 0.06008525655913775
270.0, 0.04661257059810337
271.0, 0.03960404783832697
272.0, 0.026881997197169005
273.0, 0.017941051879252358
274.0, 0.016618152570001442
275.0, 0.020825887747989224
276.0, 0.01522672367303153
277.0, 0.014055023017118402
278.0, 0.013427771735380845
279.0, 0.01170964275242384
280.0, 0.0137914435101248
281.0, 0.017977592629181294
282.0, 0.015062776387857158
283.0, 0.009953801190596858
284.0, 0.010390294218259277
285.0, 0.01058101811157634
286.0, 0.008964305809866674
287.0, 0.0063106470953542895
288.0, 0.003733682201282372
289.0, 0.0014151323593278415
290.0, 0.0041074567841090604
291.0, 0.006636512404876018
292.0, 0.006601693540524301
293.0, 0.0060895669237063165
294.0, 0.00985071907243691
295.0, 0.007024895382199342
296.0, 0.008456387517481853
297.0, 0.016324097110565528
298.0, 0.019894284866202365
299.0, 0.024947002103760767
300.0, 0.030958045679767614
301.0, 0.03568177022480143
302.0, 0.03986172436936672
303.0, 0.05237384938999187
304.0, 0.05827399772064449
305.0, 0.05604554785329357
306.0, 0.052035980373764355
307.0, 0.054077107716137926
308.0, 0.05745689630966741
309.0, 0.06515061382868585
310.0, 0.07697025802265928
311.0, 0.08866908859208139
312.0, 0.09333500996696015
313.0, 0.10727656060245958
314.0, 0.12375768676666733
315.0, 0.13380831414215322
316.0, 0.13186632124386957
317.0, 0.11805618998080614
318.0, 0.09524103934491222
319.0, 0.06865769632740253
320.0, 0.04484618662515446
321.0, 0.0306232468417358
322.0, 0.02585524220854479
323.0, 0.02988255546074885
324.0, 0.031126605205686254
325.0, 0.02142624213960785
326.0, 0.021414161883291982
327.0, 0.024303795454412812
328.0, 0.02500480289893207
329.0, 0.02219264306891192
330.0, 0.016938095516130725
331.0, 0.017117141893833024
332.0, 0.017733094330548746
333.0, 0.0157202981338122
334.0, 0.011999252380394515
335.0, 0.014908476818264894
336.0, 0.021431410505984665
337.0, 0.025050556771906776
338.0, 0.024949430723334547
339.0, 0.023682316495156494
340.0, 0.012609173378362114
341.0, 0.003353853163885333
342.0, 0.0004301134560795467
343.0, 0.002277046140472659
344.0, 0.0013944393381985004
345.0, 0.003895525875553637
346.0, 0.006144920018159108
347.0, 0.005985512201026479
348.0, 0.006831873305259252
349.0, 0.004826173338053913
350.0, 0.0030670545490211667
351.0, 0.002166612807704889
352.0, 0.0015122588852995958
353.0, 0.0005036188353904251
354.0, 0.0018454943061614363
355.0, 0.002030645699741872
356.0, 0.003514965582835813
357.0, 0.0050921217171233275
358.0, 0.006164003820154396
359.0, 0.007625066853214112
360.0, 0.008672889403820074
361.0, 0.010208346628334785
362.0, 0.011025096142704603
363.0, 0.01234985305732052
364.0, 0.013714078679365
365.0, 0.014250236770262817
366.0, 0.01623011392864353
367.0, 0.017382320625304502
368.0, 0.018473370083939067
369.0, 0.01998249536550579
370.0, 0.018633785639906354
371.0, 0.01598919523394881
372.0, 0.0178310889927685
373.0, 0.0219054102770121
374.0, 0.025472088960110998
375.0, 0.030898784388315736
376.0, 0.03828854750921244
377.0, 0.03985521020020076
378.0, 0.04476016482194137
379.0, 0.047541199603150563
380.0, 0.04488647097888195
381.0, 0.03620903312490069
382.0, 0.025579879070499117
383.0, 0.02461256473119094
384.0, 0.02038397128778967
385.0, 0.01745117586454402
386.0, 0.014458523042295763
387.0, 0.014090383193056751
388.0, 0.011239805998300777
389.0, 0.010629123170684141
390.0, 0.009698648960134353
391.0, 0.01700782636562524
392.0, 0.019571117536303057
393.0, 0.025738279309870025
394.0, 0.035915179520960336
395.0, 0.04872372228687131
396.0, 0.06740467959205164
397.0, 0.08274045226004968
398.0, 0.10585144498647256
399.0, 0.13883156977849387
400.0, 0.18031501181467427
401.0, 0.23517615997299204
402.0, 0.2901639146104885
403.0, 0.34736786714351864
404.0, 0.4042308189757577
405.0, 0.4498183102455019
406.0, 0.4703775997036136
407.0, 0.468335946976408
408.0, 0.4669156416898851
409.0, 0.4911344415156023
410.0, 0.5588439091806451
411.0, 0.6670926077869732
412.0, 0.7967552310552156
413.0, 0.916755415036929
414.0, 0.989674588662723
415.0, 0.9738358981248705
416.0, 0.8174698759201321
417.0, 0.5868330931171422
418.0, 0.37590484418056697
419.0, 0.2303115271728715
420.0, 0.14312426014705049
421.0, 0.09970141200167339
422.0, 0.06824847383204849
423.0, 0.04401859560005241
424.0, 0.02887413725456053
425.0, 0.019230545188896046
426.0, 0.01273277843975564
427.0, 0.00568500530314905
428.0, 0.002626273726727349
429.0, 0.005352201651408635
430.0, 0.003598478324150247
431.0, 0.0014042603284175014
432.0, 0.0027057602504266523
433.0, 0.00820998543145041
434.0, 0.017721307063455014
435.0, 0.03231335768358337
436.0, 0.04396579230877589
437.0, 0.055611214201464226
438.0, 0.06859463996931699
439.0, 0.08387764143520497
440.0, 0.10486154943027724
441.0, 0.1269497420972359
442.0, 0.15433083427161137
443.0, 0.19472595915930468
444.0, 0.24944022467654572
445.0, 0.30592183229107706
446.0, 0.36406354081706194
447.0, 0.40691501350160064
448.0, 0.41633074675199166
449.0, 0.3811958069907117
450.0, 0.3026465600605858
451.0, 0.20892742117631416
452.0, 0.14515235086498943
453.0, 0.11533179810384878
454.0, 0.10044330863458213
455.0, 0.10084842617927899
456.0, 0.10362561698883721
457.0, 0.1050276596549578
458.0, 0.10148533176519858
459.0, 0.08979806554139237
460.0, 0.07131261068952227
461.0, 0.042430941832819515
462.0, 0.02094713558965843
463.0, 0.008473135367686437
464.0, 0.002126594137235604
465.0, 0.0023110264856471855
466.0, 0.005009527645496368
467.0, 0.00375018257949707
468.0, 0.0011245631646814615
469.0, 0.0031293154291128227
470.0, 0.0005165574232895227
471.0, 0.001303106558037459
472.0, 0.003190244813122832
473.0, 0.010722041510829453
474.0, 0.016133041313331226
475.0, 0.029131260141136015
476.0, 0.038575296994674185
477.0, 0.05152512297398734
478.0, 0.07065446015702793
479.0, 0.09374504353255524
480.0, 0.11907615951176223
481.0, 0.1534585752258403
482.0, 0.19363497160060425
483.0, 0.23513255080469925
484.0, 0.2724747479988114
485.0, 0.2947555240305049
486.0, 0.3010307831478307
487.0, 0.29739816338273206
488.0, 0.29530081821955173
489.0, 0.30443305672347415
490.0, 0.3283079954145157
491.0, 0.37934525846105827
492.0, 0.45429991107996726
493.0, 0.5378588185721787
494.0, 0.6107582605312413
495.0, 0.653154565926031
496.0, 0.645388638311616
497.0, 0.5547295861956832
498.0, 0.4036850747147746
499.0, 0.253461775991353
500.0, 0.1575944683273755
501.0, 0.10397735649428716
502.0, 0.06609426275706042
503.0, 0.04682128566853949
504.0, 0.0401455325600234
505.0, 0.027230433165691875
506.0, 0.02034184363141378
507.0, 0.015237831344860932
508.0, 0.013192454004358707
509.0, 0.01271167698427576
510.0, 0.009756121622708534
511.0, 0.007337106645423634
512.0, 0.002971115567982201
513.0, 0.003939775578766718
514.0, 0.007116446464395407
515.0, 0.005931713418884746
516.0, 0.005892287981785989
517.0, 0.005579360197545608
518.0, 0.009923623205280485
519.0, 0.011963992455630717
520.0, 0.007358866666803541
521.0, 0.008477923226126465
522.0, 0.01461713484562082
523.0, 0.021676032367091178
524.0, 0.026519556648726652
525.0, 0.031257953657139674
526.0, 0.04167538396250479
527.0, 0.049828447200243216
528.0, 0.05409161089094073
529.0, 0.06243304262786053
530.0, 0.0680327533181166
531.0, 0.054151063596810954
532.0, 0.03988626221274477
533.0, 0.025833644651860162
534.0, 0.015171586292009888
535.0, 0.010191200462092249
536.0, 0.010501639540979248
537.0, 0.012133709962045427
538.0, 0.01449414477030612
539.0, 0.015898137807270934
540.0, 0.016484922071210148
541.0, 0.016706168222136247
542.0, 0.015198820781977821
543.0, 0.008331354806123308
544.0, 0.0017323301176087411
545.0, 0.0010251179586591962
546.0, 0.00024840943245341395
547.0, 0.0007346505267316884
548.0, 0.0004488785839468092
549.0, 0.0006513907278884998
550.0, 0.0008053170280272995
551.0, 0.0009174293899605726
552.0, 0.0010858925476103691
553.0, 0.00129569650415076
554.0, 0.0016069632495837739
555.0, 0.002544322555605722
556.0, 0.002264363430149459
557.0, 0.002608435089498946
558.0, 0.004059005373440306
559.0, 0.005616328810076803
560.0, 0.004774760870497709
561.0, 0.001424194482227303
562.0, 0.0038978338756055363
563.0, 0.004772581160767869
564.0, 0.006458436410431805
565.0, 0.0154362564790347
566.0, 0.02208928647062252
567.0, 0.029668117297180028
568.0, 0.04529783917196977
569.0, 0.05683524018917365
570.0, 0.06826730510423729
571.0, 0.08466217332976358
572.0, 0.10053729145266152
573.0, 0.11565825767998769
574.0, 0.14000957803421457
575.0, 0.16069309867214798
576.0, 0.18462180923041516
577.0, 0.20695254317086956
578.0, 0.22015747927079551
579.0, 0.22255181913281613
580.0, 0.2226372808982459
581.0, 0.2044136679517495
582.0, 0.18064184748421594
583.0, 0.15326569291071032
584.0, 0.12021314931913055
585.0, 0.09175802029712449
586.0, 0.07530401953273211
587.0, 0.05626216302335986
588.0, 0.04079621417427332
589.0, 0.03173815438727588
590.0, 0.023468919458137283
591.0, 0.016798262695779644
592.0, 0.015843812284943522
593.0, 0.011291759558377105
594.0, 0.006134613919511722
595.0, 0.005214708888451157
596.0, 0.003287229119199923
597.0, 0.0026706761717306122
598.0, 0.004628612964604927
599.0, 0.010846344591326126
600.0, 0.016467147511966457
601.0, 0.01675227841503502
602.0, 0.026245099760631087
603.0, 0.030852308284116014
604.0, 0.03198506005346534
605.0, 0.03530940520034601
606.0, 0.04116314687266616
607.0, 0.04225351535192054
608.0, 0.03541407519469489
609.0, 0.029337813612345602
610.0, 0.024693262028794637
611.0, 0.023629217003411893
612.0, 0.027923744763239344
613.0, 0.028643669571207786
614.0, 0.03342718867022852
615.0, 0.03847828850089323
616.0, 0.05257559884442124
617.0, 0.0749068761594662
618.0, 0.08945898131547747
619.0, 0.10797387989621526
620.0, 0.12799211711673064
621.0, 0.14699346518636056
622.0, 0.1597947031238582
623.0, 0.16124347247635798
624.0, 0.150456532855793
625.0, 0.14370608434131996
626.0, 0.12114495436627015
627.0, 0.09369359018822349
628.0, 0.06963638445084759
629.0, 0.05061399569101946
630.0, 0.04503679176101411
631.0, 0.03426372364661415
632.0, 0.02471634672818041
633.0, 0.018974429670221248
634.0, 0.013966254014278801
635.0, 0.008950246727645415
636.0, 0.009067820967392037
637.0, 0.011398352202711173
638.0, 0.01142181293474208
639.0, 0.0096986361837489
640.0, 0.00859624810999115
641.0, 0.00907924705840887
642.0, 0.012304558116166429
643.0, 0.008675618792376511
644.0, 0.008445050569659735
645.0, 0.012627726879282175
646.0, 0.013279113595191362
647.0, 0.01470069034238926
648.0, 0.01445594574693814
649.0, 0.019545364018379644
650.0, 0.027420967888786604
651.0, 0.03556143633579334
652.0, 0.046004896414737935
653.0, 0.06089789091033475
654.0, 0.06974932541058704
655.0, 0.08338998378918608
656.0, 0.1005805059221823
657.0, 0.11629472740467664
658.0, 0.13273183307402978
659.0, 0.15442203558969045
660.0, 0.1701868597948013
661.0, 0.1872309160016145
662.0, 0.2084069435754481
663.0, 0.22850253976832874
664.0, 0.23980764334184768
665.0, 0.24074534915809415
666.0, 0.23903239568389534
667.0, 0.22914808904094752
668.0, 0.20605445776161177
669.0, 0.17538232502719986
670.0, 0.16181835011983625
671.0, 0.13403200663021295
672.0, 0.11445924792079708
673.0, 0.09560955238583796
674.0, 0.07569152747323592
675.0, 0.06125173477067914
676.0, 0.044342698524955065
677.0, 0.03939537944184827
678.0, 0.026096815635841
679.0, 0.01595443069713152
680.0, 0.011415325949034476
681.0, 0.003747309084997171
682.0, 0.0006315196256333426
683.0, 0.0034265615982635757
684.0, 0.002444281105648696
685.0, 0.001723795423169032
686.0, 0.0027171976870518505
687.0, 0.0028002648671968163
688.0, 0.005714863475471749
689.0, 0.0028019713745541085
690.0, 0.00014158188958967482
691.0, 0.0016954742965787166
692.0, 0.0052385234357192195
693.0, 0.010285018731901591
694.0, 0.009844059642651521
695.0, 0.012393132529502584
696.0, 0.01502993850842171
697.0, 0.02110189826594911
698.0, 0.02890425492001274
699.0, 0.0352042644562134
700.0, 0.05407935106984494
701.0, 0.07042054662704063
702.0, 0.0799164438385196
703.0, 0.09570750388859112
704.0, 0.11972222315975696
705.0, 0.14327498665603366
706.0, 0.17096029268929888
707.0, 0.20684288015726504
708.0, 0.2411930871157838
709.0, 0.2796571355562754
710.0, 0.3249752854983338
711.0, 0.37043737531075677
712.0, 0.41199110911370906
713.0, 0.45998823298564584
714.0, 0.4970531838978934
715.0, 0.5221899694885686
716.0, 0.5307289893932521
717.0, 0.5108245602485085
718.0, 0.46109470617249115
719.0, 0.4088811623142576
720.0, 0.3392638510930165
721.0, 0.2718745945556284
722.0, 0.21977762666074127
723.0, 0.17699818780142917
724.0, 0.13476469728738552
725.0, 0.10569887477366073
726.0, 0.08255488592018943
727.0, 0.07001704421132901
728.0, 0.05844946811609699
729.0, 0.04086040464827368
730.0, 0.03263734169934368
731.0, 0.028920159173248892
732.0, 0.025362825862877022
733.0, 0.024317959079470337
734.0, 0.022247189609425736
735.0, 0.015548082326781561
736.0, 0.006328720508941588
737.0, 0.0009272043704281374
738.0, 0.0018656364102987376
739.0, 0.005549633979624015
740.0, 0.006845468349312359
741.0, 0.006816410414243761
742.0, 0.00496375723377742
743.0, 0.0007043764406813528
744.0, 0.00042206047557395606
745.0, 0.005330497689219476
746.0, 0.01295270398398252
747.0, 0.015956051886170615
748.0, 0.011405436510118527
749.0, 0.013990822774500316
750.0, 0.013853929183046024
751.0, 0.013666240392859024
752.0, 0.01868080125462561
753.0, 0.024889470861498744
754.0, 0.024759814894074594
755.0, 0.021246050776513026
756.0, 0.02621881917347847
757.0, 0.023420102815874696
758.0, 0.021571494787371203
759.0, 0.021940458993364987
760.0, 0.01884652857466741
761.0, 0.010849301853575896
762.0, 0.00968661343079422
763.0, 0.0056126261566821645
764.0, 0.005711595895028666
765.0, 0.004413794465457147
766.0, 0.0006059727074896452
767.0, 0.0012909343953550565
768.0, 0.0005187583902479527
769.0, 0.0012209557201776707
770.0, 0.0035968334994274584
771.0, 0.007051844959035107
772.0, 0.005254594323617499
773.0, 0.0010127516949337463
774.0, 0.0007516448989287263
775.0, 0.0014925722324739146
776.0, 0.000493509229091522
777.0, 0.005319440183611557
778.0, 0.01024125610124034
779.0, 0.008644267348360442
780.0, 0.01070105202329363
781.0, 0.017232596682173387
782.0, 0.01723436631476707
783.0, 0.019796504667049797
784.0, 0.025331438008757673
785.0, 0.02879280985845425
786.0, 0.03101791418444964
787.0, 0.039666954050975374
788.0, 0.03808878694741674
789.0, 0.04340670186360481
790.0, 0.05086614039392172
791.0, 0.05833489245038514
792.0, 0.06365204709530138
793.0, 0.0670531507959265
794.0, 0.08301992899577657
795.0, 0.0971876153053605
796.0, 0.10348159266612772
797.0, 0.11436062004586073
798.0, 0.12784972873998202
799.0, 0.13768126077088494
800.0, 0.14955500146736148
801.0, 0.1621459943852191
802.0, 0.16896910167576923
803.0, 0.17780896909205623
804.0, 0.18882859944835784
805.0, 0.1988292142927116
806.0, 0.2064012334575592
807.0, 0.2114925390410351
808.0, 0.22040846995069552
809.0, 0.22338808333286853
810.0, 0.21497798456409326
811.0, 0.2044485460921523
812.0, 0.1990292814987945
813.0, 0.1937227950990417
814.0, 0.17948079262127387
815.0, 0.17339704044850227
816.0, 0.1688261579408771
817.0, 0.1609539969303173
818.0, 0.1527062953042472
819.0, 0.15001086408465134
820.0, 0.15131536148157426
821.0, 0.14939039338816446
822.0, 0.16308833278175858
823.0, 0.16188930912103033
824.0, 0.15854951802686323
825.0, 0.16353540640318787
826.0, 0.16696099224823074
827.0, 0.16304469014709283
828.0, 0.16156832775544847
829.0, 0.15636553128944508
830.0, 0.15068804442314981
831.0, 0.14182585890003527
832.0, 0.13076657768199787
833.0, 0.1228398276084231
834.0, 0.11077199702467828
835.0, 0.10549239588920772
836.0, 0.09045278462808268
837.0, 0.07739733235566855
838.0, 0.07004897927810474
839.0, 0.0612045187673404
840.0, 0.04745822476995838
841.0, 0.0404326581290007
842.0, 0.035593621837715105
843.0, 0.035986665125422306
844.0, 0.031973362060963066
845.0, 0.027051375711643053
846.0, 0.026018799888501472
847.0, 0.025913475448635873
848.0, 0.03117685114694208
849.0, 0.02672902644510052
850.0, 0.02219622982678633
851.0, 0.02107990121149002
852.0, 0.019707931678096882
853.0, 0.018592019707277047
854.0, 0.02266443202510529
855.0, 0.024457943338246038
856.0, 0.021570747846390525
857.0, 0.01435431287193931
858.0, 0.013874657223405976
859.0, 0.016053495651553742
860.0, 0.010246667870398726
861.0, 0.0028897742530028555
862.0, 0.012748583293848263
863.0, 0.007313121751984181
864.0, 0.004658792803164934
865.0, 0.004582524964257612
866.0, 0.006383467952978763
867.0, 0.007822368575326713
868.0, 0.0036104508079418873
869.0, 0.006491164368345648
870.0, 0.011165477021508661
871.0, 0.007724550113927471
872.0, 0.010513145579638785
873.0, 0.012983991388176186
874.0, 0.008978911084213906
875.0, 0.007969157283354325
876.0, 0.0039889486758828115
877.0, 0.005765596816693383
878.0, 0.007453450308448536
879.0, 0.005752190850034339
880.0, 0.000621357172370439
881.0, 0.0021558877897944933
882.0, 0.0014339175535277547
883.0, 0.00013739355113965638
884.0, 0.0011428880597313168
885.0, 0.0024244184331249762
886.0, 0.0019727185189334314
887.0, 0.005045903586570645
888.0, 0.002332070730223644
889.0, 0.0008107808687452202
890.0, 0.003929695072769224
891.0, 0.0006070212972921554
892.0, 0.0003577644636080372
893.0, 0.0033070452564652117
894.0, 0.005147774762850848
895.0, 0.0018207566043867327
896.0, 0.002893161973323186
897.0, 0.0007429483009133151
898.0, 0.001290816313664156
899.0, 0.0011286744137179584
900.0, 0.002765658616138923
901.0, 0.0061180561637225
902.0, 0.005210386441560122
903.0, 0.004531244903415013
904.0, 0.008218881239481604
905.0, 0.00471460349685433
906.0, 0.0032547126049211304
907.0, 0.0042927936495818116
908.0, 0.0029709059863496793
909.0, 0.0006802612940667705
910.0, 0.001664039577525656
911.0, 0.004271069368182514
912.0, 0.006460329576790971
913.0, 0.009661782419559097
914.0, 0.007938006444375733
915.0, 0.005858798384140908
916.0, 0.005798547676524545
917.0, 0.0064741799766906616
918.0, 0.004981451143783659
919.0, 0.0016261827299574115
920.0, 0.007284510026062287
921.0, 0.0077463252430471485
922.0, 0.0012528495169700786
923.0, 0.0004598483629458623
924.0, 0.0057834424534076384
925.0, 0.008435652619103706
926.0, 0.005855776384799577
927.0, 0.008764865246225662
928.0, 0.009963844351367133
929.0, 0.00886027442678522
930.0, 0.006777927395384229
931.0, 0.004975616471968297
932.0, 0.005738307229364352
933.0, 0.008481552354429567
934.0, 0.008607239992724107
935.0, 0.0027917217000958693
936.0, 0.00761152867257088
937.0, 0.00495658408196428
938.0, 0.005809727008074533
939.0, 0.007405863534874242
940.0, 0.008965097004995176
941.0, 0.011649142278677456
942.0, 0.007154533442146527
943.0, 0.007709911846218028
944.0, 0.008092352241272995
945.0, 0.005508108083594284
946.0, 0.004981030146818583
947.0, 0.006692177547000701
948.0, 0.00885178446786944
949.0, 0.011862945240590854
950.0, 0.015512724270855233
951.0, 0.012324693788717042
952.0, 0.01066159951960341
953.0, 0.01262153215875072
954.0, 0.016167446678897104
955.0, 0.015976888218292556
956.0, 0.014777364771344255
957.0, 0.018913069992021792
958.0, 0.019650699414953288
959.0, 0.019256092114956273
960.0, 0.020856837096383363
961.0, 0.017312838542663626
962.0, 0.015124720719009525
963.0, 0.015115154684585365
964.0, 0.015624652579226938
965.0, 0.020130135636716926
966.0, 0.0233963077719319
967.0, 0.028563694524173865
968.0, 0.026405272151214364
969.0, 0.03477183853044427
970.0, 0.04014687333184282
971.0, 0.04046496447503553
972.0, 0.045971082545951995
973.0, 0.05285518493719161
974.0, 0.05675555054986833
975.0, 0.05950594572440546
976.0, 0.062383114190540156
977.0, 0.06714031187892584
978.0, 0.07071266548583562
979.0, 0.06895178212676882
980.0, 0.06575116364787509
981.0, 0.06583139278829267
982.0, 0.05678897855785033
983.0, 0.05668234619089436
984.0, 0.05293553645088956
985.0, 0.04983399326333247
986.0, 0.04397503677266618
987.0, 0.0364122407909845
988.0, 0.03133469723934276
989.0, 0.02785682707980696
990.0, 0.025233466039055016
991.0, 0.030861246094312945
992.0, 0.02726652777564402
993.0, 0.02291796489649636
994.0, 0.020542884898020388
995.0, 0.019331892189101096
996.0, 0.018361833808861347
997.0, 0.017538290332674192
998.0, 0.016627752696833177
999.0, 0.0064417414699864655
1000.0, 0.007791890115062523
1001.0, 0.007512809721736618
1002.0, 0.01569690077599167
1003.0, 0.018589857892239086
1004.0, 0.012874375949624173
1005.0, 0.013516334458375173
1006.0, 0.017415181995636984
1007.0, 0.01443547280753129
1008.0, 0.016016782773814464
1009.0, 0.016057546562092188
1010.0, 0.016115114147581554
1011.0, 0.016643825018868758
1012.0, 0.011980960250311073
1013.0, 0.005984915507159225
1014.0, 0.008455511877873974
1015.0, 0.008581977608235524
1016.0, 0.009139503201046251
1017.0, 0.006433210084348859
1018.0, 0.006431684855225724
1019.0, 0.003726570057302178
1020.0, 0.003975789689586516
1021.0, 0.006007834862156453
1022.0, 0.00437616730300002
1023.0, 0.011703185126166122
1024.0, 0.009251855864234739
1025.0, 0.0011592718271419117
1026.0, 0.0037879550514912153
1027.0, 0.00719489645306569
1028.0, 0.00432457291232766
1029.0, 0.0045420978694885395
1030.0, 0.008828216564357085
1031.0, 0.005135687384894869
1032.0, 0.004783871675171886
1033.0, 0.010693293843126802
1034.0, 0.008260286831806098
1035.0, 0.007618732975960099
1036.0, 0.00934657830616948
1037.0, 0.00899928450872499
1038.0, 0.008314545617759916
1039.0, 0.010055034169883818
1040.0, 0.011108676069061128
1041.0, 0.00991145368346732
1042.0, 0.00701165871725099
1043.0, 0.002732420143345223
1044.0, 0.004311633177069958
1045.0, 0.0024684278063748944
1046.0, 0.007636667846514084
1047.0, 0.004462972729598819
1048.0, 0.004059472625986217
1049.0, 0.004624289280018124
1050.0, 0.0024274458213882338
1051.0, 0.0015572835377037303
1052.0, 0.0001238457598924038
1053.0, 0.002040426298477992
1054.0, 0.0009348053610579513
1055.0, 0.00038541950897877646
1056.0, 0.0031160033469388145
1057.0, 0.006986413957628848
1058.0, 0.0022870865254350737
1059.0, 0.0003526920584220598
1060.0, 0.0045737592733961305
1061.0, 0.008890264411804422
1062.0, 0.0041543923781794875
1063.0, 0.000579840096633561
1064.0, 0.0032667552294758356
1065.0, 0.0062281473874785335
1066.0, 0.007431400989883784
1067.0, 0.010533036140366001
1068.0, 0.009177581012765114
1069.0, 0.00979933534125843
1070.0, 0.009217231049274507
1071.0, 0.008978777154515429
1072.0, 0.008808442269138461
1073.0, 0.009502291118463096
1074.0, 0.00966790104062128
1075.0, 0.01053330808832267
1076.0, 0.01038602754016864
1077.0, 0.009646881785025038
1078.0, 0.010138194732023017
1079.0, 0.008039822166269148
1080.0, 0.003936094029689647
1081.0, 0.005427914779206018
1082.0, 0.007470997016583798
1083.0, 0.007274123250953172
1084.0, 0.007047727217592463
1085.0, 0.004647974133614569
1086.0, 0.006504263324273161
1087.0, 0.00608766074513608
1088.0, 0.009650796758024683
1089.0, 0.01000975661888182
1090.0, 0.008649810599579404
1091.0, 0.010188153506572664
1092.0, 0.009145944846784862
1093.0, 0.009898033917656824
1094.0, 0.019282833766976343
1095.0, 0.015621861848524977
1096.0, 0.010696527697939804
1097.0, 0.009685394128273793
1098.0, 0.012365930634765734
1099.0, 0.013346093579699491
1100.0, 0.015000253481051148
1101.0, 0.013145370961939249
1102.0, 0.00651533824577361
1103.0, 0.0023704370854156073
1104.0, 0.0012803466823121448
1105.0, 0.0012578942132741655
1106.0, 0.0014534879007445684
1107.0, 0.0023290863383804497
1108.0, 0.004131925440369741
1109.0, 0.0018728076213143448
1110.0, 0.0034708588139217345
1111.0, 0.004266995305494171
1112.0, 0.000838931588838792
1113.0, 0.0028649437952246045
1114.0, 0.004556960244992226
1115.0, 0.007640111471449765
1116.0, 0.007064730061182409
1117.0, 0.0023602864768018893
1118.0, 0.0037347698160995024
1119.0, 0.00856706992574283
1120.0, 0.010923744169483487
1121.0, 0.006113210759271666
1122.0, 0.0008573348075804454
1123.0, 0.00491054725433388
1124.0, 0.005991825739636738
1125.0, 0.007389071472871472
1126.0, 0.007934832739184333
1127.0, 0.0013879054631770128
1128.0, 0.0006134163562995362
1129.0, 0.0013403092019603747
1130.0, 0.004154043990140401
1131.0, 0.003487218332284359
1132.0, 0.002710245859926557
1133.0, 0.007345892010866928
1134.0, 0.004783305862400428
1135.0, 0.008516735941646179
1136.0, 0.006575046372239932
1137.0, 0.009112535901156172
1138.0, 0.013031952385128737
1139.0, 0.011599135600431992
1140.0, 0.003645039084930937
1141.0, 0.001163992945605063
1142.0, 0.005812851371166851
1143.0, 0.008316848273911244
1144.0, 0.008686945698272708
1145.0, 0.005451870573544576
1146.0, 0.0008550893597496048
1147.0, 0.006291803244293525
1148.0, 0.007280033624094407
1149.0, 0.007863522206718527
1150.0, 0.008754253347657368
1151.0, 0.010006421501445656
1152.0, 0.008391519877261241
1153.0, 0.004589276364930985
1154.0, 0.011229250051553261
1155.0, 0.0017202865623765985
1156.0, 0.0006684599205091414
1157.0, 0.002758634534820001
1158.0, 0.005012334498499727
1159.0, 0.006819644718150947
1160.0, 0.00751926960115314
1161.0, 0.00574347793777888
1162.0, 0.003341945198276891
1163.0, 0.004479146697375292
1164.0, 0.00805910313724095
1165.0, 0.006065647694474928
1166.0, 0.00537097529255382
1167.0, 0.009978485431135803
1168.0, 0.0018132540692802524
1169.0, 0.0008332104571950147
1170.0, 0.0012535912995013387
1171.0, 0.0069615502078742555
1172.0, 0.0077699662452558466
1173.0, 0.007796013084583961
1174.0, 0.011893210461656633
1175.0, 0.004859390580899713
1176.0, 0.00757972361866414
1177.0, 0.012753962134511687
1178.0, 0.014037554833312397
1179.0, 0.01288594106867929
1180.0, 0.012936480429709912
1181.0, 0.015173299917691414
1182.0, 0.012840719927171668
1183.0, 0.01152684492840195
1184.0, 0.015156434119349641
1185.0, 0.015047113227490728
1186.0, 0.009722944294384006
1187.0, 0.00402494935974964
1188.0, 0.013133231761331594
1189.0, 0.007155147930533517
1190.0, 0.006176370027232903
1191.0, 0.01177197743287615
1192.0, 0.012652710025995472
1193.0, 0.012571813394321679
1194.0, 0.012225043392673754
1195.0, 0.014470730334416124
1196.0, 0.015309093745958364
1197.0, 0.014282903101336042
1198.0, 0.014064554845591179
1199.0, 0.01382562890731483
1200.0, 0.013986040641027368
1201.0, 0.01421101480094645
1202.0, 0.014807124147641628
1203.0, 0.014518256199638754
1204.0, 0.013539913485411179
1205.0, 0.014180062177966954
1206.0, 0.01401378680940777
1207.0, 0.012923614388991561
1208.0, 0.013520389741011322
1209.0, 0.012448599632909849
1210.0, 0.009813896241512902
1211.0, 0.011091643782112784
1212.0, 0.01420299388371427
1213.0, 0.01047673703792009
1214.0, 0.004710452484711857
1215.0, 0.006021155904364275
1216.0, 0.007525060510851711
1217.0, 0.002283936748749146
1218.0, 0.0006181261843510504
1219.0, 0.002436019314250895
1220.0, 0.001603256627385567
1221.0, 0.010004655043525853
1222.0, 0.008246722775870772
1223.0, 0.005780289159532117
1224.0, 0.005830431014119799
1225.0, 0.012831714533597055
1226.0, 0.012676858129859673
1227.0, 0.010918905717911865
1228.0, 0.009558450679712416
1229.0, 0.013682044925294807
1230.0, 0.018908129848602483
1231.0, 0.01530793312986194
1232.0, 0.011314605092018306
1233.0, 0.00764106974121424
1234.0, 0.004138177976034763
1235.0, 0.012358206248153134
1236.0, 0.008098681957357096
1237.0, 0.007455144574743564
1238.0, 0.007706040153411794
1239.0, 0.008301505457017229
1240.0, 0.010987936090896364
1241.0, 0.011151144523965283
1242.0, 0.006828025870564665
1243.0, 0.0034681792827859167
1244.0, 0.004510119318866948
1245.0, 0.00645493642230287
1246.0, 0.005397603595136157
1247.0, 0.008019261844937661
1248.0, 0.006891589232604253
1249.0, 0.004988015386797482
1250.0, 0.004603824633035371
1251.0, 0.003949352984191624
1252.0, 0.013590315191988743
1253.0, 0.013370464254322844
1254.0, 0.01009694601185639
1255.0, 0.008580475765042742
1256.0, 0.0080589487860129
1257.0, 0.0075882506769916055
1258.0, 0.0008642327856137964
1259.0, 0.00510636048036228
1260.0, 0.011183721313706693
1261.0, 0.00734581601696277
1262.0, 0.008578621308368475
1263.0, 0.010519686537217496
1264.0, 0.006338479847543806
1265.0, 0.0012194000208728853
1266.0, 0.002637488771958589
1267.0, 0.007081771580931821
1268.0, 0.002408449516667023
1269.0, 0.0009074127758239908
1270.0, 0.009331128207662137
1271.0, 0.007539624039857146
1272.0, 0.002562988901799918
1273.0, 0.0032146560586259476
1274.0, 0.004525223372876502
1275.0, 0.006459751416375159
1276.0, 0.003562114115993563
1277.0, 0.004468350414298697
1278.0, 0.0030241595562392064
1279.0, 0.0012609429223755953
1280.0, 0.004343757230451081
1281.0, 0.008106469482634363
1282.0, 0.010637253589308912
1283.0, 0.006642839428406327
1284.0, 0.01131227335696174
1285.0, 0.011055964793324198
1286.0, 0.011869563811535647
1287.0, 0.009345418352713986
1288.0, 0.008685958804615678
1289.0, 0.004071947150660958
1290.0, 0.006851061720097193
1291.0, 0.005333777517940631
1292.0, 0.002500423216798734
1293.0, 0.0011999276095392183
1294.0, 0.00021283812982830503
1295.0, 0.0011900840167883473
1296.0, 0.0033591787635996536
1297.0, 0.0073320195617077085
1298.0, 0.007838243195172226
1299.0, 0.009098613875389303
1300.0, 0.009974256742015089
1301.0, 0.0054941410356692715
1302.0, 0.00572308983690115
1303.0, 0.010277612092316831
1304.0, 0.005042644879815616
1305.0, 0.0028474226800572684
1306.0, 0.0010058030904230707
1307, 0.0
1308, 0.0
1309, 0.0
1310, 0.0
1311, 0.0
1312, 0.0
1313, 0.0
1314, 0.0
1315, 0.0
1316, 0.0
1317, 0.0
1318, 0.0
1319, 0.0
1320, 0.0
1321, 0.0
1322, 0.0
1323, 0.0
1324, 0.0
1325, 0.0
1326, 0.0
1327, 0.0
1328, 0.0
1329, 0.0
1330, 0.0
1331, 0.0
1332, 0.0
1333, 0.0
1334, 0.0
1335, 0.0
1336, 0.0
1337, 0.0
1338, 0.0
1339, 0.0
1340, 0.0
1341, 0.0
1342, 0.0
1343, 0.0
1344, 0.0
1345, 0.0
1346, 0.0
1347, 0.0
1348, 0.0
1349, 0.0
1350, 0.0
1351, 0.0
1352, 0.0
1353, 0.0
1354, 0.0
1355, 0.0
1356, 0.0
1357, 0.0
1358, 0.0
1359, 0.0
1360, 0.0
1361, 0.0
1362, 0.0
1363, 0.0
1364, 0.0
1365, 0.0
1366, 0.0
1367, 0.0
1368, 0.0
1369, 0.0
1370, 0.0
1371, 0.0
1372, 0.0
1373, 0.0
1374, 0.0
1375, 0.0
1376, 0.0
1377, 0.0
1378, 0.0
1379, 0.0
1380, 0.0
1381, 0.0
1382, 0.0
1383, 0.0
1384, 0.0
1385, 0.0
1386, 0.0
1387, 0.0
1388, 0.0
1389, 0.0
1390, 0.0
1391, 0.0
1392, 0.0
1393, 0.0
1394, 0.0
1395, 0.0
1396, 0.0
1397, 0.0
1398, 0.0
1399, 0.0
1400, 0.0
1401, 0.0
1402, 0.0
1403, 0.0
1404, 0.0
1405, 0.0
1406, 0.0
1407, 0.0
1408, 0.0
1409, 0.0
1410, 0.0
1411, 0.0
1412, 0.0
1413, 0.0
1414, 0.0
1415, 0.0
1416, 0.0
1417, 0.0
1418, 0.0
1419, 0.0
1420, 0.0
1421, 0.0
1422, 0.0
1423, 0.0
1424, 0.0
1425, 0.0
1426, 0.0
1427, 0.0
1428, 0.0
1429, 0.0
1430, 0.0
1431, 0.0
1432, 0.0
1433, 0.0
1434, 0.0
1435, 0.0
1436, 0.0
1437, 0.0
1438, 0.0
1439, 0.0
1440, 0.0
1441, 0.0
1442, 0.0
1443, 0.0
1444, 0.0
1445, 0.0
1446, 0.0
1447, 0.0
1448, 0.0
1449, 0.0
1450, 0.0
1451, 0.0
1452, 0.0
1453, 0.0
1454, 0.0
1455, 0.0
1456, 0.0
1457, 0.0
1458, 0.0
1459, 0.0
1460, 0.0
1461, 0.0
1462, 0.0
1463, 0.0
1464, 0.0
1465, 0.0
1466, 0.0
1467, 0.0
1468, 0.0
1469, 0.0
1470, 0.0
1471, 0.0
1472, 0.0
1473, 0.0
1474, 0.0
1475, 0.0
1476, 0.0
1477, 0.0
1478, 0.0
1479, 0.0
1480, 0.0
1481, 0.0
1482, 0.0
1483, 0.0
1484, 0.0
1485, 0.0
1486, 0.0
1487, 0.0
1488, 0.0
1489, 0.0
1490, 0.0
1491, 0.0
1492, 0.0
1493, 0.0
1494, 0.0
1495, 0.0
1496, 0.0
1497, 0.0
1498, 0.0
1499, 0.0
1500, 0.0
1501, 0.0
1502, 0.0
1503, 0.0
1504, 0.0
1505, 0.0
1506, 0.0
1507, 0.0
1508, 0.0
1509, 0.0
1510, 0.0
1511, 0.0
1512, 0.0
1513, 0.0
1514, 0.0
1515, 0.0
1516, 0.0
1517, 0.0
1518, 0.0
1519, 0.0
1520, 0.0
1521, 0.0
1522, 0.0
1523, 0.0
1524, 0.0
1525, 0.0
1526, 0.0
1527, 0.0
1528, 0.0
1529, 0.0
1530, 0.0
1531, 0.0
1532, 0.0
1533, 0.0
1534, 0.0
1535, 0.0
1536, 0.0
1537, 0.0
1538, 0.0
1539, 0.0
1540, 0.0
1541, 0.0
1542, 0.0
1543, 0.0
1544, 0.0
1545, 0.0
1546, 0.0
1547, 0.0
1548, 0.0
1549, 0.0
1550, 0.0
1551, 0.0
1552, 0.0
1553, 0.0
1554, 0.0
1555, 0.0
1556, 0.0
1557, 0.0
1558, 0.0
1559, 0.0
1560, 0.0
1561, 0.0
1562, 0.0
1563, 0.0
1564, 0.0
1565, 0.0
1566, 0.0
1567, 0.0
1568, 0.0
1569, 0.0
1570, 0.0
1571, 0.0
1572, 0.0
1573, 0.0
1574, 0.0
1575, 0.0
1576, 0.0
1577, 0.0
1578, 0.0
1579, 0.0
1580, 0.0
1581, 0.0
1582, 0.0
1583, 0.0
1584, 0.0
1585, 0.0
1586, 0.0
1587, 0.0
1588, 0.0
1589, 0.0
1590, 0.0
1591, 0.0
1592, 0.0
1593, 0.0
1594, 0.0
1595, 0.0
1596, 0.0
1597, 0.0
1598, 0.0
1599, 0.0
