30, 0.0
31, 0.0
32, 0.0
33, 0.0
34, 0.0
35, 0.0
36, 0.0
37, 0.0
38, 0.0
39, 0.0
40, 0.0
41, 0.0
42, 0.0
43, 0.0
44, 0.0
45, 0.0
46, 0.0
47, 0.0
48, 0.0
49, 0.0
50, 0.0
51, 0.0
52, 0.0
53, 0.0
54, 0.0
55, 0.0
56, 0.0
57, 0.0
58, 0.0
59, 0.0
60, 0.0
61, 0.0
62, 0.0
63, 0.0
64, 0.0
65, 0.0
66, 0.0
67, 0.0
68, 0.0
69, 0.0
70, 0.0
71, 0.0
72, 0.0
73, 0.0
74, 0.0
75, 0.0
76, 0.0
77, 0.0
78, 0.0
79, 0.0
80, 0.0
81, 0.0
82, 0.0
83, 0.0
84, 0.0
85, 0.0
86, 0.0
87, 0.0
88, 0.0
89, 0.0
90, 0.0
91, 0.0
92, 0.0
93, 0.0
94, 0.0
95, 0.0
96, 0.0
97, 0.0
98, 0.0
99, 0.0
100, 0.0
101, 0.0
102, 0.0
103, 0.0
104, 0.0
105, 0.0
106, 0.0
107, 0.0
108, 0.0
109, 0.0
110, 0.0
111, 0.0
112, 0.0
113, 0.0
114, 0.0
115, 0.0
116, 0.0
117, 0.0
118, 0.0
119, 0.0
120, 0.0
121, 0.0
122, 0.0
123, 0.0
124, 0.0
125, 0.0
126, 0.0
127, 0.0
128, 0.0
129, 0.0
130, 0.0
131, 0.0
132, 0.0
133, 0.0
134, 0.0
135, 0.0
136, 0.0
137, 0.0
138, 0.0
139, 0.0
140, 0.0
141, 0.0
142, 0.0
143, 0.0
144, 0.0
145, 0.0
146, 0.0
147, 0.0
148, 0.0
149, 0.0
150, 0.0
151, 0.0
152, 0.0
153, 0.0
154, 0.0
155, 0.0
156, 0.0
157.0, 0.00036045247886568467
158.0, 0.0005597138141546986
159.0, 0.004379703847527866
160.0, 0.003951353769910974
161.0, 0.0024105275831725055
162.0, 0.0013670387669607968
163.0, 0.0017565228706676243
164.0, 0.0002956059511922466
165.0, 0.0020680812448783947
166.0, 0.004833423864693665
167.0, 0.003034496039430816
168.0, 0.003185170312420385
169.0, 0.0016455634202512258
170.0, 0.0010616968996645761
171.0, 0.003474413112037167
172.0, 0.002305877198363423
173.0, 0.004689073939561218
174.0, 0.005444405553801517
175.0, 0.0029211529116192777
176.0, 0.004521122927197385
177.0, 0.007550929523019827
178.0, 0.007930206763877136
179.0, 0.005087908208590712
180.0, 0.00280530881039749
181.0, 0.0053812998799156265
182.0, 0.008165541683040291
183.0, 0.007686621805745517
184.0, 0.0033402219982387503
185.0, 0.0027352107477737484
186.0, 0.004733664789822552
187.0, 0.00557955766425684
188.0, 0.0035390368067367553
189.0, 0.0011782083301275334
190.0, 0.0022849312992593842
191.0, 0.003195825110166471
192.0, 0.00163361680300697
193.0, 0.0011625332893076498
194.0, 6.368307566969102e-05
195.0, 0.00011479688645097254
196.0, 0.0017245448380187784
197.0, 0.0026620528131554113
198.0, 0.002282082861869031
199.0, 0.0031325057466386427
200.0, 0.0053142788104584065
201.0, 0.006567921173262073
202.0, 0.004571519877538063
203.0, 0.0036901930852704964
204.0, 0.004320134287374691
205.0, 0.005191427921473616
206.0, 0.0060652866917634204
207.0, 0.006802414894423118
208.0, 0.00558145201706476
209.0, 0.002841409175622895
210.0, 0.0029732057325820888
211.0, 0.0027174903218163244
212.0, 0.001445393269967799
213.0, 0.0002505529969050046
214.0, 0.0008901710387867052
215.0, 0.0007986193436361581
216.0, 0.0008740588221049511
217.0, 0.0002700327668648425
218.0, 0.0016683279981104244
219.0, 0.0009003604752651743
220.0, 0.0009913748263356008
221.0, 0.0016371500296164486
222.0, 0.0038107639423309043
223.0, 0.001584027742905251
224.0, 0.0007217122868392433
225.0, 0.004131128130053378
226.0, 0.00604783010810811
227.0, 0.007081124942392104
228.0, 0.007728214652407564
229.0, 0.009459356408705754
230.0, 0.011049467763829427
231.0, 0.011865603890910952
232.0, 0.016416365528797425
233.0, 0.01956962643457592
234.0, 0.021090203062581057
235.0, 0.022478475208498345
236.0, 0.026220821214459407
237.0, 0.032944179932354725
238.0, 0.041594380291755155
239.0, 0.05175497838467318
240.0, 0.0630658519983284
241.0, 0.07345882417185495
242.0, 0.0787916967098087
243.0, 0.06970929380498445
244.0, 0.046318341772548614
245.0, 0.03064391287019548
246.0, 0.019503685868188816
247.0, 0.013180467079592587
248.0, 0.01125884238740568
249.0, 0.011304593464637474
250.0, 0.006849888870409647
251.0, 0.005165111666916356
252.0, 0.005964957635715982
253.0, 0.005775458314400636
254.0, 0.007062770853365269
255.0, 0.006627603449512833
256.0, 0.0064451232480711605
257.0, 0.007390398590764859
258.0, 0.00634571776746268
259.0, 0.009382906080746019
260.0, 0.01229187071576291
261.0, 0.013537473953931876
262.0, 0.014512309556367993
263.0, 0.01826574405175339
264.0, 0.02203258720949419
265.0, 0.023351688834989042
266.0, 0.02273047076745556
267.0, 0.02631389905199867
268.0, 0.024881433023614383
269.0, 0.020126891721788838
270.0, 0.015211702074094507
271.0, 0.01192829795106934
272.0, 0.013699446040086806
273.0, 0.012032881771166216
274.0, 0.00886514462201691
275.0, 0.008678148110322135
276.0, 0.007702159255929982
277.0, 0.005332486008296943
278.0, 0.00490857505144856
279.0, 0.006652724830276713
280.0, 0.006228334830349508
281.0, 0.005822535012525468
282.0, 0.00642568537175381
283.0, 0.006200134552035376
284.0, 0.004045031907527338
285.0, 0.0037694205795901427
286.0, 0.0060048366034002685
287.0, 0.004793258573437419
288.0, 0.0007700947738909916
289.0, 0.0023397026649408167
290.0, 0.004336531528031588
291.0, 0.0034765321583258013
292.0, 0.002082655736380286
293.0, 0.002940331263961715
294.0, 0.0027064046749191452
295.0, 0.004718044238995645
296.0, 0.006667799018029287
297.0, 0.007399829215771834
298.0, 0.009068794647953555
299.0, 0.012122960310744361
300.0, 0.014629680482652932
301.0, 0.017265615739945415
302.0, 0.020753128034079686
303.0, 0.025486810397999427
304.0, 0.027663204549229655
305.0, 0.02487141956039243
306.0, 0.020141491151283546
307.0, 0.01876562319567711
308.0, 0.014461583922281106
309.0, 0.015262044218733287
310.0, 0.01834835577339297
311.0, 0.01917924256934214
312.0, 0.020539649421971534
313.0, 0.02445845448042566
314.0, 0.02529113789447474
315.0, 0.02408865009985656
316.0, 0.02594082632106652
317.0, 0.024794144035389005
318.0, 0.024081883317955587
319.0, 0.020450139320766093
320.0, 0.015199007857254889
321.0, 0.019011512772110106
322.0, 0.023226258439250556
323.0, 0.029568932864380493
324.0, 0.03541031393457267
325.0, 0.03764178351390937
326.0, 0.0429807707647001
327.0, 0.05058954886900156
328.0, 0.05682492586395102
329.0, 0.05897486047182485
330.0, 0.05530614742305258
331.0, 0.05501430754370877
332.0, 0.052910639830173814
333.0, 0.05050624649929459
334.0, 0.05225595448514065
335.0, 0.061630503433214474
336.0, 0.07205539877610588
337.0, 0.07972206154699318
338.0, 0.08131492423198325
339.0, 0.07365228601595311
340.0, 0.053732522043243684
341.0, 0.03632087354677142
342.0, 0.0246369720099625
343.0, 0.017295507942574426
344.0, 0.012252970704602448
345.0, 0.0068579019449895905
346.0, 0.0038280346079501756
347.0, 0.0037690741382321057
348.0, 0.0041943212290761174
349.0, 0.001544820447695505
350.0, 0.00031534064785628414
351.0, 0.00032140894726065395
352.0, 0.0002310849856720123
353.0, 0.0001592170034756634
354.0, 0.0003135936488197547
355.0, 0.0025420747865827274
356.0, 0.0027291938649240018
357.0, 0.00030246143192692334
358.0, 0.001468027463187904
359.0, 0.0006369461316489272
360.0, 0.001477700074373522
361.0, 0.00304250852779997
362.0, 0.0027161674430891966
363.0, 0.0015572459034804806
364.0, 0.0008111728846918487
365.0, 0.0029670501213131147
366.0, 0.004439669905674838
367.0, 0.00522833248651404
368.0, 0.005326710614456953
369.0, 0.004550775679496253
370.0, 0.00451925560712227
371.0, 0.004916615860709517
372.0, 0.0029461080854766017
373.0, 0.004872748928816174
374.0, 0.008652839826573036
375.0, 0.01317969655400996
376.0, 0.017240966257837623
377.0, 0.01820266374812667
378.0, 0.02022368787724787
379.0, 0.0202886825053215
380.0, 0.017611473744991852
381.0, 0.013734089964585632
382.0, 0.010932747515581313
383.0, 0.00920322277904888
384.0, 0.0095805373423431
385.0, 0.010953982086574714
386.0, 0.009639459580588457
387.0, 0.009926235051684697
388.0, 0.009610056419553639
389.0, 0.012451785889599849
390.0, 0.011864956823585328
391.0, 0.01185762469121219
392.0, 0.021315708138244405
393.0, 0.026826126967283388
394.0, 0.030998915721882882
395.0, 0.039065965170420686
396.0, 0.048588608280768206
397.0, 0.059591812145106345
398.0, 0.07663691760433729
399.0, 0.1008036266413061
400.0, 0.13127110254281016
401.0, 0.16675992644449325
402.0, 0.20732769608035861
403.0, 0.24801185783874266
404.0, 0.28802627865928393
405.0, 0.32745326942903624
406.0, 0.3584368502361065
407.0, 0.3768297866077889
408.0, 0.3994503937368422
409.0, 0.446200883003527
410.0, 0.5311644571319336
411.0, 0.6494331578339263
412.0, 0.784690699372967
413.0, 0.9104587949634843
414.0, 0.9888385501057643
415.0, 0.9728236956628816
416.0, 0.8087653434219397
417.0, 0.5752656073961001
418.0, 0.36831968550477967
419.0, 0.22886573015501238
420.0, 0.14453552386797702
421.0, 0.0981721332929125
422.0, 0.06669563556086067
423.0, 0.04551465863824224
424.0, 0.03275550184482084
425.0, 0.020695051397637877
426.0, 0.01726269206457972
427.0, 0.010694048570843353
428.0, 0.004483971071494514
429.0, 0.003333842764942666
430.0, 0.0006862035970861424
431.0, 0.0013914698755844
432.0, 0.0013117867778151154
433.0, 0.0018818541179424222
434.0, 0.0025444847843003947
435.0, 0.0021030812451195997
436.0, 0.0025142918126452294
437.0, 0.00373911301632569
438.0, 0.0059213975109651176
439.0, 0.00827399245616833
440.0, 0.016691911073099377
441.0, 0.023446555512100977
442.0, 0.02785077161857656
443.0, 0.03434819608708267
444.0, 0.04636712583991417
445.0, 0.06121667293299199
446.0, 0.07619835320147844
447.0, 0.0875481206666445
448.0, 0.09044648517829595
449.0, 0.08150630095388833
450.0, 0.06198231263325312
451.0, 0.04354386562744531
452.0, 0.03185298236546086
453.0, 0.02665517600068731
454.0, 0.02537142064935278
455.0, 0.028696468748323795
456.0, 0.0363459173746792
457.0, 0.043213920255596595
458.0, 0.04474373977111805
459.0, 0.03931711192688661
460.0, 0.02903847281020834
461.0, 0.025162658686889855
462.0, 0.016768068105918594
463.0, 0.0062440562426103585
464.0, 0.003280451257363166
465.0, 0.0005070008318376413
466.0, 0.002498060876562571
467.0, 0.00518880269207639
468.0, 0.007235599158752595
469.0, 0.009836390653833762
470.0, 0.012681122437867611
471.0, 0.019635874956521377
472.0, 0.027130897103028413
473.0, 0.03492143130906867
474.0, 0.04459543572295569
475.0, 0.054390964631833044
476.0, 0.06672369053185531
477.0, 0.08210266964954215
478.0, 0.10310493907839464
479.0, 0.13144439421904933
480.0, 0.16339844969706857
481.0, 0.2058475802980671
482.0, 0.25538400477674517
483.0, 0.30543173917045646
484.0, 0.34855298102108556
485.0, 0.3726773740576677
486.0, 0.37072604296790346
487.0, 0.34852183547601806
488.0, 0.32420388161727437
489.0, 0.3151174297419253
490.0, 0.32911845625476205
491.0, 0.37578159575165887
492.0, 0.4532094111160838
493.0, 0.5446078101035088
494.0, 0.6279584783286963
495.0, 0.6799887411824925
496.0, 0.6771859456099085
497.0, 0.5756290106355616
498.0, 0.41121083173268
499.0, 0.25547372124066575
500.0, 0.15528665560144692
501.0, 0.09663723897976104
502.0, 0.06151432861152723
503.0, 0.04320740680134122
504.0, 0.03311840493676821
505.0, 0.02074985997255658
506.0, 0.01604824511471576
507.0, 0.01318028756488945
508.0, 0.010329321460632009
509.0, 0.0077232424331408625
510.0, 0.006493672012304336
511.0, 0.006876419370995158
512.0, 0.003061839477514254
513.0, 0.0015968146393207133
514.0, 0.0037994845084510028
515.0, 0.005084925492729986
516.0, 0.0027745882566521576
517.0, 0.005140123367481853
518.0, 0.006160122100660883
519.0, 0.005288915887668413
520.0, 0.0055642457061409354
521.0, 0.009273599817411994
522.0, 0.01162050824147043
523.0, 0.014936967924885376
524.0, 0.02075380037691629
525.0, 0.028182929082509033
526.0, 0.03481872710825529
527.0, 0.04164835036630241
528.0, 0.046451680572641596
529.0, 0.04858524981771353
530.0, 0.04713612227690739
531.0, 0.04030836788638236
532.0, 0.02708775475705812
533.0, 0.019274869899755576
534.0, 0.012378775384951636
535.0, 0.006331054232876871
536.0, 0.005008935481278537
537.0, 0.005491905329241413
538.0, 0.004832793620060276
539.0, 0.006016773627194863
540.0, 0.007605322772281689
541.0, 0.008626532467639406
542.0, 0.011365961952266752
543.0, 0.008473021369297165
544.0, 0.004478433612589315
545.0, 0.0028793317783541218
546.0, 0.0027279178654587687
547.0, 0.0002733807673976898
548.0, 0.0006699422016810147
549.0, 0.003060998928864844
550.0, 0.002639657455369618
551.0, 0.0009352227547998598
552.0, 0.002501781164927261
553.0, 0.0013002047118715137
554.0, 0.0005563114396193429
555.0, 0.0016457955240448143
556.0, 0.0011673337285350394
557.0, 6.853385366290264e-05
558.0, 0.000838075880671041
559.0, 0.0020410427688143168
560.0, 0.0024952109904718485
561.0, 0.0009548628328792609
562.0, 0.0035535107400596344
563.0, 0.002213718173413402
564.0, 0.004773659165726917
565.0, 0.008057974585524194
566.0, 0.011827431556261715
567.0, 0.01638539742818977
568.0, 0.021872842953005463
569.0, 0.02888314377779097
570.0, 0.03533292792066379
571.0, 0.044867716853333864
572.0, 0.05406662878659644
573.0, 0.06116179427542512
574.0, 0.07084372711229604
575.0, 0.08205287570738509
576.0, 0.09413149319352765
577.0, 0.1049449573485406
578.0, 0.11283247935439833
579.0, 0.11610384151874538
580.0, 0.11088730364897734
581.0, 0.10185989420816056
582.0, 0.08747690735735188
583.0, 0.07112613935075818
584.0, 0.05585024004048085
585.0, 0.040216744172814615
586.0, 0.031180177319649817
587.0, 0.023862111871351212
588.0, 0.019092103099220725
589.0, 0.015985901509447384
590.0, 0.01122109869124821
591.0, 0.0057939251625152895
592.0, 0.004447590631404272
593.0, 0.0027501147551901727
594.0, 0.0012330545979211908
595.0, 0.0007851188084815423
596.0, 0.0017026116759584998
597.0, 0.0014561600182512137
598.0, 0.004057135862007238
599.0, 0.004374698419055362
600.0, 0.002349772461807827
601.0, 0.0008082071867438144
602.0, 0.003939377735228268
603.0, 0.0033154271947099904
604.0, 0.00457516738206325
605.0, 0.005323994172760796
606.0, 0.0029827515124601378
607.0, 0.0027769284165316682
608.0, 0.0008861693542766424
609.0, 0.0007795190098688909
610.0, 0.00017622287807140613
611.0, 0.0012308900759082245
612.0, 0.001078890659283241
613.0, 0.0011612473681227634
614.0, 0.006066495531694147
615.0, 0.005952092125813395
616.0, 0.00654176971869156
617.0, 0.010642327032716076
618.0, 0.01089436499344099
619.0, 0.016677172480428763
620.0, 0.023544182447930204
621.0, 0.025525838361901042
622.0, 0.024920327693922724
623.0, 0.025333346430948988
624.0, 0.025080744985120598
625.0, 0.02275934438348752
626.0, 0.01906827078352269
627.0, 0.014195029514350808
628.0, 0.009557202317128448
629.0, 0.006987069153972908
630.0, 0.004923792958573331
631.0, 0.0022954155411773727
632.0, 0.0026489874498871087
633.0, 0.001705890123024327
634.0, 0.0014261706613661336
635.0, 0.0007707107202579316
636.0, 0.0007841197106507906
637.0, 0.0005204127369897411
638.0, 0.0005008832583064846
639.0, 0.001557632251235286
640.0, 0.0038202477872698684
641.0, 0.0077813835117912095
642.0, 0.009278215967546232
643.0, 0.009883113400761761
644.0, 0.012811045911722758
645.0, 0.017826109638431082
646.0, 0.021759345147032375
647.0, 0.022704473901434288
648.0, 0.028712447527731107
649.0, 0.036298635214619186
650.0, 0.04341986368634068
651.0, 0.05038570967036004
652.0, 0.05879075241466623
653.0, 0.07106120518578185
654.0, 0.08014926120600216
655.0, 0.08631609035365746
656.0, 0.0899968776246478
657.0, 0.09030353535636065
658.0, 0.08691959077378329
659.0, 0.08606963390139105
660.0, 0.08290395002747936
661.0, 0.08271869200260197
662.0, 0.08366872801687948
663.0, 0.08245193194320195
664.0, 0.0822900211217286
665.0, 0.08138905406395323
666.0, 0.08056871300865028
667.0, 0.07561017406191707
668.0, 0.0662806288304567
669.0, 0.055800123587992884
670.0, 0.04882192045977898
671.0, 0.041058784936023926
672.0, 0.038082181130219
673.0, 0.02999508072039448
674.0, 0.020742121312726004
675.0, 0.019148402706285098
676.0, 0.013470582401031325
677.0, 0.010614207410608036
678.0, 0.006847693043250605
679.0, 0.003913592872647795
680.0, 0.0030366095275886056
681.0, 0.0030996948143444556
682.0, 0.0017854646316066924
683.0, 0.0009601434579841515
684.0, 0.0007721410459015448
685.0, 0.003334999228454297
686.0, 0.004902076268019618
687.0, 0.003606431285481377
688.0, 0.0033949026906496967
689.0, 0.0064848318042128655
690.0, 0.010299488750923711
691.0, 0.013927996065927104
692.0, 0.016384010050627673
693.0, 0.018866812154182722
694.0, 0.029690360062262458
695.0, 0.03522792794063311
696.0, 0.04138525102294184
697.0, 0.05312852920504226
698.0, 0.06751982839952239
699.0, 0.0798751589680813
700.0, 0.09709931668119819
701.0, 0.11973851057396691
702.0, 0.1437326695108182
703.0, 0.16847011959310898
704.0, 0.19681285565336665
705.0, 0.23075792013610918
706.0, 0.2679447730984448
707.0, 0.3091255103135222
708.0, 0.3452967717775989
709.0, 0.37553076384417633
710.0, 0.39779435746833375
711.0, 0.4058496138137695
712.0, 0.39734644582839984
713.0, 0.37043183310931327
714.0, 0.33629950154466115
715.0, 0.29844912118303596
716.0, 0.25886579165710055
717.0, 0.2212708044640392
718.0, 0.1860475998798451
719.0, 0.15453507026363816
720.0, 0.12442813257121958
721.0, 0.10039443627433879
722.0, 0.08372686832961614
723.0, 0.07004475600679742
724.0, 0.05563108290675092
725.0, 0.04440524226414951
726.0, 0.037610571602824924
727.0, 0.03260050652289574
728.0, 0.02721243295713262
729.0, 0.02179859464916362
730.0, 0.018080126138734862
731.0, 0.01367348248425503
732.0, 0.012347750177573657
733.0, 0.011661640237850218
734.0, 0.009027385365327099
735.0, 0.005250788007503253
736.0, 0.004114856813540557
737.0, 0.004483902279415737
738.0, 0.002378819303784037
739.0, 0.0018308420160835271
740.0, 0.001517880079402444
741.0, 0.0004596787376926765
742.0, 0.0010343752454201247
743.0, 0.0010992012732295242
744.0, 0.0011438007121299168
745.0, 0.002048387089561783
746.0, 0.0028271202396556814
747.0, 0.0030767785564824444
748.0, 0.004212366666414917
749.0, 0.0056498707977877165
750.0, 0.005532557332728977
751.0, 0.004654788545667962
752.0, 0.008091171703016766
753.0, 0.011912601057290306
754.0, 0.010221833673193521
755.0, 0.008288451687537437
756.0, 0.010599323060564327
757.0, 0.011353208449124538
758.0, 0.011341039367280507
759.0, 0.01072174658603295
760.0, 0.009128846075320366
761.0, 0.0075269990461793715
762.0, 0.006732729590805233
763.0, 0.005119209720389927
764.0, 0.0038414792582715665
765.0, 0.0026874070383428204
766.0, 0.0011763780843083661
767.0, 0.002134459038112448
768.0, 0.0019956139430646197
769.0, 0.0007333666828448395
770.0, 0.0015917057491155306
771.0, 0.003269864452206401
772.0, 0.003480420465966055
773.0, 0.0014420264491610186
774.0, 0.002144977061206361
775.0, 0.00040611673544640347
776.0, 0.00027329754102644926
777.0, 0.00048530457187435157
778.0, 0.0013917273391900414
779.0, 0.0019702632953185737
780.0, 0.0024755684688303795
781.0, 0.00354393655646209
782.0, 0.0033744588791779313
783.0, 0.005689253643219445
784.0, 0.00665655743486357
785.0, 0.006548321976471799
786.0, 0.0071942101942285746
787.0, 0.006452600318989909
788.0, 0.008395579303644343
789.0, 0.010124308684275442
790.0, 0.010430232500020847
791.0, 0.012801366334725194
792.0, 0.01559525080339926
793.0, 0.014938539008688637
794.0, 0.020394958152382903
795.0, 0.024691057589058707
796.0, 0.02706737956217614
797.0, 0.029092474932297593
798.0, 0.031848386138305686
799.0, 0.03522403910025063
800.0, 0.038375760417200165
801.0, 0.038854857092668796
802.0, 0.04061100293149133
803.0, 0.04291668663214073
804.0, 0.046065786833983186
805.0, 0.04920240823627259
806.0, 0.050712458941342596
807.0, 0.052086328546979865
808.0, 0.05735644270549109
809.0, 0.05731999268184077
810.0, 0.05593967573181181
811.0, 0.05499207375910675
812.0, 0.05366839771950762
813.0, 0.052698423802661605
814.0, 0.051649418753721275
815.0, 0.049381547260577634
816.0, 0.04948436182929798
817.0, 0.049818507236900865
818.0, 0.05104833669077908
819.0, 0.05447354838788645
820.0, 0.05672441829904856
821.0, 0.05643939480395338
822.0, 0.06069860887948182
823.0, 0.06467603892762609
824.0, 0.06701288321034697
825.0, 0.06921400914104307
826.0, 0.07211821245832352
827.0, 0.0731579771678407
828.0, 0.07669809237507007
829.0, 0.0764074143712342
830.0, 0.0737667724203309
831.0, 0.0695044123640417
832.0, 0.06514313091753328
833.0, 0.062251082489307656
834.0, 0.05577206304171635
835.0, 0.051568817098038976
836.0, 0.044016575124556354
837.0, 0.038110709624090036
838.0, 0.03437544618404957
839.0, 0.031819011746662636
840.0, 0.030870187088235173
841.0, 0.02694208061212689
842.0, 0.023812346052637903
843.0, 0.02093649305776057
844.0, 0.01924735245924448
845.0, 0.01796559816465058
846.0, 0.016387162402193397
847.0, 0.01551716686388333
848.0, 0.015402248029978643
849.0, 0.013919778685544863
850.0, 0.01151672554854194
851.0, 0.00996438456593826
852.0, 0.009670892467672297
853.0, 0.010202537337185975
854.0, 0.011070374082992995
855.0, 0.011348761655259512
856.0, 0.009466098133742364
857.0, 0.008344872855247433
858.0, 0.006632260237413362
859.0, 0.0066229831971796405
860.0, 0.006958524504466773
861.0, 0.003011771612474747
862.0, 0.004474796985239625
863.0, 0.0018325309343626727
864.0, 0.0009999037184927457
865.0, 0.0030347195741488604
866.0, 0.003822949343632373
867.0, 0.0026606283457797676
868.0, 0.0034440453906008214
869.0, 0.00449774291616741
870.0, 0.005682243449843799
871.0, 0.006201447278134747
872.0, 0.005632648084113158
873.0, 0.0052134362073801
874.0, 0.004381187836192387
875.0, 0.0023451948165461407
876.0, 0.0038408384245152303
877.0, 0.003395993793295739
878.0, 0.0041492961356190605
879.0, 0.002659270182766731
880.0, 0.00010998606335113278
881.0, 0.000710590586817427
882.0, 1.2713986229347412e-05
883.0, 0.00010597318491131184
884.0, 0.0005077373925284981
885.0, 0.0010980533411849133
886.0, 0.0015917342318249026
887.0, 0.0006140664252538505
888.0, 0.0005446221751220043
889.0, 0.0005771536473113176
890.0, 0.0008522685358698947
891.0, 0.0002746098924441071
892.0, 0.0009258402254696072
893.0, 0.001629401217975094
894.0, 0.0013933097887781516
895.0, 0.0007089724196163785
896.0, 0.0008241197765950377
897.0, 0.002662441493176245
898.0, 0.0016902790691882424
899.0, 0.0007643884602235619
900.0, 0.0014557083447135656
901.0, 0.0024643195782825572
902.0, 0.002465388843103238
903.0, 0.0023303401322644856
904.0, 0.0014012051276923805
905.0, 0.0025054504523510774
906.0, 0.002826081905568806
907.0, 0.0016471672114846986
908.0, 0.0010294001260658938
909.0, 0.0014297450498185255
910.0, 0.0014140993898658538
911.0, 0.0006735952382375457
912.0, 0.0025852769808944213
913.0, 0.0035340576550423894
914.0, 0.0010285368649230761
915.0, 0.0010580237302989007
916.0, 0.003709421546264862
917.0, 0.00452074422510341
918.0, 0.0022781705680181364
919.0, 0.0006447795206399164
920.0, 0.002083499882968135
921.0, 0.0020643337448612705
922.0, 0.0013900341894728231
923.0, 0.0011675891917178338
924.0, 0.0020969266836639066
925.0, 0.002392166830003378
926.0, 0.0006096618212076466
927.0, 0.0008680687727557342
928.0, 0.0030199889521176277
929.0, 0.0026952173150270975
930.0, 0.002766255724142811
931.0, 0.002475432468336544
932.0, 0.0013755140237102761
933.0, 0.0013631706741537351
934.0, 0.003006782604620781
935.0, 0.0015176122452181175
936.0, 0.0031766991396214228
937.0, 0.0025262568292632732
938.0, 0.0026755138096710637
939.0, 0.0017787889979034583
940.0, 0.0016907605180351802
941.0, 0.0036011403647770624
942.0, 0.0010331795574339104
943.0, 0.0038105859252965273
944.0, 0.0032281832119434657
945.0, 0.004465291306687163
946.0, 0.005056296577267569
947.0, 0.004862103870686073
948.0, 0.006095371395913219
949.0, 0.008027121650108174
950.0, 0.005723768525158267
951.0, 0.006111347022934783
952.0, 0.004706579286489415
953.0, 0.006420509944847024
954.0, 0.008467328179308245
955.0, 0.009497847000988296
956.0, 0.010986801475296694
957.0, 0.012270487196050709
958.0, 0.012486101221418607
959.0, 0.0115014387208455
960.0, 0.014117414245483286
961.0, 0.014292324301025653
962.0, 0.015973921056214535
963.0, 0.017736659579204093
964.0, 0.018248697344217565
965.0, 0.02279116715883207
966.0, 0.025643743799001504
967.0, 0.02827445003037781
968.0, 0.0315072478001412
969.0, 0.03432499158833731
970.0, 0.03909707171537688
971.0, 0.0442639550251412
972.0, 0.04762670751604415
973.0, 0.05092364996989897
974.0, 0.05354071206140814
975.0, 0.056681571942125204
976.0, 0.06051599167251757
977.0, 0.062145104020270826
978.0, 0.06265850676788658
979.0, 0.061178946404675597
980.0, 0.05915624165201943
981.0, 0.06005872541329662
982.0, 0.0563922077765597
983.0, 0.04919940323271476
984.0, 0.045082072498251254
985.0, 0.041981720070698655
986.0, 0.03885435098461436
987.0, 0.034811368252140915
988.0, 0.030941462762776394
989.0, 0.029568292861966952
990.0, 0.027406592549892535
991.0, 0.024650319644798906
992.0, 0.021439684365204468
993.0, 0.02012187979433118
994.0, 0.0185096551952447
995.0, 0.016936185051461956
996.0, 0.01665785736646547
997.0, 0.016136820271217527
998.0, 0.013850140457465507
999.0, 0.00888747525599871
1000.0, 0.007009333447448615
1001.0, 0.0073321796289097475
1002.0, 0.008593284582504475
1003.0, 0.009130201689188999
1004.0, 0.007878215833409861
1005.0, 0.00646407832270836
1006.0, 0.007988783769898223
1007.0, 0.008206632909571236
1008.0, 0.0066165049089592295
1009.0, 0.007470942231785764
1010.0, 0.004704594988995
1011.0, 0.005056765178081074
1012.0, 0.007625628935541133
1013.0, 0.006272766807057215
1014.0, 0.003785822047206686
1015.0, 0.001704335071148534
1016.0, 0.00041837907019974643
1017.0, 0.0019768063242231416
1018.0, 0.0044070274753995435
1019.0, 0.003925972778668144
1020.0, 0.0033026076451128593
1021.0, 0.0032320371336800333
1022.0, 0.0018401325548121528
1023.0, 0.0032742685502851012
1024.0, 0.002465748946727848
1025.0, 0.0035252540653731945
1026.0, 0.0020024642857366416
1027.0, 0.0016074460205659719
1028.0, 0.00019919789971899757
1029.0, 5.4647427749623774e-05
1030.0, 0.001979814167950872
1031.0, 0.0006574364528063835
1032.0, 0.0023080585529429384
1033.0, 0.001628748168725779
1034.0, 0.0010462707105789613
1035.0, 0.001483330105425829
1036.0, 0.0024934201876734893
1037.0, 0.003119585422169619
1038.0, 0.0023928571321555235
1039.0, 0.0028590900236479433
1040.0, 0.006136224728965162
1041.0, 0.002360398263909849
1042.0, 0.0038158919193140065
1043.0, 0.0014878749022995386
1044.0, 0.00016228232877224638
1045.0, 0.0006493102454241627
1046.0, 0.0016806550895329686
1047.0, 0.0025285027344381394
1048.0, 0.0015192876126185228
1049.0, 0.003347778372760673
1050.0, 0.002213300487665495
1051.0, 0.0003081504654989728
1052.0, 0.003708194285093277
1053.0, 0.0031094037116300498
1054.0, 0.0021769755820626544
1055.0, 0.0021402709397398143
1056.0, 0.0009018938417721531
1057.0, 0.0007692907932713476
1058.0, 0.0012881525604799488
1059.0, 0.001278982956278919
1060.0, 0.00043340606923041497
1061.0, 0.003975726856543089
1062.0, 0.002549362362559794
1063.0, 0.0019886949714812783
1064.0, 0.0031763772287571974
1065.0, 0.0024096000767436314
1066.0, 0.0030035356669078665
1067.0, 0.0037560156899616396
1068.0, 0.004024079602535663
1069.0, 0.0048063610195793255
1070.0, 0.0038692411089419707
1071.0, 0.00236721424180944
1072.0, 0.003037809236230301
1073.0, 0.003232551016020172
1074.0, 0.0018433080502447095
1075.0, 0.0020996147275553576
1076.0, 0.003889566303863864
1077.0, 0.005556089342499978
1078.0, 0.0038977300904018785
1079.0, 0.002265540355505755
1080.0, 0.0030068638154842745
1081.0, 0.0017913392867230568
1082.0, 0.0020256448797241608
1083.0, 0.004333716221525419
1084.0, 0.003785924505487045
1085.0, 0.0015127853293287845
1086.0, 0.0027600309494811
1087.0, 0.004343341747392239
1088.0, 0.00443247585013129
1089.0, 0.004867631067227184
1090.0, 0.004215225535059016
1091.0, 0.0035788496059748964
1092.0, 0.004797184847241272
1093.0, 0.005973488636305332
1094.0, 0.004988422753890494
1095.0, 0.004896387811845154
1096.0, 0.0068248477981041125
1097.0, 0.0051419092802055125
1098.0, 0.0041385548731129864
1099.0, 0.005545557228656237
1100.0, 0.005007265777172457
1101.0, 0.002995727642431047
1102.0, 0.003110052727224625
1103.0, 0.004073732626765558
1104.0, 0.002295594941847982
1105.0, 0.002187396676385892
1106.0, 0.003348966984128182
1107.0, 0.002310330888225032
1108.0, 0.0037703153746776437
1109.0, 0.003250775948217245
1110.0, 0.003438150984228638
1111.0, 0.0023857530653115136
1112.0, 0.0005083560136646918
1113.0, 0.0011899444891246527
1114.0, 0.0038801633625889583
1115.0, 0.0012488843697811085
1116.0, 0.002051043381599642
1117.0, 0.0013558558127917783
1118.0, 0.0002661738039652806
1119.0, 0.0016089828953629768
1120.0, 0.0020828462086088704
1121.0, 0.0017822405644112539
1122.0, 0.002030639023407554
1123.0, 3.7015967148254194e-05
1124.0, 0.002046826877111285
1125.0, 0.0036269223424679523
1126.0, 0.0021759286384617077
1127.0, 0.0017618090073035888
1128.0, 0.0008609326211885619
1129.0, 0.001054903260682036
1130.0, 0.0019444509688042975
1131.0, 0.0023158872290583348
1132.0, 0.0013406602553046828
1133.0, 0.003359227549553883
1134.0, 0.004704291133508044
1135.0, 0.0018729508037623466
1136.0, 0.002563964464309774
1137.0, 0.002852361780095447
1138.0, 0.0013096577494906417
1139.0, 0.002823776598334996
1140.0, 0.005131061909407321
1141.0, 0.004971926738747835
1142.0, 0.004256328221179182
1143.0, 0.0038622736500853786
1144.0, 0.000898916114435804
1145.0, 0.0015285301496927547
1146.0, 0.0035217016968001297
1147.0, 0.005159590402964842
1148.0, 0.0026106509414550874
1149.0, 0.0024836052059687783
1150.0, 0.0026222903447092214
1151.0, 0.0033783538287885566
1152.0, 0.002826017134474764
1153.0, 0.001107158727104273
1154.0, 0.0018225536979780276
1155.0, 0.0011364316289807265
1156.0, 0.002317274849443277
1157.0, 0.0022114515277661373
1158.0, 0.0005808564879039569
1159.0, 0.0010717759702316022
1160.0, 0.0013259679428873044
1161.0, 0.00012145659054167692
1162.0, 3.894465226147007e-05
1163.0, 0.0011307476097865163
1164.0, 0.003058903596175449
1165.0, 0.0016141066570004988
1166.0, 0.0036226056493656855
1167.0, 0.002110494186395782
1168.0, 0.0013046149295365512
1169.0, 0.0002528315255213434
1170.0, 0.0007199925570791188
1171.0, 0.001442231746757055
1172.0, 0.0020823575096042806
1173.0, 0.0023587907719041777
1174.0, 0.001109543719901968
1175.0, 0.0007978009216001567
1176.0, 0.0030834558437905645
1177.0, 0.0015590279326368733
1178.0, 0.0029071503052024834
1179.0, 0.0022884288102181186
1180.0, 0.004715585533198499
1181.0, 0.004488038447849303
1182.0, 0.0023202665460965604
1183.0, 0.0011246234803542442
1184.0, 0.0014931671275038873
1185.0, 0.0031987298827207957
1186.0, 0.004608254336897458
1187.0, 0.003416137792372495
1188.0, 0.0025686868089713683
1189.0, 0.0033858148206838447
1190.0, 0.005332811182857909
1191.0, 0.004381191596306457
1192.0, 0.007289470800551515
1193.0, 0.006959806436113665
1194.0, 0.004422304735820028
1195.0, 0.004433752292758165
1196.0, 0.00436821455562601
1197.0, 0.003477447672549179
1198.0, 0.002553613203134048
1199.0, 0.003029966620360136
1200.0, 0.002177487523398545
1201.0, 0.0014551722233832902
1202.0, 0.0010969715597163195
1203.0, 0.006181297797031508
1204.0, 0.006393385866966273
1205.0, 0.0026347603660221777
1206.0, 0.001418706807628896
1207.0, 0.0028335029039011543
1208.0, 0.004108914039738447
1209.0, 0.0022614166873140894
1210.0, 0.002074413151258873
1211.0, 0.0027897412061352427
1212.0, 0.002498050574348983
1213.0, 0.0030089932059979576
1214.0, 0.0015264338229671773
1215.0, 0.0015168124733831879
1216.0, 0.002456669079088551
1217.0, 0.002286251910345455
1218.0, 0.0011395218129466734
1219.0, 8.187387830679643e-05
1220.0, 0.00036996851807329816
1221.0, 0.0015318949974926289
1222.0, 0.0006763784683393365
1223.0, 0.0031646865713051133
1224.0, 0.004940593114703943
1225.0, 0.004702713148930111
1226.0, 0.00431504182738808
1227.0, 0.0018780842079376247
1228.0, 0.00030380715835232866
1229.0, 0.0016097544829795159
1230.0, 0.00402747276874425
1231.0, 0.003171649431950282
1232.0, 0.0026965079235152217
1233.0, 0.00422626283266872
1234.0, 0.002004674109803268
1235.0, 0.0047329716219950135
1236.0, 0.0051625197872733905
1237.0, 0.0036221264630888436
1238.0, 0.003777933778039071
1239.0, 0.003001571472237133
1240.0, 0.001358177722329016
1241.0, 0.0023754508217107987
1242.0, 0.004303521870796502
1243.0, 0.0029940159818632453
1244.0, 0.001180716831468321
1245.0, 0.003946832726595076
1246.0, 0.0017117904335272075
1247.0, 0.0041832923161123714
1248.0, 0.004178783697565772
1249.0, 0.005047870375669124
1250.0, 0.003921447789576311
1251.0, 0.0030185551644852974
1252.0, 0.0030359716925793443
1253.0, 0.0023584873291896367
1254.0, 0.003762223629020211
1255.0, 0.00543501228994203
1256.0, 0.0028671935740464853
1257.0, 0.0013154556329695126
1258.0, 0.0022364242154066967
1259.0, 0.0020015644560011873
1260.0, 0.004607173354172407
1261.0, 0.005268156861245075
1262.0, 0.0047728464164423405
1263.0, 0.003402925267418169
1264.0, 0.0018441079871359697
1265.0, 0.0007950426437516845
1266.0, 0.0016880974406672379
1267.0, 0.003717727876300118
1268.0, 0.0008691969946023911
1269.0, 0.0015380407659686822
1270.0, 0.0013199316258102902
1271.0, 0.00034072928222000275
1272.0, 0.0032107565864970054
1273.0, 0.0025528974167308093
1274.0, 0.0009775907337536878
1275.0, 0.00012193107889726452
1276.0, 0.0025526626566887327
1277.0, 0.0042364211114127035
1278.0, 0.004567907316964876
1279.0, 0.00297694311226944
1280.0, 0.0005364861158339416
1281.0, 0.0021919202028383156
1282.0, 0.0047029971730519465
1283.0, 0.002991428306988223
1284.0, 0.0061687056214597595
1285.0, 0.0052869808786454205
1286.0, 0.00485427554830015
1287.0, 0.005492898802670863
1288.0, 0.006643071678275823
1289.0, 0.0038406340278989443
1290.0, 0.0028418072812140508
1291.0, 0.0024992596161234905
1292.0, 0.003041757409838802
1293.0, 0.0038948197533295553
1294.0, 0.0030245771239102437
1295.0, 0.0028142034110485267
1296.0, 0.004064836593249741
1297.0, 0.003266033331572329
1298.0, 0.002435394992252796
1299.0, 0.007018959532943455
1300.0, 0.005097524637707641
1301.0, 0.003166094966278718
1302.0, 0.00012114216655963948
1303.0, 0.003888868506516868
1304.0, 0.003811128230392295
1305.0, 0.003391492649963181
1306.0, 0.0009982736834743219
1307, 0.0
1308, 0.0
1309, 0.0
1310, 0.0
1311, 0.0
1312, 0.0
1313, 0.0
1314, 0.0
1315, 0.0
1316, 0.0
1317, 0.0
1318, 0.0
1319, 0.0
1320, 0.0
1321, 0.0
1322, 0.0
1323, 0.0
1324, 0.0
1325, 0.0
1326, 0.0
1327, 0.0
1328, 0.0
1329, 0.0
1330, 0.0
1331, 0.0
1332, 0.0
1333, 0.0
1334, 0.0
1335, 0.0
1336, 0.0
1337, 0.0
1338, 0.0
1339, 0.0
1340, 0.0
1341, 0.0
1342, 0.0
1343, 0.0
1344, 0.0
1345, 0.0
1346, 0.0
1347, 0.0
1348, 0.0
1349, 0.0
1350, 0.0
1351, 0.0
1352, 0.0
1353, 0.0
1354, 0.0
1355, 0.0
1356, 0.0
1357, 0.0
1358, 0.0
1359, 0.0
1360, 0.0
1361, 0.0
1362, 0.0
1363, 0.0
1364, 0.0
1365, 0.0
1366, 0.0
1367, 0.0
1368, 0.0
1369, 0.0
1370, 0.0
1371, 0.0
1372, 0.0
1373, 0.0
1374, 0.0
1375, 0.0
1376, 0.0
1377, 0.0
1378, 0.0
1379, 0.0
1380, 0.0
1381, 0.0
1382, 0.0
1383, 0.0
1384, 0.0
1385, 0.0
1386, 0.0
1387, 0.0
1388, 0.0
1389, 0.0
1390, 0.0
1391, 0.0
1392, 0.0
1393, 0.0
1394, 0.0
1395, 0.0
1396, 0.0
1397, 0.0
1398, 0.0
1399, 0.0
1400, 0.0
1401, 0.0
1402, 0.0
1403, 0.0
1404, 0.0
1405, 0.0
1406, 0.0
1407, 0.0
1408, 0.0
1409, 0.0
1410, 0.0
1411, 0.0
1412, 0.0
1413, 0.0
1414, 0.0
1415, 0.0
1416, 0.0
1417, 0.0
1418, 0.0
1419, 0.0
1420, 0.0
1421, 0.0
1422, 0.0
1423, 0.0
1424, 0.0
1425, 0.0
1426, 0.0
1427, 0.0
1428, 0.0
1429, 0.0
1430, 0.0
1431, 0.0
1432, 0.0
1433, 0.0
1434, 0.0
1435, 0.0
1436, 0.0
1437, 0.0
1438, 0.0
1439, 0.0
1440, 0.0
1441, 0.0
1442, 0.0
1443, 0.0
1444, 0.0
1445, 0.0
1446, 0.0
1447, 0.0
1448, 0.0
1449, 0.0
1450, 0.0
1451, 0.0
1452, 0.0
1453, 0.0
1454, 0.0
1455, 0.0
1456, 0.0
1457, 0.0
1458, 0.0
1459, 0.0
1460, 0.0
1461, 0.0
1462, 0.0
1463, 0.0
1464, 0.0
1465, 0.0
1466, 0.0
1467, 0.0
1468, 0.0
1469, 0.0
1470, 0.0
1471, 0.0
1472, 0.0
1473, 0.0
1474, 0.0
1475, 0.0
1476, 0.0
1477, 0.0
1478, 0.0
1479, 0.0
1480, 0.0
1481, 0.0
1482, 0.0
1483, 0.0
1484, 0.0
1485, 0.0
1486, 0.0
1487, 0.0
1488, 0.0
1489, 0.0
1490, 0.0
1491, 0.0
1492, 0.0
1493, 0.0
1494, 0.0
1495, 0.0
1496, 0.0
1497, 0.0
1498, 0.0
1499, 0.0
1500, 0.0
1501, 0.0
1502, 0.0
1503, 0.0
1504, 0.0
1505, 0.0
1506, 0.0
1507, 0.0
1508, 0.0
1509, 0.0
1510, 0.0
1511, 0.0
1512, 0.0
1513, 0.0
1514, 0.0
1515, 0.0
1516, 0.0
1517, 0.0
1518, 0.0
1519, 0.0
1520, 0.0
1521, 0.0
1522, 0.0
1523, 0.0
1524, 0.0
1525, 0.0
1526, 0.0
1527, 0.0
1528, 0.0
1529, 0.0
1530, 0.0
1531, 0.0
1532, 0.0
1533, 0.0
1534, 0.0
1535, 0.0
1536, 0.0
1537, 0.0
1538, 0.0
1539, 0.0
1540, 0.0
1541, 0.0
1542, 0.0
1543, 0.0
1544, 0.0
1545, 0.0
1546, 0.0
1547, 0.0
1548, 0.0
1549, 0.0
1550, 0.0
1551, 0.0
1552, 0.0
1553, 0.0
1554, 0.0
1555, 0.0
1556, 0.0
1557, 0.0
1558, 0.0
1559, 0.0
1560, 0.0
1561, 0.0
1562, 0.0
1563, 0.0
1564, 0.0
1565, 0.0
1566, 0.0
1567, 0.0
1568, 0.0
1569, 0.0
1570, 0.0
1571, 0.0
1572, 0.0
1573, 0.0
1574, 0.0
1575, 0.0
1576, 0.0
1577, 0.0
1578, 0.0
1579, 0.0
1580, 0.0
1581, 0.0
1582, 0.0
1583, 0.0
1584, 0.0
1585, 0.0
1586, 0.0
1587, 0.0
1588, 0.0
1589, 0.0
1590, 0.0
1591, 0.0
1592, 0.0
1593, 0.0
1594, 0.0
1595, 0.0
1596, 0.0
1597, 0.0
1598, 0.0
1599, 0.0
