30, 0.0
31, 0.0
32, 0.0
33, 0.0
34, 0.0
35, 0.0
36, 0.0
37, 0.0
38, 0.0
39, 0.0
40, 0.0
41, 0.0
42, 0.0
43, 0.0
44, 0.0
45, 0.0
46, 0.0
47, 0.0
48, 0.0
49, 0.0
50, 0.0
51, 0.0
52, 0.0
53, 0.0
54, 0.0
55, 0.0
56, 0.0
57, 0.0
58, 0.0
59, 0.0
60, 0.0
61, 0.0
62, 0.0
63, 0.0
64, 0.0
65, 0.0
66, 0.0
67, 0.0
68, 0.0
69, 0.0
70, 0.0
71, 0.0
72, 0.0
73, 0.0
74, 0.0
75, 0.0
76, 0.0
77, 0.0
78, 0.0
79, 0.0
80, 0.0
81, 0.0
82, 0.0
83, 0.0
84, 0.0
85, 0.0
86, 0.0
87, 0.0
88, 0.0
89, 0.0
90, 0.0
91, 0.0
92, 0.0
93, 0.0
94, 0.0
95, 0.0
96, 0.0
97, 0.0
98, 0.0
99, 0.0
100, 0.0
101, 0.0
102, 0.0
103, 0.0
104, 0.0
105, 0.0
106, 0.0
107, 0.0
108, 0.0
109, 0.0
110, 0.0
111, 0.0
112, 0.0
113, 0.0
114, 0.0
115, 0.0
116, 0.0
117, 0.0
118, 0.0
119, 0.0
120, 0.0
121, 0.0
122, 0.0
123, 0.0
124, 0.0
125, 0.0
126, 0.0
127, 0.0
128, 0.0
129, 0.0
130, 0.0
131, 0.0
132, 0.0
133, 0.0
134, 0.0
135, 0.0
136, 0.0
137, 0.0
138, 0.0
139, 0.0
140, 0.0
141, 0.0
142, 0.0
143, 0.0
144, 0.0
145.0, 0.002934986643692347
146.0, 0.0035813815880574133
147.0, 0.031193693496261526
148.0, 0.01724379700359916
149.0, 0.018869549237980114
150.0, 0.03224584241278632
151.0, 0.04476482952449154
152.0, 0.06901223689370853
153.0, 0.08372418631351207
154.0, 0.10406032449896269
155.0, 0.1184499939541533
156.0, 0.08392462853095631
157.0, 0.06438227271520777
158.0, 0.06223487082432418
159.0, 0.057807079869966464
160.0, 0.040026965227260014
161.0, 0.06427647534079299
162.0, 0.06949587516276101
163.0, 0.06466697798184996
164.0, 0.06463796334214213
165.0, 0.05120585069065351
166.0, 0.03459647993149216
167.0, 0.026045102565583664
168.0, 0.02625041771879604
169.0, 0.025840802977831583
170.0, 0.015933879355160815
171.0, 0.010775954846669277
172.0, 0.016661723000719254
173.0, 0.023920871328128833
174.0, 0.022675748009079157
175.0, 0.024225645480869737
176.0, 0.028775154024431555
177.0, 0.036664767510727274
178.0, 0.033108229764839285
179.0, 0.031319646273672196
180.0, 0.02494140402465853
181.0, 0.015521002798880352
182.0, 0.018178352248034213
183.0, 0.02085658250320327
184.0, 0.029476294078382217
185.0, 0.04124648849480446
186.0, 0.04769868100159888
187.0, 0.04271945476446694
188.0, 0.042703461765124816
189.0, 0.03781261021207225
190.0, 0.025290179922833105
191.0, 0.025628112971466794
192.0, 0.031464666206036426
193.0, 0.03217947032795458
194.0, 0.02571630578031849
195.0, 0.016809244134894163
196.0, 0.008600192316590625
197.0, 0.0018880665606505267
198.0, 0.009452879940734429
199.0, 0.014039090075026
200.0, 0.010676755083872665
201.0, 0.006733083850710701
202.0, 0.001698647121574211
203.0, 0.004192763952754975
204.0, 0.005971829191391576
205.0, 0.011485269119254814
206.0, 0.010211705893476135
207.0, 0.0042052234250872745
208.0, 0.0035329816500344396
209.0, 0.010620421718952701
210.0, 0.010681384328227272
211.0, 0.013348135844200327
212.0, 0.02134457828651115
213.0, 0.02230831752584087
214.0, 0.006951762570058317
215.0, 0.007117800326409348
216.0, 0.021889344836856568
217.0, 0.031208264241524262
218.0, 0.0350598494100026
219.0, 0.040889803442581064
220.0, 0.03819707829385145
221.0, 0.031704463597233175
222.0, 0.056588987662031215
223.0, 0.050085625094946525
224.0, 0.0474154845925954
225.0, 0.05476114552824319
226.0, 0.052238353576974005
227.0, 0.059091347193920216
228.0, 0.053612568036776685
229.0, 0.04813378021119255
230.0, 0.052414662171721416
231.0, 0.04863081150392566
232.0, 0.04387675178538266
233.0, 0.04622443972926359
234.0, 0.05020623883535327
235.0, 0.04652062945342367
236.0, 0.0593201179550634
237.0, 0.062440544179736476
238.0, 0.060166331473139836
239.0, 0.060743936215503176
240.0, 0.05987413874197709
241.0, 0.060721337204424124
242.0, 0.05249730649657396
243.0, 0.047769776412937656
244.0, 0.06382512377146367
245.0, 0.05149812691879096
246.0, 0.055141286661661924
247.0, 0.061877851142612336
248.0, 0.05705091681018878
249.0, 0.05501638982965397
250.0, 0.043667809013104665
251.0, 0.03855915523933661
252.0, 0.047101750457890265
253.0, 0.06656921907223606
254.0, 0.05689153644749803
255.0, 0.05487594992661292
256.0, 0.05455480561731269
257.0, 0.04954046403851097
258.0, 0.04735169253561537
259.0, 0.049590975215047746
260.0, 0.05119037759801691
261.0, 0.0479493089722452
262.0, 0.04185084793544564
263.0, 0.04885948427769277
264.0, 0.052659575368444164
265.0, 0.045619814995941615
266.0, 0.03988859912236393
267.0, 0.05840084144921097
268.0, 0.06721183705568129
269.0, 0.06416079807655452
270.0, 0.06184357900814148
271.0, 0.06601774375423343
272.0, 0.058638633681504036
273.0, 0.04816763926363852
274.0, 0.038797007794449195
275.0, 0.0398217920908537
276.0, 0.056316115700693004
277.0, 0.059322842532934135
278.0, 0.058483554531718454
279.0, 0.06112162760555074
280.0, 0.06707486315396337
281.0, 0.06986690013039197
282.0, 0.08070079741450549
283.0, 0.09382407370496403
284.0, 0.10363854407953149
285.0, 0.10330230077556159
286.0, 0.08410808806611109
287.0, 0.08836274464346315
288.0, 0.09395029288602601
289.0, 0.09587210236077673
290.0, 0.10902734802215776
291.0, 0.09731488407772768
292.0, 0.10139545209336814
293.0, 0.10668946719434243
294.0, 0.09871479619317884
295.0, 0.0971917871155698
296.0, 0.08553517977095947
297.0, 0.08470081485671786
298.0, 0.09260050546735636
299.0, 0.09542949019319429
300.0, 0.09568439253774408
301.0, 0.08619236000678261
302.0, 0.0812585278896406
303.0, 0.07971580563286688
304.0, 0.07178253853021957
305.0, 0.0775283352702627
306.0, 0.0730187436677433
307.0, 0.06656018268306883
308.0, 0.06686208050475317
309.0, 0.06946188429179682
310.0, 0.08908056226760751
311.0, 0.08052719793295478
312.0, 0.0654466164350778
313.0, 0.07245443433387094
314.0, 0.07400389444445074
315.0, 0.07702036641719805
316.0, 0.07747221052506002
317.0, 0.07749985390354616
318.0, 0.08015290025938807
319.0, 0.07407362844732339
320.0, 0.06924477965900441
321.0, 0.058130111563558205
322.0, 0.04728465663343234
323.0, 0.057766325070616985
324.0, 0.060030648604741305
325.0, 0.04843322384574968
326.0, 0.03990744243623488
327.0, 0.041087742826253555
328.0, 0.033441218975408395
329.0, 0.042619492786986984
330.0, 0.04841250779027616
331.0, 0.04025745987518854
332.0, 0.0247001579534681
333.0, 0.03125994700665457
334.0, 0.034485110126133166
335.0, 0.032654350259431746
336.0, 0.023123757187562897
337.0, 0.005730442718114897
338.0, 0.005976430457736151
339.0, 0.00490404035257894
340.0, 0.015094964909994152
341.0, 0.03301242028451653
342.0, 0.029851068984246047
343.0, 0.009939337613828383
344.0, 0.005869320686034726
345.0, 0.004466495656060716
346.0, 0.026926756148414735
347.0, 0.03812330354937276
348.0, 0.03410723071825981
349.0, 0.02907308845471955
350.0, 0.029893130372832248
351.0, 0.03486582457085501
352.0, 0.032010166380929295
353.0, 0.030928967307580976
354.0, 0.03327448116381613
355.0, 0.030544381667226585
356.0, 0.01955630083520671
357.0, 0.012688037518067923
358.0, 0.007803614784261923
359.0, 0.014363968973501548
360.0, 0.024230594934034486
361.0, 0.025420752052162245
362.0, 0.021103082760355003
363.0, 0.02977292652252673
364.0, 0.021645015993729155
365.0, 0.003962598254746561
366.0, 0.002562074470468
367.0, 0.0046669192130915855
368.0, 0.00540280172755369
369.0, 0.0027403433172058906
370.0, 0.0006650111747991718
371.0, 0.0038580108551350242
372.0, 0.000419613121560185
373.0, 0.0047872678429129855
374.0, 0.010238337759785327
375.0, 0.012714169550067595
376.0, 0.01630024221398943
377.0, 0.011049006371070189
378.0, 0.003483010211188255
379.0, 0.005625596899499953
380.0, 0.003706213509790119
381.0, 0.001343791983170608
382.0, 0.0034517461384277197
383.0, 0.021064095598087234
384.0, 0.019469403788394225
385.0, 0.004005785238205349
386.0, 0.0064540598532756305
387.0, 0.010022397298560914
388.0, 0.020109611521230548
389.0, 0.01615374616654729
390.0, 0.00650656697975087
391.0, 0.006150244378516286
392.0, 0.01480772098825394
393.0, 0.009555487175660465
394.0, 0.0038125756108844484
395.0, 0.003743935260784717
396.0, 0.01583900242158212
397.0, 0.003593462515212971
398.0, 0.002595760067862864
399.0, 0.002345355471952827
400.0, 0.010247133542371358
401.0, 0.0038670068974065277
402.0, 0.015600086017153108
403.0, 0.007995193858750218
404.0, 0.0016391158302340805
405.0, 0.0024436418893429017
406.0, 0.009908928229577502
407.0, 0.0035209204601240112
408.0, 0.015219364689345592
409.0, 0.0185109184341042
410.0, 0.011267603285687112
411.0, 0.019893244067559924
412.0, 0.03406560376668498
413.0, 0.03560618924599367
414.0, 0.02800125424108245
415.0, 0.027662449055637594
416.0, 0.04798340677671204
417.0, 0.036413051945801425
418.0, 0.021282310629551878
419.0, 0.02934835245215603
420.0, 0.05546596614271253
421.0, 0.06710924122810047
422.0, 0.05713841601663108
423.0, 0.0555531398049105
424.0, 0.05831526753927466
425.0, 0.06061631325191009
426.0, 0.06778576134577619
427.0, 0.05363420990145486
428.0, 0.0587831781342128
429.0, 0.06945040557413058
430.0, 0.07605849369126763
431.0, 0.08653537959126421
432.0, 0.08204743296985223
433.0, 0.07146079242780831
434.0, 0.0791278620999378
435.0, 0.09898752597798278
436.0, 0.10115192775133458
437.0, 0.0928430068670277
438.0, 0.08781540922736727
439.0, 0.0912902891558388
440.0, 0.10250994121954483
441.0, 0.114682562241595
442.0, 0.11280333950672858
443.0, 0.1285630065115759
444.0, 0.13693480426082508
445.0, 0.13323054903791934
446.0, 0.12868890243305028
447.0, 0.1374493025570888
448.0, 0.1421541874823598
449.0, 0.15723410205104194
450.0, 0.16520985307876712
451.0, 0.15769817144134857
452.0, 0.1825719210390801
453.0, 0.19743562475533927
454.0, 0.20475893989256821
455.0, 0.21520621715603858
456.0, 0.22426385208572017
457.0, 0.21587471399854322
458.0, 0.2337817626577788
459.0, 0.23759052352134505
460.0, 0.23538907298709502
461.0, 0.24345191909745523
462.0, 0.2475465859439597
463.0, 0.22680641476082122
464.0, 0.2084509556329621
465.0, 0.19304461635418152
466.0, 0.1754431707352603
467.0, 0.1579255290204469
468.0, 0.1452803309922777
469.0, 0.11675486602273882
470.0, 0.1000249943873313
471.0, 0.0894718950384081
472.0, 0.06514737138733877
473.0, 0.057514951795027046
474.0, 0.05664633276125676
475.0, 0.04877101337021897
476.0, 0.03109163769423889
477.0, 0.013573302305238977
478.0, 0.00943837907479975
479.0, 0.014206900075862913
480.0, 0.016604450486353728
481.0, 0.00936025838834803
482.0, 6.667992268929307e-05
483.0, 0.007158776340889641
484.0, 0.012990023360143807
485.0, 0.013798785920777486
486.0, 0.005588481898579339
487.0, 0.005683628421705476
488.0, 0.023146996756207013
489.0, 0.00404113734264958
490.0, 0.014824395867218888
491.0, 0.018860466445576797
492.0, 0.008888972127649464
493.0, 0.023346896751418215
494.0, 0.0258973274285778
495.0, 0.016576336789967387
496.0, 0.021196490366724104
497.0, 0.028311504893049618
498.0, 0.02865915612441029
499.0, 0.03948778404150763
500.0, 0.044740074791044894
501.0, 0.05794613889296599
502.0, 0.07400165523910396
503.0, 0.08166536089285871
504.0, 0.07988431564875263
505.0, 0.0952840362776489
506.0, 0.12523378443862926
507.0, 0.14371421434829795
508.0, 0.15012374980248824
509.0, 0.15869013468792204
510.0, 0.17512629904810809
511.0, 0.21364852569312207
512.0, 0.23347365369631634
513.0, 0.2568493722505328
514.0, 0.2980822270383969
515.0, 0.327908286011116
516.0, 0.36584188036223647
517.0, 0.3871396363863027
518.0, 0.4213798839129603
519.0, 0.47276214383523096
520.0, 0.5204897046086897
521.0, 0.5763557865520911
522.0, 0.6233412160850481
523.0, 0.6904469550195919
524.0, 0.7468311053136353
525.0, 0.7751189939793443
526.0, 0.826300211222233
527.0, 0.8642757447720084
528.0, 0.8979743916580397
529.0, 0.9349061833488791
530.0, 0.9651420853347062
531.0, 0.9751842757270951
532.0, 0.9732188275704566
533.0, 0.9923259143148886
534.0, 0.9943655525738134
535.0, 0.9779141348857192
536.0, 0.9570581309944621
537.0, 0.9257027319176818
538.0, 0.8811276441919069
539.0, 0.8379577806486902
540.0, 0.7793540143518576
541.0, 0.7007046721275614
542.0, 0.6221722271967313
543.0, 0.554922390486757
544.0, 0.4879381824735064
545.0, 0.42264677938793155
546.0, 0.3654381639843356
547.0, 0.31586876238360456
548.0, 0.2655878765405591
549.0, 0.23806005274793576
550.0, 0.20593188615432492
551.0, 0.1770102182204055
552.0, 0.15467405186011648
553.0, 0.13238578296954162
554.0, 0.11409963822346364
555.0, 0.08979475806029442
556.0, 0.08787001940737463
557.0, 0.08146957185016632
558.0, 0.05617177801625063
559.0, 0.04900493794564456
560.0, 0.04207045214074777
561.0, 0.03444736805098208
562.0, 0.04461019467067413
563.0, 0.048049358475527895
564.0, 0.018924082455314642
565.0, 0.01935151316683774
566.0, 0.009517362541078185
567.0, 0.017497018323715665
568.0, 0.028193520218240703
569.0, 0.01867049974844049
570.0, 0.0015781725950973996
571.0, 0.01945891225420043
572.0, 0.030819781477842145
573.0, 0.014065184614540937
574.0, 0.0027543591333631483
575.0, 0.00014957798834592877
576.0, 0.0016453560758472436
577.0, 0.007483318433784837
578.0, 0.0006177981131862285
579.0, 0.002243784077176969
580.0, 0.006571782313152068
581.0, 0.011122022081499133
582.0, 0.004535808003731522
583.0, 0.009171764741017293
584.0, 0.011305052471433616
585.0, 0.0034493073899322145
586.0, 0.007877394465529472
587.0, 0.023172914099230675
588.0, 0.01896896350890151
589.0, 0.013774229527633882
590.0, 0.02413021227814162
591.0, 0.0247199244707459
592.0, 0.005853192053227438
593.0, 0.013091340972516794
594.0, 0.012640778536000732
595.0, 0.005207069620494209
596.0, 0.01181563601091254
597.0, 0.01629069307046383
598.0, 0.003836853858040866
599.0, 0.010635254358625798
600.0, 0.0015614847812063033
601.0, 0.005775228433321412
602.0, 0.010019990189146434
603.0, 0.007754798866299649
604.0, 0.0077412923188228035
605.0, 0.008814870508726067
606.0, 0.009637475725424763
607.0, 0.0141367054078944
608.0, 0.02005780090983494
609.0, 0.019463776810951718
610.0, 0.019056277334578885
611.0, 0.03309326695278464
612.0, 0.014535198010339317
613.0, 0.008877832961190402
614.0, 0.010689590634916545
615.0, 0.005071642121679001
616.0, 0.007025447263882808
617.0, 0.016399354462345653
618.0, 0.0041387894344298405
619.0, 0.004190408523934514
620.0, 0.0015212210528482524
621.0, 0.010621081954778849
622.0, 0.014424047725349406
623.0, 0.011943460433248388
624.0, 0.002854317031551925
625.0, 0.0013340793238520573
626.0, 0.008513610734228742
627.0, 0.01496541413891935
628.0, 0.01002155399163055
629.0, 0.011475753004636446
630.0, 0.010636678159271867
631.0, 0.027685460470551006
632.0, 0.03593813880490085
633.0, 0.018016069609993118
634.0, 0.029993815711360852
635.0, 0.02069092152097725
636.0, 0.018289673729696605
637.0, 0.041320698522864976
638.0, 0.04862007210246586
639.0, 0.01803837618143229
640.0, 0.02603781090798879
641.0, 0.04328485254478215
642.0, 0.039371154985997255
643.0, 0.044058505064528145
644.0, 0.05121755930811718
645.0, 0.03752747793184248
646.0, 0.02917003481540204
647.0, 0.04250657136629329
648.0, 0.03608609383643989
649.0, 0.02874972976396346
650.0, 0.0320348932687727
651.0, 0.0354024038624048
652.0, 0.038986582684784825
653.0, 0.05367379331936223
654.0, 0.06492316004679943
655.0, 0.06298128132461767
656.0, 0.05276722060847136
657.0, 0.04425993867771842
658.0, 0.043761569179001744
659.0, 0.04136929901337923
660.0, 0.045005664354083194
661.0, 0.0398452017645068
662.0, 0.03669314916420361
663.0, 0.04786179164233744
664.0, 0.04613206111513831
665.0, 0.0556483822197331
666.0, 0.07036413592551115
667.0, 0.06931855155508669
668.0, 0.061645250347973954
669.0, 0.062072972192276074
670.0, 0.062350663271665455
671.0, 0.0607797982108449
672.0, 0.05112029966692335
673.0, 0.05790652182178646
674.0, 0.06279102398609203
675.0, 0.0515689469787136
676.0, 0.054642614491219224
677.0, 0.07965590580896054
678.0, 0.0604530877765936
679.0, 0.04351720135647864
680.0, 0.05537112371601148
681.0, 0.0750371983931959
682.0, 0.07396528857541844
683.0, 0.06512825796047315
684.0, 0.05432325512944663
685.0, 0.05891980462251798
686.0, 0.05687917810421605
687.0, 0.044579442193560345
688.0, 0.04518219187702899
689.0, 0.05551065367544953
690.0, 0.0539398079124014
691.0, 0.048542224433596216
692.0, 0.04222449489152228
693.0, 0.03299723445790226
694.0, 0.026482833402135187
695.0, 0.03607973113068441
696.0, 0.04517511578075867
697.0, 0.03910611277036945
698.0, 0.03365925244153626
699.0, 0.024263882106911182
700.0, 0.014499518339630355
701.0, 0.03397871495486283
702.0, 0.02696501378756718
703.0, 0.018958004021591094
704.0, 0.01532178749307308
705.0, 0.01623316083865927
706.0, 0.024626016271988235
707.0, 0.03653000612107518
708.0, 0.03432333485999367
709.0, 0.03565023464589644
710.0, 0.042925966416535365
711.0, 0.036804201787846644
712.0, 0.023827373722777316
713.0, 0.026397126416338575
714.0, 0.033717450763127
715.0, 0.015141968813129838
716.0, 0.0240514946118387
717.0, 0.031199985611840553
718.0, 0.02783520416105839
719.0, 0.027586768191612897
720.0, 0.029438500292892734
721.0, 0.032865372027154734
722.0, 0.027706162191466467
723.0, 0.02101476648871041
724.0, 0.02589186605210499
725.0, 0.03499368848859944
726.0, 0.029444310761805655
727.0, 0.022472444828569287
728.0, 0.013665961173507869
729.0, 0.01607119581522865
730.0, 0.024030048477780376
731.0, 0.025425859275289515
732.0, 0.020284843132934837
733.0, 0.022544103402050233
734.0, 0.024648740421109476
735.0, 0.021834893687684112
736.0, 0.023911866284236822
737.0, 0.02383585732071947
738.0, 0.01809642753438668
739.0, 0.015902612262191453
740.0, 0.01581416249700791
741.0, 0.009207096687103912
742.0, 0.006570718154902537
743.0, 0.020449535878750723
744.0, 0.012491367270328632
745.0, 0.023796554910113683
746.0, 0.010584863022306556
747.0, 0.00750377972668616
748.0, 0.004981528852262846
749.0, 0.00972881863215358
750.0, 0.008932187285039358
751.0, 0.013320547435668968
752.0, 0.004799233398580973
753.0, 0.021578352529920148
754.0, 0.02005815392364239
755.0, 0.014665651781262815
756.0, 0.009711253890992914
757.0, 0.005781638528078009
758.0, 0.0040655844713183035
759.0, 0.012486286407712167
760.0, 0.003914387156988776
761.0, 0.0038013455759359272
762.0, 0.0029896223796041367
763.0, 0.014513741455845497
764.0, 0.014616814602905493
765.0, 0.005628044350741378
766.0, 0.006911719647513404
767.0, 0.011119064914554316
768.0, 0.010414388364769156
769.0, 0.007972176725513867
770.0, 0.005507940785921285
771.0, 0.009618080884383562
772.0, 0.011695491721331022
773.0, 0.017635405906766512
774.0, 0.0036308966074894457
775.0, 0.00303144183797338
776.0, 0.0026503348614464765
777.0, 0.006420153760310956
778.0, 0.010391549296119566
779.0, 0.02806884888533411
780.0, 0.019888979770996237
781.0, 0.011031147164084251
782.0, 0.01877853976583429
783.0, 0.022653107348549865
784.0, 0.020318524508371766
785.0, 0.02474833610019996
786.0, 0.029819666050153095
787.0, 0.011559793386501406
788.0, 0.0038308692507958964
789.0, 0.0028137849823435014
790.0, 0.004096927925523206
791.0, 0.011847284866206939
792.0, 0.023503724213577527
793.0, 0.022483809237924868
794.0, 0.015773222954054613
795.0, 0.010417365920460166
796.0, 0.013953623884829451
797.0, 0.02463251266497854
798.0, 0.024599350582550295
799.0, 0.0115877841976676
800.0, 0.016274107895522284
801.0, 0.011624643920226604
802.0, 0.030926085192198735
803.0, 0.021885149750074887
804.0, 0.030943149388564867
805.0, 0.04329931455799101
806.0, 0.014885267403172421
807.0, 0.025060958012856592
808.0, 0.023594097571915135
809.0, 0.024296287144646263
810.0, 0.032210076081786373
811.0, 0.029807218137185097
812.0, 0.0172049010179952
813.0, 0.011692959458439265
814.0, 0.014000548153441796
815.0, 0.018539587314848918
816.0, 0.025522771769553792
817.0, 0.019839517691255727
818.0, 0.017311823465131045
819.0, 0.02505673809121892
820.0, 0.02616019677225725
821.0, 0.0011985598284411953
822.0, 0.01285903947336238
823.0, 0.033427243751586865
824.0, 0.022635796630455046
825.0, 0.004938203137058257
826.0, 0.0017409806353195598
827.0, 0.0027305506589513653
828.0, 0.009510373970013732
829.0, 0.007357818441391464
830.0, 0.01376357775774949
831.0, 0.010743492726903859
832.0, 0.012725446242602113
833.0, 0.01435898869608372
834.0, 0.010359451288787545
835.0, 0.00917473886858482
836.0, 0.011162380319124884
837.0, 0.012784586724491277
838.0, 0.02903782647784261
839.0, 0.033435601051258125
840.0, 0.027503936828541735
841.0, 0.025127557531082666
842.0, 0.02158703775899772
843.0, 0.030381731319117866
844.0, 0.036031012118473406
845.0, 0.0233764589649674
846.0, 0.02785302636234816
847.0, 0.04171667877534025
848.0, 0.034132671843042875
849.0, 0.006915816261172417
850.0, 0.023769847808132117
851.0, 0.025886817518677
852.0, 0.014507992281564398
853.0, 0.01871796219465776
854.0, 0.022265860330192365
855.0, 0.01738645612369514
856.0, 0.020778667376811437
857.0, 0.031381964336262544
858.0, 0.02123012796121631
859.0, 0.03349889771471057
860.0, 0.02454842849850013
861.0, 0.016415475447758537
862.0, 0.028182339243009547
863.0, 0.038065101580630534
864.0, 0.019136553761696967
865.0, 0.01581618874007135
866.0, 0.0076689034772935765
867.0, 0.024984765012178372
868.0, 0.01424101284224822
869.0, 0.010373504003965785
870.0, 0.02720704654964843
871.0, 0.023207322465834485
872.0, 0.014608292246506912
873.0, 0.03087661930598502
874.0, 0.029308876008224058
875.0, 0.019771187280238064
876.0, 0.013301761262276049
877.0, 0.01624250927252682
878.0, 0.022082423704926264
879.0, 0.015747824608554093
880.0, 0.01550827857857177
881.0, 0.028065460977600674
882.0, 0.028521078915352754
883.0, 0.0199186671158991
884.0, 0.020310826986715585
885.0, 0.016606619213934606
886.0, 0.005968289556508556
887.0, 0.008046017777553316
888.0, 0.002299850685733113
889.0, 0.015426164421401743
890.0, 0.016618414296230916
891.0, 0.016441504765258557
892.0, 0.010543325481950486
893.0, 0.010249201301399922
894.0, 0.006407060940753555
895.0, 0.0133502402556063
896.0, 0.008520850803813674
897.0, 0.0166160610775327
898.0, 0.01488677937187108
899.0, 0.003196627764567874
900.0, 0.0071515738946773275
901.0, 0.012066201640851142
902.0, 0.00925208891545632
903.0, 0.00961599302941436
904.0, 0.011161139744659973
905.0, 0.014096713574676494
906.0, 0.013800622221248188
907.0, 0.014208420940685893
908.0, 0.012009540680361273
909.0, 0.004502321658426146
910.0, 0.0028754928767199526
911.0, 0.004560126659204682
912.0, 0.008994732861923307
913.0, 0.016087264915766647
914.0, 0.0057182964724700955
915.0, 0.002905095103451821
916.0, 0.0016161640228309437
917.0, 0.008477387351541008
918.0, 0.015652033474281762
919.0, 0.017984202423935218
920.0, 0.022464244158388703
921.0, 0.020641712599706413
922.0, 0.01825884528028268
923.0, 0.014177919804925028
924.0, 0.011775776865876521
925.0, 0.019010760091829212
926.0, 0.02715390778260478
927.0, 0.0028888149221918827
928.0, 0.019421378832733854
929.0, 0.005273365882695842
930.0, 0.007536119505363146
931.0, 0.010842240457685864
932.0, 0.010831105291848067
933.0, 0.013351648497904283
934.0, 0.012729882770878652
935.0, 0.015020813666972405
936.0, 0.007906244808268934
937.0, 0.012853864899856914
938.0, 0.013946175587369623
939.0, 0.0026034796798969154
940.0, 0.013869512278417505
941.0, 0.01349135537277486
942.0, 0.0007988819772971919
943.0, 0.0030803792293722914
944.0, 0.0055072499626698515
945.0, 0.004622980778900609
946.0, 0.005053486057362297
947.0, 0.009945632022364634
948.0, 0.006638989811022097
949.0, 0.009167675692363977
950.0, 0.006870780166996193
951.0, 0.005896428210811014
952.0, 0.0043823589094395855
953.0, 0.004079023399112572
954.0, 0.010985241660393318
955.0, 0.012155822626468084
956.0, 0.013054122602541584
957.0, 0.016103121836137612
958.0, 0.0053889971900473255
959.0, 0.005871988186382058
960.0, 0.008634870572441753
961.0, 0.00911290641339455
962.0, 0.0020640854005278034
963.0, 0.01435550316967695
964.0, 0.02832797234054033
965.0, 0.016563381918469563
966.0, 0.003758202800801577
967.0, 0.009642410127087914
968.0, 0.002963950926627822
969.0, 0.001965118332101062
970.0, 0.004185397595663488
971.0, 0.010874605891684045
972.0, 0.005703830586045535
973.0, 0.001362182712723733
974.0, 0.003488390718949093
975.0, 0.007434059698824054
976.0, 0.016444490515202553
977.0, 0.007494881063822024
978.0, 0.002969234494670946
979.0, 0.012288552039664051
980.0, 0.033100987520742274
981.0, 0.032956007672608006
982.0, 0.01921581863573255
983.0, 0.02975886064910011
984.0, 0.016375384638571234
985.0, 0.0027094464488914656
986.0, 0.040012275439551964
987.0, 0.015492843699226353
988.0, 0.013741188882040296
989.0, 0.027211458244610978
990.0, 0.01707236121583265
991.0, 0.004272543294922621
992.0, 0.006409562683879142
993.0, 0.011009173293289438
994.0, 0.03402977652420221
995.0, 0.03179414124935427
996.0, 0.02625204683128313
997.0, 0.03719461316543824
998.0, 0.0413905787520165
999.0, 0.028691747933394494
1000.0, 0.02310810315363685
1001.0, 0.026043988632394106
1002.0, 0.006393168953708073
1003.0, 0.014340289293485992
1004.0, 0.018009612080078726
1005.0, 0.03210972074694834
1006.0, 0.02709447319216265
1007.0, 0.030756384663553755
1008.0, 0.04107263039728551
1009.0, 0.02814310291707397
1010.0, 0.036041519863438135
1011.0, 0.043590009076917687
1012.0, 0.025415091987947655
1013.0, 0.03453919353608252
1014.0, 0.033857484746910776
1015.0, 0.03931036910163549
1016.0, 0.05325513391731915
1017.0, 0.04747535639975372
1018.0, 0.032086674982682584
1019.0, 0.043422664899616506
1020.0, 0.03879671437136939
1021.0, 0.05171730046827819
1022.0, 0.05794690274380971
1023.0, 0.047903391402669276
1024.0, 0.03903168588193802
1025.0, 0.043772837150796357
1026.0, 0.04484041841084634
1027.0, 0.03311801269126872
1028.0, 0.040826464743032406
1029.0, 0.05301937149521074
1030.0, 0.03305130631875357
1031.0, 0.031062540818361427
1032.0, 0.048762154473187734
1033.0, 0.05142268930055592
1034.0, 0.05372035140997328
1035.0, 0.06557379261776104
1036.0, 0.07388420300408377
1037.0, 0.06838565408126823
1038.0, 0.06624782537872934
1039.0, 0.07648889581904596
1040.0, 0.07128273443924793
1041.0, 0.07420063831712265
1042.0, 0.09130819873080541
1043.0, 0.10182814068668314
1044.0, 0.10292139595001298
1045.0, 0.11553362116805438
1046.0, 0.14049417370130343
1047.0, 0.1462785584810096
1048.0, 0.14092646861820216
1049.0, 0.16003932167202317
1050.0, 0.17965808354911958
1051.0, 0.20182261670965665
1052.0, 0.20124312599966374
1053.0, 0.20333432865126108
1054.0, 0.21713788328335976
1055.0, 0.22165952485835053
1056.0, 0.23964222781419878
1057.0, 0.24723688352069711
1058.0, 0.2314536549947428
1059.0, 0.21856585524764513
1060.0, 0.20349923116627772
1061.0, 0.17589984532231775
1062.0, 0.14762468828528374
1063.0, 0.12994789978333096
1064.0, 0.11887059858051194
1065.0, 0.09968824484268725
1066.0, 0.06987630078913289
1067.0, 0.06493210171724662
1068.0, 0.056737260437163255
1069.0, 0.04447619936519361
1070.0, 0.04657013339945454
1071.0, 0.02769701216257371
1072.0, 0.015629305529001998
1073.0, 0.020890870087745775
1074.0, 0.019855648195532098
1075.0, 0.02275720339481678
1076.0, 0.03328681859850477
1077.0, 0.015571625243528932
1078.0, 0.03015271783451081
1079.0, 0.022315182578759144
1080.0, 0.019924524815704312
1081.0, 0.021225042294084992
1082.0, 0.01750552355064711
1083.0, 0.010224042671308673
1084.0, 0.01140944111019172
1085.0, 0.026403856483978725
1086.0, 0.022670250263998663
1087.0, 0.0036117304943437288
1088.0, 0.009364630995310427
1089.0, 0.0016614590729194837
1090.0, 0.001417196856690703
1091.0, 0.009780994389495893
1092.0, 0.008830669985954661
1093.0, 0.017550942864665787
1094.0, 0.012800903948458923
1095.0, 0.003366915485840306
1096.0, 0.008696191207245739
1097.0, 0.003934588504592719
1098.0, 0.015048931732755701
1099.0, 0.020679154343875107
1100.0, 0.022240301573002472
1101.0, 0.021789638161967165
1102.0, 0.02387422437845439
1103.0, 0.030369829792442796
1104.0, 0.03104172279831479
1105.0, 0.019370969386404934
1106.0, 0.015650627989878468
1107.0, 0.01205584901160655
1108.0, 0.0020963589776985124
1109.0, 0.006340802375053255
1110.0, 0.005143548747586478
1111.0, 0.005218123061932235
1112.0, 0.0031283328895576838
1113.0, 0.01231544918623524
1114.0, 0.02692754712109615
1115.0, 0.02104468782506959
1116.0, 0.011823773497462062
1117.0, 0.000900124777794806
1118.0, 0.018091730697352825
1119.0, 0.009708148271371439
1120.0, 0.02010654855856505
1121.0, 0.02345460967200172
1122.0, 0.016805814869845715
1123.0, 0.018161378365974503
1124.0, 0.013207526727671457
1125.0, 0.007736300925886035
1126.0, 0.025145182356334908
1127.0, 0.024233972214739448
1128.0, 0.022773202793627628
1129.0, 0.018990094422141793
1130.0, 0.007827421803910554
1131.0, 0.0074570530674644055
1132.0, 0.02213006317350448
1133.0, 0.03479979365564076
1134.0, 0.03577656652180128
1135.0, 0.02679227850756119
1136.0, 0.02290596294188777
1137.0, 0.029705213245953797
1138.0, 0.019326022190241935
1139.0, 0.02298561773448147
1140.0, 0.023633459561448505
1141.0, 0.012138704833892618
1142.0, 0.01973667471126523
1143.0, 0.020230533503668876
1144.0, 0.01595850316275126
1145.0, 0.010841556309627257
1146.0, 0.003165271223472985
1147.0, 0.002294507076975856
1148.0, 0.002576066584492286
1149.0, 0.01412243372139436
1150.0, 0.019468803903514482
1151.0, 0.005513885926750706
1152.0, 0.008535430145126128
1153.0, 0.016501582976456465
1154.0, 0.01273866186401872
1155.0, 0.007320633046320019
1156.0, 0.005646289312890527
1157.0, 0.014040227674885372
1158.0, 0.019670607541188892
1159.0, 0.006958327534219374
1160.0, 0.007093496118776251
1161.0, 0.02821136365644525
1162.0, 0.020297271768473426
1163.0, 0.020543571588064163
1164.0, 0.009426768910483605
1165.0, 0.014925527297372943
1166.0, 0.022850528760025402
1167.0, 0.032266700429222646
1168.0, 0.029500519060032447
1169.0, 0.018232355686504866
1170.0, 0.01895943044924992
1171.0, 0.01850038780764921
1172.0, 0.024891673298197577
1173.0, 0.0037924564083924497
1174.0, 0.002935608497731861
1175.0, 0.02529603111751579
1176.0, 0.02166145708745747
1177.0, 0.025322939507084516
1178.0, 0.0316910326611545
1179.0, 0.024674719906499266
1180.0, 0.007787799004937549
1181.0, 0.012133476687056683
1182.0, 0.031297691494253904
1183.0, 0.011578668271279876
1184.0, 0.024621761888466306
1185.0, 0.0032096417743194662
1186.0, 0.00205950145608624
1187.0, 0.010145724749205798
1188.0, 0.006971434403629409
1189.0, 0.007186210826162893
1190.0, 0.003254477939663981
1191.0, 0.003941061080823361
1192.0, 0.017280714353231558
1193.0, 0.018476057931915115
1194.0, 0.009376411869050257
1195.0, 0.013977656274382539
1196.0, 0.004793096916672125
1197.0, 0.02640867919552569
1198.0, 0.007645556790327912
1199.0, 0.018184020392238556
1200.0, 0.018314528936282427
1201.0, 0.020584486250003448
1202.0, 0.018223777823615058
1203.0, 0.009314437054619373
1204.0, 0.005606337473388721
1205.0, 0.006488534111820923
1206.0, 0.012930104786804831
1207.0, 0.021804109594966658
1208.0, 0.009308168227906833
1209.0, 0.013682862280506122
1210.0, 0.02073720959517143
1211.0, 0.0034985210729449154
1212.0, 0.024620642083659112
1213.0, 0.015924196944023156
1214.0, 0.022584793981938397
1215.0, 0.023757129718245232
1216.0, 0.016603395782055823
1217.0, 0.012745292768344518
1218.0, 0.010532198314626266
1219.0, 0.01603182508564233
1220.0, 0.01958423178785377
1221.0, 0.035998092363918
1222.0, 0.01628066005149697
1223.0, 0.031589115392695925
1224.0, 0.022250233749159604
1225.0, 0.0322858471296651
1226.0, 0.020523133731765623
1227.0, 0.019991721847102836
1228.0, 0.02300374870535577
1229.0, 0.012301221456840082
1230.0, 0.0020362965341291146
1231.0, 0.005375991809058408
1232.0, 0.016956312148284053
1233.0, 0.003426510258636365
1234.0, 0.008822110061130912
1235.0, 0.00958837878892392
1236.0, 0.014239985123971906
1237.0, 0.017624636124917745
1238.0, 0.02052834371992895
1239.0, 0.015174380481239935
1240.0, 0.005919029673958888
1241.0, 0.016782711975098896
1242.0, 0.024159756494133804
1243.0, 0.015714224831915827
1244.0, 0.010989636212855279
1245.0, 0.012904465933778655
1246.0, 0.01170192871660592
1247.0, 0.0011280351617092114
1248.0, 0.0037917531414275907
1249.0, 0.0039457507762419314
1250.0, 0.005377467468069075
1251.0, 0.009426625042852993
1252.0, 0.040532965168863656
1253.0, 0.013411776314609089
1254.0, 0.012874819090182085
1255.0, 0.024187682499905282
1256.0, 0.021432184778463093
1257.0, 0.019450167781176437
1258.0, 0.015391864917849347
1259.0, 0.017289216710336064
1260.0, 0.029838787412051312
1261.0, 0.025932374837555595
1262.0, 0.018241305963470917
1263.0, 0.02168222926099246
1264.0, 0.014955181182681628
1265.0, 0.030546084519549665
1266.0, 0.013383879758828583
1267.0, 0.012854537877010908
1268.0, 0.00882041617358667
1269.0, 0.015832680976311485
1270.0, 0.029887630635704106
1271.0, 0.0295167357398667
1272.0, 0.020567118003124604
1273.0, 0.014656747268672266
1274.0, 0.012985598861826368
1275.0, 0.012651575048304749
1276.0, 0.024685479430355872
1277.0, 0.03579065109121341
1278.0, 0.02154438226033316
1279.0, 0.02994732328875442
1280.0, 0.019466943940820578
1281.0, 0.017143322716748087
1282.0, 0.032251714498878155
1283.0, 0.03418124975210742
1284.0, 0.02020654140371837
1285.0, 0.017242423471861727
1286.0, 0.02356436219323149
1287.0, 0.021746110872528823
1288.0, 0.024376609665719338
1289.0, 0.022628816926213664
1290.0, 0.005735634412620188
1291.0, 0.034331375951598846
1292.0, 0.013286162385693169
1293.0, 0.02607037111393775
1294.0, 0.00914592461673776
1295.0, 0.02402426558208575
1296.0, 0.015968805082731363
1297.0, 0.0056132164312435754
1298.0, 0.016254580277517337
1299.0, 0.015690050584521397
1300.0, 0.014844956780474757
1301.0, 0.009788195521919625
1302.0, 5.2806006413942974e-05
1303.0, 0.0024393857136330343
1304, 0.0
1305, 0.0
1306, 0.0
1307, 0.0
1308, 0.0
1309, 0.0
1310, 0.0
1311, 0.0
1312, 0.0
1313, 0.0
1314, 0.0
1315, 0.0
1316, 0.0
1317, 0.0
1318, 0.0
1319, 0.0
1320, 0.0
1321, 0.0
1322, 0.0
1323, 0.0
1324, 0.0
1325, 0.0
1326, 0.0
1327, 0.0
1328, 0.0
1329, 0.0
1330, 0.0
1331, 0.0
1332, 0.0
1333, 0.0
1334, 0.0
1335, 0.0
1336, 0.0
1337, 0.0
1338, 0.0
1339, 0.0
1340, 0.0
1341, 0.0
1342, 0.0
1343, 0.0
1344, 0.0
1345, 0.0
1346, 0.0
1347, 0.0
1348, 0.0
1349, 0.0
1350, 0.0
1351, 0.0
1352, 0.0
1353, 0.0
1354, 0.0
1355, 0.0
1356, 0.0
1357, 0.0
1358, 0.0
1359, 0.0
1360, 0.0
1361, 0.0
1362, 0.0
1363, 0.0
1364, 0.0
1365, 0.0
1366, 0.0
1367, 0.0
1368, 0.0
1369, 0.0
1370, 0.0
1371, 0.0
1372, 0.0
1373, 0.0
1374, 0.0
1375, 0.0
1376, 0.0
1377, 0.0
1378, 0.0
1379, 0.0
1380, 0.0
1381, 0.0
1382, 0.0
1383, 0.0
1384, 0.0
1385, 0.0
1386, 0.0
1387, 0.0
1388, 0.0
1389, 0.0
1390, 0.0
1391, 0.0
1392, 0.0
1393, 0.0
1394, 0.0
1395, 0.0
1396, 0.0
1397, 0.0
1398, 0.0
1399, 0.0
1400, 0.0
1401, 0.0
1402, 0.0
1403, 0.0
1404, 0.0
1405, 0.0
1406, 0.0
1407, 0.0
1408, 0.0
1409, 0.0
1410, 0.0
1411, 0.0
1412, 0.0
1413, 0.0
1414, 0.0
1415, 0.0
1416, 0.0
1417, 0.0
1418, 0.0
1419, 0.0
1420, 0.0
1421, 0.0
1422, 0.0
1423, 0.0
1424, 0.0
1425, 0.0
1426, 0.0
1427, 0.0
1428, 0.0
1429, 0.0
1430, 0.0
1431, 0.0
1432, 0.0
1433, 0.0
1434, 0.0
1435, 0.0
1436, 0.0
1437, 0.0
1438, 0.0
1439, 0.0
1440, 0.0
1441, 0.0
1442, 0.0
1443, 0.0
1444, 0.0
1445, 0.0
1446, 0.0
1447, 0.0
1448, 0.0
1449, 0.0
1450, 0.0
1451, 0.0
1452, 0.0
1453, 0.0
1454, 0.0
1455, 0.0
1456, 0.0
1457, 0.0
1458, 0.0
1459, 0.0
1460, 0.0
1461, 0.0
1462, 0.0
1463, 0.0
1464, 0.0
1465, 0.0
1466, 0.0
1467, 0.0
1468, 0.0
1469, 0.0
1470, 0.0
1471, 0.0
1472, 0.0
1473, 0.0
1474, 0.0
1475, 0.0
1476, 0.0
1477, 0.0
1478, 0.0
1479, 0.0
1480, 0.0
1481, 0.0
1482, 0.0
1483, 0.0
1484, 0.0
1485, 0.0
1486, 0.0
1487, 0.0
1488, 0.0
1489, 0.0
1490, 0.0
1491, 0.0
1492, 0.0
1493, 0.0
1494, 0.0
1495, 0.0
1496, 0.0
1497, 0.0
1498, 0.0
1499, 0.0
1500, 0.0
1501, 0.0
1502, 0.0
1503, 0.0
1504, 0.0
1505, 0.0
1506, 0.0
1507, 0.0
1508, 0.0
1509, 0.0
1510, 0.0
1511, 0.0
1512, 0.0
1513, 0.0
1514, 0.0
1515, 0.0
1516, 0.0
1517, 0.0
1518, 0.0
1519, 0.0
1520, 0.0
1521, 0.0
1522, 0.0
1523, 0.0
1524, 0.0
1525, 0.0
1526, 0.0
1527, 0.0
1528, 0.0
1529, 0.0
1530, 0.0
1531, 0.0
1532, 0.0
1533, 0.0
1534, 0.0
1535, 0.0
1536, 0.0
1537, 0.0
1538, 0.0
1539, 0.0
1540, 0.0
1541, 0.0
1542, 0.0
1543, 0.0
1544, 0.0
1545, 0.0
1546, 0.0
1547, 0.0
1548, 0.0
1549, 0.0
1550, 0.0
1551, 0.0
1552, 0.0
1553, 0.0
1554, 0.0
1555, 0.0
1556, 0.0
1557, 0.0
1558, 0.0
1559, 0.0
1560, 0.0
1561, 0.0
1562, 0.0
1563, 0.0
1564, 0.0
1565, 0.0
1566, 0.0
1567, 0.0
1568, 0.0
1569, 0.0
1570, 0.0
1571, 0.0
1572, 0.0
1573, 0.0
1574, 0.0
1575, 0.0
1576, 0.0
1577, 0.0
1578, 0.0
1579, 0.0
1580, 0.0
1581, 0.0
1582, 0.0
1583, 0.0
1584, 0.0
1585, 0.0
1586, 0.0
1587, 0.0
1588, 0.0
1589, 0.0
1590, 0.0
1591, 0.0
1592, 0.0
1593, 0.0
1594, 0.0
1595, 0.0
1596, 0.0
1597, 0.0
1598, 0.0
1599, 0.0
