30, 0.0
31, 0.0
32, 0.0
33, 0.0
34, 0.0
35, 0.0
36, 0.0
37, 0.0
38, 0.0
39, 0.0
40, 0.0
41, 0.0
42, 0.0
43, 0.0
44, 0.0
45, 0.0
46, 0.0
47, 0.0
48, 0.0
49, 0.0
50, 0.0
51, 0.0
52, 0.0
53, 0.0
54, 0.0
55, 0.0
56, 0.0
57, 0.0
58, 0.0
59, 0.0
60.0, 0.0001457069792598928
61.0, 0.001209261572397793
62.0, 0.0014957911344956683
63.0, 0.0016786636205513021
64.0, 0.0021972955193736423
65.0, 0.0007903213143870417
66.0, 0.00030413970200889056
67.0, 0.0007489026585769654
68.0, 0.00149585336528981
69.0, 0.0021656614288626083
70.0, 0.002613371843865631
71.0, 0.0026955329730781593
72.0, 0.0027236477700616213
73.0, 0.0029753839092208196
74.0, 0.00366248579405033
75.0, 0.005702547494528866
76.0, 0.005712579127410336
77.0, 0.005573221862586218
78.0, 0.006283134913410659
79.0, 0.007365153266119254
80.0, 0.007540020160019107
81.0, 0.007379462215889955
82.0, 0.008843776667756105
83.0, 0.009278669347308238
84.0, 0.01027564140888902
85.0, 0.012623180815360938
86.0, 0.011693611847306195
87.0, 0.012394977704001638
88.0, 0.014252114325875325
89.0, 0.016228017191086203
90.0, 0.018081095118245034
91.0, 0.02015093752249171
92.0, 0.022535011683966728
93.0, 0.02308061937814326
94.0, 0.0259163026712172
95.0, 0.029487617212859987
96.0, 0.03094556090505859
97.0, 0.03277817645634111
98.0, 0.03632760658228591
99.0, 0.041781195599123674
100.0, 0.044749737554821034
101.0, 0.048641476915146926
102.0, 0.053324914808228985
103.0, 0.05887176306472809
104.0, 0.06488239475222007
105.0, 0.07159145924154561
106.0, 0.07877298107464813
107.0, 0.08395924547551249
108.0, 0.08697202603351131
109.0, 0.08852069289229217
110.0, 0.0888782890359287
111.0, 0.08892486017573335
112.0, 0.08777991659239742
113.0, 0.08547723773781714
114.0, 0.08245510939453232
115.0, 0.07786167412144561
116.0, 0.07275558446932141
117.0, 0.0676899225476946
118.0, 0.05986814404259371
119.0, 0.05152504101561621
120.0, 0.043236427357097734
121.0, 0.03654266240436804
122.0, 0.03156718412033809
123.0, 0.028068011945449632
124.0, 0.026033697303944885
125.0, 0.021820388007130962
126.0, 0.019226716193673343
127.0, 0.017717808758240527
128.0, 0.01663996829711575
129.0, 0.015456048776170067
130.0, 0.014401544300761371
131.0, 0.013596688251362498
132.0, 0.013744177035402401
133.0, 0.012670248894891144
134.0, 0.011592907454925647
135.0, 0.011758240775391926
136.0, 0.011092144131152417
137.0, 0.011296875235667414
138.0, 0.012123915681140315
139.0, 0.011652453954338515
140.0, 0.010921830752250178
141.0, 0.010913255017562847
142.0, 0.012275762463031257
143.0, 0.011203694360180993
144.0, 0.011081395057913874
145.0, 0.011213978959681944
146.0, 0.009841139541398937
147.0, 0.010736501983774384
148.0, 0.0127197760972912
149.0, 0.015291953145468938
150.0, 0.014834368992748016
151.0, 0.015929510242901405
152.0, 0.01872159280681637
153.0, 0.02383241299376315
154.0, 0.0281614966790529
155.0, 0.03245539622876531
156.0, 0.03652791829137054
157.0, 0.03892779376946169
158.0, 0.04051200148630091
159.0, 0.042014411373710314
160.0, 0.04383311280853445
161.0, 0.045052286769919826
162.0, 0.045554780983149024
163.0, 0.044861206673222236
164.0, 0.04158963732748815
165.0, 0.04135411541952695
166.0, 0.041366164303740745
167.0, 0.04121436339894982
168.0, 0.04401371648203447
169.0, 0.04621144807521613
170.0, 0.04865583300812284
171.0, 0.05223989719755848
172.0, 0.05496620452699738
173.0, 0.0592826627363219
174.0, 0.06454965944918535
175.0, 0.06775012805692722
176.0, 0.07077924226454728
177.0, 0.07351579559988831
178.0, 0.07576062641434737
179.0, 0.07307769970194274
180.0, 0.07270783781915126
181.0, 0.07337395839969793
182.0, 0.07340114462236193
183.0, 0.07033512313378248
184.0, 0.06797955864264044
185.0, 0.06655127157375525
186.0, 0.06409723490938918
187.0, 0.06082774857829589
188.0, 0.058757070110041776
189.0, 0.059192899497441984
190.0, 0.054738553158610405
191.0, 0.052335528626220325
192.0, 0.0511511442393261
193.0, 0.0496369943732234
194.0, 0.053748271514364815
195.0, 0.054959820678137095
196.0, 0.05259766306215649
197.0, 0.05538185961147418
198.0, 0.05629833997983049
199.0, 0.056994296403904646
200.0, 0.0586044020264893
201.0, 0.06225703215866268
202.0, 0.06383614970910105
203.0, 0.06470686773373319
204.0, 0.06824824326731589
205.0, 0.07120120331916929
206.0, 0.07431066201628292
207.0, 0.07783341425298457
208.0, 0.08242929421051799
209.0, 0.08208080653212298
210.0, 0.07971729129804454
211.0, 0.07726798440946638
212.0, 0.07689076793659762
213.0, 0.07940791376345681
214.0, 0.08401619133096352
215.0, 0.08910365466205013
216.0, 0.09496927616486682
217.0, 0.10126913831751302
218.0, 0.10828403203587436
219.0, 0.11907645193077011
220.0, 0.1297176979860066
221.0, 0.1401485008979169
222.0, 0.1502932047146477
223.0, 0.1643651965964013
224.0, 0.17886259182138156
225.0, 0.19375260792199117
226.0, 0.20926126735714648
227.0, 0.22451876782710561
228.0, 0.23550027936865697
229.0, 0.24149022286663005
230.0, 0.24386421180711645
231.0, 0.2426665435275032
232.0, 0.2383870999629079
233.0, 0.2309771135539791
234.0, 0.21836680857441756
235.0, 0.20378553161969823
236.0, 0.1871463070066913
237.0, 0.16788244512130485
238.0, 0.1495126796144544
239.0, 0.13202130811382543
240.0, 0.11597344895261738
241.0, 0.10432140666681308
242.0, 0.09330807518608203
243.0, 0.08315182332144452
244.0, 0.07403743174844912
245.0, 0.06621205572023427
246.0, 0.0609979271076151
247.0, 0.056260912845597255
248.0, 0.049408901120374576
249.0, 0.04405402139675421
250.0, 0.03987189848940929
251.0, 0.03617408198793856
252.0, 0.03086523080319229
253.0, 0.027707930240671638
254.0, 0.024685971744490564
255.0, 0.021310900184384494
256.0, 0.01891108501167281
257.0, 0.016857243369108592
258.0, 0.014944335173591545
259.0, 0.013032012472283017
260.0, 0.011637740413651128
261.0, 0.010633114215479007
262.0, 0.009583137335105811
263.0, 0.0076331496738889955
264.0, 0.006525045452072539
265.0, 0.005950054838681232
266.0, 0.005485942049893365
267.0, 0.003275837066069466
268.0, 0.0027775920353915254
269.0, 0.0024308123548875448
270.0, 0.0015928241182400845
271.0, 0.0007964657937851249
272.0, 0.000812182876468373
273.0, 0.0010155305528232541
274.0, 0.0007880626274512654
275.0, 0.00039490521767498505
276.0, 0.0005779668369469007
277.0, 0.0012320360771153024
278.0, 0.0020789526332375035
279.0, 0.0031166520677981843
280.0, 0.00425236507114809
281.0, 0.005195123071166255
282.0, 0.004327302860482962
283.0, 0.006189077046283028
284.0, 0.008459491134264275
285.0, 0.009985686359804099
286.0, 0.009298879253854003
287.0, 0.010159390635183238
288.0, 0.011706113816000964
289.0, 0.013106811511718938
290.0, 0.014301822651308922
291.0, 0.01690139706433749
292.0, 0.020235209329674306
293.0, 0.022607129930133918
294.0, 0.024801134820549582
295.0, 0.026501349375308705
296.0, 0.027913976060520616
297.0, 0.03046660052509075
298.0, 0.0325071668715134
299.0, 0.03357521141177499
300.0, 0.03359208381955411
301.0, 0.03566318763736118
302.0, 0.03902295371889075
303.0, 0.041824554330958774
304.0, 0.04234905579772269
305.0, 0.04515358159332082
306.0, 0.04870400346424436
307.0, 0.052286187628467734
308.0, 0.05467544140768648
309.0, 0.05741725964270611
310.0, 0.06067678548118359
311.0, 0.06371814938696449
312.0, 0.06371903562512886
313.0, 0.06342036139952277
314.0, 0.062496578525072996
315.0, 0.060858195110035984
316.0, 0.05877451624989015
317.0, 0.0566288341611995
318.0, 0.054006468437965555
319.0, 0.05070046043658903
320.0, 0.04998128071136832
321.0, 0.04612595659826527
322.0, 0.041880732029200875
323.0, 0.040337675123386034
324.0, 0.038857383892985174
325.0, 0.03687211584443722
326.0, 0.0348767671118172
327.0, 0.03398910116287011
328.0, 0.032439934654731016
329.0, 0.03146020411407928
330.0, 0.030739457733725356
331.0, 0.02828118972601986
332.0, 0.028694966494890662
333.0, 0.029790457300749907
334.0, 0.03061058378923436
335.0, 0.02880740938048468
336.0, 0.030509209593297303
337.0, 0.0315571728012846
338.0, 0.029745452013367042
339.0, 0.03039209356433216
340.0, 0.03160524991173668
341.0, 0.03245591294985206
342.0, 0.031982871089848694
343.0, 0.031639722984349146
344.0, 0.0327233864550984
345.0, 0.03448887216421928
346.0, 0.03566320436349799
347.0, 0.03623327125652789
348.0, 0.03708688244929143
349.0, 0.03816494414728091
350.0, 0.039029548675154645
351.0, 0.04200837377858962
352.0, 0.04400213406928571
353.0, 0.04508845377777551
354.0, 0.049118241868720616
355.0, 0.053181225440800846
356.0, 0.05822773309712069
357.0, 0.06448079139640754
358.0, 0.07020439732828265
359.0, 0.07553929448096684
360.0, 0.08168627164942198
361.0, 0.08928617922724542
362.0, 0.09407544160044808
363.0, 0.09974503547305719
364.0, 0.1051050004924982
365.0, 0.10897794191844452
366.0, 0.10817213564398583
367.0, 0.11113959391149947
368.0, 0.11190814753988278
369.0, 0.10091498554554387
370.0, 0.09670363344494283
371.0, 0.09176531137425555
372.0, 0.08730000562001501
373.0, 0.08759351617041596
374.0, 0.08357581483508764
375.0, 0.08136795736633888
376.0, 0.08144884387560265
377.0, 0.08219002197894758
378.0, 0.08122446842481547
379.0, 0.08156949007840143
380.0, 0.08340868524044857
381.0, 0.08339109692761847
382.0, 0.08281250436934787
383.0, 0.08471761057301819
384.0, 0.08913963939798185
385.0, 0.0846552684021488
386.0, 0.08391703523992511
387.0, 0.08506418959205621
388.0, 0.08715341342609371
389.0, 0.09022225801932908
390.0, 0.0910385850319704
391.0, 0.09114437058684148
392.0, 0.09170647830308852
393.0, 0.0922292333847956
394.0, 0.09372868857869997
395.0, 0.09543333876478799
396.0, 0.09649492672184351
397.0, 0.09599597702883135
398.0, 0.0963969496876037
399.0, 0.09575251484629485
400.0, 0.0909065827824975
401.0, 0.08865114125737517
402.0, 0.08731916107571369
403.0, 0.08588325579758109
404.0, 0.0825139443674122
405.0, 0.07890578114347065
406.0, 0.07522735959575788
407.0, 0.07137541716571394
408.0, 0.06700221698209832
409.0, 0.06241870781745939
410.0, 0.05770428768339532
411.0, 0.05311704392287171
412.0, 0.04952625415713992
413.0, 0.04462312496806054
414.0, 0.04133604914018126
415.0, 0.039838148182853333
416.0, 0.03749957946709941
417.0, 0.03375138932432883
418.0, 0.030643427426247875
419.0, 0.028921808811932813
420.0, 0.029052165563717616
421.0, 0.027712720098426572
422.0, 0.026253650123557504
423.0, 0.02514709509083325
424.0, 0.02379648121373734
425.0, 0.022332490495712398
426.0, 0.021072541267866583
427.0, 0.0200818720065144
428.0, 0.018181869574677375
429.0, 0.01721062425688149
430.0, 0.016333316656620075
431.0, 0.015015409185069358
432.0, 0.012631465791227495
433.0, 0.011275370105403054
434.0, 0.010238810512705835
435.0, 0.009039480035929907
436.0, 0.00795920723442995
437.0, 0.0071175756790713
438.0, 0.006500550971972718
439.0, 0.006098932967220933
440.0, 0.005574223946986092
441.0, 0.005185283824231307
442.0, 0.004294400180626403
443.0, 0.002276764046809537
444.0, 0.0026547110719937297
445.0, 0.002282685443627372
446.0, 0.001791417216838288
447.0, 0.001883052255952503
448.0, 0.0016175948405025885
449.0, 0.0009591627224886756
450.0, 0.00037399313030227785
451.0, 0.00043430309566998244
452.0, 0.0008886078404666418
453.0, 0.0006264997851165709
454.0, 0.0008168216408749821
455.0, 0.003087881442047799
456.0, 0.0014091757840991401
457.0, 0.0013514699006579507
458.0, 0.0020052630198293176
459.0, 0.0017358511618231218
460.0, 0.002280509400223359
461.0, 0.0019799024256654412
462.0, 0.0013621368156516976
463.0, 0.0013600618234192222
464.0, 0.0012301117359612666
465.0, 0.0014221465382939387
466.0, 0.00161741720079611
467.0, 0.0012606087538639553
468.0, 0.0013569806297365425
469.0, 0.0012525659035367814
470.0, 0.0008897847988815334
471.0, 0.00023485971157983354
472.0, 0.000189141715163017
473.0, 0.0013805078001250803
474.0, 0.002478468336272109
475.0, 0.001174892947106739
476.0, 0.0030812580275128504
477.0, 0.0035257051611864796
478.0, 0.003026613746474712
479.0, 0.002990879367130795
480.0, 0.003379347398392662
481.0, 0.0033345966922321566
482.0, 0.0034267556257304276
483.0, 0.004705829560451432
484.0, 0.003740348545519466
485.0, 0.0035591958944423915
486.0, 0.003587042828275934
487.0, 0.0025671928832515373
488.0, 0.0024885975265032333
489.0, 0.002243992015069525
490.0, 0.001972436989240832
491.0, 0.001996506844912419
492.0, 0.0025369756823507288
493.0, 0.0024628565763555686
494.0, 0.0020218554342886
495.0, 0.0016554235525514302
496.0, 0.0009899597322001472
497.0, 0.0007792289440984599
498.0, 0.000750493217870014
499.0, 0.0004933013010660837
500.0, 0.0022958748995549664
501.0, 0.00330490398726708
502.0, 0.004012676069017104
503.0, 0.005140043033443071
504.0, 0.0059424029706833005
505.0, 0.006818778264736618
506.0, 0.007796721800463328
507.0, 0.008897490516974582
508.0, 0.010248677369481724
509.0, 0.011598764753574842
510.0, 0.01309321171344088
511.0, 0.014867972253736683
512.0, 0.015923407331354215
513.0, 0.017442760118416605
514.0, 0.018878967485430675
515.0, 0.019762457295584308
516.0, 0.020486502689367355
517.0, 0.02144241051689881
518.0, 0.022311356476465316
519.0, 0.022883805059553525
520.0, 0.02380299845122465
521.0, 0.023512528679573597
522.0, 0.023108225535738977
523.0, 0.02333075144716557
524.0, 0.024612490335166274
525.0, 0.02458131422266623
526.0, 0.024941498125058137
527.0, 0.02625814564393057
528.0, 0.025176732887332534
529.0, 0.02593797902183104
530.0, 0.026625249233763616
531.0, 0.026675733456587306
532.0, 0.028094402927153886
533.0, 0.026851771755830048
534.0, 0.025053561942955386
535.0, 0.023902386464870244
536.0, 0.0256388022379399
537.0, 0.024956722366864532
538.0, 0.024410568382262562
539.0, 0.024329052827424313
540.0, 0.023153058190896143
541.0, 0.0226333882381054
542.0, 0.022135749410290312
543.0, 0.02178915014010192
544.0, 0.022388205877518726
545.0, 0.01970588062526419
546.0, 0.019255066340072433
547.0, 0.020168766958982138
548.0, 0.018535040700716328
549.0, 0.020141293573205453
550.0, 0.020366735497777597
551.0, 0.019879391717168477
552.0, 0.020659423831179493
553.0, 0.020101149504909502
554.0, 0.021404849251303832
555.0, 0.022332247123806614
556.0, 0.01973745851241588
557.0, 0.020727889435447584
558.0, 0.022263044995920547
559.0, 0.022858087011063337
560.0, 0.021186335514316798
561.0, 0.02013873765106209
562.0, 0.01877052721319832
563.0, 0.01855564250515927
564.0, 0.020240026539201126
565.0, 0.019098816378335836
566.0, 0.019076631537700308
567.0, 0.01975104674836852
568.0, 0.02075961040343197
569.0, 0.02103212934447071
570.0, 0.021088941211509983
571.0, 0.020894751733538292
572.0, 0.020589918488196347
573.0, 0.020906495190686342
574.0, 0.01985762639929458
575.0, 0.019160393640187966
576.0, 0.019136058187936116
577.0, 0.019405585571396884
578.0, 0.018752491357328014
579.0, 0.018379409655746498
580.0, 0.017984836497772546
581.0, 0.016515370750922017
582.0, 0.016314156038106962
583.0, 0.016076251065856084
584.0, 0.015263847234563225
585.0, 0.01327567589090598
586.0, 0.01104508786771807
587.0, 0.00928125534106553
588.0, 0.00821696432977543
589.0, 0.007977939104339415
590.0, 0.006137251562942511
591.0, 0.0045234163485405425
592.0, 0.0035646629141556922
593.0, 0.003277470764664594
594.0, 0.0009296738251867356
595.0, 0.00029802234058890105
596.0, 0.000729669121762059
597.0, 0.0015100150853310486
598.0, 0.0003478263335747275
599.0, 0.0002429381456591823
600.0, 0.0004297999393177414
601.0, 0.0006980934972582374
602.0, 0.0010462597477843625
603.0, 0.00074423639385387
604.0, 0.0005602559131363737
605.0, 0.0005593706168167679
606.0, 0.0006363768498768871
607.0, 0.00035965726752469374
608.0, 0.0006214059942661025
609.0, 0.0009721539940328555
610.0, 0.0007949159994390522
611.0, 0.0008395760195764926
612.0, 0.002173191233860378
613.0, 0.002824592786429658
614.0, 0.0016030188222341908
615.0, 0.0030172221937189566
616.0, 0.004272294523666518
617.0, 0.004987456115403719
618.0, 0.005082547123632709
619.0, 0.005137208955127451
620.0, 0.005757023872140269
621.0, 0.00717912123863037
622.0, 0.008924515034144605
623.0, 0.009345088860117281
624.0, 0.011277202120564885
625.0, 0.012012801555656665
626.0, 0.011753756855687216
627.0, 0.011528920635025704
628.0, 0.011658568941102133
629.0, 0.012460117301177085
630.0, 0.013300789521605716
631.0, 0.01359197181334023
632.0, 0.01595402657769602
633.0, 0.018203040570370164
634.0, 0.01978610524707416
635.0, 0.020456600037120885
636.0, 0.020915448865020593
637.0, 0.022292140450166295
638.0, 0.02332663489708345
639.0, 0.024134685594273876
640.0, 0.0267009365831044
641.0, 0.026627208017244625
642.0, 0.02804273780898602
643.0, 0.03015521998312139
644.0, 0.030051689701786666
645.0, 0.03245644818090567
646.0, 0.035646115060516556
647.0, 0.03912866178011548
648.0, 0.042429028075366616
649.0, 0.04420426965717368
650.0, 0.047050300441871536
651.0, 0.050838182373975055
652.0, 0.05511845582432729
653.0, 0.05736775607373327
654.0, 0.06509690228613389
655.0, 0.07017205292026162
656.0, 0.07305800557519768
657.0, 0.08360722881703053
658.0, 0.08851722316729473
659.0, 0.09600139437551089
660.0, 0.10636998202764816
661.0, 0.11808812527465018
662.0, 0.1312948688167344
663.0, 0.14706402821706607
664.0, 0.16585102504620955
665.0, 0.18785228920342562
666.0, 0.21174614422145552
667.0, 0.2385880857297736
668.0, 0.2731401003340758
669.0, 0.31556152818627553
670.0, 0.3563174948018999
671.0, 0.4181074822596157
672.0, 0.4833666643092751
673.0, 0.5521902882197074
674.0, 0.633259941641025
675.0, 0.7270161889860424
676.0, 0.8094817748889908
677.0, 0.8840438649100297
678.0, 0.9555700712238607
679.0, 0.9905267421728307
680.0, 0.9949423553408878
681.0, 0.9731787212306884
682.0, 0.9260205130498826
683.0, 0.8401525139946658
684.0, 0.7666475852290526
685.0, 0.6850559249680999
686.0, 0.5941759795365087
687.0, 0.5048288504826135
688.0, 0.43308979751710214
689.0, 0.3681110217288499
690.0, 0.3135324787579104
691.0, 0.2741888545475466
692.0, 0.2396070307047243
693.0, 0.2086539505342196
694.0, 0.18030636638630204
695.0, 0.15557122241107174
696.0, 0.14484146705895956
697.0, 0.13061359014587415
698.0, 0.11753580869626094
699.0, 0.10667445267754966
700.0, 0.09752497394158763
701.0, 0.08938063094365944
702.0, 0.08181016477017508
703.0, 0.07588190474810445
704.0, 0.07256756563476575
705.0, 0.06591104160416085
706.0, 0.06115925020972167
707.0, 0.05848109927687956
708.0, 0.05702216851213059
709.0, 0.052121282190981076
710.0, 0.05050699313105316
711.0, 0.049986211394826015
712.0, 0.048743294033681314
713.0, 0.04411505215639268
714.0, 0.04670213477912656
715.0, 0.04531781965651356
716.0, 0.043035865242862535
717.0, 0.04304642676955043
718.0, 0.04092539512482764
719.0, 0.03858846798735736
720.0, 0.03858260283064924
721.0, 0.04066249061709987
722.0, 0.04002648494647112
723.0, 0.03865180591202588
724.0, 0.03919794877573454
725.0, 0.039860844258599065
726.0, 0.037361439876292
727.0, 0.036951895238178274
728.0, 0.03844352262848302
729.0, 0.03877589124248203
730.0, 0.03692796756974292
731.0, 0.040104356992164324
732.0, 0.04045283815656181
733.0, 0.03961949301861847
734.0, 0.0388316295239092
735.0, 0.03984679796598584
736.0, 0.037743620964666796
737.0, 0.03733306499427868
738.0, 0.037567599151790296
739.0, 0.03695810330626275
740.0, 0.03407928549914978
741.0, 0.033208244281075744
742.0, 0.03173363543171617
743.0, 0.02936969393950745
744.0, 0.028864490135522884
745.0, 0.026690503057281427
746.0, 0.026567962891630905
747.0, 0.026530729864680542
748.0, 0.023465057353329825
749.0, 0.023505126198974838
750.0, 0.023313247785493634
751.0, 0.022429347802224765
752.0, 0.02104642122105665
753.0, 0.021278244430600616
754.0, 0.019540425528045254
755.0, 0.0190227417070068
756.0, 0.018390033754220117
757.0, 0.014369959748362601
758.0, 0.014846826532521486
759.0, 0.015434271661775002
760.0, 0.015623704260036649
761.0, 0.014953452287427777
762.0, 0.012433934595671206
763.0, 0.010190270687580504
764.0, 0.011040355396159761
765.0, 0.012580652326020724
766.0, 0.00852081294414146
767.0, 0.007437855797486137
768.0, 0.008181534869879532
769.0, 0.008558276818229064
770.0, 0.00727195854696707
771.0, 0.00804676899533093
772.0, 0.007393200305394398
773.0, 0.006085565644084065
774.0, 0.005144814277352256
775.0, 0.0063308699114563
776.0, 0.0068762482194744045
777.0, 0.006963210503585617
778.0, 0.0058716684469807484
779.0, 0.003480067625520363
780.0, 0.004096548778887967
781.0, 0.0036478606370010697
782.0, 0.003279192825848753
783.0, 0.003325445816999732
784.0, 0.0036988933823705696
785.0, 0.00504772199983047
786.0, 0.004439478864798673
787.0, 0.003484022518096403
788.0, 0.0036196972121446524
789.0, 0.0032436627037034024
790.0, 0.002754581464887896
791.0, 0.0028489941951024586
792.0, 0.0034056435738217894
793.0, 0.0036405198786574745
794.0, 0.00436707108188488
795.0, 0.003677575930565586
796.0, 0.003749112649467529
797.0, 0.0056976326768730665
798.0, 0.003212846706214459
799.0, 0.00383389413137149
800.0, 0.004050628726200523
801.0, 0.003303688611340619
802.0, 0.00255706531971693
803.0, 0.0040347649878006465
804.0, 0.003950806423955495
805.0, 0.0039225201771325
806.0, 0.004668677967241793
807.0, 0.0022338796627414314
808.0, 0.003139649293666544
809.0, 0.003627010286145719
810.0, 0.002690992561854141
811.0, 0.0002545299056469939
812.0, 0.001919877149993985
813.0, 0.0017693797640162278
814.0, 0.0010413556926409195
815.0, 0.0007098838305043664
816.0, 0.0013259036200058676
817.0, 0.0010058629114173966
818.0, 0.0008401369067430672
819.0, 0.0007821930057345522
820.0, 0.0005040193459988192
821.0, 0.0005010083518353906
822.0, 0.00030488136615249424
823.0, 0.00040826211002280776
824.0, 0.0008738012883640452
825.0, 0.0011031453473173088
826.0, 0.0014852418720798812
827.0, 0.0014490363505021882
828.0, 0.001243048095376433
829.0, 0.0011604815974734454
830.0, 0.0006013171457943326
831.0, 0.0010783515125187756
832.0, 0.0011276851675936428
833.0, 0.0007942306163473242
834.0, 0.001363727884879384
835.0, 0.0006209660435996825
836.0, 0.0008141955338284703
837.0, 0.0014898649054381737
838.0, 0.0020372787346882902
839.0, 0.0015317523849317596
840.0, 0.0008973002166145917
841.0, 0.00042841495428171757
842.0, 0.00040638136197249786
843.0, 0.0011009678921157248
844.0, 0.0008688192982300672
845.0, 0.0008797680252117193
846.0, 0.0009345742665843685
847.0, 0.0009681076802659133
848.0, 0.0011148818471665965
849.0, 0.001089935111906805
850.0, 0.0012892722106922104
851.0, 0.0014973792525246191
852.0, 0.001397335653447197
853.0, 0.0004393435810264083
854.0, 0.0011073038487173048
855.0, 0.0012431901333910978
856.0, 0.0007384632879200527
857.0, 0.0006528130300843731
858.0, 0.001125470935870503
859.0, 0.0018292876714976142
860.0, 0.001957206142501803
861.0, 0.0014189075071437218
862.0, 0.0018434245963392178
863.0, 0.0026391981652095203
864.0, 0.0026052328264924685
865.0, 0.00305228316537141
866.0, 0.005132065183543891
867.0, 0.0029461733013174908
868.0, 0.0037020165664527625
869.0, 0.004759477338800057
870.0, 0.005304718387039097
871.0, 0.005531773858859926
872.0, 0.006083785668074463
873.0, 0.007648155260511948
874.0, 0.008512721141098117
875.0, 0.007982080383727944
876.0, 0.007689029222224413
877.0, 0.007649434273064811
878.0, 0.009199971705410677
879.0, 0.011237617456463116
880.0, 0.012161025614068873
881.0, 0.01011331249678273
882.0, 0.011206143671949095
883.0, 0.011390947450409984
884.0, 0.010959323691396995
885.0, 0.012751137653199353
886.0, 0.010388567530750419
887.0, 0.011658353557560779
888.0, 0.012964813552244927
889.0, 0.013035666026742866
890.0, 0.014687303014153098
891.0, 0.014033836160755084
892.0, 0.014586470375506888
893.0, 0.015583889075171678
894.0, 0.015925614846333334
895.0, 0.015253752665626896
896.0, 0.016498642737770325
897.0, 0.016473493290290294
898.0, 0.01607171896042709
899.0, 0.01761453849865455
900.0, 0.019982680658989223
901.0, 0.01914031621578673
902.0, 0.017923712413509832
903.0, 0.018020162602394977
904.0, 0.020486183457570067
905.0, 0.02194275005424268
906.0, 0.021105212773274516
907.0, 0.02023985181493795
908.0, 0.020734489475854035
909.0, 0.02182538668246838
910.0, 0.02116633211015822
911.0, 0.020850051575185838
912.0, 0.02112780955547879
913.0, 0.022045396945845418
914.0, 0.024376325018364967
915.0, 0.023692620333656142
916.0, 0.024625917185388473
917.0, 0.02646661879779418
918.0, 0.026537569626237965
919.0, 0.027158572295991765
920.0, 0.027927062933195815
921.0, 0.028545472291992335
922.0, 0.029764147582761604
923.0, 0.03343627411970135
924.0, 0.03463652390240102
925.0, 0.03544276314399561
926.0, 0.03697193124821353
927.0, 0.03922078257363483
928.0, 0.040034846770952946
929.0, 0.04230009214503511
930.0, 0.04364355226999824
931.0, 0.043742060365097306
932.0, 0.0431224392002135
933.0, 0.04483443851030166
934.0, 0.04228154553362319
935.0, 0.03992981209028376
936.0, 0.03955263417703373
937.0, 0.04141641940664928
938.0, 0.03793779065048507
939.0, 0.03895891277540061
940.0, 0.0396096435494703
941.0, 0.039000417826832244
942.0, 0.038137446009710106
943.0, 0.04229643840778859
944.0, 0.04220584968213881
945.0, 0.04192522623732989
946.0, 0.042394369399620754
947.0, 0.042112196232305145
948.0, 0.042208804341958416
949.0, 0.04087844921198373
950.0, 0.03926660817165723
951.0, 0.037793863818142405
952.0, 0.03579097917676452
953.0, 0.03473172791884781
954.0, 0.03478988073953342
955.0, 0.03372234890430553
956.0, 0.03106874740526591
957.0, 0.03107290874747748
958.0, 0.02881115176521519
959.0, 0.02707493456520513
960.0, 0.02457275704113131
961.0, 0.020797320600525204
962.0, 0.020418193831457564
963.0, 0.018272767617096633
964.0, 0.016707566931126697
965.0, 0.016371852379116224
966.0, 0.017187005145908842
967.0, 0.016896732852572083
968.0, 0.015275493731934943
969.0, 0.01385950567197493
970.0, 0.013486523884118999
971.0, 0.014453916018516954
972.0, 0.013660182505395418
973.0, 0.012788710967704326
974.0, 0.011510823294683916
975.0, 0.010502507109660112
976.0, 0.010887166888072423
977.0, 0.012371567832336028
978.0, 0.013149062964481206
979.0, 0.013500146213516702
980.0, 0.013775117398307649
981.0, 0.014326462674668854
982.0, 0.011615224376402524
983.0, 0.01123685147609675
984.0, 0.012769038683379457
985.0, 0.013906273184917483
986.0, 0.010527098014062666
987.0, 0.012429835027513542
988.0, 0.014589781047944311
989.0, 0.014861608757813657
990.0, 0.013527203471756136
991.0, 0.013615420318298694
992.0, 0.013593505899390486
993.0, 0.014142561213336322
994.0, 0.015982992977943766
995.0, 0.01826542736376269
996.0, 0.017904444488080134
997.0, 0.018003151653296454
998.0, 0.017567826538719564
999.0, 0.018485220181398976
1000.0, 0.02033893039960661
1001.0, 0.018809643340064606
1002.0, 0.021540487554369804
1003.0, 0.020298865150932027
1004.0, 0.021178693229545156
1005.0, 0.02575289359285557
1006.0, 0.026316757563748103
1007.0, 0.026787647614352015
1008.0, 0.028596053337855167
1009.0, 0.029309735496508744
1010.0, 0.028744468585719506
1011.0, 0.0315985829733111
1012.0, 0.033040459360955
1013.0, 0.03540357336356541
1014.0, 0.03670879658509277
1015.0, 0.03653145371821957
1016.0, 0.038186681517692896
1017.0, 0.038349349393414146
1018.0, 0.040143636947331404
1019.0, 0.040597043528918755
1020.0, 0.038729478012245216
1021.0, 0.038452273845583314
1022.0, 0.04125274219923107
1023.0, 0.043827041681775494
1024.0, 0.045427479821087455
1025.0, 0.04605186035125612
1026.0, 0.04673814523391815
1027.0, 0.048215744647115755
1028.0, 0.04829902413957106
1029.0, 0.04895159661509214
1030.0, 0.051350777079072416
1031.0, 0.05479580798128368
1032.0, 0.05471681546621518
1033.0, 0.05509411677542366
1034.0, 0.056624267578178886
1035.0, 0.059776873017113825
1036.0, 0.06509148295574471
1037.0, 0.06676376255361896
1038.0, 0.06616529508398108
1039.0, 0.06823411522453225
1040.0, 0.07236848196504085
1041.0, 0.06948324393023583
1042.0, 0.0740072462118076
1043.0, 0.07524901666263899
1044.0, 0.07450066040347643
1045.0, 0.07411761632183529
1046.0, 0.07731985452867825
1047.0, 0.07555764148202251
1048.0, 0.07632415196192999
1049.0, 0.07657128432342193
1050.0, 0.07717991763854244
1051.0, 0.0830320464251648
1052.0, 0.07753027082485694
1053.0, 0.0831988151617528
1054.0, 0.08716195968621507
1055.0, 0.0869214601096228
1056.0, 0.08838387848242427
1057.0, 0.08899226859628145
1058.0, 0.09179951799378525
1059.0, 0.0939773858801209
1060.0, 0.09592658548217162
1061.0, 0.09970434046420988
1062.0, 0.10150347609177339
1063.0, 0.10102322615624741
1064.0, 0.1010825304841226
1065.0, 0.10306335516783142
1066.0, 0.10663896519156846
1067.0, 0.10224179942710943
1068.0, 0.10312375544877588
1069.0, 0.10528535523768928
1070.0, 0.10441358078842347
1071.0, 0.09861501618023276
1072.0, 0.10018359383210179
1073.0, 0.0997650564310039
1074.0, 0.09782509592507836
1075.0, 0.09431758993666564
1076.0, 0.08959416745393442
1077.0, 0.08556724784641956
1078.0, 0.08185362536001589
1079.0, 0.0791371222935399
1080.0, 0.0770709889331181
1081.0, 0.07474827386026234
1082.0, 0.07028462665450642
1083.0, 0.07018277216331079
1084.0, 0.06876656849316955
1085.0, 0.06596903788679753
1086.0, 0.06257973951868495
1087.0, 0.060006177921371875
1088.0, 0.0569539842641289
1089.0, 0.05391971072197146
1090.0, 0.050775414330417185
1091.0, 0.04771758883087451
1092.0, 0.045209960134544966
1093.0, 0.0419413532879255
1094.0, 0.04116137023507598
1095.0, 0.03833202039605742
1096.0, 0.034585977862307646
1097.0, 0.03355728527773563
1098.0, 0.029419624768372028
1099.0, 0.029376468125792032
1100.0, 0.02823049075176558
1101.0, 0.025939946445217403
1102.0, 0.02420496146558224
1103.0, 0.024481184276953193
1104.0, 0.023988585631816276
1105.0, 0.023072000744258157
1106.0, 0.021747142379002802
1107.0, 0.020254292005600867
1108.0, 0.019554260223397957
1109.0, 0.0191655759564429
1110.0, 0.018434180016663193
1111.0, 0.01833029272212109
1112.0, 0.018518025899951624
1113.0, 0.01664380383718843
1114.0, 0.01690780800032411
1115.0, 0.016405110254710645
1116.0, 0.01531972726574807
1117.0, 0.014519417158607427
1118.0, 0.015097727568157747
1119.0, 0.014140011999511468
1120.0, 0.016739530332067556
1121.0, 0.017229789257931036
1122.0, 0.018046828429044353
1123.0, 0.02275327553667018
1124.0, 0.02253806509484325
1125.0, 0.017923578433821814
1126.0, 0.013507312887462502
1127.0, 0.011074933969839378
1128.0, 0.01045623956128629
1129.0, 0.008032755263879254
1130.0, 0.010403221758128424
1131.0, 0.010629115184972329
1132.0, 0.00991758608266314
1133.0, 0.009558678676797324
1134.0, 0.010103662589176698
1135.0, 0.00861757077828831
1136.0, 0.006692782299044583
1137.0, 0.006987793739363644
1138.0, 0.006915033456442708
1139.0, 0.0025903072483122454
1140.0, 0.005136454747874004
1141.0, 0.005179071199712488
1142.0, 0.0043037822997349685
1143.0, 0.0034808561092107716
1144.0, 0.0032471853511149363
1145.0, 0.0032547678709416053
1146.0, 0.003077467122706247
1147.0, 0.0033007219035693473
1148.0, 0.0038124294517642033
1149.0, 0.003995026321359384
1150.0, 0.0027474920275399003
1151.0, 0.004413575464637086
1152.0, 0.004134082550736898
1153.0, 0.003761888225636723
1154.0, 0.0033928667198958257
1155.0, 0.002351724815071757
1156.0, 0.002734897709425078
1157.0, 0.0026512523405641526
1158.0, 0.002745237154688069
1159.0, 0.0026485019725675987
1160.0, 0.00197020274000756
1161.0, 0.0009227298518832366
1162.0, 0.0013313089378994758
1163.0, 0.001687034921804734
1164.0, 0.0015930820961071687
1165.0, 0.0013610862679512092
1166.0, 0.001855578703793288
1167.0, 0.0005788975629021976
1168.0, 0.0006224266276730072
1169.0, 0.0007313933344675205
1170.0, 0.0007653524593594586
1171.0, 0.000892508132864426
1172.0, 0.0002182517400196973
1173.0, 0.0005726647344829194
1174.0, 0.0007525391209371196
1175.0, 0.000600952143568894
1176.0, 0.0005668335519400714
1177.0, 0.0018064004150441417
1178.0, 0.0011543334773760653
1179.0, 0.0004111000219082949
1180.0, 0.0004412407198901831
1181.0, 0.0007156453319630814
1182.0, 0.0001240795546000681
1183.0, 0.00044395774270507976
1184.0, 0.0003531687719167177
1185.0, 0.0008360614466433755
1186.0, 0.001244423765251398
1187.0, 0.0011804848658959876
1188.0, 0.0017552529272642221
1189.0, 0.0014101318118664127
1190.0, 0.0007459517627249564
1191.0, 0.0004956958363881808
1192.0, 0.0010017731083389705
1193.0, 0.0021225406818797953
1194.0, 0.0025542724369892597
1195.0, 0.0013373125494436098
1196.0, 0.0004343517502334282
1197.0, 0.0003992109993257113
1198.0, 0.0010954189450467868
1199.0, 0.0017225040633713493
1200.0, 0.001257103653327781
1201.0, 0.0004519863952843993
1202.0, 0.0008460138265622038
1203.0, 0.0015671024165361453
1204.0, 0.00012919293847338915
1205.0, 0.0015317938530313747
1206.0, 0.0010554843992368658
1207.0, 0.0007088244931035406
1208.0, 0.0012578322819236567
1209.0, 0.002159244874280146
1210.0, 0.0004901035888924807
1211.0, 0.0015624546847380844
1212.0, 0.0011563638007418243
1213.0, 0.0009374499756209579
1214.0, 0.0012786379221184198
1215.0, 0.0012385780268696922
1216.0, 0.0013793049835899385
1217.0, 0.001142227743817309
1218.0, 0.0018397649187137364
1219.0, 0.0020162439265249046
1220.0, 0.001076435349481744
1221.0, 0.0020103371457451803
1222.0, 0.0007970523929597599
1223.0, 0.0017759992644389004
1224.0, 0.0019853579618130677
1225.0, 0.001287780319032099
1226.0, 0.00152703992916706
1227.0, 0.002417137267823931
1228.0, 0.0021762349843481472
1229.0, 0.0009753238992647971
1230.0, 0.0012219802891542694
1231.0, 0.002791201280054405
1232.0, 0.0008141467166200897
1233.0, 0.001321664862557588
1234.0, 0.0024621568769031678
1235.0, 0.0029494680975318236
1236.0, 0.0027278014111929145
1237.0, 0.0024893599844844193
1238.0, 0.003191117079402255
1239.0, 0.003204950967639866
1240.0, 0.0029970848053785326
1241.0, 0.003617142647899224
1242.0, 0.004245167418954367
1243.0, 0.002389220798258899
1244.0, 0.0015426758273765812
1245.0, 0.0017392224926563538
1246.0, 0.002570838617720542
1247.0, 0.0033697880907314157
1248.0, 0.0036314403642001528
1249.0, 0.0034434948519743054
1250.0, 0.002235417082625319
1251.0, 0.003707656928394701
1252.0, 0.003082948745925777
1253.0, 0.00157952739154576
1254.0, 0.003329332042204647
1255.0, 0.005342382538749442
1256.0, 0.0028878538277937703
1257.0, 0.003609773409546816
1258.0, 0.0044134721880333076
1259.0, 0.003269075352384611
1260.0, 0.0017431281666255684
1261.0, 0.002903440707229978
1262.0, 0.003241418354100969
1263.0, 0.0028263568736664013
1264.0, 0.0032586063092396272
1265.0, 0.004539692233541553
1266.0, 0.0019111166693030763
1267.0, 0.0051789116504341835
1268.0, 0.004530580463784262
1269.0, 0.0028986938196616484
1270.0, 0.0033852249637552232
1271.0, 0.0065483563149506775
1272.0, 0.002882247332301396
1273.0, 0.002996331516207453
1274.0, 0.0033677013460017913
1275.0, 0.003949706626831958
1276.0, 0.0038419677364151406
1277.0, 0.0015983782206807008
1278.0, 0.002331360119424661
1279.0, 0.0012305117937925422
1280.0, 0.0009511159691701722
1281.0, 0.0025509854242098764
1282.0, 0.00466537513509016
1283.0, 0.0030694263124601655
1284.0, 0.002598168399509662
1285.0, 0.003933619312117522
1286.0, 0.004260579603887175
1287.0, 0.0042095410441084676
1288.0, 0.0044860426974156035
1289.0, 0.0021027997240894575
1290.0, 0.0026517651407571346
1291.0, 0.0028510140912709247
1292.0, 0.0026234421255282546
1293.0, 0.002714125281052392
1294.0, 0.0036302725614011113
1295.0, 0.0030760801422813353
1296.0, 0.002976152552802594
1297.0, 0.003312446823225914
1298.0, 0.002741087250793907
1299.0, 0.002090247203222929
1300.0, 0.0035465394639914026
1301.0, 0.004289783541084911
1302.0, 0.0050616602019309224
1303.0, 0.0037663225878942024
1304.0, 0.0033307568042572388
1305.0, 0.004734328615277153
1306.0, 0.005417028167849303
1307.0, 0.003977093861202534
1308.0, 0.006036171880540208
1309.0, 0.0055718894898354136
1310.0, 0.005883663704391693
1311.0, 0.0071772267937888976
1312.0, 0.0013892610225510957
1313.0, 0.00283633582945249
1314.0, 0.0032619419112604113
1315.0, 0.004456040369187962
1316.0, 0.004802911752595351
1317.0, 0.00356133942874456
1318.0, 0.004335952035103855
1319.0, 0.0013378014484384862
1320.0, 0.003766667491562347
1321.0, 0.005756453753236004
1322.0, 0.0050685098735887444
1323.0, 0.0025405832441862453
1324.0, 0.0017645270076453562
1325.0, 0.0020153437217562777
1326.0, 0.002670234852268961
1327.0, 0.003144956722738851
1328.0, 0.0032619145117572797
1329.0, 0.0034218050464563435
1330.0, 0.005029470691554896
1331.0, 0.004756416671006086
1332.0, 0.0064409270920352014
1333.0, 0.006993601252906502
1334.0, 0.005193161933338249
1335.0, 0.0026091584457962587
1336.0, 0.00520642248851448
1337.0, 0.003923168482572975
1338.0, 0.00398142235198183
1339.0, 0.003252937664607071
1340.0, 0.0014645118603783451
1341.0, 0.00031604146235378837
1342.0, 0.0023426259033663384
1343.0, 0.004273733563719194
1344.0, 0.004515376500392967
1345.0, 0.0045218373267035174
1346.0, 0.004796551559137815
1347.0, 0.004706232655544396
1348.0, 0.0029533824033044485
1349.0, 0.0048986140324219244
1350.0, 0.0032658390888989607
1351.0, 0.001630852898422152
1352.0, 0.002456422232755197
1353.0, 0.004897362636087402
1354.0, 0.0018057741955510521
1355.0, 0.0023603400721758407
1356.0, 0.003142021789842078
1357.0, 0.002583493061429824
1358.0, 0.00222750143849709
1359.0, 0.004307150657972221
1360.0, 0.0044238737678272315
1361.0, 0.003681957216226128
1362.0, 0.003136880790783667
1363.0, 0.0025034394729590076
1364.0, 0.0018275853893919827
1365.0, 0.0012973722389707024
1366.0, 0.00033254716429881824
1367.0, 0.0015493780740836907
1368.0, 0.0016608884785623695
1369.0, 0.003168126387404841
1370.0, 0.0036781322165504162
1371.0, 0.00021381967570310265
1372.0, 0.0002003871704126175
1373.0, 0.0038409741763332766
1374.0, 0.0028043863902757287
1375.0, 0.0010501298699210156
1376.0, 0.001592876384092373
1377.0, 0.003934757303958231
1378.0, 0.0010353411182248264
1379.0, 0.001523735197013382
1380.0, 0.0024494972751398607
1381.0, 0.0025910023193720187
1382.0, 0.0016599919229414435
1383.0, 0.0011737970450733444
1384.0, 0.005495468149031421
1385.0, 0.001906933145552784
1386.0, 0.000656551513910357
1387.0, 0.0020129884315394585
1388.0, 0.0025236971861068054
1389.0, 0.000611624656608866
1390.0, 0.0010185223886239787
1391.0, 0.0001843206555735222
1392.0, 0.0002384345251169253
1393.0, 0.00044535841630633085
1394.0, 0.0007362396683859593
1395.0, 0.0015178308507821539
1396.0, 0.0033187322923301102
1397.0, 0.0036368284428952994
1398.0, 0.0012602540552712565
1399.0, 0.0015545786590294912
1400.0, 0.001547129262606444
1401.0, 0.0007734401331641513
1402.0, 0.0029287041724803315
1403.0, 0.0012415378871753517
1404.0, 0.003145635718409855
1405.0, 0.002762876927874119
1406.0, 0.0025831816045211293
1407.0, 0.0027285196657481333
1408.0, 0.0010941031541979492
1409.0, 0.001116906821161951
1410.0, 0.0017880712049065353
1411.0, 0.0025139361120577177
1412.0, 0.0031567949447518485
1413.0, 0.0030260514095562237
1414.0, 0.0018385499777986184
1415.0, 0.0015086057434195565
1416.0, 0.0020051483296874835
1417.0, 0.004566320010436488
1418.0, 0.006121628651763054
1419.0, 0.004435813453009287
1420.0, 0.0014210163280449352
1421.0, 0.004716916629390904
1422.0, 0.002139556230439984
1423.0, 0.005400895138601723
1424.0, 0.004484073600597691
1425.0, 0.0035631341672115522
1426.0, 0.005117225200045998
1427.0, 0.004415387531065553
1428.0, 0.0019627314611212585
1429.0, 0.004788015405560584
1430.0, 0.005052543807832495
1431.0, 0.004482222177732507
1432.0, 0.004844514981433234
1433.0, 0.005983509494223302
1434.0, 0.005872346022836121
1435.0, 0.006132819068182485
1436.0, 0.0045901699932915695
1437.0, 0.004607997892276492
1438.0, 0.006274094834900366
1439.0, 0.0071751083303966704
1440.0, 0.004405955594723411
1441.0, 0.0019217712610008527
1442.0, 0.0036802371732540433
1443.0, 0.0025016877729529077
1444.0, 0.002199811619348833
1445.0, 0.0045890985513473
1446.0, 0.005236347442036052
1447.0, 0.010730218563264428
1448.0, 0.007856364267221605
1449.0, 0.00885026317830081
1450.0, 0.006256791292571048
1451.0, 0.0015696372539744895
1452.0, 0.0026174572262683167
1453.0, 0.005328876527361066
1454.0, 0.0050015198189961455
1455.0, 0.00380908299126648
1456.0, 0.0052376492693645485
1457.0, 0.005286393762773761
1458.0, 0.002330138194362034
1459.0, 0.00421996935371074
1460.0, 0.005335257867488884
1461.0, 0.0031919380266699554
1462.0, 0.007148887634761067
1463.0, 0.007564770162750693
1464.0, 0.00324049463287991
1465.0, 0.003226776920163828
1466.0, 0.004289405883165931
1467.0, 0.0016083380836837567
1468.0, 0.004604473054547011
1469.0, 0.006442164392210612
1470.0, 0.006667400173375531
1471.0, 0.007384226073200008
1472.0, 0.007154923943239583
1473.0, 0.006482723317312721
1474.0, 0.004601299029023936
1475.0, 0.0046522401705736465
1476.0, 0.004957403195039025
1477.0, 0.0049746601790852385
1478.0, 0.006297138679625555
1479.0, 0.008252196040495456
1480.0, 0.006719372818047902
1481.0, 0.0034413936304218858
1482.0, 0.0028843394601834804
1483.0, 0.0031992060290776795
1484.0, 0.0026407886545338636
1485.0, 0.00613721366390912
1486.0, 0.005482552085460499
1487.0, 0.0053687615126446295
1488.0, 0.0045356843426167465
1489.0, 0.004086474735780365
1490.0, 0.004675058727662312
1491.0, 0.0056437922008247205
1492.0, 0.005304264333548619
1493.0, 0.004063447409744384
1494.0, 0.004968581164901358
1495.0, 0.004775545792774514
1496.0, 0.0036124278253056603
1497.0, 0.002950637189263866
1498.0, 0.0031523797140500555
1499.0, 0.0021651416956435924
1500.0, 0.0029305117719331188
1501.0, 0.0013239468115296632
1502.0, 0.0006128757464206654
1503.0, 0.0011551974067745283
1504.0, 0.0013185529912213326
1505.0, 0.0032730102103999746
1506.0, 0.0007735524895532435
1507.0, 0.003746647011069158
1508.0, 0.004174544021965144
1509.0, 0.0038436412379391567
1510.0, 0.003974286471163497
1511.0, 0.002126926932024571
1512.0, 0.0024976092211331964
1513.0, 0.003818288911851846
1514.0, 0.003894520319865555
1515.0, 0.0059097429194870646
1516.0, 0.0063280963462062625
1517.0, 0.003577741407453592
1518.0, 0.00498889455022747
1519.0, 0.0005157616210376302
1520.0, 0.0013387636514839423
1521.0, 0.003587996279441401
1522.0, 0.0027152796346729706
1523.0, 0.0006526039000008499
1524.0, 0.0012636189962827757
1525, 0.0
1526, 0.0
1527, 0.0
1528, 0.0
1529, 0.0
1530, 0.0
1531, 0.0
1532, 0.0
1533, 0.0
1534, 0.0
1535, 0.0
1536, 0.0
1537, 0.0
1538, 0.0
1539, 0.0
1540, 0.0
1541, 0.0
1542, 0.0
1543, 0.0
1544, 0.0
1545, 0.0
1546, 0.0
1547, 0.0
1548, 0.0
1549, 0.0
1550, 0.0
1551, 0.0
1552, 0.0
1553, 0.0
1554, 0.0
1555, 0.0
1556, 0.0
1557, 0.0
1558, 0.0
1559, 0.0
1560, 0.0
1561, 0.0
1562, 0.0
1563, 0.0
1564, 0.0
1565, 0.0
1566, 0.0
1567, 0.0
1568, 0.0
1569, 0.0
1570, 0.0
1571, 0.0
1572, 0.0
1573, 0.0
1574, 0.0
1575, 0.0
1576, 0.0
1577, 0.0
1578, 0.0
1579, 0.0
1580, 0.0
1581, 0.0
1582, 0.0
1583, 0.0
1584, 0.0
1585, 0.0
1586, 0.0
1587, 0.0
1588, 0.0
1589, 0.0
1590, 0.0
1591, 0.0
1592, 0.0
1593, 0.0
1594, 0.0
1595, 0.0
1596, 0.0
1597, 0.0
1598, 0.0
1599, 0.0
