30, 0.0
31, 0.0
32, 0.0
33, 0.0
34, 0.0
35, 0.0
36, 0.0
37, 0.0
38, 0.0
39, 0.0
40, 0.0
41, 0.0
42, 0.0
43, 0.0
44, 0.0
45, 0.0
46, 0.0
47, 0.0
48, 0.0
49, 0.0
50, 0.0
51, 0.0
52, 0.0
53, 0.0
54, 0.0
55, 0.0
56, 0.0
57, 0.0
58, 0.0
59, 0.0
60, 0.0
61, 0.0
62, 0.0
63, 0.0
64, 0.0
65, 0.0
66, 0.0
67, 0.0
68, 0.0
69, 0.0
70, 0.0
71, 0.0
72, 0.0
73, 0.0
74, 0.0
75, 0.0
76, 0.0
77, 0.0
78, 0.0
79, 0.0
80, 0.0
81, 0.0
82, 0.0
83, 0.0
84, 0.0
85, 0.0
86, 0.0
87, 0.0
88, 0.0
89, 0.0
90, 0.0
91, 0.0
92, 0.0
93, 0.0
94, 0.0
95, 0.0
96, 0.0
97, 0.0
98, 0.0
99, 0.0
100, 0.0
101, 0.0
102, 0.0
103, 0.0
104, 0.0
105, 0.0
106, 0.0
107, 0.0
108, 0.0
109, 0.0
110, 0.0
111, 0.0
112, 0.0
113, 0.0
114, 0.0
115, 0.0
116, 0.0
117, 0.0
118, 0.0
119, 0.0
120, 0.0
121, 0.0
122, 0.0
123, 0.0
124, 0.0
125, 0.0
126, 0.0
127, 0.0
128, 0.0
129, 0.0
130, 0.0
131, 0.0
132, 0.0
133, 0.0
134, 0.0
135, 0.0
136, 0.0
137, 0.0
138, 0.0
139, 0.0
140, 0.0
141, 0.0
142, 0.0
143.0, 0.0005636663066915996
144.0, 0.001070776091328206
145.0, 0.001297069958747441
146.0, 0.0006483583828537447
147.0, 0.0003079061840468983
148.0, 0.000410700779284163
149.0, 0.001112587064945454
150.0, 0.0038007024798544153
151.0, 0.008728999108042174
152.0, 0.01567906479801479
153.0, 0.02492524379476125
154.0, 0.03614926566742227
155.0, 0.04772344165926092
156.0, 0.059439053411743235
157.0, 0.07123086326585573
158.0, 0.08209096025233587
159.0, 0.0917224956477096
160.0, 0.09978253865633242
161.0, 0.10130074367365975
162.0, 0.09978285712255146
163.0, 0.0958454163875443
164.0, 0.09019665812788266
165.0, 0.08341612615649825
166.0, 0.07803795723535165
167.0, 0.0744799826263456
168.0, 0.06952181675315208
169.0, 0.06849268065707415
170.0, 0.06855774662239487
171.0, 0.06717268501764023
172.0, 0.06920025670369921
173.0, 0.07170827909815268
174.0, 0.07420057137279176
175.0, 0.07569452244989812
176.0, 0.07575193744341548
177.0, 0.075923032086158
178.0, 0.07679631484623523
179.0, 0.07643484692892373
180.0, 0.07635170509569743
181.0, 0.07522640675412348
182.0, 0.07080452192887587
183.0, 0.06826579214609202
184.0, 0.06637820002718783
185.0, 0.0646831858108643
186.0, 0.06159182504595068
187.0, 0.05998162980833644
188.0, 0.0579233299986105
189.0, 0.05425689029326086
190.0, 0.05428594002122284
191.0, 0.05503693957129276
192.0, 0.0561587349339814
193.0, 0.057065120333794926
194.0, 0.059282351272490943
195.0, 0.06175470024648071
196.0, 0.06427777912813314
197.0, 0.06690041851114316
198.0, 0.07085574697159909
199.0, 0.07524852357301405
200.0, 0.07951379555550425
201.0, 0.08463808039896924
202.0, 0.09058756245945533
203.0, 0.0966749800688083
204.0, 0.10130497061779035
205.0, 0.1075269802749195
206.0, 0.11406318805446107
207.0, 0.12020895683632758
208.0, 0.12227768186814453
209.0, 0.12817107254496227
210.0, 0.13499108922507042
211.0, 0.1406504938242575
212.0, 0.14362191456772805
213.0, 0.1497206649933645
214.0, 0.15763920250671914
215.0, 0.1640289747086735
216.0, 0.1733546334528143
217.0, 0.18296212051901567
218.0, 0.19234775286514666
219.0, 0.20261105712549063
220.0, 0.21292296501581634
221.0, 0.22234049320960614
222.0, 0.23003158427299017
223.0, 0.23924490687186736
224.0, 0.24737622966469613
225.0, 0.2538310677122485
226.0, 0.2571292358303874
227.0, 0.2617882208301905
228.0, 0.2646739471506842
229.0, 0.265129640557896
230.0, 0.2633430371947711
231.0, 0.2592364624722246
232.0, 0.2526247390749332
233.0, 0.24310759458989437
234.0, 0.2310160979503799
235.0, 0.2156116192139096
236.0, 0.19818979964741554
237.0, 0.18070286230080154
238.0, 0.16387986657387035
239.0, 0.14886294181637227
240.0, 0.1353613762257125
241.0, 0.12103837984147166
242.0, 0.10859054494756483
243.0, 0.09735956621149597
244.0, 0.08722251554651973
245.0, 0.08062495332709946
246.0, 0.07318749745184336
247.0, 0.06584902375908235
248.0, 0.059805887393992556
249.0, 0.056617427873809814
250.0, 0.05170932439224841
251.0, 0.0457094927849871
252.0, 0.041938826415294166
253.0, 0.040646215849311995
254.0, 0.03935459742633641
255.0, 0.03746075274554062
256.0, 0.03664459317659915
257.0, 0.03527492358148641
258.0, 0.03439217127585536
259.0, 0.03487303372824546
260.0, 0.03411448253195571
261.0, 0.03289683585400705
262.0, 0.0316720824587714
263.0, 0.03128702262202021
264.0, 0.029493521229040393
265.0, 0.024645916542738327
266.0, 0.017678961014201484
267.0, 0.014601352594956193
268.0, 0.010947802942658949
269.0, 0.007422477458565328
270.0, 0.004389575739033412
271.0, 0.0028486142148845873
272.0, 0.0016231603677505934
273.0, 0.0011251642904253716
274.0, 0.001896472568626572
275.0, 0.0031100917418052064
276.0, 0.0036407866415674272
277.0, 0.003921473574043554
278.0, 0.005107054215399387
279.0, 0.005140790223109076
280.0, 0.004711711287463592
281.0, 0.004069358480799164
282.0, 0.003867296146578551
283.0, 0.00325137229985969
284.0, 0.002717982410184482
285.0, 0.0025057109049802817
286.0, 0.0023782406141469124
287.0, 0.0017200877513986407
288.0, 0.000940012684909633
289.0, 0.00046248708374235407
290.0, 0.0025780779973096635
291.0, 0.004640605787320026
292.0, 0.006236849271848161
293.0, 0.006693750832975419
294.0, 0.008672110298381934
295.0, 0.010411196709429823
296.0, 0.011836500219288906
297.0, 0.014377282315765025
298.0, 0.01636498460352055
299.0, 0.018537244078039482
300.0, 0.021211027772663073
301.0, 0.024117249128329975
302.0, 0.02805937910322185
303.0, 0.03198321416958507
304.0, 0.0349425456398124
305.0, 0.040306990026075254
306.0, 0.04451522098034786
307.0, 0.04849808087591798
308.0, 0.05414150492996766
309.0, 0.05775840732553776
310.0, 0.060647289142107874
311.0, 0.06311352426074986
312.0, 0.06558906325268438
313.0, 0.06684328046661252
314.0, 0.06749894931334832
315.0, 0.06742438107637642
316.0, 0.064114192384958
317.0, 0.061001445926304985
318.0, 0.058484594637472555
319.0, 0.056756663697810635
320.0, 0.05196293925123785
321.0, 0.04862908510388909
322.0, 0.045822100907850036
323.0, 0.042536879900075444
324.0, 0.04017539100069921
325.0, 0.036968569092562444
326.0, 0.03431324587691847
327.0, 0.035461131069460194
328.0, 0.03322258311795975
329.0, 0.03151612536212432
330.0, 0.030922318886989618
331.0, 0.031326000787764256
332.0, 0.03305522013181803
333.0, 0.03391552948629273
334.0, 0.03360331719762954
335.0, 0.03555901918882953
336.0, 0.03762902584187417
337.0, 0.03982284409185913
338.0, 0.042168480710242186
339.0, 0.0450676822758374
340.0, 0.04744272598267426
341.0, 0.05031631026438388
342.0, 0.054756587621576126
343.0, 0.05725301734314253
344.0, 0.06015643212777162
345.0, 0.06308523137542588
346.0, 0.06525429070166998
347.0, 0.06558081286944847
348.0, 0.0652258443032128
349.0, 0.06459456288200828
350.0, 0.06444120416006444
351.0, 0.06517162853444365
352.0, 0.0637713698022343
353.0, 0.060657369765856214
354.0, 0.06130682028553387
355.0, 0.05980733906810532
356.0, 0.0584865910713046
357.0, 0.058239126776164725
358.0, 0.059144320062571455
359.0, 0.05909854892952435
360.0, 0.05958182298577491
361.0, 0.06148529502776613
362.0, 0.06351098635410629
363.0, 0.06482050874611099
364.0, 0.0664478093006769
365.0, 0.0694198267784537
366.0, 0.07083375205796624
367.0, 0.07288436866352122
368.0, 0.07511588871930464
369.0, 0.07677654554030117
370.0, 0.0788507383182542
371.0, 0.08006054938621507
372.0, 0.08019586497591191
373.0, 0.07891137526120853
374.0, 0.07777047332979005
375.0, 0.07657911497608294
376.0, 0.07522823489788524
377.0, 0.07343322093247853
378.0, 0.07159252906584959
379.0, 0.0689179704450414
380.0, 0.06555921389450774
381.0, 0.06350570042346139
382.0, 0.061821690394443914
383.0, 0.059686071849834245
384.0, 0.05694982470346989
385.0, 0.05534170417909379
386.0, 0.054272680109263144
387.0, 0.053234760687211065
388.0, 0.05189118936532108
389.0, 0.04923488286369984
390.0, 0.048941376744073055
391.0, 0.04891407805453658
392.0, 0.04754071247080149
393.0, 0.0470675334173166
394.0, 0.047033278186965774
395.0, 0.046906139801951414
396.0, 0.04608750082969113
397.0, 0.045516026026130564
398.0, 0.044211177609311
399.0, 0.04285027893725159
400.0, 0.04250386547909743
401.0, 0.03969982936285779
402.0, 0.03729815708142553
403.0, 0.03554733024588459
404.0, 0.03456053549417279
405.0, 0.03201096100412505
406.0, 0.02942638492367601
407.0, 0.027022124137696238
408.0, 0.024870464484178338
409.0, 0.022929229518315053
410.0, 0.021066517391538555
411.0, 0.01913899494026701
412.0, 0.016721170572963805
413.0, 0.014440850946836283
414.0, 0.01320901639338804
415.0, 0.012899295778313377
416.0, 0.011833310395679687
417.0, 0.011316830298700288
418.0, 0.010978040845928861
419.0, 0.01083338518767374
420.0, 0.011701172849783836
421.0, 0.011929052645759887
422.0, 0.011937047731560572
423.0, 0.012048359927830477
424.0, 0.01360860260118433
425.0, 0.015449453257003332
426.0, 0.016383083406514155
427.0, 0.01610027268317102
428.0, 0.018313779896282734
429.0, 0.018602623081225917
430.0, 0.01849268127800746
431.0, 0.018813972175487234
432.0, 0.018294582098608094
433.0, 0.018176781454188103
434.0, 0.01773176547459777
435.0, 0.016443895070375327
436.0, 0.014801621867739942
437.0, 0.01303794707322291
438.0, 0.011112635750917086
439.0, 0.009005108514145517
440.0, 0.008067004899195034
441.0, 0.00659031846845215
442.0, 0.005007071426890653
443.0, 0.0037294085000403564
444.0, 0.002505643073595411
445.0, 0.0014726506151741367
446.0, 0.0007163259053446772
447.0, 0.0003373937313410927
448.0, 0.0007695187168053582
449.0, 0.0010556587152380484
450.0, 0.0016575534972632369
451.0, 0.0031720536983716584
452.0, 0.0030807950029787994
453.0, 0.002579527056405728
454.0, 0.002415455114785156
455.0, 0.0035502568425903307
456.0, 0.0034706890427854153
457.0, 0.0033007530613701633
458.0, 0.0028366700748348253
459.0, 0.001699636159527621
460.0, 0.001939760318503953
461.0, 0.001406506628137812
462.0, 0.00063387663243448
463.0, 0.0006085837066068213
464.0, 0.0008178755601292304
465.0, 0.0005946822000255802
466.0, 0.00020468299445362728
467.0, 0.00013210977350869985
468.0, 0.0001482498911570082
469.0, 0.00024395605609658653
470.0, 0.00035354170595803066
471.0, 0.0003703742687474528
472.0, 0.0006187053885904797
473.0, 0.0006180145979955809
474.0, 0.0004053658608020213
475.0, 9.255869869664366e-05
476.0, 0.0003221724801064923
477.0, 0.0006521846331618855
478.0, 0.0008532573735276225
479.0, 0.000591311992653825
480.0, 0.00021353051166186015
481.0, 0.00040286256610231117
482.0, 0.0008167575170395721
483.0, 0.0008163196344659283
484.0, 0.0009242759636645354
485.0, 0.00163416851505606
486.0, 0.0024463633573291125
487.0, 0.0025087832924809857
488.0, 0.0028995106072051764
489.0, 0.0035389421002040324
490.0, 0.003998343482979206
491.0, 0.0036201377923968173
492.0, 0.004013996775692764
493.0, 0.004665019729869837
494.0, 0.005538387200143295
495.0, 0.006631862346081719
496.0, 0.007218291976667186
497.0, 0.007765414915099273
498.0, 0.008779255963453633
499.0, 0.010921088267667446
500.0, 0.011584079740386577
501.0, 0.012611077509900082
502.0, 0.014136123694330713
503.0, 0.016251031998251213
504.0, 0.017338338041718044
505.0, 0.018901427042722442
506.0, 0.02040567003327493
507.0, 0.021225269419306473
508.0, 0.024076872621941848
509.0, 0.025125385438583312
510.0, 0.026008923459338862
511.0, 0.02835708405290407
512.0, 0.02938301520807268
513.0, 0.0302414215433072
514.0, 0.03165437090243126
515.0, 0.03417383442961954
516.0, 0.03494004267608216
517.0, 0.036731060446189276
518.0, 0.03920283163455583
519.0, 0.0419154521426749
520.0, 0.04120224420336958
521.0, 0.04251384596530651
522.0, 0.04415963282813301
523.0, 0.04509839104677865
524.0, 0.04593988303277736
525.0, 0.04633914529209419
526.0, 0.04666240839375134
527.0, 0.046989367738453254
528.0, 0.04623840911979452
529.0, 0.04639691094430585
530.0, 0.04656611513298757
531.0, 0.046252881800185094
532.0, 0.0448584992288181
533.0, 0.0446452141518987
534.0, 0.04411433205316225
535.0, 0.04288578527615298
536.0, 0.04180157579996878
537.0, 0.03882569064194288
538.0, 0.0362364382309254
539.0, 0.03438529512064575
540.0, 0.03210256021488788
541.0, 0.029820714583777986
542.0, 0.028089507856840598
543.0, 0.026431814799426096
544.0, 0.023078571264479326
545.0, 0.021760839960172293
546.0, 0.02088884961298647
547.0, 0.020048429707233858
548.0, 0.01887861977177757
549.0, 0.01863359054465599
550.0, 0.018615535848782613
551.0, 0.01848368366931532
552.0, 0.01777957132242616
553.0, 0.0178760558936064
554.0, 0.017431120450514596
555.0, 0.01661839857883479
556.0, 0.01576892929155194
557.0, 0.01568652541200384
558.0, 0.015228517176881373
559.0, 0.01477738812063861
560.0, 0.014692829406703736
561.0, 0.013409775834572406
562.0, 0.012464606387408293
563.0, 0.011717326290878127
564.0, 0.011010373220117543
565.0, 0.009580650904300103
566.0, 0.009225692913219475
567.0, 0.008938103520324871
568.0, 0.008299903188190459
569.0, 0.008197816114932789
570.0, 0.007418730565331226
571.0, 0.006899439495819102
572.0, 0.0068383442083586495
573.0, 0.006499174849703033
574.0, 0.0072962895498549
575.0, 0.0076107372208883625
576.0, 0.007436594715742414
577.0, 0.00806033255007331
578.0, 0.008695247389868873
579.0, 0.009126418292527748
580.0, 0.009459334719097726
581.0, 0.009989775044066772
582.0, 0.010435239437446174
583.0, 0.010841038951708964
584.0, 0.011470133379931611
585.0, 0.012691662831756592
586.0, 0.011961082820612227
587.0, 0.011896379026881393
588.0, 0.011877896406006276
589.0, 0.011211103752677282
590.0, 0.0095278061762457
591.0, 0.008681079905882079
592.0, 0.007414376533400647
593.0, 0.00509760939808707
594.0, 0.003920632010056029
595.0, 0.0033448454226188747
596.0, 0.0022715376494867306
597.0, 0.0006009755880623524
598.0, 0.0003625788841194218
599.0, 0.0006332430904183876
600.0, 0.0009626493511779595
601.0, 0.0010648264159081873
602.0, 0.0004310127086486576
603.0, 0.0014252689675878219
604.0, 0.0011461681791246942
605.0, 9.106959722008906e-05
606.0, 9.248942779164239e-05
607.0, 0.00040705439941150594
608.0, 0.0008380835599135118
609.0, 0.0012900200999559357
610.0, 0.0016607426400203093
611.0, 0.001383979706839054
612.0, 0.0016799135698298856
613.0, 0.0023491065130057365
614.0, 0.0031474196960442624
615.0, 0.0030704983198762813
616.0, 0.003447744037893627
617.0, 0.004086171009868419
618.0, 0.0048091903862504835
619.0, 0.0051475565488452646
620.0, 0.006008389220309159
621.0, 0.006828961737540624
622.0, 0.007591503856871575
623.0, 0.008716691684435583
624.0, 0.010337478496821121
625.0, 0.011333760748517404
626.0, 0.01166683165950379
627.0, 0.011553883322544423
628.0, 0.013967727464074112
629.0, 0.014988027934003641
630.0, 0.015311263272489705
631.0, 0.0158882181630429
632.0, 0.017448775205148266
633.0, 0.01775084304029418
634.0, 0.018338031616272673
635.0, 0.01996705770503652
636.0, 0.021078261556755466
637.0, 0.02264317843542653
638.0, 0.024027962722932998
639.0, 0.025277474178356237
640.0, 0.027342105744550194
641.0, 0.028304538218881962
642.0, 0.03023895461713297
643.0, 0.03281000041955029
644.0, 0.03467037608570434
645.0, 0.03724113857637177
646.0, 0.03958950189590533
647.0, 0.0423618619803074
648.0, 0.04626326370108777
649.0, 0.0501276604642704
650.0, 0.05397230047595681
651.0, 0.0580310903284881
652.0, 0.06261925505234817
653.0, 0.06897174076129095
654.0, 0.07485834961880862
655.0, 0.08132356535646826
656.0, 0.08812838033188453
657.0, 0.09343569064692762
658.0, 0.10113839422393976
659.0, 0.11155139567635894
660.0, 0.12259737866664447
661.0, 0.1308010246450725
662.0, 0.14246571113932632
663.0, 0.15696324657009403
664.0, 0.1722881201984247
665.0, 0.1869506450913078
666.0, 0.20565536349038194
667.0, 0.22967336386251
668.0, 0.2565563930601219
669.0, 0.2871140234874315
670.0, 0.3307266600552454
671.0, 0.37636393577618193
672.0, 0.42888569394292436
673.0, 0.4913943738442367
674.0, 0.568162489504353
675.0, 0.6418002997820318
676.0, 0.7267141033803833
677.0, 0.8088424751441978
678.0, 0.8721725387906469
679.0, 0.935551240062424
680.0, 0.9792158098057236
681.0, 0.9914644589425341
682.0, 0.9672286706354168
683.0, 0.9132149020695262
684.0, 0.8444271039981577
685.0, 0.7618885723409047
686.0, 0.670561700534758
687.0, 0.5822172984424716
688.0, 0.5036857469297632
689.0, 0.4358843576274543
690.0, 0.37539074948649576
691.0, 0.31794618500349475
692.0, 0.27582450541951525
693.0, 0.23574058119886582
694.0, 0.20403583501890574
695.0, 0.18224548566543816
696.0, 0.15728166267916444
697.0, 0.13976839540516992
698.0, 0.12476923010147865
699.0, 0.11139327437193891
700.0, 0.10071729996449885
701.0, 0.09260424450612943
702.0, 0.08425901842014127
703.0, 0.07641786421777096
704.0, 0.07015351133295245
705.0, 0.06518349738585644
706.0, 0.061887620095011586
707.0, 0.05836575802330286
708.0, 0.05387321320300487
709.0, 0.04995663510170254
710.0, 0.04839948398692019
711.0, 0.046272967595357664
712.0, 0.04401378777784708
713.0, 0.04388437872324394
714.0, 0.0417200856089165
715.0, 0.040801920967964624
716.0, 0.040006906685451385
717.0, 0.03821545244921513
718.0, 0.03700732497288417
719.0, 0.03799032634022354
720.0, 0.037883095919630426
721.0, 0.03603955440771238
722.0, 0.035199684925570726
723.0, 0.035331388524148334
724.0, 0.034906673730236114
725.0, 0.03406847404772653
726.0, 0.033398672137336056
727.0, 0.03344126850958554
728.0, 0.03158804287199632
729.0, 0.03090554933380045
730.0, 0.0327340749241722
731.0, 0.03195461300301459
732.0, 0.030026117772459004
733.0, 0.02933659758787552
734.0, 0.029489914990137103
735.0, 0.02804353384279059
736.0, 0.028060916526010282
737.0, 0.027600814202455397
738.0, 0.02681687339853802
739.0, 0.02601728150304329
740.0, 0.025379708116943317
741.0, 0.024452656353964937
742.0, 0.02363361927155644
743.0, 0.02285168793035479
744.0, 0.02130267695803377
745.0, 0.02087503555427247
746.0, 0.019913922798032186
747.0, 0.018326958397148815
748.0, 0.016368714231199784
749.0, 0.016527643811309223
750.0, 0.01611362140484728
751.0, 0.015483220948301523
752.0, 0.014698649452789257
753.0, 0.013044689304102042
754.0, 0.01318511604272499
755.0, 0.01237659499527349
756.0, 0.010997305632232503
757.0, 0.010616554305843462
758.0, 0.010617169230207574
759.0, 0.009480154336163464
760.0, 0.008759474555341217
761.0, 0.009130313131341146
762.0, 0.007773743983913352
763.0, 0.006744113323165451
764.0, 0.006180588652030537
765.0, 0.0059194466683766996
766.0, 0.005550671414563542
767.0, 0.0048435889385924965
768.0, 0.003856410239287713
769.0, 0.0031925693401198786
770.0, 0.0031974035159537265
771.0, 0.002770237602127908
772.0, 0.002219179731205151
773.0, 0.002026382954683784
774.0, 0.0018530476071063405
775.0, 0.0006107440232712122
776.0, 0.000451491092384034
777.0, 0.0006210313554180479
778.0, 0.0007454767320236357
779.0, 0.0005467290680096042
780.0, 0.00015501478158984317
781.0, 0.0001573776352715477
782.0, 0.00029376715603711157
783.0, 0.00046815972800181416
784.0, 0.0006514338096886369
785.0, 0.0002657769606241446
786.0, 0.0006524640161647112
787.0, 0.0009792397647497687
788.0, 0.0005650751485750576
789.0, 0.0006245562695234534
790.0, 0.0005013883263579066
791.0, 0.000357492320331533
792.0, 0.0002527123951717549
793.0, 0.0002045710719972005
794.0, 0.00015256337083847555
795.0, 0.00037747507799306204
796.0, 0.0006114111294844213
797.0, 0.0006535995380377086
798.0, 0.0008282108571736422
799.0, 0.001002353239073979
800.0, 0.0009190417717133047
801.0, 0.0007073193678050113
802.0, 0.0007868100932571207
803.0, 0.0005418367148842814
804.0, 0.0007716624018646369
805.0, 0.0008375105544800472
806.0, 0.00041074333243188224
807.0, 0.0006089238473024573
808.0, 0.0004924907907193969
809.0, 0.000239957336112174
810.0, 0.00024387782922932738
811.0, 0.0010862860140904975
812.0, 0.001031520694754331
813.0, 0.0006933078812197645
814.0, 0.0005432826308038257
815.0, 0.0007316387937032454
816.0, 0.0005778696362331568
817.0, 0.0005994622305666419
818.0, 0.0006796775053201774
819.0, 0.000687722210990422
820.0, 0.0005144061672834113
821.0, 0.0015051842277137464
822.0, 0.0014529738962363059
823.0, 0.0008722451202401356
824.0, 0.000430905669015753
825.0, 0.0014652725999497879
826.0, 0.0010232245238390942
827.0, 0.0008295285998607385
828.0, 0.0009131456358873883
829.0, 0.0010253231686387534
830.0, 0.00047614874462192604
831.0, 0.00017770281233208605
832.0, 0.00020095716592870356
833.0, 0.0005091800246559683
834.0, 0.0009567797618807571
835.0, 0.0013019067531988004
836.0, 0.0008653264593083239
837.0, 0.0005447739289337962
838.0, 0.000959488786784664
839.0, 0.0015043743050477106
840.0, 0.0008737347732588886
841.0, 0.0007093815693907046
842.0, 0.0009627815662365198
843.0, 0.0010039116054814331
844.0, 0.0013901732932107285
845.0, 0.0007289857534612262
846.0, 0.0005645183324845115
847.0, 0.0011109805343762493
848.0, 0.0004230697218462448
849.0, 0.0004139022303398195
850.0, 0.0003841601509976279
851.0, 0.000548704008575273
852.0, 0.0010465019672264452
853.0, 0.0005084608652990599
854.0, 0.00028741176683707914
855.0, 0.0005594169868042685
856.0, 0.0010534217409096625
857.0, 0.0011485552724223808
858.0, 0.00088391765505485
859.0, 0.0005084684581709782
860.0, 0.000337811543784739
861.0, 0.0005473125213437753
862.0, 0.001074570434949467
863.0, 0.000735229434101887
864.0, 0.0011138752184668415
865.0, 0.0017629199115896668
866.0, 0.0019329374415654296
867.0, 0.0018642349182054817
868.0, 0.0023772576482793116
869.0, 0.0025061811587584566
870.0, 0.0022215703488719855
871.0, 0.002138922976828674
872.0, 0.003076439920567475
873.0, 0.0038624019997510048
874.0, 0.004441689393233785
875.0, 0.004838943948775095
876.0, 0.0052023176516667385
877.0, 0.005795446258075983
878.0, 0.006648589584971815
879.0, 0.007269825857433441
880.0, 0.00723905767456101
881.0, 0.007703071150191815
882.0, 0.0076086109443632794
883.0, 0.0077938816624154
884.0, 0.00829494842491782
885.0, 0.008686733594566955
886.0, 0.008997907741441706
887.0, 0.010410016770113493
888.0, 0.012461014128329534
889.0, 0.01427157261151143
890.0, 0.01387883030357045
891.0, 0.015747780251340444
892.0, 0.017698596735925203
893.0, 0.019218095614326854
894.0, 0.020386206390363384
895.0, 0.023544647444649357
896.0, 0.024229993873872344
897.0, 0.02573017759704802
898.0, 0.028127698352597146
899.0, 0.03035942866945185
900.0, 0.03170962829815564
901.0, 0.03354443250877592
902.0, 0.035585633663716226
903.0, 0.03737790204331659
904.0, 0.03815398032820952
905.0, 0.04070086497451978
906.0, 0.042247700233067745
907.0, 0.04380643832677401
908.0, 0.04582117535720724
909.0, 0.04702041482323769
910.0, 0.04875797371190744
911.0, 0.051613100008490495
912.0, 0.054636298770633196
913.0, 0.05680093436978262
914.0, 0.058208229726313614
915.0, 0.061915967210608186
916.0, 0.0653889415409651
917.0, 0.06816632126351178
918.0, 0.07061226451055432
919.0, 0.07449730906494562
920.0, 0.07906565438438319
921.0, 0.08263091466037126
922.0, 0.08541113294502217
923.0, 0.08937759417590779
924.0, 0.09251657633135264
925.0, 0.09645093887493665
926.0, 0.1004431828094299
927.0, 0.10394059888974487
928.0, 0.10670139599331176
929.0, 0.10894702681443824
930.0, 0.11127942798107025
931.0, 0.11262686351453328
932.0, 0.11201905540154197
933.0, 0.10912627778408575
934.0, 0.10724404638334943
935.0, 0.10718239452295888
936.0, 0.10548226380842955
937.0, 0.0992757604843678
938.0, 0.10042025357174297
939.0, 0.0974316006047406
940.0, 0.09496360424373554
941.0, 0.09396304999652096
942.0, 0.0937476453985477
943.0, 0.09322880277809574
944.0, 0.09150494047946946
945.0, 0.09089635939571686
946.0, 0.09185411080344846
947.0, 0.09331309514637297
948.0, 0.09175856792451752
949.0, 0.09192955778672116
950.0, 0.0923130734842781
951.0, 0.09244778091227644
952.0, 0.09350075780595656
953.0, 0.09130130456775068
954.0, 0.08850252777979935
955.0, 0.08687432608714452
956.0, 0.08651809078012965
957.0, 0.08355593655064755
958.0, 0.08045073570267651
959.0, 0.07734404658560845
960.0, 0.07473762803843319
961.0, 0.07295351359265129
962.0, 0.07155661306656048
963.0, 0.07062068712999692
964.0, 0.07026689091962146
965.0, 0.0702244671596007
966.0, 0.07027837813256003
967.0, 0.07134038059626788
968.0, 0.07116377250120329
969.0, 0.07122972269504786
970.0, 0.07232914598986634
971.0, 0.074671669546811
972.0, 0.07462574001303621
973.0, 0.07510991008577253
974.0, 0.07552311436336029
975.0, 0.07594669991058572
976.0, 0.07670354636058935
977.0, 0.07655348901461156
978.0, 0.07517035149150621
979.0, 0.07511721565046313
980.0, 0.07558448750705264
981.0, 0.07362327817420308
982.0, 0.07278988469153745
983.0, 0.07396846050858488
984.0, 0.07266750360753481
985.0, 0.06978224764117413
986.0, 0.07095363852994915
987.0, 0.07078914740095657
988.0, 0.06905269770522775
989.0, 0.06805032990617314
990.0, 0.0678199177435079
991.0, 0.06583852239073117
992.0, 0.06638423822336337
993.0, 0.06564194628918806
994.0, 0.06538761864690003
995.0, 0.0656206332513461
996.0, 0.06374170880908786
997.0, 0.06333258174800098
998.0, 0.06398581358764106
999.0, 0.0634139401343835
1000.0, 0.061725186401207284
1001.0, 0.06298970719003123
1002.0, 0.06158914310858328
1003.0, 0.06274643622134049
1004.0, 0.06366382211426033
1005.0, 0.06305019696269007
1006.0, 0.06294159730545114
1007.0, 0.0647160669131868
1008.0, 0.06504416212720711
1009.0, 0.06603971884907549
1010.0, 0.06806160581473845
1011.0, 0.06736435449346732
1012.0, 0.06714731484893753
1013.0, 0.06898679516036726
1014.0, 0.07027345428343963
1015.0, 0.06953309320448184
1016.0, 0.06803670889559066
1017.0, 0.06990709132234145
1018.0, 0.0705394124089198
1019.0, 0.07045561422722169
1020.0, 0.07042956818081761
1021.0, 0.07099339861205893
1022.0, 0.07144265312364362
1023.0, 0.07213317331777239
1024.0, 0.07253299044181744
1025.0, 0.07233384393086928
1026.0, 0.07175153799101977
1027.0, 0.07429018149304908
1028.0, 0.07474419084679063
1029.0, 0.07618544238274122
1030.0, 0.07965601246527884
1031.0, 0.08141859275840756
1032.0, 0.08170783997731833
1033.0, 0.08390989545784522
1034.0, 0.08706486588229236
1035.0, 0.09008471842813068
1036.0, 0.0920696647899883
1037.0, 0.09616843463087903
1038.0, 0.09978405453450155
1039.0, 0.10317900944634421
1040.0, 0.10674827815288905
1041.0, 0.110901314053961
1042.0, 0.1120218889986948
1043.0, 0.11478721562730919
1044.0, 0.11931626601033218
1045.0, 0.12381922438527039
1046.0, 0.12429605954521042
1047.0, 0.12815130181113638
1048.0, 0.13147869179624744
1049.0, 0.13614188803334515
1050.0, 0.14137771367460725
1051.0, 0.1437557549219712
1052.0, 0.15273215847794697
1053.0, 0.15948920609518893
1054.0, 0.16518939376604058
1055.0, 0.17093309834948034
1056.0, 0.1778610176999189
1057.0, 0.19026507070061674
1058.0, 0.1996477491189307
1059.0, 0.21036459242813982
1060.0, 0.22231724674700748
1061.0, 0.23309729304919116
1062.0, 0.24840205999459522
1063.0, 0.2625986775253501
1064.0, 0.2771202751799012
1065.0, 0.29166107473629055
1066.0, 0.3051447123582987
1067.0, 0.3167533788473598
1068.0, 0.3325019736013968
1069.0, 0.3386744944429077
1070.0, 0.3401573549374064
1071.0, 0.34589161955554926
1072.0, 0.35141918675321865
1073.0, 0.34604917024463255
1074.0, 0.34055127230076876
1075.0, 0.3343158568449368
1076.0, 0.3247970019932807
1077.0, 0.31110726211486267
1078.0, 0.2933213281176676
1079.0, 0.28116452632795463
1080.0, 0.26729721552994945
1081.0, 0.2476888388979956
1082.0, 0.23178207762387038
1083.0, 0.21606266450644457
1084.0, 0.2027178264383053
1085.0, 0.18876875935455986
1086.0, 0.17353714879894583
1087.0, 0.1604284596245898
1088.0, 0.14840709784645667
1089.0, 0.13788095330650377
1090.0, 0.1270675084690517
1091.0, 0.11631917825374141
1092.0, 0.1079123691384272
1093.0, 0.09777181867405466
1094.0, 0.09036773366227722
1095.0, 0.08476630501250167
1096.0, 0.07899874698107902
1097.0, 0.07125901775120748
1098.0, 0.0679966080774714
1099.0, 0.06513863118184106
1100.0, 0.062381056699135996
1101.0, 0.05951449114920921
1102.0, 0.05635598428634989
1103.0, 0.05267230619124826
1104.0, 0.05011499927853824
1105.0, 0.047550149721521426
1106.0, 0.044565634026392395
1107.0, 0.04167888364742238
1108.0, 0.04156334032719946
1109.0, 0.03916988350457167
1110.0, 0.038780741217344636
1111.0, 0.03947690105745578
1112.0, 0.03902848669856827
1113.0, 0.03408451548008472
1114.0, 0.03233796754938462
1115.0, 0.03191467989495359
1116.0, 0.030995561368134476
1117.0, 0.02950990292272988
1118.0, 0.028741564328772704
1119.0, 0.028829238917063092
1120.0, 0.027499692554072263
1121.0, 0.026904302148309335
1122.0, 0.02708444750967222
1123.0, 0.027067051407464033
1124.0, 0.025219320053414093
1125.0, 0.025402412976931767
1126.0, 0.025775853420312904
1127.0, 0.025130288653068423
1128.0, 0.02324405169759771
1129.0, 0.02202709663774244
1130.0, 0.02325066541647228
1131.0, 0.0224472559428698
1132.0, 0.02127594552488537
1133.0, 0.02069117928576029
1134.0, 0.0202060302058673
1135.0, 0.019776263628928807
1136.0, 0.019789476993370476
1137.0, 0.01869834911250868
1138.0, 0.01772929074148397
1139.0, 0.01889202915560577
1140.0, 0.01703115537234307
1141.0, 0.016253753310249284
1142.0, 0.01595085439158942
1143.0, 0.0154176104297595
1144.0, 0.014443575566744709
1145.0, 0.014470343412754761
1146.0, 0.013841513492745662
1147.0, 0.013229134349196035
1148.0, 0.012976797746599083
1149.0, 0.012833259689874045
1150.0, 0.0118342255922841
1151.0, 0.011112790943537378
1152.0, 0.01089262268264853
1153.0, 0.010185470966798164
1154.0, 0.009073805904088439
1155.0, 0.008250800597830128
1156.0, 0.007854953131881726
1157.0, 0.007977546552359435
1158.0, 0.007325334399416722
1159.0, 0.006602569320784838
1160.0, 0.006509874210410354
1161.0, 0.006357885474536096
1162.0, 0.004485838054506868
1163.0, 0.004147039415943061
1164.0, 0.00388126611383662
1165.0, 0.003273820750013869
1166.0, 0.0033619856907666367
1167.0, 0.002029148140844759
1168.0, 0.0018952643016113574
1169.0, 0.0017125427083782476
1170.0, 0.0013424108112740783
1171.0, 0.0010296319360391648
1172.0, 0.0003274470956515662
1173.0, 0.00036520566697985433
1174.0, 0.000859956275885538
1175.0, 0.0009198762448871325
1176.0, 0.00035445852779310635
1177.0, 0.00033671170317252656
1178.0, 0.001488944371430083
1179.0, 0.0008873010080915385
1180.0, 0.0008279972469566795
1181.0, 0.0012783609123960052
1182.0, 0.0007995395069259092
1183.0, 0.00015031246436868353
1184.0, 0.0007666263067893309
1185.0, 0.0011854550525220262
1186.0, 0.0009661402174530608
1187.0, 0.0003943932130907289
1188.0, 0.0008236832480559516
1189.0, 0.0006707076792457807
1190.0, 0.0008638833655458441
1191.0, 0.00098429740027849
1192.0, 0.0007644748490665805
1193.0, 0.00023821944582932402
1194.0, 0.0005215277184389378
1195.0, 0.0016480960087529232
1196.0, 0.0013010534565728016
1197.0, 0.0008435465203185986
1198.0, 0.0013674371213631673
1199.0, 0.0002495284263658302
1200.0, 0.00043826657648832223
1201.0, 0.0016112304525548668
1202.0, 0.0016089779004041691
1203.0, 0.0005418451430508124
1204.0, 0.0005232334365232417
1205.0, 0.0010695744030482085
1206.0, 0.0008635885051014715
1207.0, 0.0003933509961640403
1208.0, 0.00021799709434443086
1209.0, 0.0005384299769106
1210.0, 0.0005642619317509088
1211.0, 0.00025211172858142676
1212.0, 0.0004370040878217768
1213.0, 0.0006592503845336943
1214.0, 0.0007350304085761592
1215.0, 0.0008064587244122199
1216.0, 0.0010383033462284452
1217.0, 0.001039663696074307
1218.0, 0.0007008000841209445
1219.0, 0.0007283020193382695
1220.0, 0.001196573333506722
1221.0, 0.00029513072219412276
1222.0, 0.0009598378238161279
1223.0, 0.0006779181460472342
1224.0, 0.00022922337073595544
1225.0, 0.0001051879957725002
1226.0, 0.0003864493860650179
1227.0, 0.00063525587400359
1228.0, 0.0004612394104366957
1229.0, 0.0008797534158224827
1230.0, 0.0012720707503622003
1231.0, 0.00125817751106739
1232.0, 0.0014152797824699538
1233.0, 0.0011667147431891696
1234.0, 0.0010189100126594406
1235.0, 0.0009957510521533186
1236.0, 0.0009106113387841044
1237.0, 0.0006705422842754561
1238.0, 0.0010143397663672244
1239.0, 0.0017300872826954343
1240.0, 0.0020274909638585328
1241.0, 0.0021338805933480455
1242.0, 0.002189137090962702
1243.0, 0.0020427718776370282
1244.0, 0.000742400510689117
1245.0, 0.0013074782144368799
1246.0, 0.001318285232721913
1247.0, 0.0013752881398676794
1248.0, 0.0019784053776505995
1249.0, 0.001143597156193599
1250.0, 0.001931845726673924
1251.0, 0.0024239468329484786
1252.0, 0.0023298148564861545
1253.0, 0.001959274446085939
1254.0, 0.002040168519326195
1255.0, 0.0036582209804521468
1256.0, 0.0017453843972019428
1257.0, 0.001341816802277453
1258.0, 0.002691441805499425
1259.0, 0.004044751598643986
1260.0, 0.0026020085878657646
1261.0, 0.0017234426082506007
1262.0, 0.0024737093321674755
1263.0, 0.0029450082914456756
1264.0, 0.0029146628771864725
1265.0, 0.0028022180146599633
1266.0, 0.00312271185263972
1267.0, 0.003795932256745271
1268.0, 0.0034055624367218024
1269.0, 0.0034307942804965796
1270.0, 0.0033377162861744714
1271.0, 0.0022226883360438785
1272.0, 0.0034728027277660294
1273.0, 0.003675761951717978
1274.0, 0.0029793339434166797
1275.0, 0.003460252372139579
1276.0, 0.00437139479905588
1277.0, 0.0025116197797937527
1278.0, 0.0011128913442096
1279.0, 0.002432605878480678
1280.0, 0.0029270485882291384
1281.0, 0.0032893563186791636
1282.0, 0.003987844833416813
1283.0, 0.0035053017327364043
1284.0, 0.003956464341822952
1285.0, 0.003845366772377711
1286.0, 0.003768404096560142
1287.0, 0.0034929394485784986
1288.0, 0.002913589444912067
1289.0, 0.0031603035214670954
1290.0, 0.0026093536191454897
1291.0, 0.003053591656237588
1292.0, 0.0031064266429313924
1293.0, 0.002810512977134827
1294.0, 0.0029330360322113477
1295.0, 0.0029428650432277844
1296.0, 0.0027954270041056738
1297.0, 0.00254894282859046
1298.0, 0.0025354299885262644
1299.0, 0.002690395184169109
1300.0, 0.002691955158582335
1301.0, 0.0031766131166901584
1302.0, 0.0034031328839149826
1303.0, 0.0036845716221331508
1304.0, 0.004063340850146543
1305.0, 0.004406066502874899
1306.0, 0.004468193702269977
1307.0, 0.004419118305448487
1308.0, 0.004113044692583701
1309.0, 0.00400429540859908
1310.0, 0.00417148549587386
1311.0, 0.004290192650459924
1312.0, 0.003642344525241216
1313.0, 0.0027639157421748923
1314.0, 0.00233135271740755
1315.0, 0.0027905022007910095
1316.0, 0.0035974120013305003
1317.0, 0.0039984787374769655
1318.0, 0.0036488813783652897
1319.0, 0.001690309953480031
1320.0, 0.0024797148084446208
1321.0, 0.0028109803521935406
1322.0, 0.0021213094255710346
1323.0, 0.0016609963804854523
1324.0, 0.003751089830313808
1325.0, 0.003757213272691551
1326.0, 0.004097550377649885
1327.0, 0.003581585985579449
1328.0, 0.003075201851495595
1329.0, 0.003504194527700442
1330.0, 0.002109916251340915
1331.0, 0.0037705898110447144
1332.0, 0.0034869583200117806
1333.0, 0.0028564707747703857
1334.0, 0.0027716831874845375
1335.0, 0.0031225394977396777
1336.0, 0.00293694489939978
1337.0, 0.0022519504887245807
1338.0, 0.0031069815411663994
1339.0, 0.0029123205591145723
1340.0, 0.00223533576069198
1341.0, 0.0030995908028897032
1342.0, 0.0030101544549204044
1343.0, 0.0017663086238411197
1344.0, 0.0017355699316639868
1345.0, 0.0022902840463432214
1346.0, 0.0025632898061880814
1347.0, 0.0021692757232758225
1348.0, 0.002474411286468773
1349.0, 0.003408378528231155
1350.0, 0.0023121127664302685
1351.0, 0.0018642507364149607
1352.0, 0.002253550508118357
1353.0, 0.0020032813248110418
1354.0, 0.0030116857772842023
1355.0, 0.002280387267321623
1356.0, 0.0013183617121976486
1357.0, 0.0018611062001967606
1358.0, 0.003232550482358385
1359.0, 0.0031925118866872612
1360.0, 0.0008631411423741403
1361.0, 0.0008278018685604841
1362.0, 0.0007666102689479777
1363.0, 0.0008675000287340148
1364.0, 0.0012102500565676503
1365.0, 0.001509723199750681
1366.0, 0.0010095507818263922
1367.0, 0.0008948716182649362
1368.0, 0.0009891898866888182
1369.0, 0.0014962447312458144
1370.0, 0.0016699275603355096
1371.0, 0.0008322537976471335
1372.0, 0.000740113739802982
1373.0, 0.0003167315861927303
1374.0, 8.091879149081272e-05
1375.0, 0.0011506464332486214
1376.0, 0.002375658959660869
1377.0, 0.002112194704704135
1378.0, 0.001360007495999059
1379.0, 0.000357841762264202
1380.0, 0.0006078337052678577
1381.0, 0.0008731119511601292
1382.0, 0.0010330461640637983
1383.0, 0.0011866646862815672
1384.0, 0.0003864148682600044
1385.0, 0.001471970146093893
1386.0, 0.0018862730779519372
1387.0, 0.0013945540620000625
1388.0, 0.0006044520765671562
1389.0, 0.0004256536149166106
1390.0, 0.0015069519288052966
1391.0, 0.0016471903235530882
1392.0, 0.0008025390726473724
1393.0, 0.0009742980376630749
1394.0, 0.0016563648151417523
1395.0, 0.0016741958934426817
1396.0, 0.000605151852361921
1397.0, 0.0030603075996924922
1398.0, 0.001740452667480956
1399.0, 0.0017257532754968257
1400.0, 0.002097333261565494
1401.0, 0.002096496411179166
1402.0, 0.002640530711564101
1403.0, 0.0018873539909978311
1404.0, 0.001994221362029608
1405.0, 0.0009013949172158934
1406.0, 0.0009116282530341642
1407.0, 0.001852298996967358
1408.0, 0.001493600779739393
1409.0, 0.0015724703631200179
1410.0, 0.0028338857400120785
1411.0, 0.0018866382684182615
1412.0, 0.0017875211311199888
1413.0, 0.0019818169797908747
1414.0, 0.0007086924104316088
1415.0, 0.0009871763371323533
1416.0, 0.0013490566713686483
1417.0, 0.0017390308983126345
1418.0, 0.0014633766316983065
1419.0, 0.0021433747891795966
1420.0, 0.004030417718851916
1421.0, 0.0030795848249375907
1422.0, 0.0018383185944927543
1423.0, 0.0029102703288497707
1424.0, 0.002501242588190318
1425.0, 0.002414120302230011
1426.0, 0.0033339524879337614
1427.0, 0.0027535551090059956
1428.0, 0.0018231996030984928
1429.0, 0.0024427941154301805
1430.0, 0.0021753226769658193
1431.0, 0.0022042414343717014
1432.0, 0.0028445632946505093
1433.0, 0.0032187620512845547
1434.0, 0.0028834315261715496
1435.0, 0.0042096155105063515
1436.0, 0.004908972327884644
1437.0, 0.005090254786993511
1438.0, 0.004733353032830894
1439.0, 0.00426063972897836
1440.0, 0.005217739776099363
1441.0, 0.004284770621517986
1442.0, 0.00397774209502536
1443.0, 0.004088866938242428
1444.0, 0.0049663201087992125
1445.0, 0.005626844960004113
1446.0, 0.004070126863658493
1447.0, 0.005526946010353223
1448.0, 0.004672337476772332
1449.0, 0.004449853668131487
1450.0, 0.0033732970748310493
1451.0, 0.002898575004279665
1452.0, 0.00486191811404398
1453.0, 0.0026320021752803454
1454.0, 0.004616411743828999
1455.0, 0.006165162311462078
1456.0, 0.004752792696464798
1457.0, 0.003482221300607166
1458.0, 0.004897411746214071
1459.0, 0.005967818832460809
1460.0, 0.00536466563158728
1461.0, 0.004969113098680112
1462.0, 0.002926661385783243
1463.0, 0.0023382938939006514
1464.0, 0.003962076042120074
1465.0, 0.004831030283186973
1466.0, 0.001219569892247522
1467.0, 0.004934518118460864
1468.0, 0.0035950321058073127
1469.0, 0.0022161910038763946
1470.0, 0.002528764476006057
1471.0, 0.00319890815821913
1472.0, 0.0023117163125218805
1473.0, 0.0016209255486489323
1474.0, 0.0029105408835612702
1475.0, 0.004031931366522658
1476.0, 0.0031456097990506977
1477.0, 0.0023896363398139674
1478.0, 0.0053067863309017825
1479.0, 0.0032025420122711173
1480.0, 0.00253444988991658
1481.0, 0.004286171164959022
1482.0, 0.003868286391147559
1483.0, 0.002489560744884645
1484.0, 0.002679778599432952
1485.0, 0.0026876367817774277
1486.0, 0.003224061828872991
1487.0, 0.002980718739284808
1488.0, 0.002943632665282871
1489.0, 0.002702579636405893
1490.0, 0.002520040534221237
1491.0, 0.003131833097292344
1492.0, 0.0032797978963758343
1493.0, 0.003966492311946058
1494.0, 0.003445318270128867
1495.0, 0.002371696643575284
1496.0, 0.0024437040087272877
1497.0, 0.003419508574109564
1498.0, 0.0020857236688053473
1499.0, 0.0034685752857563238
1500.0, 0.001157185864778389
1501.0, 0.0003617234124471534
1502.0, 0.00029331002859963223
1503.0, 0.0004787994851398632
1504.0, 0.0011762109727820414
1505.0, 0.0016578397911003137
1506.0, 0.001852871823970192
1507.0, 0.0011135757161948076
1508.0, 0.0010260035259521336
1509.0, 0.002194282365370508
1510.0, 0.00291781031414398
1511.0, 0.0008672886474518346
1512.0, 0.002074833649863578
1513.0, 0.00043102785460299997
1514.0, 7.576677492150139e-05
1515.0, 5.740775293225034e-05
1516, 0.0
1517, 0.0
1518, 0.0
1519, 0.0
1520, 0.0
1521, 0.0
1522, 0.0
1523, 0.0
1524, 0.0
1525, 0.0
1526, 0.0
1527, 0.0
1528, 0.0
1529, 0.0
1530, 0.0
1531, 0.0
1532, 0.0
1533, 0.0
1534, 0.0
1535, 0.0
1536, 0.0
1537, 0.0
1538, 0.0
1539, 0.0
1540, 0.0
1541, 0.0
1542, 0.0
1543, 0.0
1544, 0.0
1545, 0.0
1546, 0.0
1547, 0.0
1548, 0.0
1549, 0.0
1550, 0.0
1551, 0.0
1552, 0.0
1553, 0.0
1554, 0.0
1555, 0.0
1556, 0.0
1557, 0.0
1558, 0.0
1559, 0.0
1560, 0.0
1561, 0.0
1562, 0.0
1563, 0.0
1564, 0.0
1565, 0.0
1566, 0.0
1567, 0.0
1568, 0.0
1569, 0.0
1570, 0.0
1571, 0.0
1572, 0.0
1573, 0.0
1574, 0.0
1575, 0.0
1576, 0.0
1577, 0.0
1578, 0.0
1579, 0.0
1580, 0.0
1581, 0.0
1582, 0.0
1583, 0.0
1584, 0.0
1585, 0.0
1586, 0.0
1587, 0.0
1588, 0.0
1589, 0.0
1590, 0.0
1591, 0.0
1592, 0.0
1593, 0.0
1594, 0.0
1595, 0.0
1596, 0.0
1597, 0.0
1598, 0.0
1599, 0.0
