30, 0.0
31, 0.0
32, 0.0
33, 0.0
34, 0.0
35, 0.0
36, 0.0
37, 0.0
38, 0.0
39, 0.0
40, 0.0
41, 0.0
42, 0.0
43, 0.0
44, 0.0
45, 0.0
46, 0.0
47, 0.0
48, 0.0
49, 0.0
50, 0.0
51, 0.0
52, 0.0
53, 0.0
54, 0.0
55, 0.0
56, 0.0
57, 0.0
58, 0.0
59, 0.0
60, 0.0
61, 0.0
62, 0.0
63, 0.0
64, 0.0
65, 0.0
66, 0.0
67, 0.0
68, 0.0
69, 0.0
70, 0.0
71, 0.0
72, 0.0
73, 0.0
74, 0.0
75, 0.0
76, 0.0
77, 0.0
78, 0.0
79, 0.0
80, 0.0
81, 0.0
82, 0.0
83, 0.0
84, 0.0
85, 0.0
86, 0.0
87, 0.0
88, 0.0
89, 0.0
90, 0.0
91, 0.0
92, 0.0
93, 0.0
94, 0.0
95, 0.0
96, 0.0
97, 0.0
98, 0.0
99, 0.0
100, 0.0
101, 0.0
102, 0.0
103, 0.0
104, 0.0
105, 0.0
106, 0.0
107, 0.0
108, 0.0
109, 0.0
110, 0.0
111, 0.0
112, 0.0
113, 0.0
114, 0.0
115, 0.0
116, 0.0
117, 0.0
118, 0.0
119, 0.0
120, 0.0
121, 0.0
122, 0.0
123, 0.0
124, 0.0
125, 0.0
126, 0.0
127, 0.0
128, 0.0
129, 0.0
130, 0.0
131, 0.0
132, 0.0
133, 0.0
134, 0.0
135, 0.0
136, 0.0
137, 0.0
138, 0.0
139, 0.0
140, 0.0
141, 0.0
142, 0.0
143, 0.0
144, 0.0
145, 0.0
146, 0.0
147, 0.0
148, 0.0
149, 0.0
150, 0.0
151, 0.0
152, 0.0
153, 0.0
154, 0.0
155, 0.0
156, 0.0
157, 0.0
158, 0.0
159, 0.0
160, 0.0
161, 0.0
162, 0.0
163, 0.0
164, 0.0
165, 0.0
166, 0.0
167, 0.0
168, 0.0
169, 0.0
170, 0.0
171, 0.0
172.0, 2.1952729148305803e-05
173.0, 0.008945114498464964
174.0, 0.014706294435165884
175.0, 0.010949125789588844
176.0, 0.019205051422155797
177.0, 0.016648647133709928
178.0, 0.02696119013000781
179.0, 0.03390261815545417
180.0, 0.017353848782128516
181.0, 0.004884792256605277
182.0, 0.0018134298639798192
183.0, 0.012060502471461843
184.0, 0.02872093329407068
185.0, 0.025609676392746705
186.0, 0.018388547986525634
187.0, 0.01918988910908143
188.0, 0.02102232776616401
189.0, 0.011539273687503937
190.0, 0.025270777563195533
191.0, 0.03194529583706054
192.0, 0.02744255762673553
193.0, 0.02477762480756023
194.0, 0.02876927048931865
195.0, 0.026093811272899396
196.0, 0.022723271547857072
197.0, 0.0198358937292847
198.0, 0.008500725990458381
199.0, 0.008392300587953525
200.0, 0.01241798034326796
201.0, 0.015536264499446189
202.0, 0.014554023631875279
203.0, 0.010722873511831514
204.0, 0.008738584024293259
205.0, 0.0031564499354962746
206.0, 0.0027817309357669254
207.0, 0.014131380852314608
208.0, 0.015970323515626102
209.0, 0.02278550003689322
210.0, 0.03042859422439413
211.0, 0.01656987444650069
212.0, 0.00922023029983332
213.0, 0.013517717225877279
214.0, 0.013962705608391444
215.0, 0.0026776144247909364
216.0, 0.00408426555848546
217.0, 0.010009973151607772
218.0, 0.010346774359260465
219.0, 0.006084966453764476
220.0, 0.006354809078766975
221.0, 0.0051829784862425544
222.0, 0.007067848455590677
223.0, 0.007619396474028965
224.0, 0.0023585531662667883
225.0, 0.004788375003878402
226.0, 0.003884529569225176
227.0, 0.005191659951122378
228.0, 0.001943340007463096
229.0, 0.00621422418380155
230.0, 0.0019664860901840065
231.0, 0.003161773967557498
232.0, 0.0021181821315185826
233.0, 0.004561096154587022
234.0, 0.0047172719863037855
235.0, 0.007871700364944586
236.0, 0.0030641838111673658
237.0, 0.0059294363409502695
238.0, 0.0025376303675293016
239.0, 0.0036558541751262985
240.0, 0.0011703391522438988
241.0, 0.0018696316100397755
242.0, 0.0002749150595949902
243.0, 0.0015798322952419136
244.0, 0.0031258291316108946
245.0, 0.0020077950218392285
246.0, 0.002521640923279832
247.0, 0.00805788019620925
248.0, 0.010659540495043137
249.0, 0.0028098235787225347
250.0, 0.0030475952439977857
251.0, 0.002785413867057474
252.0, 0.011627043188981459
253.0, 0.008324742381502439
254.0, 0.004212094529883422
255.0, 0.00830554099706894
256.0, 0.020628188385624444
257.0, 0.008158982305238392
258.0, 0.015139211150974184
259.0, 0.025133445276146343
260.0, 0.019357746546477678
261.0, 0.010935183170127169
262.0, 0.01372257706228749
263.0, 0.017697131434043986
264.0, 0.02272444609197875
265.0, 0.03353740531082211
266.0, 0.029282719091430338
267.0, 0.027858584973080382
268.0, 0.032000554691661694
269.0, 0.039317934209114454
270.0, 0.045164260021292306
271.0, 0.04754906749742534
272.0, 0.05116956229595547
273.0, 0.055412090233725245
274.0, 0.05939874755749041
275.0, 0.06815393600852312
276.0, 0.08503280151468438
277.0, 0.0965325697234644
278.0, 0.10477374156026668
279.0, 0.12360848925294057
280.0, 0.14982155285006432
281.0, 0.17687135808321114
282.0, 0.2048390654756094
283.0, 0.23540847315097857
284.0, 0.269076267931534
285.0, 0.29748418669548704
286.0, 0.32890609003445204
287.0, 0.3616944598792866
288.0, 0.39204803050929005
289.0, 0.4327837028997628
290.0, 0.49153866670710533
291.0, 0.5545662197145204
292.0, 0.6262936230344552
293.0, 0.7207398112690075
294.0, 0.7942585720466933
295.0, 0.8745357819442091
296.0, 0.9519036497281369
297.0, 0.9963120309806556
298.0, 0.9802831370510099
299.0, 0.892250003243658
300.0, 0.7562878746963801
301.0, 0.6036956426589932
302.0, 0.45893368681980423
303.0, 0.3379215419127816
304.0, 0.2471765187742108
305.0, 0.19078416804903536
306.0, 0.15374606437348942
307.0, 0.11330498734472592
308.0, 0.09501263659365507
309.0, 0.07587772584403521
310.0, 0.06021085540171723
311.0, 0.0544426786138231
312.0, 0.05246607780322971
313.0, 0.04494831955505729
314.0, 0.03979997482790718
315.0, 0.03735061722720416
316.0, 0.03556349676088398
317.0, 0.037458365549439016
318.0, 0.03959069074367188
319.0, 0.029571100201350932
320.0, 0.01857310265397049
321.0, 0.023118737277228567
322.0, 0.023097515270902345
323.0, 0.024892194301878525
324.0, 0.02937448912716389
325.0, 0.030986170975112685
326.0, 0.023891607169023117
327.0, 0.02913761377815311
328.0, 0.036117678590569045
329.0, 0.03950314088376027
330.0, 0.044131767454679
331.0, 0.06300526899596597
332.0, 0.07740546326764476
333.0, 0.08336352085827928
334.0, 0.08968060710646332
335.0, 0.10229721440559131
336.0, 0.10983176791170834
337.0, 0.13187279427191076
338.0, 0.15456147968815662
339.0, 0.17158268963181092
340.0, 0.186873814741079
341.0, 0.20366313262370192
342.0, 0.2191670727352474
343.0, 0.2327361880749931
344.0, 0.24348184835963801
345.0, 0.24948408081741427
346.0, 0.24355910969394104
347.0, 0.22332701486942924
348.0, 0.1904531799838206
349.0, 0.1546977910713425
350.0, 0.13135842612425133
351.0, 0.11359659634466802
352.0, 0.09217720538031478
353.0, 0.07759256445361552
354.0, 0.0686893711053514
355.0, 0.04704701641538086
356.0, 0.04270111631025442
357.0, 0.03422353217653586
358.0, 0.028961245860687514
359.0, 0.03267337464274479
360.0, 0.023114038093552173
361.0, 0.024988268888988866
362.0, 0.020954807428161835
363.0, 0.015075423911496771
364.0, 0.01612185749504766
365.0, 0.015157025578648918
366.0, 0.01592951829883375
367.0, 0.011403603783886058
368.0, 0.007330206474329198
369.0, 0.010295693531233586
370.0, 0.0017174869625924097
371.0, 0.004564615686967453
372.0, 0.007979749148839903
373.0, 0.005140270578123617
374.0, 0.0032978763800495833
375.0, 0.008626846771008579
376.0, 0.011058010318872089
377.0, 0.010054439147254552
378.0, 0.009416101946939426
379.0, 0.011342877792599326
380.0, 0.005590189035948136
381.0, 0.0012640746096770977
382.0, 0.002763229861643719
383.0, 0.0014877866358692182
384.0, 0.0006408100360920515
385.0, 0.0012307172899858761
386.0, 0.000889111604904528
387.0, 0.002729201967074848
388.0, 0.006730777738335132
389.0, 0.003957536475261471
390.0, 0.001237023925835011
391.0, 0.003774061254926198
392.0, 0.0031425933718102175
393.0, 0.0023829979353114463
394.0, 0.0037542442534962733
395.0, 0.0010926704410081293
396.0, 0.0024725286634460987
397.0, 0.0027243374284563783
398.0, 0.0009033917848472432
399.0, 0.004353392846596767
400.0, 0.0027125761516705355
401.0, 0.010022676340321305
402.0, 0.014567043979659158
403.0, 0.010686670374543579
404.0, 0.006504250995419755
405.0, 0.006945488107917591
406.0, 0.002597912475667016
407.0, 0.0031642146326995983
408.0, 0.005991623952639887
409.0, 0.011444153984624634
410.0, 0.010477002416105823
411.0, 0.006503636986580111
412.0, 0.009615273232245996
413.0, 0.016581788446951316
414.0, 0.012895746398504448
415.0, 0.0077849655180685425
416.0, 0.0005701150179289476
417.0, 0.001826437012248007
418.0, 0.008020263766575487
419.0, 0.012822600832326465
420.0, 0.013715004315963246
421.0, 0.009521732000144868
422.0, 0.005800723726138276
423.0, 0.0023273590154056973
424.0, 0.002794727685880168
425.0, 0.012822497461004844
426.0, 0.011851026153232561
427.0, 0.011165535914613558
428.0, 0.01683885551527268
429.0, 0.018998099364197694
430.0, 0.025551706747047147
431.0, 0.023140751497407373
432.0, 0.018131271453334496
433.0, 0.015439155078616386
434.0, 0.013901506538538114
435.0, 0.01325063172768634
436.0, 0.012235198768144825
437.0, 0.013522273469371456
438.0, 0.013444076096533043
439.0, 0.009815001432619793
440.0, 0.014810405649580992
441.0, 0.018749552712001915
442.0, 0.014266636203844264
443.0, 0.012670306646153234
444.0, 0.01981794560619627
445.0, 0.010653143079393254
446.0, 0.009728580101395419
447.0, 0.015503568446719265
448.0, 0.020752493123130676
449.0, 0.02070006538209396
450.0, 0.01645681287426732
451.0, 0.01531477484906314
452.0, 0.01552414261447597
453.0, 0.014430990567744696
454.0, 0.010973153476569941
455.0, 0.006865619323555466
456.0, 0.01092484707610662
457.0, 0.01080706183197663
458.0, 0.013277128250945168
459.0, 0.01957793690911997
460.0, 0.01774450443243991
461.0, 0.013320603830826328
462.0, 0.014542257391944414
463.0, 0.014987039835802947
464.0, 0.014886970809185747
465.0, 0.01869894380333012
466.0, 0.012233946156908477
467.0, 0.01261723352065399
468.0, 0.01231521638819953
469.0, 0.010986676404253536
470.0, 0.013525040731702066
471.0, 0.015103109894737995
472.0, 0.01669745604857826
473.0, 0.013644447115782471
474.0, 0.011386959379976035
475.0, 0.013872020630551832
476.0, 0.01135603496489164
477.0, 0.00908981853566099
478.0, 0.009627375551712955
479.0, 0.01214657237766203
480.0, 0.014674978449118203
481.0, 0.015752650756925595
482.0, 0.018810359238030067
483.0, 0.012449609463303552
484.0, 0.013616250373265542
485.0, 0.020215875007382596
486.0, 0.015123736034596925
487.0, 0.012032893777107726
488.0, 0.0057931848519097795
489.0, 0.00825655766486874
490.0, 0.01350983850040973
491.0, 0.011209948184554014
492.0, 0.013641648035669009
493.0, 0.01854392484693875
494.0, 0.019127634806246265
495.0, 0.01655112576818376
496.0, 0.013401155809840262
497.0, 0.008945263766237138
498.0, 0.009938755403487282
499.0, 0.010438368978987709
500.0, 0.01000343008673092
501.0, 0.010456716511472454
502.0, 0.011780900137327759
503.0, 0.010415120466257899
504.0, 0.0034260970091175716
505.0, 0.004125978690077716
506.0, 0.006806087869651246
507.0, 0.0021918308569820223
508.0, 0.005557367830732324
509.0, 0.008496629924090329
510.0, 0.005523693369675872
511.0, 0.0035286757812982425
512.0, 0.00854929954717657
513.0, 0.015296543258037415
514.0, 0.011931389026849629
515.0, 0.009952984863928567
516.0, 0.006960515177039695
517.0, 0.0054489930096520275
518.0, 0.010311507965449405
519.0, 0.007452909872186373
520.0, 0.005348683081440488
521.0, 0.005428992375383438
522.0, 0.0037888307540174825
523.0, 0.0010668250836856775
524.0, 0.0002938891950882097
525.0, 0.00205005964104766
526.0, 0.008371016522031677
527.0, 0.012570900521813567
528.0, 0.011806582190709946
529.0, 0.01124329290033749
530.0, 0.009145608249989895
531.0, 0.006720015594295172
532.0, 0.005628784681366918
533.0, 0.008811729149970728
534.0, 0.01345604147470511
535.0, 0.003934079752916018
536.0, 0.009154168424454814
537.0, 0.009704823901355136
538.0, 0.006161587503037372
539.0, 0.005338953056412912
540.0, 0.007470627618110183
541.0, 0.0036604755907067854
542.0, 0.004018462508558082
543.0, 0.01285663266090735
544.0, 0.00887724141918584
545.0, 0.00193321304593722
546.0, 0.0027641067842196928
547.0, 0.010374271620126076
548.0, 0.0009155719800185199
549.0, 0.0024994701704940505
550.0, 0.010374685301277085
551.0, 0.011306010342531847
552.0, 0.008348679154270818
553.0, 0.008560078970592756
554.0, 0.00944538162834125
555.0, 0.00843020958496775
556.0, 0.006559307848371288
557.0, 0.007272828783433395
558.0, 0.010252013384889935
559.0, 0.0122646512307587
560.0, 0.007673421117916478
561.0, 0.004566085826340366
562.0, 0.012689617470597896
563.0, 0.007863381978854927
564.0, 0.0069670841185106485
565.0, 0.008002049677126056
566.0, 0.005837180478738903
567.0, 0.0008655831607018942
568.0, 0.002257877313291624
569.0, 0.007625579229005805
570.0, 0.0057138181345747175
571.0, 0.00238299123567674
572.0, 0.000416384697611838
573.0, 0.00031709240590220236
574.0, 0.0064696232570182295
575.0, 0.00039370376580496395
576.0, 0.0010860053884726502
577.0, 0.0013308179224136138
578.0, 0.001221890967712216
579.0, 0.002880465817717442
580.0, 0.0008479836600957922
581.0, 0.004533571574943319
582.0, 0.0038935991497230254
583.0, 0.0035733103963247344
584.0, 0.004736194646116457
585.0, 0.0006203484143444254
586.0, 0.002164291536438849
587.0, 0.0018656451927075905
588.0, 0.0003719293251406849
589.0, 0.003796331423508844
590.0, 0.008962226797443856
591.0, 0.014410006350450867
592.0, 0.006008398942732201
593.0, 0.0005920142682856598
594.0, 0.0012433876102873925
595.0, 0.00506802237126316
596.0, 0.009424863189409305
597.0, 0.011369369311871788
598.0, 0.01371678673541895
599.0, 0.011833182345174753
600.0, 0.013420094494893986
601.0, 0.01758683441800928
602.0, 0.012856917841300764
603.0, 0.006416654088110367
604.0, 0.008121830404648143
605.0, 0.01262183918259368
606.0, 0.020744556850015177
607.0, 0.0296371291266664
608.0, 0.028391203533954572
609.0, 0.03333735687735615
610.0, 0.03813185471405287
611.0, 0.04116349483351475
612.0, 0.04906792045305178
613.0, 0.06363264056111016
614.0, 0.0747297068979209
615.0, 0.09314971300714718
616.0, 0.10669155551527484
617.0, 0.12248218130105575
618.0, 0.14039079597639845
619.0, 0.15917004983024238
620.0, 0.19311280552954113
621.0, 0.21064159164036741
622.0, 0.23611006587636363
623.0, 0.26346390381319806
624.0, 0.28996230523016164
625.0, 0.32217330189863824
626.0, 0.34464020109612326
627.0, 0.3651272330433849
628.0, 0.37843211856976605
629.0, 0.3882137651008974
630.0, 0.3932634719754483
631.0, 0.3859367300082503
632.0, 0.370191084531306
633.0, 0.35600759813820204
634.0, 0.3211282920638086
635.0, 0.28457866857479813
636.0, 0.2563640271099727
637.0, 0.22145257383167022
638.0, 0.19209143255266922
639.0, 0.17339203504611572
640.0, 0.14910144574441522
641.0, 0.12824442243249795
642.0, 0.11585564306161732
643.0, 0.10021366056987338
644.0, 0.08427367664816872
645.0, 0.08061262609038654
646.0, 0.07362554772353591
647.0, 0.06348082666922203
648.0, 0.053984358572585246
649.0, 0.04422900771270064
650.0, 0.0429739922075035
651.0, 0.04344672163470727
652.0, 0.03794049013430243
653.0, 0.033686650782331434
654.0, 0.033100678400369225
655.0, 0.02896971015388879
656.0, 0.026891200481164106
657.0, 0.01765771021101258
658.0, 0.019382169846454193
659.0, 0.0216609958219064
660.0, 0.017961622715600842
661.0, 0.01851306603702431
662.0, 0.020967113724950255
663.0, 0.01348750861119059
664.0, 0.014465995128468438
665.0, 0.019049935463392377
666.0, 0.01566990693546701
667.0, 0.007570069248036244
668.0, 0.013106812449308053
669.0, 0.005142535962117512
670.0, 0.0012995424678664664
671.0, 0.0046574166109860475
672.0, 0.010384291951090124
673.0, 0.013266670022135411
674.0, 0.010264597414592347
675.0, 0.008208807313954456
676.0, 0.0036694932238755906
677.0, 0.003826596128184202
678.0, 0.008365318141339624
679.0, 0.00976251102514823
680.0, 0.008998136774233206
681.0, 0.0066245634582519225
682.0, 0.0011667507378305257
683.0, 0.0029265967110655325
684.0, 0.007655121965596911
685.0, 0.006347265271236117
686.0, 0.0054867237915499035
687.0, 0.005270794313830531
688.0, 0.008373866304615198
689.0, 0.00969182477532557
690.0, 0.011692494162812584
691.0, 0.014966000171193714
692.0, 0.010540402830259093
693.0, 0.0017739910806272277
694.0, 0.005618594187888137
695.0, 0.0031422039538034257
696.0, 0.0025555840266803208
697.0, 0.0021313598794980505
698.0, 0.0030011145775914105
699.0, 0.00517071891967684
700.0, 0.0029891470616616915
701.0, 0.0037471843179881946
702.0, 0.0019626191553472555
703.0, 0.00316532277876876
704.0, 0.001959944875477225
705.0, 0.0013693104054918013
706.0, 0.010676101020526392
707.0, 0.008232012146603547
708.0, 0.0011396454032709437
709.0, 0.00042230533356050413
710.0, 0.003633457739255049
711.0, 0.004378209340078831
712.0, 0.006576660279179691
713.0, 0.006470061381694396
714.0, 0.005339243928476124
715.0, 0.008236054508285053
716.0, 0.010340229149081549
717.0, 0.0009508674476433221
718.0, 0.0032906399245741587
719.0, 0.006613800401484143
720.0, 0.005513169486923821
721.0, 0.0030628975494379532
722.0, 0.0018313154471505657
723.0, 0.0033360294330792074
724.0, 0.014168548142435053
725.0, 0.009147367041891896
726.0, 0.009547641588820934
727.0, 0.009649089881319824
728.0, 0.009590087530366866
729.0, 0.013150884868968003
730.0, 0.013703043103777636
731.0, 0.012241624320866678
732.0, 0.014569443153499754
733.0, 0.018115134549460253
734.0, 0.017485049742981578
735.0, 0.013126448317229726
736.0, 0.008147868091961157
737.0, 0.004856206688318666
738.0, 0.009193680617675165
739.0, 0.013232949782306443
740.0, 0.015515814516470933
741.0, 0.014702952594066853
742.0, 0.01116633277166919
743.0, 0.010751741151459502
744.0, 0.013640613274230105
745.0, 0.011638948978608213
746.0, 0.009966986006487238
747.0, 0.008520638549550196
748.0, 0.01014408640444058
749.0, 0.014742101276753858
750.0, 0.0031592848070932356
751.0, 0.002374516137437151
752.0, 0.004534700746902138
753.0, 0.004432206834007491
754.0, 0.004785385642218282
755.0, 0.007527788574963766
756.0, 0.007545181662868235
757.0, 0.0033825397121182692
758.0, 0.003439363272760651
759.0, 0.004831750278910505
760.0, 0.006212889628807551
761.0, 0.008501427619833928
762.0, 0.00988796640516734
763.0, 0.0057502200127238605
764.0, 0.0112059960156093
765.0, 0.005162407128709326
766.0, 0.00337078589210183
767.0, 0.006438850276592792
768.0, 0.009355140384831217
769.0, 0.009842925660877253
770.0, 0.0018499106361905165
771.0, 0.002535861157672278
772.0, 0.0023018110834245563
773.0, 0.005623570181672454
774.0, 0.006455520392886055
775.0, 0.007486694443681795
776.0, 0.0057336708513901465
777.0, 0.0002155104413180905
778.0, 0.0006072813460287838
779.0, 0.0008800120765598649
780.0, 0.003388217171742064
781.0, 0.004375133263946646
782.0, 0.00047679024733112167
783.0, 0.0004031370116711359
784.0, 0.002442409278515853
785.0, 0.005424796039003588
786.0, 0.007857878647025224
787.0, 0.004755023008058418
788.0, 0.005403650084446521
789.0, 0.010987111257303091
790.0, 0.013812462275591337
791.0, 0.0022459949065845594
792.0, 0.00490657231834536
793.0, 0.004128907468584635
794.0, 0.010835855954230011
795.0, 0.006876954095126352
796.0, 0.005794850658704137
797.0, 0.00807466930417674
798.0, 0.004160253738467323
799.0, 0.005771382124904551
800.0, 0.008024903258163742
801.0, 0.00447781935503405
802.0, 0.004151065138425459
803.0, 0.012823982544108785
804.0, 0.005655262850692524
805.0, 0.005359091570631793
806.0, 0.005799420147084004
807.0, 0.006713320471355606
808.0, 0.006180705197777541
809.0, 0.0056994693952438225
810.0, 0.008394760833165428
811.0, 0.006190351251104085
812.0, 0.008067161518916099
813.0, 0.008691805688944803
814.0, 0.009113144775382564
815.0, 0.0073149339154529
816.0, 0.003733253645112722
817.0, 0.003466029275005875
818.0, 0.006884647103531269
819.0, 0.005122790059187834
820.0, 0.006323633143722685
821.0, 0.01070756312874078
822.0, 0.007970766399602059
823.0, 0.003724760672496146
824.0, 0.012603568051159215
825.0, 0.008825008669723309
826.0, 0.009868447178267032
827.0, 0.0063258916429027
828.0, 0.002992270177280559
829.0, 0.008878087435023229
830.0, 0.014840445922403656
831.0, 0.008143197384442032
832.0, 0.009453207875869164
833.0, 0.010553187835758624
834.0, 0.0022385899329236646
835.0, 0.007062992089070921
836.0, 0.011516375583907168
837.0, 0.011008858956571731
838.0, 0.016114881257748754
839.0, 0.013418398147397516
840.0, 0.011324447690089936
841.0, 0.010810515382716346
842.0, 0.012985309314645437
843.0, 0.009169556505191568
844.0, 0.0058197897034766915
845.0, 0.009525530439666715
846.0, 0.005552501246766678
847.0, 0.006003513027061238
848.0, 0.005309138112906403
849.0, 0.002589050264113329
850.0, 0.003854188965291263
851.0, 0.0031405582358488018
852.0, 0.006914534954917859
853.0, 0.011414174855167197
854.0, 0.011619299608169022
855.0, 0.010437228303865119
856.0, 0.010164354502476106
857.0, 0.010249631105817572
858.0, 0.008326434972126292
859.0, 0.006370103569833597
860.0, 0.007719133308395786
861.0, 0.006938327240395287
862.0, 0.006644589380261608
863.0, 0.012248461868605467
864.0, 0.013311503621215522
865.0, 0.011082619624811059
866.0, 0.0068296457985561896
867.0, 0.00335967006248609
868.0, 0.0068164635336323345
869.0, 0.002212551424220055
870.0, 0.002167326551456675
871.0, 0.0016330206159148465
872.0, 0.0009160444962561268
873.0, 0.0006233968377219444
874.0, 0.0014549562691706193
875.0, 0.010674773850140934
876.0, 0.006646538647819201
877.0, 0.0036691036657446646
878.0, 0.003395822208540507
879.0, 0.008278192232901624
880.0, 0.004428836169151024
881.0, 0.0010961254667602636
882.0, 0.004243917447728764
883.0, 0.009540154659270253
884.0, 0.0044344643747698574
885.0, 0.003523829533131435
886.0, 0.006001929817611711
887.0, 0.009588907560888421
888.0, 0.010710692901592761
889.0, 0.011650004590476978
890.0, 0.014216807720549564
891.0, 0.0018046930206967182
892.0, 0.004382914713214515
893.0, 0.008255374231770316
894.0, 0.006129548274278053
895.0, 0.0036733539289965818
896.0, 0.006411239468764515
897.0, 0.008006623030501158
898.0, 0.0007771106040190661
899.0, 0.00878231700051544
900.0, 0.009567028035043614
901.0, 0.01423381361364519
902.0, 0.010318182185787676
903.0, 0.007504914855747002
904.0, 0.011153802613873148
905.0, 0.011424589693507256
906.0, 0.008777870133100985
907.0, 0.00815849815548447
908.0, 0.014967748724746915
909.0, 0.013763676601328002
910.0, 0.012863495747616482
911.0, 0.008945271745394234
912.0, 0.0029018392633474786
913.0, 0.006446232153003727
914.0, 0.014619426196621842
915.0, 0.0035302941107994736
916.0, 0.006704707135021835
917.0, 0.007698131586400015
918.0, 0.012985787811594596
919.0, 0.01650163209630608
920.0, 0.012383600406358898
921.0, 0.010980342606489009
922.0, 0.008135820506048065
923.0, 0.008416903260663744
924.0, 0.014144664160836724
925.0, 0.018246510598073157
926.0, 0.010955036879943463
927.0, 0.004238719931693226
928.0, 0.007599334798274892
929.0, 0.011902594490000551
930.0, 0.01619092376020168
931.0, 0.01466294088169013
932.0, 0.0038751890971209513
933.0, 0.007938628311712178
934.0, 0.011837669717650927
935.0, 0.013807839401615679
936.0, 0.015048966774720117
937.0, 0.004926400389868665
938.0, 0.0055500921211572496
939.0, 0.00153835007930608
940.0, 0.0022258338811594145
941.0, 0.008295764525374656
942.0, 0.009195859510889144
943.0, 0.009758386797708917
944.0, 0.009209133277038196
945.0, 0.0016297151770123222
946.0, 0.008718332151233762
947.0, 0.0017100287146813201
948.0, 0.00682835509543498
949.0, 0.00800697932931898
950.0, 0.006012675756789607
951.0, 0.003335101081564276
952.0, 0.005376815231959306
953.0, 0.014516106660102413
954.0, 0.012095103736031912
955.0, 0.01191972943196384
956.0, 0.006938645811352791
957.0, 0.007345418337805891
958.0, 0.0025916585813042683
959.0, 0.0014155853225804717
960.0, 0.006677680241372843
961.0, 0.010074639068339955
962.0, 0.008169800630387957
963.0, 0.004730248927917108
964.0, 0.00976440583805921
965.0, 0.006669307215339206
966.0, 0.011315428373385268
967.0, 0.014191155960528182
968.0, 0.009234762030387256
969.0, 0.004624044978216523
970.0, 0.005710801121244284
971.0, 0.014310200755555402
972.0, 0.007749830289695507
973.0, 0.008851548327976617
974.0, 0.012352360320950082
975.0, 0.010719534207675165
976.0, 0.01119283496492145
977.0, 0.013658335825403494
978.0, 0.012040008672999905
979.0, 0.013900451580808014
980.0, 0.012861159020321889
981.0, 0.006336752369258
982.0, 0.008685603575783352
983.0, 0.014860798859218507
984.0, 0.009952319427012343
985.0, 0.006492418485275735
986.0, 0.015471981711756407
987.0, 0.016519541976356057
988.0, 0.015426680468796663
989.0, 0.013211022118335806
990.0, 0.009442340946119907
991.0, 0.007105860870483691
992.0, 0.005503445459644968
993.0, 0.008846272704760804
994.0, 0.012256954644931359
995.0, 0.008151363813310311
996.0, 0.006090376212894651
997.0, 0.007031119717486253
998.0, 0.004961099095025215
999.0, 0.005958382088533102
1000.0, 0.006952576760671729
1001.0, 0.00716835481487827
1002.0, 0.0070956070973839285
1003.0, 0.004098768495852134
1004.0, 0.00195866213477942
1005.0, 0.008228622143973161
1006.0, 0.005594576162476309
1007.0, 0.00883184760528843
1008.0, 0.0027702922132245107
1009.0, 0.0005528259129584634
1010.0, 0.005750839031546577
1011.0, 0.009581724225982554
1012.0, 0.005045212813632085
1013.0, 0.0032841251866930756
1014.0, 0.0017140288722791433
1015.0, 0.004656764652232883
1016.0, 0.0013286020878221388
1017.0, 0.0019527918176013095
1018.0, 0.0024081673085565715
1019.0, 0.0026626063521486072
1020.0, 0.007018017130262559
1021.0, 0.010530879671162523
1022.0, 0.007124123983698923
1023.0, 0.0026598139978612685
1024.0, 0.004204542574577411
1025.0, 0.006868555654073189
1026.0, 0.0019009984007902724
1027.0, 0.0003843902240645
1028.0, 0.0003982784048780181
1029.0, 0.0004967588483975489
1030.0, 0.0010307626200430477
1031.0, 0.0010350577801540443
1032.0, 0.0006977716088705525
1033.0, 0.00213802510985592
1034.0, 0.002833689256545411
1035.0, 0.003363702061046661
1036.0, 0.0035570774098199723
1037.0, 0.0008690415519203454
1038.0, 0.0020068440524234617
1039.0, 0.002302407469701884
1040.0, 0.00721029106102607
1041.0, 0.008579926928168153
1042.0, 0.006301853122403074
1043.0, 0.002695440005894618
1044.0, 0.005122555631106587
1045.0, 0.002167988671040899
1046.0, 0.000529398817869243
1047.0, 0.00038783291225047856
1048.0, 0.0010287905953729759
1049.0, 0.003583443696204304
1050.0, 0.008080706400428577
1051.0, 0.004021024615781206
1052.0, 0.0029220111538843106
1053.0, 0.0027353606325520117
1054.0, 0.003955339343364398
1055.0, 0.003968446335381906
1056.0, 0.004421462206472563
1057.0, 0.005258970357908299
1058.0, 0.0009018030156603766
1059.0, 0.0020355734818418643
1060.0, 0.004041229467203741
1061.0, 0.003691720445796406
1062.0, 0.004377339629570735
1063.0, 0.005639731250040958
1064.0, 0.007259852254253998
1065.0, 0.0024914591708793867
1066.0, 0.008457222184938414
1067.0, 0.004198420609171528
1068.0, 0.007473484915094399
1069.0, 0.003094538619238526
1070.0, 0.00586681268303094
1071.0, 0.0066713767807818755
1072.0, 0.009504719402181663
1073.0, 0.009605278335312538
1074.0, 0.005684835108140782
1075.0, 0.004384097938216098
1076.0, 0.00956982299251886
1077.0, 0.016316459078540613
1078.0, 0.017573927482384732
1079.0, 0.013529578956905505
1080.0, 0.009663368707913681
1081.0, 0.018344511647498327
1082.0, 0.01333861980217471
1083.0, 0.02047834190354316
1084.0, 0.024180532673758033
1085.0, 0.022994101255424663
1086.0, 0.024194435533877984
1087.0, 0.024496826897581512
1088.0, 0.02494866168791569
1089.0, 0.032480548920929275
1090.0, 0.029665657091565212
1091.0, 0.03203608609396537
1092.0, 0.0322297972760404
1093.0, 0.03170893924506791
1094.0, 0.038803196729453635
1095.0, 0.03885974618386337
1096.0, 0.03629080470352408
1097.0, 0.04112426700186957
1098.0, 0.04300049923175551
1099.0, 0.04723538233306231
1100.0, 0.04603220817213889
1101.0, 0.05048218417536224
1102.0, 0.04772114567946231
1103.0, 0.04419567552542282
1104.0, 0.04809411969359448
1105.0, 0.048817616902390615
1106.0, 0.043200766329610195
1107.0, 0.042435205780343245
1108.0, 0.04862196928370782
1109.0, 0.049698861961749614
1110.0, 0.04454966175892896
1111.0, 0.04313794387522517
1112.0, 0.043404634511954074
1113.0, 0.04948107867607328
1114.0, 0.04382984882762612
1115.0, 0.04819613953304939
1116.0, 0.04752955375256564
1117.0, 0.03815074655678694
1118.0, 0.03941846233258741
1119.0, 0.036821559635375305
1120.0, 0.034582054886780796
1121.0, 0.033150048648246194
1122.0, 0.039810465691865055
1123.0, 0.031524960368208316
1124.0, 0.029624330260502266
1125.0, 0.0320098168982131
1126.0, 0.03362873157308251
1127.0, 0.03185762101282699
1128.0, 0.026930732126277265
1129.0, 0.024524275294608926
1130.0, 0.024679247015758472
1131.0, 0.03184447999688756
1132.0, 0.033359257316473115
1133.0, 0.03536507260374699
1134.0, 0.02780771564679712
1135.0, 0.029804932352133853
1136.0, 0.033890773972139375
1137.0, 0.030829140171427318
1138.0, 0.03149606506061458
1139.0, 0.0348361747915584
1140.0, 0.02958004904725687
1141.0, 0.03263592742355197
1142.0, 0.035741849553572826
1143.0, 0.020085652839116983
1144.0, 0.024073182235372
1145.0, 0.026522393025563622
1146.0, 0.027280571878172153
1147.0, 0.02621496577293301
1148.0, 0.022630524774707762
1149.0, 0.024851907254938153
1150.0, 0.028292611220573593
1151.0, 0.02073565474512202
1152.0, 0.01916582687434385
1153.0, 0.022975607689589148
1154.0, 0.01705981823753598
1155.0, 0.017303438803387944
1156.0, 0.014002415233877415
1157.0, 0.020129604305269923
1158.0, 0.019426381521885677
1159.0, 0.015371745009612438
1160.0, 0.015619712291267325
1161.0, 0.017110546448736386
1162.0, 0.019774855421754136
1163.0, 0.018176347986330915
1164.0, 0.013936457375176401
1165.0, 0.01712951009292067
1166.0, 0.013645219462002717
1167.0, 0.01714456142742339
1168.0, 0.014290200926901224
1169.0, 0.006707864223861023
1170.0, 0.0030688433025631936
1171.0, 0.006187109023495349
1172.0, 0.011710794942613819
1173.0, 0.010957054477356096
1174.0, 0.003952335024842585
1175.0, 0.005633309556078468
1176.0, 0.010747735529497583
1177.0, 0.010013066649588122
1178.0, 0.007900474638360046
1179.0, 0.009859479281138492
1180.0, 0.015291682090289608
1181.0, 0.011415998594875207
1182.0, 0.002832343313856037
1183.0, 0.00025608490205176543
1184.0, 0.00211598930837354
1185.0, 0.0060134995525051825
1186.0, 0.00833301158503726
1187.0, 0.00632519769256823
1188.0, 0.0068435701705723846
1189.0, 0.006682956660871528
1190.0, 0.006958042270642569
1191.0, 0.00637223448129048
1192.0, 0.005089214432935157
1193.0, 0.002404619582932704
1194.0, 0.0022301021362678337
1195.0, 0.0006621756173467899
1196.0, 0.004107574737119338
1197.0, 0.001031385054944843
1198.0, 0.005241328590333623
1199.0, 0.007101257042995926
1200.0, 0.0006695780891950416
1201.0, 0.0011538348200834782
1202.0, 0.003011986324241745
1203.0, 0.003757908364750285
1204.0, 0.00557364249912779
1205.0, 0.006898601363594263
1206.0, 0.009110730715298969
1207.0, 0.008868428339251316
1208.0, 0.00844626651297521
1209.0, 0.00938171297346454
1210.0, 0.002059097671181143
1211.0, 0.007965812501288675
1212.0, 0.00911515735611008
1213.0, 0.007406890249985256
1214.0, 0.012737635055089899
1215.0, 0.013338928324968628
1216.0, 0.016751820099476334
1217.0, 0.01052751399752694
1218.0, 0.008609710063451376
1219.0, 0.011935724149587601
1220.0, 0.012316268306157573
1221.0, 0.012745890370540117
1222.0, 0.014212918189448242
1223.0, 0.020058993903639435
1224.0, 0.019467975754882235
1225.0, 0.02043266384336249
1226.0, 0.0286308704884205
1227.0, 0.024576377003455316
1228.0, 0.01998719218465114
1229.0, 0.01085015030729634
1230.0, 0.015170739498179698
1231.0, 0.024331832757570632
1232.0, 0.020575796668705078
1233.0, 0.016742152369577067
1234.0, 0.023954228935418754
1235.0, 0.0267295855402327
1236.0, 0.018591485343901187
1237.0, 0.023193390680444983
1238.0, 0.021821696280835978
1239.0, 0.02378445012134437
1240.0, 0.019628601772671072
1241.0, 0.022686552146976253
1242.0, 0.016292057360058686
1243.0, 0.02168881694463238
1244.0, 0.024793214115336686
1245.0, 0.020440520939871483
1246.0, 0.020324927527458438
1247.0, 0.01875505098249309
1248.0, 0.015307285457896242
1249.0, 0.015356395264352016
1250.0, 0.011668178013315775
1251.0, 0.014416929722922843
1252.0, 0.013382192049492236
1253.0, 0.01089426104948616
1254.0, 0.008120861009033496
1255.0, 0.013348890489112374
1256.0, 0.009809792058471342
1257.0, 0.008649740717813149
1258.0, 0.010847915855510887
1259.0, 0.008595286553166161
1260.0, 0.006542011123065942
1261.0, 0.007673134673118689
1262.0, 0.009626572726570963
1263.0, 0.010457731273874771
1264.0, 0.0021540688061737366
1265.0, 0.005044014129299202
1266.0, 0.002814346680026096
1267.0, 0.0024476579860832474
1268.0, 0.0006903170891173712
1269.0, 0.0015032838079295527
1270.0, 0.0005334498788174493
1271.0, 0.002880407454510002
1272.0, 0.0032293288934668396
1273.0, 0.004094713260918277
1274.0, 0.0003111516960587392
1275.0, 0.0006963452747465394
1276.0, 0.0005861925255793109
1277.0, 0.0013994937638308644
1278.0, 0.003390482078015773
1279.0, 0.011385350149327617
1280.0, 0.010495513933473751
1281.0, 0.0036058807306351397
1282.0, 0.003301926565926652
1283.0, 0.005686781610997581
1284.0, 0.012248044102622663
1285.0, 0.015568970876784766
1286.0, 0.01577509729823489
1287.0, 0.014747526321867127
1288.0, 0.009624918779887408
1289.0, 0.008546751885053902
1290.0, 0.013274752245754317
1291.0, 0.01422662502925312
1292.0, 0.014308271950313747
1293.0, 0.011132139916000997
1294.0, 0.005384820322827973
1295.0, 0.004226872302792235
1296.0, 0.008157805320429144
1297.0, 0.005689343006813064
1298.0, 0.004105443371467446
1299.0, 0.002162973549559876
1300.0, 0.0003858388657245825
1301.0, 0.00402028738692247
1302.0, 0.003160159583809402
1303.0, 7.422598382605386e-06
1304, 0.0
1305, 0.0
1306, 0.0
1307, 0.0
1308, 0.0
1309, 0.0
1310, 0.0
1311, 0.0
1312, 0.0
1313, 0.0
1314, 0.0
1315, 0.0
1316, 0.0
1317, 0.0
1318, 0.0
1319, 0.0
1320, 0.0
1321, 0.0
1322, 0.0
1323, 0.0
1324, 0.0
1325, 0.0
1326, 0.0
1327, 0.0
1328, 0.0
1329, 0.0
1330, 0.0
1331, 0.0
1332, 0.0
1333, 0.0
1334, 0.0
1335, 0.0
1336, 0.0
1337, 0.0
1338, 0.0
1339, 0.0
1340, 0.0
1341, 0.0
1342, 0.0
1343, 0.0
1344, 0.0
1345, 0.0
1346, 0.0
1347, 0.0
1348, 0.0
1349, 0.0
1350, 0.0
1351, 0.0
1352, 0.0
1353, 0.0
1354, 0.0
1355, 0.0
1356, 0.0
1357, 0.0
1358, 0.0
1359, 0.0
1360, 0.0
1361, 0.0
1362, 0.0
1363, 0.0
1364, 0.0
1365, 0.0
1366, 0.0
1367, 0.0
1368, 0.0
1369, 0.0
1370, 0.0
1371, 0.0
1372, 0.0
1373, 0.0
1374, 0.0
1375, 0.0
1376, 0.0
1377, 0.0
1378, 0.0
1379, 0.0
1380, 0.0
1381, 0.0
1382, 0.0
1383, 0.0
1384, 0.0
1385, 0.0
1386, 0.0
1387, 0.0
1388, 0.0
1389, 0.0
1390, 0.0
1391, 0.0
1392, 0.0
1393, 0.0
1394, 0.0
1395, 0.0
1396, 0.0
1397, 0.0
1398, 0.0
1399, 0.0
1400, 0.0
1401, 0.0
1402, 0.0
1403, 0.0
1404, 0.0
1405, 0.0
1406, 0.0
1407, 0.0
1408, 0.0
1409, 0.0
1410, 0.0
1411, 0.0
1412, 0.0
1413, 0.0
1414, 0.0
1415, 0.0
1416, 0.0
1417, 0.0
1418, 0.0
1419, 0.0
1420, 0.0
1421, 0.0
1422, 0.0
1423, 0.0
1424, 0.0
1425, 0.0
1426, 0.0
1427, 0.0
1428, 0.0
1429, 0.0
1430, 0.0
1431, 0.0
1432, 0.0
1433, 0.0
1434, 0.0
1435, 0.0
1436, 0.0
1437, 0.0
1438, 0.0
1439, 0.0
1440, 0.0
1441, 0.0
1442, 0.0
1443, 0.0
1444, 0.0
1445, 0.0
1446, 0.0
1447, 0.0
1448, 0.0
1449, 0.0
1450, 0.0
1451, 0.0
1452, 0.0
1453, 0.0
1454, 0.0
1455, 0.0
1456, 0.0
1457, 0.0
1458, 0.0
1459, 0.0
1460, 0.0
1461, 0.0
1462, 0.0
1463, 0.0
1464, 0.0
1465, 0.0
1466, 0.0
1467, 0.0
1468, 0.0
1469, 0.0
1470, 0.0
1471, 0.0
1472, 0.0
1473, 0.0
1474, 0.0
1475, 0.0
1476, 0.0
1477, 0.0
1478, 0.0
1479, 0.0
1480, 0.0
1481, 0.0
1482, 0.0
1483, 0.0
1484, 0.0
1485, 0.0
1486, 0.0
1487, 0.0
1488, 0.0
1489, 0.0
1490, 0.0
1491, 0.0
1492, 0.0
1493, 0.0
1494, 0.0
1495, 0.0
1496, 0.0
1497, 0.0
1498, 0.0
1499, 0.0
1500, 0.0
1501, 0.0
1502, 0.0
1503, 0.0
1504, 0.0
1505, 0.0
1506, 0.0
1507, 0.0
1508, 0.0
1509, 0.0
1510, 0.0
1511, 0.0
1512, 0.0
1513, 0.0
1514, 0.0
1515, 0.0
1516, 0.0
1517, 0.0
1518, 0.0
1519, 0.0
1520, 0.0
1521, 0.0
1522, 0.0
1523, 0.0
1524, 0.0
1525, 0.0
1526, 0.0
1527, 0.0
1528, 0.0
1529, 0.0
1530, 0.0
1531, 0.0
1532, 0.0
1533, 0.0
1534, 0.0
1535, 0.0
1536, 0.0
1537, 0.0
1538, 0.0
1539, 0.0
1540, 0.0
1541, 0.0
1542, 0.0
1543, 0.0
1544, 0.0
1545, 0.0
1546, 0.0
1547, 0.0
1548, 0.0
1549, 0.0
1550, 0.0
1551, 0.0
1552, 0.0
1553, 0.0
1554, 0.0
1555, 0.0
1556, 0.0
1557, 0.0
1558, 0.0
1559, 0.0
1560, 0.0
1561, 0.0
1562, 0.0
1563, 0.0
1564, 0.0
1565, 0.0
1566, 0.0
1567, 0.0
1568, 0.0
1569, 0.0
1570, 0.0
1571, 0.0
1572, 0.0
1573, 0.0
1574, 0.0
1575, 0.0
1576, 0.0
1577, 0.0
1578, 0.0
1579, 0.0
1580, 0.0
1581, 0.0
1582, 0.0
1583, 0.0
1584, 0.0
1585, 0.0
1586, 0.0
1587, 0.0
1588, 0.0
1589, 0.0
1590, 0.0
1591, 0.0
1592, 0.0
1593, 0.0
1594, 0.0
1595, 0.0
1596, 0.0
1597, 0.0
1598, 0.0
1599, 0.0
