30, 0.0
31, 0.0
32, 0.0
33, 0.0
34, 0.0
35, 0.0
36, 0.0
37, 0.0
38, 0.0
39, 0.0
40, 0.0
41, 0.0
42, 0.0
43, 0.0
44, 0.0
45, 0.0
46, 0.0
47, 0.0
48, 0.0
49, 0.0
50, 0.0
51, 0.0
52, 0.0
53, 0.0
54, 0.0
55, 0.0
56, 0.0
57, 0.0
58, 0.0
59, 0.0
60, 0.0
61, 0.0
62, 0.0
63, 0.0
64, 0.0
65, 0.0
66, 0.0
67, 0.0
68, 0.0
69, 0.0
70, 0.0
71, 0.0
72, 0.0
73, 0.0
74, 0.0
75, 0.0
76, 0.0
77, 0.0
78, 0.0
79, 0.0
80, 0.0
81, 0.0
82, 0.0
83, 0.0
84, 0.0
85, 0.0
86, 0.0
87, 0.0
88, 0.0
89, 0.0
90, 0.0
91, 0.0
92, 0.0
93, 0.0
94, 0.0
95, 0.0
96, 0.0
97, 0.0
98, 0.0
99, 0.0
100, 0.0
101, 0.0
102, 0.0
103, 0.0
104, 0.0
105, 0.0
106, 0.0
107, 0.0
108, 0.0
109, 0.0
110, 0.0
111, 0.0
112, 0.0
113, 0.0
114, 0.0
115, 0.0
116, 0.0
117, 0.0
118, 0.0
119, 0.0
120, 0.0
121, 0.0
122, 0.0
123, 0.0
124, 0.0
125, 0.0
126, 0.0
127, 0.0
128, 0.0
129, 0.0
130, 0.0
131.0, 0.00185517648124655
132.0, 0.004383270787768241
133.0, 0.00029030892575843413
134.0, 0.004897052315647618
135.0, 0.00673034485060782
136.0, 0.0020298049265379987
137.0, 0.004831202371431827
138.0, 0.0043669173899910565
139.0, 0.006062778130595388
140.0, 0.008737834672919014
141.0, 0.006332985408374701
142.0, 0.000723915349831182
143.0, 0.000613819533289661
144.0, 0.0032418997525166986
145.0, 0.00977293721503185
146.0, 0.007980126202344137
147.0, 0.00874947966372679
148.0, 0.010387822972092049
149.0, 0.009511878854652397
150.0, 0.01211010702984131
151.0, 0.011562613305808926
152.0, 0.009285082873428604
153.0, 0.007132260501604843
154.0, 0.008387225018218232
155.0, 0.006843355168184457
156.0, 0.007476861180278231
157.0, 0.008837137176698835
158.0, 0.006304174294385669
159.0, 0.007158973943015752
160.0, 0.007144959182107632
161.0, 0.006473730358931524
162.0, 0.0060318754884270635
163.0, 0.004105992492846448
164.0, 0.0011172557482860511
165.0, 0.00026516157676908115
166.0, 0.0023432520419303573
167.0, 0.0053960543258688735
168.0, 0.0008254716324281069
169.0, 0.0023178629522054663
170.0, 0.0076482656544222555
171.0, 0.007839646746957052
172.0, 0.00490695162549348
173.0, 0.000706115038964778
174.0, 0.000930622123543132
175.0, 0.002731045391545163
176.0, 0.0062495834643137745
177.0, 0.0037181330228622505
178.0, 0.0018136766231529066
179.0, 0.0033185955102180646
180.0, 0.004246734491034178
181.0, 0.0012488772518463218
182.0, 0.007140322505486938
183.0, 0.009360727863744147
184.0, 0.0033857181467871287
185.0, 0.0015891916377348367
186.0, 0.0015842476021177426
187.0, 0.0004762705976154542
188.0, 0.0022966663049147737
189.0, 0.00047328504869095843
190.0, 0.001906822391361993
191.0, 0.0018261851832884638
192.0, 0.006306560068032862
193.0, 0.0035000792697559412
194.0, 0.004021065292563521
195.0, 0.0010116753870292716
196.0, 0.0009071293188765925
197.0, 0.0033399821649533305
198.0, 0.007748575267650062
199.0, 0.005700496245231911
200.0, 0.004470109206324558
201.0, 0.006361775761719609
202.0, 0.007151466668768633
203.0, 0.008478829146795945
204.0, 0.008868918458758954
205.0, 0.008485187603787728
206.0, 0.008018837808930715
207.0, 0.006617086796784605
208.0, 0.008224282713537395
209.0, 0.007724832069238752
210.0, 0.005517412659766705
211.0, 0.01016554274997767
212.0, 0.012573090773772637
213.0, 0.009211424365567194
214.0, 0.004662395564474728
215.0, 0.0049459617288178425
216.0, 0.006622131300366637
217.0, 0.006803407458918514
218.0, 0.004931989849282793
219.0, 0.0037210465024430325
220.0, 0.008530544742927615
221.0, 0.011915777217934955
222.0, 0.012146322435020715
223.0, 0.008654058004171803
224.0, 0.0025573342033146287
225.0, 0.003661687653078183
226.0, 0.006225522426243756
227.0, 0.006649191614590377
228.0, 0.004314509940188538
229.0, 0.0020316380283317064
230.0, 0.005354569867995335
231.0, 0.008272845225223731
232.0, 0.007748531893344286
233.0, 0.005412832967263278
234.0, 0.006417350450584048
235.0, 0.004414667517794783
236.0, 0.0010763263871139887
237.0, 0.0007519908961868148
238.0, 0.0073244243721320495
239.0, 0.008099000845901394
240.0, 0.006186377625817746
241.0, 0.004765417727734757
242.0, 0.005057578448619452
243.0, 0.005745794528586846
244.0, 0.005824870004629355
245.0, 0.00650812804718523
246.0, 0.008174125338455804
247.0, 0.008998471373976072
248.0, 0.009301459745854336
249.0, 0.005510601948728807
250.0, 0.003294789179941271
251.0, 0.007430438767581474
252.0, 0.002370528638030134
253.0, 0.005635200222091772
254.0, 0.006363697387723052
255.0, 0.0028995067463854713
256.0, 0.0073070969416191185
257.0, 0.004621504329667927
258.0, 0.0018802434237567575
259.0, 0.001121683378810313
260.0, 0.0019497827871574537
261.0, 0.00639994741129896
262.0, 0.010535533736656746
263.0, 0.011073578216000114
264.0, 0.007810094007598897
265.0, 0.002880184733616554
266.0, 0.006689200041404037
267.0, 0.0072754672329059175
268.0, 0.005001594523376407
269.0, 0.003953700393381385
270.0, 0.007610765339473891
271.0, 0.006687729155023533
272.0, 0.007390054027295275
273.0, 0.009178849879275771
274.0, 0.007307084662445871
275.0, 0.0075245948082376885
276.0, 0.012219832589388873
277.0, 0.01429463524589027
278.0, 0.012208600858367849
279.0, 0.01207460865476734
280.0, 0.011164864211702184
281.0, 0.01017046558218292
282.0, 0.00798042931123412
283.0, 0.005367997443698174
284.0, 0.00910084012806692
285.0, 0.009896607053753085
286.0, 0.010731182988938335
287.0, 0.013257361006513108
288.0, 0.015641547650742774
289.0, 0.015074136067869346
290.0, 0.012526517950003146
291.0, 0.011525413642367005
292.0, 0.01493124678564702
293.0, 0.021830614644033526
294.0, 0.012425941707218611
295.0, 0.0068003442439655976
296.0, 0.00925404797575365
297.0, 0.01303869428218208
298.0, 0.009842800386559759
299.0, 0.008546560170950502
300.0, 0.009163826769319153
301.0, 0.008871566333146341
302.0, 0.00634809736654811
303.0, 0.005182722527408004
304.0, 0.011220383719635286
305.0, 0.016546268944564627
306.0, 0.015929355742156277
307.0, 0.012036107140383114
308.0, 0.01235135806928396
309.0, 0.013782377901945595
310.0, 0.01375882759405128
311.0, 0.013136054956934136
312.0, 0.01598306960854936
313.0, 0.015201261469133582
314.0, 0.013576501299281847
315.0, 0.01177341396166336
316.0, 0.008633551237124691
317.0, 0.004744185678028622
318.0, 0.00818666106804519
319.0, 0.010617373714935869
320.0, 0.008005188977414332
321.0, 0.0030802206204547213
322.0, 0.008076923427959216
323.0, 0.008547281000017415
324.0, 0.00545878711219172
325.0, 0.0029924940492515014
326.0, 0.0028088993542585844
327.0, 0.0017376040232772844
328.0, 0.0019385854692809637
329.0, 0.0005834651857779849
330.0, 0.0017970964431140155
331.0, 0.0021627930515377655
332.0, 0.0018811852966611464
333.0, 0.0005309337774668495
334.0, 0.0019132077859697649
335.0, 0.004618009709123167
336.0, 0.0018434699601781275
337.0, 0.0010055198880458234
338.0, 0.003478223810734175
339.0, 0.0050709034299055225
340.0, 0.0015061576636576505
341.0, 0.0021072867180677666
342.0, 0.005317730475021114
343.0, 0.00813572125480225
344.0, 0.0020303894654354736
345.0, 0.001656466168203867
346.0, 0.0009708219813445471
347.0, 0.0026252315036608136
348.0, 0.006202413944796779
349.0, 0.011060195906219641
350.0, 0.00909107164700451
351.0, 0.007189887753366728
352.0, 0.010331345274867131
353.0, 0.01345884706799132
354.0, 0.01283547039643259
355.0, 0.013325716183556912
356.0, 0.01416757725520351
357.0, 0.013464546429660645
358.0, 0.015237290367912885
359.0, 0.020944397071054142
360.0, 0.023163787092683154
361.0, 0.03043497799954918
362.0, 0.037120645089434294
363.0, 0.041559235654393574
364.0, 0.04941822802362541
365.0, 0.07577134440618534
366.0, 0.07362989250699842
367.0, 0.06361522105504405
368.0, 0.06795639417813053
369.0, 0.08745798816959989
370.0, 0.08591082252642962
371.0, 0.09939747663319298
372.0, 0.11332456204591226
373.0, 0.127564105732884
374.0, 0.15698785436710855
375.0, 0.1948054062212443
376.0, 0.2373400676657383
377.0, 0.27871540358672825
378.0, 0.31091603487463976
379.0, 0.3121350759788698
380.0, 0.23991436522801418
381.0, 0.1494822363477634
382.0, 0.09188910448405892
383.0, 0.07045794885849146
384.0, 0.05484969052679518
385.0, 0.04667023774541149
386.0, 0.03978887705210008
387.0, 0.03667935673319319
388.0, 0.035182469000640856
389.0, 0.02859393171431672
390.0, 0.030141846981663944
391.0, 0.03269768396546011
392.0, 0.03311846249536223
393.0, 0.03033481955808075
394.0, 0.025759263914711197
395.0, 0.029737117219304096
396.0, 0.032019493159571984
397.0, 0.03561485485819599
398.0, 0.04725153480994112
399.0, 0.06827064528985016
400.0, 0.0875031347725768
401.0, 0.09731032476854677
402.0, 0.1056459477203518
403.0, 0.1153945104987639
404.0, 0.1219903149229211
405.0, 0.1386858072521557
406.0, 0.15529397799366226
407.0, 0.1772964222080045
408.0, 0.20564810570341863
409.0, 0.23004490460764165
410.0, 0.2665487579798258
411.0, 0.3216227118599788
412.0, 0.4007028904922835
413.0, 0.5086195599969978
414.0, 0.6448802651875386
415.0, 0.7922093688289028
416.0, 0.947893150015049
417.0, 0.9926542918652166
418.0, 0.8429055290466811
419.0, 0.5270623765206968
420.0, 0.30237748394151054
421.0, 0.1821164425989937
422.0, 0.12765463298235455
423.0, 0.10310601690291907
424.0, 0.08632583583211983
425.0, 0.08603902195545433
426.0, 0.08846361680542271
427.0, 0.09232065251176294
428.0, 0.09750688682434278
429.0, 0.10233243018305271
430.0, 0.10043206376625065
431.0, 0.08670775103308317
432.0, 0.0715748137737659
433.0, 0.05858903328340092
434.0, 0.04480774961374861
435.0, 0.03766658059542395
436.0, 0.039187148228051416
437.0, 0.03254887379109227
438.0, 0.020701362763542588
439.0, 0.01681905133595163
440.0, 0.01643016403938226
441.0, 0.02158581312546471
442.0, 0.024460713651740164
443.0, 0.024504917103591844
444.0, 0.025472346152782783
445.0, 0.029312672056515138
446.0, 0.03264565974457639
447.0, 0.03568387498249047
448.0, 0.03378438033728171
449.0, 0.027303328284871586
450.0, 0.027642626436061114
451.0, 0.016931671557694275
452.0, 0.013213648028432662
453.0, 0.012334047003886761
454.0, 0.00683897092552465
455.0, 0.0021725338168315914
456.0, 0.005049954154117825
457.0, 0.0037467820468907592
458.0, 0.0011890281102792605
459.0, 0.0006471210661448319
460.0, 0.00024349468999633372
461.0, 0.001964944363653937
462.0, 0.005024005239071868
463.0, 0.006520918008278323
464.0, 0.0024043032214628563
465.0, 0.0058951661384304185
466.0, 0.0008093011973389008
467.0, 0.0005730059285151237
468.0, 0.001864024836232821
469.0, 0.002018096215364459
470.0, 0.0024764307597824908
471.0, 0.002030119321824992
472.0, 0.0013253763579594018
473.0, 0.006413055257161003
474.0, 0.006874025901560501
475.0, 0.0014934554217992167
476.0, 0.0012272149453573052
477.0, 0.0025911970988937573
478.0, 0.0036882510117676346
479.0, 0.0060368946239814526
480.0, 0.010685422501853703
481.0, 0.016058037039144428
482.0, 0.018302060612462565
483.0, 0.0233902491877626
484.0, 0.02450579153669283
485.0, 0.02029888351272194
486.0, 0.015988075441827877
487.0, 0.016142148948661977
488.0, 0.021085694922399183
489.0, 0.015518687814456075
490.0, 0.011359232042569773
491.0, 0.020450853810816187
492.0, 0.01539792183366449
493.0, 0.011196156875272738
494.0, 0.006953874190850947
495.0, 0.005499224275736041
496.0, 0.006323630645531245
497.0, 0.0020665171170884296
498.0, 0.006218223780745619
499.0, 0.0036002090849797117
500.0, 0.0004892245087815131
501.0, 0.0005497018649698016
502.0, 0.001437392682094744
503.0, 0.0013437488946909256
504.0, 0.006428272307297661
505.0, 0.005253082518862881
506.0, 0.0014081781914501894
507.0, 0.0033821741116672544
508.0, 0.0004924801048118083
509.0, 0.00315583850962956
510.0, 0.0036084313383170953
511.0, 0.001099636138655633
512.0, 0.0002860725344897121
513.0, 0.001054278500974816
514.0, 0.0029920715848969727
515.0, 0.006118192956317212
516.0, 0.0043903784542983285
517.0, 0.0024732724910358837
518.0, 0.004548371766558809
519.0, 0.002825204974661448
520.0, 0.0043793865747450015
521.0, 0.006485020907393741
522.0, 0.006541265522807559
523.0, 0.006690247663474724
524.0, 0.015796721117464257
525.0, 0.012986338654397881
526.0, 0.00820792734556766
527.0, 0.004944536907608782
528.0, 0.002822011141705858
529.0, 0.0013512805344890098
530.0, 0.0002947078819590193
531.0, 0.005135546727673502
532.0, 0.0052201381901343345
533.0, 0.005007505326868398
534.0, 0.010069941226256896
535.0, 0.013741384524637369
536.0, 0.010052671220254843
537.0, 0.0047359579054457035
538.0, 0.0028974014817438176
539.0, 0.00424500619362565
540.0, 0.005339134812618397
541.0, 0.010028330779885653
542.0, 0.005684188012263584
543.0, 0.009557318793749067
544.0, 0.017193954898432402
545.0, 0.014770104852229547
546.0, 0.006525360973647788
547.0, 0.009084579031227329
548.0, 0.011791534010378513
549.0, 0.010175524698996515
550.0, 0.00801211405844983
551.0, 0.010246881424079196
552.0, 0.005287720023247679
553.0, 0.010036210214042406
554.0, 0.012002217011050942
555.0, 0.01096664330369246
556.0, 0.011067239271997294
557.0, 0.00812934321618077
558.0, 0.005464215747024198
559.0, 0.000826206954191813
560.0, 0.002904238600070062
561.0, 0.00763799323378807
562.0, 0.007335891581177775
563.0, 0.01234742427327386
564.0, 0.010025448316267865
565.0, 0.008478423666093703
566.0, 0.011529289488181483
567.0, 0.015743982759830175
568.0, 0.016398645914096552
569.0, 0.022376982205203413
570.0, 0.029805793963991502
571.0, 0.03759617655477672
572.0, 0.047391637516504145
573.0, 0.05655808421904909
574.0, 0.058804261770870656
575.0, 0.06808387705634628
576.0, 0.070045673488655
577.0, 0.06302573419666957
578.0, 0.0501387986373216
579.0, 0.033558405654824944
580.0, 0.016994215657404027
581.0, 0.013621273824340422
582.0, 0.01105790604214939
583.0, 0.00745623792377453
584.0, 0.005071593609984237
585.0, 0.0024696964867034384
586.0, 0.004950678359208226
587.0, 0.006813443366247377
588.0, 0.004550416953237482
589.0, 0.0018702241553622276
590.0, 0.0031768201592000363
591.0, 0.00802085594039565
592.0, 0.0067992374435718655
593.0, 0.0059450145436663136
594.0, 0.00675275654406898
595.0, 0.005417097428449936
596.0, 0.0009906679817325021
597.0, 0.0011567335672350058
598.0, 0.0014252543859057097
599.0, 0.00276673230887903
600.0, 0.002543977414379798
601.0, 0.00615623946227258
602.0, 0.0026087811063323016
603.0, 0.00883919087425223
604.0, 0.003798378349213631
605.0, 0.009464797464390154
606.0, 0.016300620063962084
607.0, 0.011190883084554085
608.0, 0.00321592128006911
609.0, 0.006417026481563346
610.0, 0.006498349970034115
611.0, 0.00597893077872037
612.0, 0.008040429888455972
613.0, 0.009287324283212547
614.0, 0.004550759338943486
615.0, 0.004773316719155502
616.0, 0.003109204837703313
617.0, 0.00179135558711058
618.0, 0.0022827535307749537
619.0, 0.004773353909215015
620.0, 0.0030370253176566827
621.0, 0.001895435458728171
622.0, 0.004656028788391633
623.0, 0.007281835321698641
624.0, 0.00837902265326029
625.0, 0.008751558088867475
626.0, 0.0077502658720193
627.0, 0.01404627246796129
628.0, 0.020150224406540986
629.0, 0.02106151723736238
630.0, 0.01880629355534384
631.0, 0.019938990912385456
632.0, 0.028324198164989146
633.0, 0.025360182492015264
634.0, 0.030038386276776838
635.0, 0.03573577839423037
636.0, 0.03701798915001346
637.0, 0.040018223800682366
638.0, 0.049929128802719915
639.0, 0.06282060214252232
640.0, 0.0796461839195142
641.0, 0.09070905954428256
642.0, 0.09459462891408454
643.0, 0.0963795669601476
644.0, 0.08874090477753134
645.0, 0.07930701092620106
646.0, 0.0701292409706019
647.0, 0.061525262552557775
648.0, 0.05128301756666368
649.0, 0.04082044389265627
650.0, 0.03882310823488929
651.0, 0.03174171345887351
652.0, 0.026662055365444547
653.0, 0.027574537534976563
654.0, 0.02902218794189745
655.0, 0.02600435255282412
656.0, 0.02485368132052457
657.0, 0.019806775237455842
658.0, 0.02511739063357299
659.0, 0.023599578334338244
660.0, 0.016501114080057003
661.0, 0.019741932187894263
662.0, 0.024466612308461415
663.0, 0.023859985777547638
664.0, 0.02212196930474782
665.0, 0.01840889168085856
666.0, 0.01658640145606585
667.0, 0.019000620497107396
668.0, 0.0159294882579089
669.0, 0.018196612420627055
670.0, 0.02056702672848018
671.0, 0.02398631369087393
672.0, 0.025576312941147036
673.0, 0.02151081016486895
674.0, 0.016481337559812993
675.0, 0.021751188817714782
676.0, 0.02426158457188397
677.0, 0.02486527835161183
678.0, 0.021639584449489192
679.0, 0.015667879631558693
680.0, 0.015408200703286365
681.0, 0.007550975381869185
682.0, 0.006469949047014539
683.0, 0.00947639566860052
684.0, 0.011836706723949228
685.0, 0.010653407937224902
686.0, 0.00555536980111219
687.0, 0.01272776072599209
688.0, 0.012603324325303705
689.0, 0.010620090553454038
690.0, 0.007938132195493516
691.0, 0.005085009346804089
692.0, 0.005767113379157172
693.0, 0.008875986847495064
694.0, 0.007081193857744652
695.0, 0.013716553667636387
696.0, 0.008934596807605005
697.0, 0.0042582824539073375
698.0, 0.004368673753524892
699.0, 0.0008227338497696013
700.0, 0.00032386896218864153
701.0, 0.0002458686685122201
702.0, 0.0007001330684055649
703.0, 0.0010445054602154467
704.0, 0.0031300053103985224
705.0, 0.000250148635705236
706.0, 0.004025038498728777
707.0, 0.0013033763332060075
708.0, 0.002626323206764535
709.0, 0.004328713742646941
710.0, 0.001878097904562562
711.0, 0.0015816811279514382
712.0, 0.0009014661130988117
713.0, 0.0012717700053107932
714.0, 0.0006681133876848238
715.0, 0.0013178431670928222
716.0, 0.0029424381636996956
717.0, 0.007462337562672905
718.0, 0.007072317389267226
719.0, 0.012245027877470458
720.0, 0.011868755983117896
721.0, 0.011644655908857078
722.0, 0.013492516173767562
723.0, 0.013202660077610548
724.0, 0.010935893582059401
725.0, 0.020601583032313138
726.0, 0.0244440411741468
727.0, 0.028320961673853562
728.0, 0.02970328214104138
729.0, 0.030937472970365955
730.0, 0.03967441714170823
731.0, 0.04590517619551703
732.0, 0.05337596906616121
733.0, 0.04997751468615255
734.0, 0.056400561009727575
735.0, 0.07034669671525152
736.0, 0.07751366428395591
737.0, 0.08627039227884739
738.0, 0.09761217789786056
739.0, 0.10788032612800455
740.0, 0.11528670874090745
741.0, 0.12797573887113314
742.0, 0.14496901655795338
743.0, 0.15657703435706352
744.0, 0.17345886679472527
745.0, 0.187796854626491
746.0, 0.20196376591419402
747.0, 0.21079992025586033
748.0, 0.2162314371478707
749.0, 0.21919660200574878
750.0, 0.21100903638407886
751.0, 0.20061056426282806
752.0, 0.17811923600563073
753.0, 0.16135694285308294
754.0, 0.15053842684203228
755.0, 0.13402657049573966
756.0, 0.11215474253988039
757.0, 0.10580155108632093
758.0, 0.09987099556262657
759.0, 0.09137521199735583
760.0, 0.07770871432305208
761.0, 0.06969029495136174
762.0, 0.06822807569172998
763.0, 0.05962719852773094
764.0, 0.05763170378014329
765.0, 0.05087220133836534
766.0, 0.04631900804756215
767.0, 0.04251628107553378
768.0, 0.04070913609458273
769.0, 0.041820439278210726
770.0, 0.03992428338918819
771.0, 0.03708247627554539
772.0, 0.03203541414466975
773.0, 0.02949741269102941
774.0, 0.032404208135715803
775.0, 0.03496700225560083
776.0, 0.03198120875429732
777.0, 0.03155506151220629
778.0, 0.03399742796727555
779.0, 0.03184585664354963
780.0, 0.031568263487368284
781.0, 0.03642630216078713
782.0, 0.043504406482470254
783.0, 0.04719225734893544
784.0, 0.041477943284135774
785.0, 0.040060332480392404
786.0, 0.03702145487172113
787.0, 0.035468985953790756
788.0, 0.035429335537193456
789.0, 0.03159190697770124
790.0, 0.02510156773330501
791.0, 0.037925372107568925
792.0, 0.025617850359204667
793.0, 0.029372887901970075
794.0, 0.03331603340905258
795.0, 0.0340801912942108
796.0, 0.03798629069632139
797.0, 0.03234655185998662
798.0, 0.034379034441483984
799.0, 0.03132961246290357
800.0, 0.037949573945412214
801.0, 0.04228794869611966
802.0, 0.04081303195827722
803.0, 0.04222741245475549
804.0, 0.04419118704892327
805.0, 0.040736163010103084
806.0, 0.03950405788468319
807.0, 0.04306904768319202
808.0, 0.043508747713586475
809.0, 0.04493195364463105
810.0, 0.05255332567645308
811.0, 0.05207951067307992
812.0, 0.04339188829209416
813.0, 0.041591422004141336
814.0, 0.048950924195910836
815.0, 0.03956644914940076
816.0, 0.02728048930062973
817.0, 0.03269809687507693
818.0, 0.02871789592908482
819.0, 0.018174118808363962
820.0, 0.0191757703546936
821.0, 0.02128300701949984
822.0, 0.019601126520000744
823.0, 0.020439220353021655
824.0, 0.02383753287993139
825.0, 0.01794546544322346
826.0, 0.01578979803767787
827.0, 0.012233262956606884
828.0, 0.014085823962180636
829.0, 0.017044809049478006
830.0, 0.012784290302046674
831.0, 0.005623850047210178
832.0, 0.009242793581582457
833.0, 0.013093809846603485
834.0, 0.007820554104375519
835.0, 0.0138452137559069
836.0, 0.009489125518706907
837.0, 0.0026920532575329245
838.0, 0.008254450985200817
839.0, 0.012860855683460917
840.0, 0.014968824519644843
841.0, 0.009052101147140602
842.0, 0.005581610615138531
843.0, 0.005136087178394736
844.0, 0.010078357305774579
845.0, 0.016065177001266584
846.0, 0.012144575924045397
847.0, 0.0032283218885249968
848.0, 0.00781222740941482
849.0, 0.0063918819288765584
850.0, 0.005046796254523821
851.0, 0.00401849809656555
852.0, 0.0011246758904280808
853.0, 0.0023929396886694376
854.0, 0.004980475801646723
855.0, 0.0007870002885883489
856.0, 0.0011605828851854539
857.0, 0.0021932676781532736
858.0, 0.005633134620500073
859.0, 0.008043813450448321
860.0, 0.007232763994768925
861.0, 0.00951605016541669
862.0, 0.012428582053191039
863.0, 0.009780037451519414
864.0, 0.006639030927494691
865.0, 0.003067445222846385
866.0, 0.0018279013387796673
867.0, 0.0020577751127259197
868.0, 0.00023336464109608161
869.0, 0.0036854019308999206
870.0, 0.004559770210213543
871.0, 0.004652924193008337
872.0, 0.013400274496426525
873.0, 0.015071327834378508
874.0, 0.008101428419427143
875.0, 0.005011314610593035
876.0, 0.0030327106076379717
877.0, 0.0028522486636951444
878.0, 0.003529236894279815
879.0, 0.001350007191001087
880.0, 0.005046703570900535
881.0, 0.004399331141674914
882.0, 0.000962612712631064
883.0, 0.00011055948472643844
884.0, 0.00011181962659952603
885.0, 0.0008992411316862777
886.0, 0.0069792932775237905
887.0, 0.008039869770395362
888.0, 0.0016934422251493005
889.0, 0.0032468099027128973
890.0, 0.0017338749385625205
891.0, 0.004511797683365745
892.0, 0.009784271840016756
893.0, 0.00632685600043718
894.0, 0.004895295004311641
895.0, 0.0035866556876871757
896.0, 0.0008102320807179328
897.0, 0.0014032573072308976
898.0, 0.007745868648494459
899.0, 0.007776470480518535
900.0, 0.0005641455584002697
901.0, 0.007122519131950818
902.0, 0.005304525150686797
903.0, 0.002079968375721589
904.0, 0.001590706074829104
905.0, 0.0027764731095092266
906.0, 0.006853155793343304
907.0, 0.006861040626044509
908.0, 0.009324311064380092
909.0, 0.0030587953528061983
910.0, 0.004065210177233235
911.0, 0.005540483917720579
912.0, 0.00553631207954181
913.0, 0.006221531086515784
914.0, 0.00137644644749471
915.0, 0.0022678073322801658
916.0, 0.0057249337370295335
917.0, 0.008884303203174956
918.0, 0.006116864154977691
919.0, 0.0011727454319200876
920.0, 0.001976132417002321
921.0, 0.009502446520888455
922.0, 0.013942289565069599
923.0, 0.008588436354583527
924.0, 0.0026537129553331337
925.0, 0.005690856063126582
926.0, 0.011755727105659954
927.0, 0.008153844379841176
928.0, 0.0047991559684296544
929.0, 0.005690057149931857
930.0, 0.004423555412290692
931.0, 0.014606164612594908
932.0, 0.008978898590513436
933.0, 0.005872449040289856
934.0, 0.002034446669318647
935.0, 0.0017291222447422165
936.0, 0.004826959107994312
937.0, 0.011552092814234298
938.0, 0.013043615250636853
939.0, 0.00908518040716534
940.0, 0.005005755356521065
941.0, 0.0012757270180885863
942.0, 0.0044445520821323956
943.0, 0.006568178542713375
944.0, 0.010342988778245375
945.0, 0.009550741885991898
946.0, 0.008461765726798437
947.0, 0.013824488678312662
948.0, 0.014551388476927019
949.0, 0.010311334657114615
950.0, 0.008656710347741615
951.0, 0.005880995741244158
952.0, 0.0020735123966507136
953.0, 0.0006274944439145127
954.0, 0.003318022457530004
955.0, 0.018917285716645044
956.0, 0.014471799891663972
957.0, 0.010342219184024896
958.0, 0.0047372818228245935
959.0, 0.006003442217562632
960.0, 0.007814970696853751
961.0, 0.006632860728772965
962.0, 0.008229700105379396
963.0, 0.004267831508318717
964.0, 0.014108867666086367
965.0, 0.0064552090522141115
966.0, 0.005948707014605768
967.0, 0.013498205551135446
968.0, 0.013772419277959188
969.0, 0.010217411254239346
970.0, 0.013283160175661281
971.0, 0.014107598514374719
972.0, 0.017618595886915486
973.0, 0.02364900823552824
974.0, 0.013469767486437936
975.0, 0.00914835074874508
976.0, 0.014231644544055868
977.0, 0.010523822902466904
978.0, 0.004275085041636774
979.0, 0.013927349634275249
980.0, 0.012177054304252317
981.0, 0.0007593352480589511
982.0, 0.015484110566907289
983.0, 0.021273206385694837
984.0, 0.019111190147160336
985.0, 0.017901105581930685
986.0, 0.015068521771445444
987.0, 0.012474084089327014
988.0, 0.02028583765141996
989.0, 0.015394794202330407
990.0, 0.01555685024296212
991.0, 0.01589868859203079
992.0, 0.011235522959766715
993.0, 0.011428352900423992
994.0, 0.012062721747005298
995.0, 0.010847782212889186
996.0, 0.016050008138328634
997.0, 0.014791715002941021
998.0, 0.008468677755494602
999.0, 0.025939256483346315
1000.0, 0.02308882071453162
1001.0, 0.011218919353610112
1002.0, 0.010378562011652435
1003.0, 0.013290850910461787
1004.0, 0.010336490245361724
1005.0, 0.006622702029142764
1006.0, 0.0035810350862120256
1007.0, 0.003640299063299798
1008.0, 0.008984055142503375
1009.0, 0.008656456334388146
1010.0, 0.010268569200575572
1011.0, 0.007807393244379866
1012.0, 0.007179603679604844
1013.0, 0.013362895546203851
1014.0, 0.011132006647049185
1015.0, 0.012886762165719524
1016.0, 0.0015392382467786818
1017.0, 0.003976223035605291
1018.0, 0.010857929381327472
1019.0, 0.013496719982364864
1020.0, 0.01238008729527614
1021.0, 0.01302984001235767
1022.0, 0.01639476832705875
1023.0, 0.015654684209379738
1024.0, 0.01719810161574622
1025.0, 0.016930419729059586
1026.0, 0.013146795418562346
1027.0, 0.00787113694565598
1028.0, 0.005939152510112191
1029.0, 0.0033478133343983487
1030.0, 0.0020683220367353557
1031.0, 0.0075807047095372395
1032.0, 0.011735502279429775
1033.0, 0.0056808898504179944
1034.0, 0.013074188576823418
1035.0, 0.00854237256890877
1036.0, 0.002746887258426347
1037.0, 0.008302832088499565
1038.0, 0.012630657763622467
1039.0, 0.014240759334510755
1040.0, 0.013195046423732733
1041.0, 0.001956654301180276
1042.0, 0.007967637564808915
1043.0, 0.012191420514653585
1044.0, 0.0030671592647598714
1045.0, 0.01340586866793063
1046.0, 0.009719747176409338
1047.0, 0.006524797962982683
1048.0, 0.009341537124421083
1049.0, 0.006343485465011174
1050.0, 0.003586517466991606
1051.0, 0.0017033531271242635
1052.0, 0.00973833822072867
1053.0, 0.0029349805456170826
1054.0, 0.002576875245327599
1055.0, 0.007131785293007236
1056.0, 0.011547281205843276
1057.0, 0.005709526869678201
1058.0, 0.006640681094462569
1059.0, 0.015765588046540553
1060.0, 0.014280217875405517
1061.0, 0.0025327374280636637
1062.0, 0.005679474540747773
1063.0, 0.0039019161026688934
1064.0, 0.0012649568409293982
1065.0, 0.008638627883753172
1066.0, 0.005678516753484944
1067.0, 0.0014556954824734413
1068.0, 0.0027645000182889437
1069.0, 0.011591140812319916
1070.0, 0.010567226100135331
1071.0, 0.005485788182971489
1072.0, 0.007550667710010547
1073.0, 0.0033307820083502623
1074.0, 0.012071495606942696
1075.0, 0.0088237358775577
1076.0, 0.009212479027564129
1077.0, 0.016785907887458765
1078.0, 0.016391943039263186
1079.0, 0.012340899705456255
1080.0, 0.009250048472238159
1081.0, 0.013531615974417105
1082.0, 0.002458161534307998
1083.0, 0.0021653053201294388
1084.0, 0.004644414870362664
1085.0, 0.007376195390011802
1086.0, 0.013840058316677964
1087.0, 0.020989195201920337
1088.0, 0.02176439306288797
1089.0, 0.015890610960653855
1090.0, 0.013177593831143012
1091.0, 0.003954387382223978
1092.0, 0.00997140419007536
1093.0, 0.006913049778698369
1094.0, 0.008114658591444866
1095.0, 0.019638552103935194
1096.0, 0.01776085235326201
1097.0, 0.010185270766734754
1098.0, 0.011167797418347851
1099.0, 0.007177904243871917
1100.0, 0.008121516131657621
1101.0, 0.010493609126981012
1102.0, 0.006465811539479229
1103.0, 0.005698264634203809
1104.0, 0.004810543335819487
1105.0, 0.0009668465359635488
1106.0, 0.0015994515001530206
1107.0, 0.0029314024701435535
1108.0, 0.006553858531718934
1109.0, 0.007375758864826087
1110.0, 0.011548347590194784
1111.0, 0.0011724970971158134
1112.0, 0.011540637007129189
1113.0, 0.00458096597342271
1114.0, 0.009024021590881762
1115.0, 0.003898721002864402
1116.0, 0.0023574368171682576
1117.0, 0.002222420826429975
1118.0, 0.0009979822555976107
1119.0, 0.008207048320826268
1120.0, 0.006993263413137143
1121.0, 0.007617681548844119
1122.0, 0.008921284250401841
1123.0, 0.002670888204131203
1124.0, 0.00295724537540887
1125.0, 0.006840176700889055
1126.0, 0.011980388422680765
1127.0, 0.014127251386125094
1128.0, 0.014694996971459354
1129.0, 0.016363538551734412
1130.0, 0.014355592116416254
1131.0, 0.015739593588021687
1132.0, 0.00915292471298799
1133.0, 0.005064282802246697
1134.0, 0.0027878102180284455
1135.0, 0.0015609924048340155
1136.0, 0.0034885465109367178
1137.0, 0.002766697074986246
1138.0, 0.002822579194479236
1139.0, 0.0030837863743817663
1140.0, 0.0007832167374029153
1141.0, 0.002092729915069816
1142.0, 0.003916502367374785
1143.0, 0.008641585797027814
1144.0, 0.007478569137475707
1145.0, 0.008406248838498713
1146.0, 0.01128634655996393
1147.0, 0.018213961367048316
1148.0, 0.02436712907797792
1149.0, 0.018136752217164185
1150.0, 0.01236282930377639
1151.0, 0.014043549627649086
1152.0, 0.005693117060096713
1153.0, 0.002765702525219264
1154.0, 0.005979764508781014
1155.0, 0.005981298272644224
1156.0, 0.007898184418066898
1157.0, 0.014382876215028833
1158.0, 0.016469245829878347
1159.0, 0.00903001435772995
1160.0, 0.0030314313301068544
1161.0, 0.005681870195385755
1162.0, 0.004929084619094956
1163.0, 0.002042114132147291
1164.0, 0.013300465052617257
1165.0, 0.018114111925410875
1166.0, 0.013833990857994444
1167.0, 0.015260213517162668
1168.0, 0.01553884278500677
1169.0, 0.0215799580325651
1170.0, 0.015840612580110533
1171.0, 0.005558478616399152
1172.0, 0.0027758482668745173
1173.0, 0.00814819569215373
1174.0, 0.013234420986269941
1175.0, 0.009585625950648848
1176.0, 0.013393891624251928
1177.0, 0.010783582951118729
1178.0, 0.00705264920174543
1179.0, 0.004871487914942578
1180.0, 0.0006555786652685357
1181.0, 0.006172382263823295
1182.0, 0.007659406011095216
1183.0, 0.007401855827691765
1184.0, 0.01156312068413038
1185.0, 0.013389355459129873
1186.0, 0.010321667081915873
1187.0, 0.006581068453704277
1188.0, 0.010595356602292388
1189.0, 0.010718459359058284
1190.0, 0.00864357598008643
1191.0, 0.002863050844687354
1192.0, 0.0024935290907210227
1193.0, 0.0006836882883031359
1194.0, 0.008284691283593729
1195.0, 0.015129412752419571
1196.0, 0.011045102415464681
1197.0, 0.00834721226089807
1198.0, 0.010713778856145707
1199.0, 0.010927168326246411
1200.0, 0.010091198435013162
1201.0, 0.010189284002523618
1202.0, 0.005581083050665872
1203.0, 0.008932567523673144
1204.0, 0.009961856847576568
1205.0, 0.01024600740814733
1206.0, 0.01114953078814069
1207.0, 0.011887742344739013
1208.0, 0.016818810880234254
1209.0, 0.012052529772410267
1210.0, 0.004684124908239802
1211.0, 0.006902050162201111
1212.0, 0.00940614384822283
1213.0, 0.009727078752593103
1214.0, 0.006884856383496005
1215.0, 0.016914008781272995
1216.0, 0.021648639178174424
1217.0, 0.02288060245237181
1218.0, 0.024186807419008475
1219.0, 0.019453116241204074
1220.0, 0.015466515858115336
1221.0, 0.01792925598882507
1222.0, 0.019291534438710654
1223.0, 0.018524018350162392
1224.0, 0.022951010402547267
1225.0, 0.02242541404643905
1226.0, 0.018135895091636354
1227.0, 0.025151226453374094
1228.0, 0.019778778377414707
1229.0, 0.015288583206153795
1230.0, 0.011766238720157857
1231.0, 0.010234006011131296
1232.0, 0.010124885004239166
1233.0, 0.012107012197349984
1234.0, 0.013033500585368663
1235.0, 0.008540407284382202
1236.0, 0.004982240649407608
1237.0, 0.008172344767881467
1238.0, 0.007183643020876901
1239.0, 0.0018090183650256626
1240.0, 0.008537061383396558
1241.0, 0.00124643142307187
1242.0, 0.0016915767230507917
1243.0, 0.006136645621075601
1244.0, 0.007775491810378502
1245.0, 0.01621906209341283
1246.0, 0.019654961451638864
1247.0, 0.015397924560788253
1248.0, 0.0169361987696543
1249.0, 0.027372686795054196
1250.0, 0.04133755279754994
1251.0, 0.017853409220901038
1252.0, 0.015884093754871473
1253.0, 0.016653982503924185
1254.0, 0.017896691325816363
1255.0, 0.019326084103537033
1256.0, 0.012940495156873946
1257.0, 0.004995438383630167
1258.0, 0.009511159923262581
1259.0, 0.014539135687547968
1260.0, 0.013009287105086722
1261.0, 0.01459210207193748
1262.0, 0.02004004137409593
1263.0, 0.016260298375209564
1264.0, 0.0007930395166240055
1265.0, 0.0134191866453307
1266.0, 0.004500471215059164
1267, 0.0
1268, 0.0
1269, 0.0
1270, 0.0
1271, 0.0
1272, 0.0
1273, 0.0
1274, 0.0
1275, 0.0
1276, 0.0
1277, 0.0
1278, 0.0
1279, 0.0
1280, 0.0
1281, 0.0
1282, 0.0
1283, 0.0
1284, 0.0
1285, 0.0
1286, 0.0
1287, 0.0
1288, 0.0
1289, 0.0
1290, 0.0
1291, 0.0
1292, 0.0
1293, 0.0
1294, 0.0
1295, 0.0
1296, 0.0
1297, 0.0
1298, 0.0
1299, 0.0
1300, 0.0
1301, 0.0
1302, 0.0
1303, 0.0
1304, 0.0
1305, 0.0
1306, 0.0
1307, 0.0
1308, 0.0
1309, 0.0
1310, 0.0
1311, 0.0
1312, 0.0
1313, 0.0
1314, 0.0
1315, 0.0
1316, 0.0
1317, 0.0
1318, 0.0
1319, 0.0
1320, 0.0
1321, 0.0
1322, 0.0
1323, 0.0
1324, 0.0
1325, 0.0
1326, 0.0
1327, 0.0
1328, 0.0
1329, 0.0
1330, 0.0
1331, 0.0
1332, 0.0
1333, 0.0
1334, 0.0
1335, 0.0
1336, 0.0
1337, 0.0
1338, 0.0
1339, 0.0
1340, 0.0
1341, 0.0
1342, 0.0
1343, 0.0
1344, 0.0
1345, 0.0
1346, 0.0
1347, 0.0
1348, 0.0
1349, 0.0
1350, 0.0
1351, 0.0
1352, 0.0
1353, 0.0
1354, 0.0
1355, 0.0
1356, 0.0
1357, 0.0
1358, 0.0
1359, 0.0
1360, 0.0
1361, 0.0
1362, 0.0
1363, 0.0
1364, 0.0
1365, 0.0
1366, 0.0
1367, 0.0
1368, 0.0
1369, 0.0
1370, 0.0
1371, 0.0
1372, 0.0
1373, 0.0
1374, 0.0
1375, 0.0
1376, 0.0
1377, 0.0
1378, 0.0
1379, 0.0
1380, 0.0
1381, 0.0
1382, 0.0
1383, 0.0
1384, 0.0
1385, 0.0
1386, 0.0
1387, 0.0
1388, 0.0
1389, 0.0
1390, 0.0
1391, 0.0
1392, 0.0
1393, 0.0
1394, 0.0
1395, 0.0
1396, 0.0
1397, 0.0
1398, 0.0
1399, 0.0
1400, 0.0
1401, 0.0
1402, 0.0
1403, 0.0
1404, 0.0
1405, 0.0
1406, 0.0
1407, 0.0
1408, 0.0
1409, 0.0
1410, 0.0
1411, 0.0
1412, 0.0
1413, 0.0
1414, 0.0
1415, 0.0
1416, 0.0
1417, 0.0
1418, 0.0
1419, 0.0
1420, 0.0
1421, 0.0
1422, 0.0
1423, 0.0
1424, 0.0
1425, 0.0
1426, 0.0
1427, 0.0
1428, 0.0
1429, 0.0
1430, 0.0
1431, 0.0
1432, 0.0
1433, 0.0
1434, 0.0
1435, 0.0
1436, 0.0
1437, 0.0
1438, 0.0
1439, 0.0
1440, 0.0
1441, 0.0
1442, 0.0
1443, 0.0
1444, 0.0
1445, 0.0
1446, 0.0
1447, 0.0
1448, 0.0
1449, 0.0
1450, 0.0
1451, 0.0
1452, 0.0
1453, 0.0
1454, 0.0
1455, 0.0
1456, 0.0
1457, 0.0
1458, 0.0
1459, 0.0
1460, 0.0
1461, 0.0
1462, 0.0
1463, 0.0
1464, 0.0
1465, 0.0
1466, 0.0
1467, 0.0
1468, 0.0
1469, 0.0
1470, 0.0
1471, 0.0
1472, 0.0
1473, 0.0
1474, 0.0
1475, 0.0
1476, 0.0
1477, 0.0
1478, 0.0
1479, 0.0
1480, 0.0
1481, 0.0
1482, 0.0
1483, 0.0
1484, 0.0
1485, 0.0
1486, 0.0
1487, 0.0
1488, 0.0
1489, 0.0
1490, 0.0
1491, 0.0
1492, 0.0
1493, 0.0
1494, 0.0
1495, 0.0
1496, 0.0
1497, 0.0
1498, 0.0
1499, 0.0
1500, 0.0
1501, 0.0
1502, 0.0
1503, 0.0
1504, 0.0
1505, 0.0
1506, 0.0
1507, 0.0
1508, 0.0
1509, 0.0
1510, 0.0
1511, 0.0
1512, 0.0
1513, 0.0
1514, 0.0
1515, 0.0
1516, 0.0
1517, 0.0
1518, 0.0
1519, 0.0
1520, 0.0
1521, 0.0
1522, 0.0
1523, 0.0
1524, 0.0
1525, 0.0
1526, 0.0
1527, 0.0
1528, 0.0
1529, 0.0
1530, 0.0
1531, 0.0
1532, 0.0
1533, 0.0
1534, 0.0
1535, 0.0
1536, 0.0
1537, 0.0
1538, 0.0
1539, 0.0
1540, 0.0
1541, 0.0
1542, 0.0
1543, 0.0
1544, 0.0
1545, 0.0
1546, 0.0
1547, 0.0
1548, 0.0
1549, 0.0
1550, 0.0
1551, 0.0
1552, 0.0
1553, 0.0
1554, 0.0
1555, 0.0
1556, 0.0
1557, 0.0
1558, 0.0
1559, 0.0
1560, 0.0
1561, 0.0
1562, 0.0
1563, 0.0
1564, 0.0
1565, 0.0
1566, 0.0
1567, 0.0
1568, 0.0
1569, 0.0
1570, 0.0
1571, 0.0
1572, 0.0
1573, 0.0
1574, 0.0
1575, 0.0
1576, 0.0
1577, 0.0
1578, 0.0
1579, 0.0
1580, 0.0
1581, 0.0
1582, 0.0
1583, 0.0
1584, 0.0
1585, 0.0
1586, 0.0
1587, 0.0
1588, 0.0
1589, 0.0
1590, 0.0
1591, 0.0
1592, 0.0
1593, 0.0
1594, 0.0
1595, 0.0
1596, 0.0
1597, 0.0
1598, 0.0
1599, 0.0
