30, 0.0
31, 0.0
32, 0.0
33, 0.0
34, 0.0
35, 0.0
36, 0.0
37, 0.0
38, 0.0
39, 0.0
40, 0.0
41, 0.0
42, 0.0
43, 0.0
44, 0.0
45, 0.0
46, 0.0
47, 0.0
48, 0.0
49, 0.0
50, 0.0
51, 0.0
52, 0.0
53, 0.0
54, 0.0
55, 0.0
56, 0.0
57, 0.0
58, 0.0
59, 0.0
60, 0.0
61, 0.0
62, 0.0
63, 0.0
64, 0.0
65, 0.0
66, 0.0
67, 0.0
68, 0.0
69, 0.0
70, 0.0
71, 0.0
72, 0.0
73, 0.0
74, 0.0
75, 0.0
76, 0.0
77, 0.0
78, 0.0
79, 0.0
80, 0.0
81, 0.0
82, 0.0
83, 0.0
84, 0.0
85, 0.0
86, 0.0
87, 0.0
88, 0.0
89, 0.0
90, 0.0
91, 0.0
92, 0.0
93, 0.0
94, 0.0
95, 0.0
96, 0.0
97, 0.0
98, 0.0
99, 0.0
100, 0.0
101, 0.0
102, 0.0
103, 0.0
104, 0.0
105, 0.0
106, 0.0
107, 0.0
108, 0.0
109, 0.0
110, 0.0
111, 0.0
112.0, 0.00021949477598509344
113.0, 0.0004697894614280703
114.0, 0.0006414782364642065
115.0, 0.0008933796585120299
116.0, 0.0012803991575361614
117.0, 0.00147154687781047
118.0, 0.001344166702536677
119.0, 0.0013660540427630663
120.0, 0.0007389132292545782
121.0, 0.000312926121153528
122.0, 8.303541481944936e-05
123.0, 9.95716075399365e-05
124.0, 0.00014235271708480256
125.0, 0.00045954765180750243
126.0, 0.0005947347893690845
127.0, 0.00023349369739567158
128.0, 0.00016237670849334547
129.0, 0.0010044703893654552
130.0, 0.0023144248788618026
131.0, 0.003910353981740275
132.0, 0.005606393884668875
133.0, 0.007934137923168886
134.0, 0.010121050268377774
135.0, 0.011993208925635832
136.0, 0.014125255036457908
137.0, 0.016312453367099494
138.0, 0.018840420674222414
139.0, 0.021827576590688687
140.0, 0.025338584834985977
141.0, 0.029611877514239358
142.0, 0.03413210652808786
143.0, 0.03952739657701544
144.0, 0.046373177482319186
145.0, 0.05373406989075443
146.0, 0.059602279183473654
147.0, 0.06378285171355967
148.0, 0.06579045983203087
149.0, 0.06347175945020295
150.0, 0.055670523824470304
151.0, 0.045440479809882535
152.0, 0.03510271411641229
153.0, 0.02616399501179084
154.0, 0.019561467560644755
155.0, 0.015258910706475474
156.0, 0.012525504263067791
157.0, 0.01043035697428286
158.0, 0.009110988717744484
159.0, 0.007853384303314923
160.0, 0.006946196163048352
161.0, 0.006652694125226402
162.0, 0.006180240956446195
163.0, 0.005906714388362238
164.0, 0.0060115451423482956
165.0, 0.006520233708877342
166.0, 0.007287117481901621
167.0, 0.007453248572279043
168.0, 0.008155218533154205
169.0, 0.009361671555115615
170.0, 0.010222187375017395
171.0, 0.012595522656635504
172.0, 0.0149393484965005
173.0, 0.01751518300849604
174.0, 0.021626761612048385
175.0, 0.028190542799653585
176.0, 0.03716473356387952
177.0, 0.04773260015120136
178.0, 0.0587979457372584
179.0, 0.06962013325831215
180.0, 0.0794846850684884
181.0, 0.08916466809037252
182.0, 0.09960447458631692
183.0, 0.1115466679215879
184.0, 0.1261451943147891
185.0, 0.1443423034734452
186.0, 0.16763939070696363
187.0, 0.19696653587618282
188.0, 0.2311505772431311
189.0, 0.2691938306019526
190.0, 0.314174284232583
191.0, 0.3673382954943217
192.0, 0.42476371812440034
193.0, 0.4627104495025935
194.0, 0.4598169920790365
195.0, 0.42020910508595793
196.0, 0.3730765247140786
197.0, 0.34889374723191924
198.0, 0.34745403244333256
199.0, 0.3646682524758892
200.0, 0.39789919518101086
201.0, 0.4421832589301397
202.0, 0.5012262862409071
203.0, 0.5739294546505807
204.0, 0.6563058058887251
205.0, 0.7387696259309696
206.0, 0.8292844396467676
207.0, 0.9172502316003341
208.0, 0.9823455039757139
209.0, 0.9887899445861779
210.0, 0.8828417805922996
211.0, 0.7019882858761483
212.0, 0.5100673974224604
213.0, 0.35820788608049803
214.0, 0.25525234693873866
215.0, 0.18798981156292233
216.0, 0.14322383093568467
217.0, 0.11253227456795178
218.0, 0.09106521825250469
219.0, 0.07470136833451922
220.0, 0.06210281716689795
221.0, 0.052574842714182585
222.0, 0.04515333770483836
223.0, 0.03859251414372359
224.0, 0.032968660952364934
225.0, 0.028526327302135807
226.0, 0.0250763761227413
227.0, 0.021870633202318922
228.0, 0.01867483255660093
229.0, 0.016274471332122897
230.0, 0.014373047211682416
231.0, 0.012075550754083333
232.0, 0.010864183116425298
233.0, 0.009923377158916285
234.0, 0.008874390917869027
235.0, 0.007751661545978652
236.0, 0.007344185283624479
237.0, 0.006757625993126795
238.0, 0.006147258383631443
239.0, 0.005865732954687842
240.0, 0.0061180854655591265
241.0, 0.006197423078985529
242.0, 0.006160918131951947
243.0, 0.006340528658183041
244.0, 0.006941554090429862
245.0, 0.007246364030623679
246.0, 0.007446246447667646
247.0, 0.008334132167168452
248.0, 0.00966095768875576
249.0, 0.009745302794058993
250.0, 0.009688269863838602
251.0, 0.009234364923731258
252.0, 0.008796012489728194
253.0, 0.00903938213447944
254.0, 0.009968434099195672
255.0, 0.01067139112247584
256.0, 0.010077568591227106
257.0, 0.00757060083641798
258.0, 0.0031904158413136497
259.0, 0.0006981986519971428
260.0, 0.0006215146941770771
261.0, 0.0010916303879095724
262.0, 0.0009158684311422849
263.0, 0.0012271073037393584
264.0, 0.0009559574375192779
265.0, 0.00048001314942371114
266.0, 0.00016510925112959393
267.0, 0.00013075953076923842
268.0, 0.0005564660387181205
269.0, 0.0008929915164654943
270.0, 0.0013733027874140613
271.0, 0.0022689339266617242
272.0, 0.003393545349417685
273.0, 0.004205698429844513
274.0, 0.004838500133904028
275.0, 0.005469623200549154
276.0, 0.006091346352879114
277.0, 0.006804887462689288
278.0, 0.007062150874990631
279.0, 0.006733183364800492
280.0, 0.0057997180849748125
281.0, 0.004078602111323047
282.0, 0.0024970706928496814
283.0, 0.001136422982056443
284.0, 0.00011285060486175613
285.0, 0.0007287550944581544
286.0, 0.0012752696916406394
287.0, 0.0010060131896424387
288.0, 0.0007605423852581838
289.0, 0.0008852283064500708
290.0, 0.0003343681250771743
291.0, 0.00044854837977323164
292.0, 0.0003095931980030101
293.0, 6.867370092756706e-05
294.0, 6.96721409580171e-05
295.0, 0.000296440963878382
296.0, 0.0005650537341101743
297.0, 0.0006513285496371333
298.0, 0.0006006206168089889
299.0, 0.0006264553894563824
300.0, 0.0004337270513456627
301.0, 0.00037218594216602334
302.0, 0.0006284964955093997
303.0, 0.001007360958599195
304.0, 0.001039842584450871
305.0, 0.0012157588869375912
306.0, 0.0014100374516692995
307.0, 0.001751952147436476
308.0, 0.0024190919843274936
309.0, 0.002752008089455018
310.0, 0.0029483144026304178
311.0, 0.0032128727542798117
312.0, 0.003660909301785272
313.0, 0.004341785407163628
314.0, 0.005141868154831817
315.0, 0.005359492473230089
316.0, 0.005194249876755215
317.0, 0.00501858350190002
318.0, 0.004523677983857652
319.0, 0.004334354098161208
320.0, 0.004332255789533628
321.0, 0.0041933349468779935
322.0, 0.0036987741491866823
323.0, 0.0025043664657206336
324.0, 0.0015880631134303769
325.0, 0.0009548908257790011
326.0, 0.0005008296161629879
327.0, 0.000297443127117322
328.0, 0.0005431494886585369
329.0, 0.00024680482751199983
330.0, 0.00010666461129845407
331.0, 0.0004724599255265415
332.0, 0.0006912441287528384
333.0, 0.00016242149154934918
334.0, 3.0100434089844616e-05
335.0, 0.00022989783504438204
336.0, 0.000372575872174732
337.0, 0.0003122119155599752
338.0, 0.00010746985414813042
339.0, 0.0002075699585531409
340.0, 9.126388548616402e-05
341.0, 8.488371946228156e-05
342.0, 0.0003901298656886973
343.0, 0.0003143407737681754
344.0, 9.752994736671109e-05
345.0, 0.00043334287606046855
346.0, 0.0007726232737920578
347.0, 0.00068199274622462
348.0, 0.0004244989598728708
349.0, 0.0004726694182919009
350.0, 0.0008004052819718311
351.0, 0.00047398076252225534
352.0, 0.0005326839176701973
353.0, 0.0005139402898304168
354.0, 0.0003137168204008413
355.0, 0.00023819635570371706
356.0, 0.00022281710563534616
357.0, 0.0003252695786164963
358.0, 0.0001546480915804596
359.0, 0.00020922144171937524
360.0, 0.0003223486480661032
361.0, 0.0005030080077152665
362.0, 0.00045487848899597645
363.0, 0.0007984006993420397
364.0, 0.0015708403471831292
365.0, 0.001783258239671366
366.0, 0.0019308796365707602
367.0, 0.002388898284563935
368.0, 0.002912613301622917
369.0, 0.0032195725525800798
370.0, 0.003527502538437944
371.0, 0.004388117206862458
372.0, 0.004982149666217968
373.0, 0.005477167705019756
374.0, 0.006327412722555485
375.0, 0.006960898070752697
376.0, 0.008153162065251107
377.0, 0.009382215369735452
378.0, 0.010604573387132131
379.0, 0.0122124350179958
380.0, 0.014390502150250619
381.0, 0.017540734396024323
382.0, 0.021577338185974158
383.0, 0.026671912996642896
384.0, 0.03346788650354052
385.0, 0.04266924174459129
386.0, 0.054038520546313126
387.0, 0.06751691473049792
388.0, 0.0824222053777207
389.0, 0.09808105780647491
390.0, 0.11550595350581368
391.0, 0.13570749335805338
392.0, 0.15951116546677427
393.0, 0.18644088109325968
394.0, 0.21468071724858523
395.0, 0.2414690658297721
396.0, 0.2675839365224108
397.0, 0.2939770314085724
398.0, 0.32120621557120016
399.0, 0.3477410212095069
400.0, 0.36667021201896627
401.0, 0.36906466418070966
402.0, 0.3471082480544243
403.0, 0.3011741404346292
404.0, 0.24200994528814704
405.0, 0.18734594653296605
406.0, 0.14301408510932948
407.0, 0.11001660096453662
408.0, 0.08707602234573236
409.0, 0.07090582411336305
410.0, 0.05779304300751395
411.0, 0.048515147498732245
412.0, 0.041716722155290854
413.0, 0.035793729735713646
414.0, 0.03153375047189918
415.0, 0.02825216407251122
416.0, 0.025456363555164334
417.0, 0.02309952072036902
418.0, 0.021294988157590324
419.0, 0.02018259837755959
420.0, 0.019252325119460248
421.0, 0.018831371841605656
422.0, 0.018445409871144312
423.0, 0.017798982632021124
424.0, 0.017914203776089307
425.0, 0.01809266761152452
426.0, 0.018576292680245073
427.0, 0.019265477053992383
428.0, 0.019977560818431418
429.0, 0.02089172087316861
430.0, 0.0224759128128518
431.0, 0.023932118150833303
432.0, 0.025085643249147655
433.0, 0.02604742690427378
434.0, 0.026712576743874703
435.0, 0.028049326112061443
436.0, 0.028655907781897347
437.0, 0.028827321366652656
438.0, 0.028910421894993224
439.0, 0.027424678635440295
440.0, 0.025682876837419894
441.0, 0.023913923228722402
442.0, 0.02249217284227504
443.0, 0.02163712573763701
444.0, 0.021030126296723833
445.0, 0.021598645618088896
446.0, 0.02289938239504532
447.0, 0.024631329425024148
448.0, 0.026833013643313655
449.0, 0.029895450252105733
450.0, 0.03287428381409366
451.0, 0.03632278893829805
452.0, 0.0401777907924338
453.0, 0.04423379351912237
454.0, 0.04861131596780682
455.0, 0.05301301845124852
456.0, 0.05760789740258697
457.0, 0.062340954689698296
458.0, 0.06692054428177309
459.0, 0.07098803068428708
460.0, 0.07537453980005669
461.0, 0.07916746278249713
462.0, 0.08133066438044641
463.0, 0.08116673596126144
464.0, 0.07858483075480216
465.0, 0.07393280767070631
466.0, 0.06691444988106607
467.0, 0.0581027541070711
468.0, 0.048976656375560285
469.0, 0.04114974375579828
470.0, 0.034134618132244686
471.0, 0.028082898992375798
472.0, 0.02319564213439695
473.0, 0.019669414006909195
474.0, 0.017334991986012894
475.0, 0.014524493444627647
476.0, 0.012659740488594987
477.0, 0.010997903051473587
478.0, 0.00962077532310182
479.0, 0.008939382351031104
480.0, 0.00813270972419904
481.0, 0.007694493624598439
482.0, 0.007209309407244055
483.0, 0.006333573467057251
484.0, 0.005319127109931329
485.0, 0.0050044149208751075
486.0, 0.003964538482265712
487.0, 0.003163134278512386
488.0, 0.0023659135385921052
489.0, 0.0016289243228589138
490.0, 0.0018517352471562848
491.0, 0.00129104228687226
492.0, 0.0007765727725637182
493.0, 0.0005872668039300132
494.0, 0.00035763833008820446
495.0, 0.00018306787138752957
496.0, 0.00011373038622490575
497.0, 7.488464524963708e-05
498.0, 0.00011571798312987893
499.0, 6.684086157198107e-05
500.0, 0.00013934974587631382
501.0, 0.000536750522461681
502.0, 0.00025683751909976165
503.0, 0.0001821710805563896
504.0, 0.0003523957993992116
505.0, 0.00017630792075129734
506.0, 0.00013399728875526467
507.0, 0.000246534881921141
508.0, 0.0013188490816375572
509.0, 0.0029365660455114378
510.0, 0.0030290960342873683
511.0, 0.00011010921822296015
512.0, 0.0006058206442470071
513.0, 0.000719584237954065
514.0, 0.0005918907244766564
515.0, 0.0005829368991947421
516.0, 0.0009642248975656778
517.0, 0.00047793475070405557
518.0, 0.0002285496712915706
519.0, 0.0005957132817052152
520.0, 0.0008669694077039064
521.0, 0.0005752342743042263
522.0, 0.0005171804236092285
523.0, 7.279214789856518e-05
524.0, 0.00020059398098194687
525.0, 0.00021853488672431967
526.0, 0.0001583414981266389
527.0, 0.00032377937652327643
528.0, 6.0594905868071225e-05
529.0, 0.0004450428153025025
530.0, 0.0003497621337547268
531.0, 3.135877676405943e-05
532.0, 0.00011362740230136556
533.0, 0.0006070822597610507
534.0, 0.00021119350313000612
535.0, 0.0001791961326495347
536.0, 0.0005737366903902813
537.0, 0.0007593035021676653
538.0, 0.000480469461566399
539.0, 7.890604632309302e-05
540.0, 0.00010122272706577305
541.0, 0.00013697853491921637
542.0, 0.0001401745127794528
543.0, 0.00012031053125922898
544.0, 0.00014584955785681535
545.0, 0.00021007255780871993
546.0, 0.00037577604350550505
547.0, 0.0007599609281156297
548.0, 0.0010552958239270637
549.0, 0.0009320764304434041
550.0, 0.0011327349943359858
551.0, 0.0011021772085597049
552.0, 0.0011061912930653386
553.0, 0.0012637682186915254
554.0, 0.0012212508261304573
555.0, 0.0010784033339735662
556.0, 0.001510441361454688
557.0, 0.001674364063254102
558.0, 0.0015224650403512221
559.0, 0.001612543300644946
560.0, 0.0018154686705884582
561.0, 0.001985090311706952
562.0, 0.0017708678746805547
563.0, 0.0017812330248134914
564.0, 0.0019940092437981667
565.0, 0.0016449146010342759
566.0, 0.0016796262516132648
567.0, 0.001586833457294959
568.0, 0.0014349550639893632
569.0, 0.0012204193595233585
570.0, 0.0010040311872016234
571.0, 0.0012117339796496327
572.0, 0.0012192398912284042
573.0, 0.0012995189115089655
574.0, 0.001015663764714695
575.0, 0.0007700830885167219
576.0, 0.0012277502537996821
577.0, 0.0007522620628255152
578.0, 0.0008087422358258945
579.0, 0.0008177834066322218
580.0, 0.0007697558538062174
581.0, 0.0010207976048917848
582.0, 0.0012015524151956043
583.0, 0.001093539191636682
584.0, 0.0006699703206111381
585.0, 0.0005997784130098042
586.0, 0.0008433371323167717
587.0, 0.0008333344700555721
588.0, 0.0012309448502070685
589.0, 0.0015350201352794305
590.0, 0.0017502168489326971
591.0, 0.0021731901652549276
592.0, 0.0025713990420648085
593.0, 0.0023015235076778375
594.0, 0.0026104500730222734
595.0, 0.003443609978051618
596.0, 0.0038699266553916772
597.0, 0.0037569277289473467
598.0, 0.0037288966747601768
599.0, 0.004057286304758783
600.0, 0.004303545366509325
601.0, 0.0047155622403706994
602.0, 0.004890473851030704
603.0, 0.005088788316279414
604.0, 0.005749357735714038
605.0, 0.005365021633225593
606.0, 0.005183961747881065
607.0, 0.005509664466228343
608.0, 0.005636021764343452
609.0, 0.005495532348947908
610.0, 0.005880512670139911
611.0, 0.006077778727489441
612.0, 0.006950005069165813
613.0, 0.007593339869723782
614.0, 0.00829441487911782
615.0, 0.00934030898671066
616.0, 0.0097616038144589
617.0, 0.011575004219086504
618.0, 0.012923107945597768
619.0, 0.014028197408620574
620.0, 0.015415315049086754
621.0, 0.017145915227287707
622.0, 0.019220686960599143
623.0, 0.020741928178463
624.0, 0.02180139193942174
625.0, 0.02305068581816574
626.0, 0.0245932829606548
627.0, 0.025947625361331484
628.0, 0.02675809247161937
629.0, 0.02687766675767481
630.0, 0.02659094616176292
631.0, 0.02622561293516716
632.0, 0.025337367012947018
633.0, 0.023198223089502507
634.0, 0.02089386318416472
635.0, 0.01933780412054743
636.0, 0.017574599613536693
637.0, 0.015861604300785
638.0, 0.014361591639636843
639.0, 0.012728023838945359
640.0, 0.012026027418652127
641.0, 0.011651148845286289
642.0, 0.011472977266595333
643.0, 0.011778996084550415
644.0, 0.012754684864253654
645.0, 0.014275505259097297
646.0, 0.01672832121777717
647.0, 0.018649023191627992
648.0, 0.020778641947055285
649.0, 0.023027092789653453
650.0, 0.02496237803347476
651.0, 0.02691377147247763
652.0, 0.028715435385299637
653.0, 0.031057605809065133
654.0, 0.034417765117013534
655.0, 0.0377030872245103
656.0, 0.039955878067835286
657.0, 0.04155430157552238
658.0, 0.0390810212420403
659.0, 0.033891726614096604
660.0, 0.02799162191977597
661.0, 0.022529398158453524
662.0, 0.01782712276444527
663.0, 0.01406127914617312
664.0, 0.011918705354926673
665.0, 0.009605256110487733
666.0, 0.007917336379556831
667.0, 0.006752752405578916
668.0, 0.005256916904876726
669.0, 0.004037850591957101
670.0, 0.0033427656241815334
671.0, 0.002509608531524712
672.0, 0.0021219799604878576
673.0, 0.0018403432006925667
674.0, 0.0012652320030757554
675.0, 0.0015650158593676815
676.0, 0.0010999020719526472
677.0, 0.0006539402051461828
678.0, 0.00041102299961952294
679.0, 0.0004268658461874644
680.0, 0.0007042588586761581
681.0, 0.0007741106286977481
682.0, 0.0002954629849637319
683.0, 0.00021749087553944323
684.0, 0.00025792998363931735
685.0, 0.00022624956699541843
686.0, 0.00017106828673490635
687.0, 0.00017177707123767236
688.0, 5.789177437864723e-06
689.0, 7.94640387815532e-05
690.0, 3.926619776999386e-05
691.0, 7.085249890284289e-05
692.0, 0.00012915522501416384
693.0, 0.00011289405166367157
694.0, 0.0005847335114639516
695.0, 0.00022137502957308796
696.0, 2.2185329781723148e-05
697.0, 4.793949083659588e-05
698.0, 5.550174188005814e-05
699.0, 0.0001472187982611086
700.0, 2.4791486358507803e-05
701.0, 0.00014763635072981588
702.0, 0.0005236602613150964
703.0, 0.0004945004866848871
704.0, 0.00022119815489335826
705.0, 0.0005831978954075592
706.0, 0.0007576793358964274
707.0, 0.0008316736481696695
708.0, 0.0007233915125799351
709.0, 0.0006656042189861708
710.0, 0.0007868247590253601
711.0, 0.000980525471296469
712.0, 0.0011892548605200125
713.0, 0.0011937960716544356
714.0, 0.0013454197878455254
715.0, 0.00139396024801376
716.0, 0.0014218487402018044
717.0, 0.001644537977695202
718.0, 0.001790462069797655
719.0, 0.001917415844585253
720.0, 0.0019234209551825996
721.0, 0.002295549424899383
722.0, 0.00246762162946848
723.0, 0.0022834921621765806
724.0, 0.0027403746715237037
725.0, 0.0031457279815416774
726.0, 0.003460683133807613
727.0, 0.003941496562155925
728.0, 0.004558398936445812
729.0, 0.0050782393247225605
730.0, 0.005260268471067628
731.0, 0.0051325946243068205
732.0, 0.005384068556895565
733.0, 0.005854672578487388
734.0, 0.006182322399154844
735.0, 0.0063169755363036584
736.0, 0.006435817872759339
737.0, 0.006526786418314182
738.0, 0.006119505845562432
739.0, 0.005704244613562662
740.0, 0.005468931472638872
741.0, 0.0051661915688899955
742.0, 0.004709163191551693
743.0, 0.004305701416917
744.0, 0.0038476626106353287
745.0, 0.0033741008580230056
746.0, 0.0027962069407765334
747.0, 0.0023350848697958173
748.0, 0.0020703427663653013
749.0, 0.0018080234648839486
750.0, 0.0015276225429462851
751.0, 0.0014464126186495819
752.0, 0.0011514433462904276
753.0, 0.0010910678361834457
754.0, 0.0008674075912596563
755.0, 0.0004498362719049178
756.0, 0.0007939339320044321
757.0, 0.0001396446754737168
758.0, 4.320829692631712e-05
759.0, 0.00029495866646508804
760.0, 0.00020543582667948034
761.0, 5.310199514746607e-05
762.0, 5.112353541529247e-05
763.0, 3.9811576783762775e-05
764.0, 0.00011150069450837696
765.0, 0.00023288290914584849
766.0, 0.00014166645736980423
767.0, 9.370752840485603e-05
768.0, 0.0001563793405964887
769.0, 3.0253174552582153e-05
770.0, 0.00010800819632619877
771.0, 0.00015767453355176048
772.0, 0.0001225662796113252
773.0, 0.00010566936047481885
774.0, 0.00010623195620939992
775.0, 0.0001762785250873134
776.0, 4.870755955326774e-05
777.0, 0.00019874739187034592
778.0, 0.00011563273879310306
779.0, 0.00031318246229295865
780.0, 0.00041104755459088076
781.0, 0.0002611940517609137
782.0, 0.0003604456184124906
783.0, 0.00030856404172959026
784.0, 0.0002751815751258993
785.0, 0.0006443771547506906
786.0, 0.0009207391275564081
787.0, 0.0010237366582862655
788.0, 0.001270347553063008
789.0, 0.001549458392788181
790.0, 0.001431053191025709
791.0, 0.0015834041307752535
792.0, 0.0017421829618048316
793.0, 0.001770526452347067
794.0, 0.0019572677085181274
795.0, 0.0024188534307410586
796.0, 0.002637518763124805
797.0, 0.003019440561176023
798.0, 0.0034932016815120742
799.0, 0.004040949846909528
800.0, 0.0046579031009131135
801.0, 0.005153628277764748
802.0, 0.005554482260859649
803.0, 0.006477126029738753
804.0, 0.007586695643712041
805.0, 0.008453260474584312
806.0, 0.009333243866823602
807.0, 0.010469040908441994
808.0, 0.01155469603984347
809.0, 0.012160814521903979
810.0, 0.012874361515004509
811.0, 0.013822359911836382
812.0, 0.013962692683471311
813.0, 0.014257767911440893
814.0, 0.014128314555780676
815.0, 0.013426864406712535
816.0, 0.013191500882401463
817.0, 0.011541848798717662
818.0, 0.010475139717696005
819.0, 0.009305070962739607
820.0, 0.008061735199629244
821.0, 0.0069847550284556385
822.0, 0.006076030602653429
823.0, 0.005221244759237837
824.0, 0.0044881078286270575
825.0, 0.003746195436377691
826.0, 0.003257586954648039
827.0, 0.0029165509885094544
828.0, 0.002662026778205232
829.0, 0.002375246601948701
830.0, 0.0019618306374699582
831.0, 0.0020079080889470764
832.0, 0.001406094215272924
833.0, 0.0012566899559330073
834.0, 0.0013934214101990652
835.0, 0.0012338896283532706
836.0, 0.0008263172259042602
837.0, 0.0006978508098331794
838.0, 0.0008048926464064958
839.0, 0.0005161605596877068
840.0, 0.0006139430539340275
841.0, 0.0006824210025462239
842.0, 0.0004450687610465505
843.0, 0.00038063994422606544
844.0, 0.0006552211250306772
845.0, 6.300891015923669e-05
846.0, 0.0004900395903401396
847.0, 6.46540744097608e-05
848.0, 6.885487859049166e-05
849.0, 0.0002253374751941389
850.0, 0.0003960639297647686
851.0, 0.0005392860907142839
852.0, 0.0005830458117220935
853.0, 0.00021204310399760437
854.0, 0.0003316589425185027
855.0, 0.00020652433605256292
856.0, 0.00031833290695460934
857.0, 0.0005949832677612985
858.0, 0.00021670303012089227
859.0, 0.00023552000510971947
860.0, 0.0005443103151654403
861.0, 0.0003162341272422086
862.0, 3.413970000991896e-05
863.0, 0.00022553484595390054
864.0, 0.0005788611843592002
865.0, 0.0003747491062635251
866.0, 0.0004729914032677804
867.0, 0.0005476992859843381
868.0, 0.0001230995016898628
869.0, 7.860772094725108e-05
870.0, 0.0005196138647406967
871.0, 0.0005756761422253744
872.0, 0.00027248322210800735
873.0, 0.0006207030578475333
874.0, 0.0002807792121250511
875.0, 3.8683441547127395e-05
876.0, 0.00022504793973869474
877.0, 0.0004526546291103153
878.0, 0.0004174221265219884
879.0, 0.00029909706817977033
880.0, 0.00040038672853329383
881.0, 0.0003374146165213439
882.0, 0.00030021148785828035
883.0, 6.47458876867135e-05
884.0, 4.3368946913739865e-05
885.0, 0.0002029690434929723
886.0, 0.0004141967624222109
887.0, 0.00045819742765519585
888.0, 0.0006183388312906936
889.0, 0.0002322807398342857
890.0, 0.0004005441933980833
891.0, 0.00017383156218343283
892.0, 4.7984222676604186e-05
893.0, 0.00013729637701967993
894.0, 0.0001339697748314921
895.0, 6.881470910351749e-05
896.0, 0.0001380703786753743
897.0, 0.00019793463864273113
898.0, 0.000199257355307143
899.0, 0.0005011133791603623
900.0, 0.00038997876179073946
901.0, 4.702783424652208e-05
902.0, 9.262724383422185e-05
903.0, 0.00013301884092946665
904.0, 0.0005961716202990769
905.0, 0.0005838377504379584
906.0, 0.0002015126775130785
907.0, 3.018196786751821e-05
908.0, 0.00014839443031112505
909.0, 0.0003988484856696976
910.0, 0.0006321104736261812
911.0, 0.00041207601555814775
912.0, 0.00011138476358151924
913.0, 0.00012243713266447568
914.0, 0.0002468599799255895
915.0, 0.00028446822005291997
916.0, 0.00023762335921010042
917.0, 0.00020004529347808638
918.0, 0.00041500670147320395
919.0, 0.0003219544269995203
920.0, 0.0005351088220080784
921.0, 0.0007944427003629407
922.0, 0.000771774896538733
923.0, 0.0007220717911347503
924.0, 0.0006594336817107854
925.0, 0.00044017889690413104
926.0, 0.0003873875863072878
927.0, 0.0006193018294026371
928.0, 0.00032999908559765427
929.0, 0.00045023340625035825
930.0, 0.000746330579836261
931.0, 0.0006968773106477875
932.0, 0.0005091255851413891
933.0, 0.0006029688783706043
934.0, 0.0005846258267910648
935.0, 0.0004948603578764307
936.0, 0.0007228089051921059
937.0, 0.0005642045389930579
938.0, 9.713649685037044e-05
939.0, 0.0003032053248384145
940.0, 0.0007581195360388912
941.0, 0.000603779335337026
942.0, 0.0008435185274617885
943.0, 0.00034529533930681205
944.0, 0.00029292299102270974
945.0, 0.0002791331230486974
946.0, 0.0001999352853110024
947.0, 0.0002784030884283272
948.0, 0.000534333804269243
949.0, 0.0006369883068098951
950.0, 0.00044801824297446537
951.0, 0.0005229652513942645
952.0, 0.0006083828920816703
953.0, 0.00032793101149410325
954.0, 0.00023699406704529244
955.0, 0.00025709203382858414
956.0, 0.00034140806636055493
957.0, 0.0005254692471910921
958.0, 0.00022714531227437866
959.0, 0.00048101388720803785
960.0, 6.165452391693339e-05
961.0, 5.7862988072543526e-05
962.0, 0.00036709510095675376
963.0, 0.000520346736602846
964.0, 0.0003846983425104663
965.0, 0.00022885030919456517
966.0, 0.000359276466616571
967.0, 0.00016796026691172795
968.0, 0.0004008882041595738
969.0, 0.0007175130975360176
970.0, 0.0003962871257956925
971.0, 0.000416728851722381
972.0, 0.00040276029137499146
973.0, 3.7293903219108355e-05
974.0, 0.00035048649164572316
975.0, 0.0004836273299092553
976.0, 0.00020566070552068043
977.0, 0.0002232346046626871
978.0, 0.00032490187318705115
979.0, 0.00031648641242913776
980.0, 0.0002460453084974464
981.0, 0.0003070483647447018
982.0, 0.0004005061399524189
983.0, 9.088475453282552e-05
984.0, 1.816288460605456e-05
985.0, 2.518870938178089e-05
986.0, 0.00010134957443632325
987.0, 5.956940608557577e-05
988.0, 0.00010205445883051478
989.0, 0.00030357880851472445
990.0, 0.0002096243201844244
991.0, 8.860140199750527e-05
992.0, 0.00039353236417757757
993.0, 0.0003384695339476305
994.0, 8.843163068237238e-05
995.0, 2.1619258384542377e-05
996.0, 0.0004610608860732893
997.0, 0.0006909566904695744
998.0, 0.00040028929215065297
999.0, 0.000378912082212724
1000.0, 0.0003290305721988132
1001.0, 0.00039729180453799956
1002.0, 0.00046826393259383106
1003.0, 0.00033021721194978585
1004.0, 0.0003809433229765165
1005.0, 0.00046452925677133026
1006.0, 0.0005918341465654264
1007.0, 0.0007612730216857771
1008.0, 0.0005427455532783745
1009.0, 0.0005713419602474943
1010.0, 0.0006238038082259274
1011.0, 0.0005666513574946221
1012.0, 0.0009283024499819753
1013.0, 0.0007408305617400597
1014.0, 0.00037322572647366007
1015.0, 0.0006637000946091735
1016.0, 0.0009754715809139432
1017.0, 0.0005159894710170192
1018.0, 0.0007109184034984715
1019.0, 0.0011346345436021935
1020.0, 0.0006184364599044321
1021.0, 0.0005128285834904487
1022.0, 0.0008364724118751284
1023.0, 0.0010723633344916358
1024.0, 0.001064422957216352
1025.0, 0.0008758956498292042
1026.0, 0.0009149516044853472
1027.0, 0.000991792681658246
1028.0, 0.0009823305808106838
1029.0, 0.0006297448383051605
1030.0, 0.0006354936902037393
1031.0, 0.0009852530057721787
1032.0, 0.00109135688153498
1033.0, 0.000914695909335923
1034.0, 0.0010014474744941765
1035.0, 0.0012996127699318597
1036.0, 0.0009550415249640401
1037.0, 0.0011491995019658572
1038.0, 0.0009878055076587057
1039.0, 0.00082271937321625
1040.0, 0.0008215044731621852
1041.0, 0.0009253889716945457
1042.0, 0.0009456134169895137
1043.0, 0.0007341789146541287
1044.0, 0.000812861139182005
1045.0, 0.0013595748232674441
1046.0, 0.0007862361062563663
1047.0, 0.0006604235364682528
1048.0, 0.0008765405279685561
1049.0, 0.0009178204002771766
1050.0, 0.0010065816069002127
1051.0, 0.0010498224545488473
1052.0, 0.0006756755986948138
1053.0, 0.0005955559383285454
1054.0, 0.000521351385249812
1055.0, 0.0006520794903631177
1056.0, 0.001005524674578874
1057.0, 0.0008835080219141546
1058.0, 0.0009921193869328463
1059.0, 0.001122966729443036
1060.0, 0.0007863676174468074
1061.0, 0.00042144635292959594
1062.0, 0.0003472937263005554
1063.0, 0.0004790378500464965
1064.0, 0.0004212818104947569
1065.0, 0.0004637473663674939
1066.0, 0.00042691143751146887
1067.0, 0.00088517180227654
1068.0, 0.001037063567883126
1069.0, 0.0007156921400428799
1070.0, 0.000510003531246309
1071.0, 0.00023239328606769935
1072.0, 6.439513368094728e-05
1073.0, 0.00034518966377387596
1074.0, 0.000748452983391275
1075.0, 0.0005700998996977193
1076.0, 0.00018513881452777902
1077.0, 0.0002234124385078632
1078.0, 0.0004018478566358286
1079.0, 0.00038160309849004197
1080.0, 0.0004218128660720542
1081.0, 0.0006329618239569871
1082.0, 0.00028489291209783126
1083.0, 0.00011886270255142754
1084.0, 0.00016414924463243566
1085.0, 6.613625501883525e-05
1086.0, 0.0005804572179089644
1087.0, 0.0004472719394362426
1088.0, 0.00020328201116257802
1089.0, 0.0005236938201599662
1090.0, 0.000261225788371037
1091.0, 0.00014670613187660182
1092.0, 0.0003211245122707383
1093.0, 0.00012793840305198002
1094.0, 3.610028275892158e-05
1095.0, 0.00010684819660490888
1096.0, 0.00023570255688352816
1097.0, 9.172976402402309e-05
1098.0, 0.00013028565075759666
1099.0, 0.00016325794000441037
1100.0, 0.00010369287139793292
1101.0, 0.00012317153972692016
1102.0, 0.0004562992398866341
1103.0, 0.00011309165839804246
1104.0, 0.00026936222796335483
1105.0, 0.00038358185694926857
1106.0, 0.0005069808648074213
1107.0, 0.00047142780864456896
1108.0, 0.0004115254211794777
1109.0, 0.0004012833284968926
1110.0, 0.00017860725233068893
1111.0, 0.00026147887590239585
1112.0, 0.00027589658441286817
1113.0, 0.0004807696839143968
1114.0, 0.0002089013213690182
1115.0, 0.0002038049594094071
1116.0, 0.00020217440442081789
1117.0, 0.00026047622460172176
1118.0, 0.0003363571323379454
1119.0, 0.00017307750953799705
1120.0, 2.050002200815466e-05
1121.0, 0.0002635253683442481
1122.0, 0.0004369060583950418
1123.0, 0.0003837707559637686
1124.0, 0.00041257055297286337
1125.0, 0.0005184206182554495
1126.0, 0.00042738902251918066
1127.0, 0.00041539054593727387
1128.0, 0.0006206482790561172
1129.0, 0.0007023659716114691
1130.0, 0.0005482902967490758
1131.0, 0.0005096596690183547
1132.0, 0.0006336314478336834
1133.0, 0.0004409896900460393
1134.0, 0.0003506265405462119
1135.0, 0.000684792504809907
1136.0, 0.0004976506012359927
1137.0, 0.0004600828680750751
1138.0, 0.000570759979743548
1139.0, 0.00044011112234561056
1140.0, 0.0002649520849019301
1141.0, 0.0003105122053993517
1142.0, 0.0006246621802033787
1143.0, 0.0006762167221296236
1144.0, 7.409703128699806e-05
1145.0, 0.000502472019068916
1146.0, 0.0003238329894812829
1147.0, 0.0004211609365174518
1148.0, 0.0004619666382161981
1149.0, 0.0004374938436097445
1150.0, 0.0004565005129617507
1151.0, 0.000350836550467849
1152.0, 0.00031091942093801475
1153.0, 6.559149005969221e-05
1154.0, 8.33939233155092e-05
1155.0, 0.00018764314500240993
1156.0, 0.00012200856533938403
1157.0, 6.897899169687492e-05
1158.0, 9.06534434042713e-05
1159.0, 0.0003151909034738878
1160.0, 0.0003580742099705003
1161.0, 0.00027571133121357056
1162.0, 0.00041306796238257905
1163.0, 0.0002781516295773318
1164.0, 3.037539485782765e-05
1165.0, 4.099965608257738e-05
1166.0, 3.74375866720507e-05
1167.0, 0.0004546780208831892
1168.0, 0.00036136286051513354
1169.0, 4.1311430263769733e-05
1170.0, 2.1549619034670054e-05
1171.0, 0.00027164126480919864
1172.0, 0.0004354655197774805
1173.0, 0.00027727660483929157
1174.0, 0.0002812370880024241
1175.0, 0.00017399556901441285
1176.0, 0.0002106617697220375
1177.0, 0.00018325469204052806
1178.0, 0.00031160083782057023
1179.0, 9.567612250323923e-05
1180.0, 0.0001416761755509768
1181.0, 0.0003929175104171861
1182.0, 0.0005108196563448541
1183.0, 0.0004875338519996195
1184.0, 0.0004769065076060987
1185.0, 0.0006017205381258377
1186.0, 0.00018727612036656136
1187.0, 0.0001494630897328617
1188.0, 0.0002821502035941039
1189.0, 0.00018086032120244843
1190.0, 0.0007140378531303364
1191.0, 0.00038465952276909335
1192.0, 0.00025293424572162904
1193.0, 0.00042816870510211177
1194.0, 0.0005928555537192359
1195.0, 0.0009240338914697571
1196.0, 0.0010357980500018767
1197.0, 0.0006014510709918761
1198.0, 0.00041061177803128053
1199.0, 0.0005762553381746709
1200.0, 1.4044833159865192e-05
1201.0, 0.0002573946817017077
1202.0, 0.0002913935669928008
1203.0, 0.0004366727580681109
1204.0, 0.0006491019576105462
1205.0, 0.0002698287491964883
1206.0, 0.00040780014622775245
1207.0, 0.0007916287541853559
1208.0, 0.0004004801269281972
1209.0, 0.0004190614074154482
1210.0, 0.0003479859882558465
1211.0, 0.0004488607323268318
1212.0, 9.709097032317876e-05
1213.0, 0.00020519176513023805
1214.0, 0.00014025284902060414
1215.0, 0.00025679169873691607
1216.0, 0.00034084547438897086
1217.0, 0.000409411536924099
1218.0, 0.0004654182138691822
1219.0, 0.0004219316991373009
1220.0, 0.00040667993021161717
1221.0, 0.0005444629720687022
1222.0, 0.0005523500672911058
1223.0, 0.000132222774574884
1224.0, 0.0003412509384657497
1225.0, 0.0002670698789799404
1226.0, 9.490542573169613e-05
1227.0, 0.00027672907242730344
1228.0, 0.000359374035390293
1229.0, 0.000445739172371302
1230.0, 0.0005051759216842292
1231.0, 0.0005586935985947923
1232.0, 0.0007025136197231449
1233.0, 0.000722741611179511
1234.0, 0.0005186620626404029
1235.0, 0.00048392576053641836
1236.0, 0.00048100627503625426
1237.0, 0.00010786560369953005
1238.0, 0.0002423438281139393
1239.0, 0.00019880434427019516
1240.0, 0.0003044204003771721
1241.0, 0.0003065997426715088
1242.0, 0.00035508881071350814
1243.0, 0.0003551565734852638
1244.0, 0.00027229128829315635
1245.0, 0.0003008315611964881
1246.0, 0.0003892319223796315
1247.0, 0.00042706288056426666
1248.0, 0.0004522800506593088
1249.0, 0.0003003355926193047
1250.0, 0.0004527796576271649
1251.0, 0.0003883653453582497
1252.0, 0.00036567611371704484
1253.0, 0.0005920163313369129
1254.0, 0.0004455137803705146
1255.0, 0.00043033968675943633
1256.0, 0.0007369811218404164
1257.0, 0.0007029913657798715
1258.0, 0.0004091412739628407
1259.0, 0.00021632810664892798
1260.0, 8.192430139599965e-05
1261.0, 0.00035918903505869926
1262.0, 0.0004092983129067757
1263.0, 0.0005104872132763826
1264.0, 0.0005026834918906268
1265.0, 9.134758973747347e-05
1266.0, 0.000335241222069996
1267.0, 0.00034283735061310807
1268.0, 0.0006430096638525683
1269.0, 0.0006187441569145849
1270.0, 0.0005997468752177438
1271.0, 0.0005763817778089104
1272.0, 0.00029714495398650416
1273.0, 0.00030414390300730656
1274.0, 0.0003620678107819619
1275.0, 0.00042597348215924093
1276.0, 0.00048029076786315964
1277.0, 0.000503024578670758
1278.0, 0.0007878019241252549
1279.0, 0.0005058022914453187
1280.0, 0.0004062727159565177
1281.0, 0.0005411884381663756
1282.0, 0.0006547697888236949
1283.0, 0.00062181162586498
1284.0, 0.0004954103421677892
1285.0, 0.00017502716628793111
1286.0, 0.00011923005025358387
1287.0, 0.0002012382056648687
1288.0, 0.00016813302166151606
1289.0, 0.00013281763753373522
1290.0, 0.0007270769088822124
1291.0, 0.0009444616461729369
1292.0, 0.0008115221186244075
1293.0, 0.000335228213181178
1294.0, 0.0028969948999732673
1295.0, 0.00161499298798136
1296.0, 0.00033505460056106805
1297.0, 0.00019855886619589772
1298.0, 0.00011122398264527445
1299.0, 6.283813960468576e-05
1300.0, 0.0001549241602001797
1301.0, 0.00047737679025820453
1302.0, 0.0008143166598755807
1303.0, 0.0004889327126753773
1304.0, 0.0003919455565512764
1305.0, 0.000494338176954314
1306.0, 0.0006004066503087487
1307.0, 0.00041669602494009023
1308.0, 0.00034405930047790294
1309.0, 0.0003601558465322926
1310.0, 8.675526196873902e-05
1311.0, 4.924184376642623e-05
1312.0, 7.396977121255757e-05
1313, 0.0
1314, 0.0
1315, 0.0
1316, 0.0
1317, 0.0
1318, 0.0
1319, 0.0
1320, 0.0
1321, 0.0
1322, 0.0
1323, 0.0
1324, 0.0
1325, 0.0
1326, 0.0
1327, 0.0
1328, 0.0
1329, 0.0
1330, 0.0
1331, 0.0
1332, 0.0
1333, 0.0
1334, 0.0
1335, 0.0
1336, 0.0
1337, 0.0
1338, 0.0
1339, 0.0
1340, 0.0
1341, 0.0
1342, 0.0
1343, 0.0
1344, 0.0
1345, 0.0
1346, 0.0
1347, 0.0
1348, 0.0
1349, 0.0
1350, 0.0
1351, 0.0
1352, 0.0
1353, 0.0
1354, 0.0
1355, 0.0
1356, 0.0
1357, 0.0
1358, 0.0
1359, 0.0
1360, 0.0
1361, 0.0
1362, 0.0
1363, 0.0
1364, 0.0
1365, 0.0
1366, 0.0
1367, 0.0
1368, 0.0
1369, 0.0
1370, 0.0
1371, 0.0
1372, 0.0
1373, 0.0
1374, 0.0
1375, 0.0
1376, 0.0
1377, 0.0
1378, 0.0
1379, 0.0
1380, 0.0
1381, 0.0
1382, 0.0
1383, 0.0
1384, 0.0
1385, 0.0
1386, 0.0
1387, 0.0
1388, 0.0
1389, 0.0
1390, 0.0
1391, 0.0
1392, 0.0
1393, 0.0
1394, 0.0
1395, 0.0
1396, 0.0
1397, 0.0
1398, 0.0
1399, 0.0
1400, 0.0
1401, 0.0
1402, 0.0
1403, 0.0
1404, 0.0
1405, 0.0
1406, 0.0
1407, 0.0
1408, 0.0
1409, 0.0
1410, 0.0
1411, 0.0
1412, 0.0
1413, 0.0
1414, 0.0
1415, 0.0
1416, 0.0
1417, 0.0
1418, 0.0
1419, 0.0
1420, 0.0
1421, 0.0
1422, 0.0
1423, 0.0
1424, 0.0
1425, 0.0
1426, 0.0
1427, 0.0
1428, 0.0
1429, 0.0
1430, 0.0
1431, 0.0
1432, 0.0
1433, 0.0
1434, 0.0
1435, 0.0
1436, 0.0
1437, 0.0
1438, 0.0
1439, 0.0
1440, 0.0
1441, 0.0
1442, 0.0
1443, 0.0
1444, 0.0
1445, 0.0
1446, 0.0
1447, 0.0
1448, 0.0
1449, 0.0
1450, 0.0
1451, 0.0
1452, 0.0
1453, 0.0
1454, 0.0
1455, 0.0
1456, 0.0
1457, 0.0
1458, 0.0
1459, 0.0
1460, 0.0
1461, 0.0
1462, 0.0
1463, 0.0
1464, 0.0
1465, 0.0
1466, 0.0
1467, 0.0
1468, 0.0
1469, 0.0
1470, 0.0
1471, 0.0
1472, 0.0
1473, 0.0
1474, 0.0
1475, 0.0
1476, 0.0
1477, 0.0
1478, 0.0
1479, 0.0
1480, 0.0
1481, 0.0
1482, 0.0
1483, 0.0
1484, 0.0
1485, 0.0
1486, 0.0
1487, 0.0
1488, 0.0
1489, 0.0
1490, 0.0
1491, 0.0
1492, 0.0
1493, 0.0
1494, 0.0
1495, 0.0
1496, 0.0
1497, 0.0
1498, 0.0
1499, 0.0
1500, 0.0
1501, 0.0
1502, 0.0
1503, 0.0
1504, 0.0
1505, 0.0
1506, 0.0
1507, 0.0
1508, 0.0
1509, 0.0
1510, 0.0
1511, 0.0
1512, 0.0
1513, 0.0
1514, 0.0
1515, 0.0
1516, 0.0
1517, 0.0
1518, 0.0
1519, 0.0
1520, 0.0
1521, 0.0
1522, 0.0
1523, 0.0
1524, 0.0
1525, 0.0
1526, 0.0
1527, 0.0
1528, 0.0
1529, 0.0
1530, 0.0
1531, 0.0
1532, 0.0
1533, 0.0
1534, 0.0
1535, 0.0
1536, 0.0
1537, 0.0
1538, 0.0
1539, 0.0
1540, 0.0
1541, 0.0
1542, 0.0
1543, 0.0
1544, 0.0
1545, 0.0
1546, 0.0
1547, 0.0
1548, 0.0
1549, 0.0
1550, 0.0
1551, 0.0
1552, 0.0
1553, 0.0
1554, 0.0
1555, 0.0
1556, 0.0
1557, 0.0
1558, 0.0
1559, 0.0
1560, 0.0
1561, 0.0
1562, 0.0
1563, 0.0
1564, 0.0
1565, 0.0
1566, 0.0
1567, 0.0
1568, 0.0
1569, 0.0
1570, 0.0
1571, 0.0
1572, 0.0
1573, 0.0
1574, 0.0
1575, 0.0
1576, 0.0
1577, 0.0
1578, 0.0
1579, 0.0
1580, 0.0
1581, 0.0
1582, 0.0
1583, 0.0
1584, 0.0
1585, 0.0
1586, 0.0
1587, 0.0
1588, 0.0
1589, 0.0
1590, 0.0
1591, 0.0
1592, 0.0
1593, 0.0
1594, 0.0
1595, 0.0
1596, 0.0
1597, 0.0
1598, 0.0
1599, 0.0
