30, 0.0
31, 0.0
32, 0.0
33, 0.0
34, 0.0
35, 0.0
36, 0.0
37, 0.0
38, 0.0
39, 0.0
40, 0.0
41, 0.0
42, 0.0
43, 0.0
44, 0.0
45, 0.0
46, 0.0
47, 0.0
48, 0.0
49, 0.0
50, 0.0
51, 0.0
52, 0.0
53, 0.0
54, 0.0
55, 0.0
56, 0.0
57, 0.0
58, 0.0
59, 0.0
60, 0.0
61, 0.0
62, 0.0
63, 0.0
64, 0.0
65, 0.0
66, 0.0
67, 0.0
68, 0.0
69, 0.0
70, 0.0
71, 0.0
72, 0.0
73, 0.0
74, 0.0
75, 0.0
76, 0.0
77, 0.0
78, 0.0
79, 0.0
80, 0.0
81, 0.0
82, 0.0
83, 0.0
84, 0.0
85, 0.0
86, 0.0
87, 0.0
88, 0.0
89, 0.0
90, 0.0
91, 0.0
92, 0.0
93, 0.0
94, 0.0
95, 0.0
96, 0.0
97, 0.0
98, 0.0
99, 0.0
100, 0.0
101, 0.0
102, 0.0
103, 0.0
104, 0.0
105, 0.0
106, 0.0
107, 0.0
108, 0.0
109, 0.0
110, 0.0
111, 0.0
112, 0.0
113, 0.0
114, 0.0
115, 0.0
116, 0.0
117, 0.0
118, 0.0
119, 0.0
120, 0.0
121, 0.0
122, 0.0
123, 0.0
124, 0.0
125, 0.0
126, 0.0
127, 0.0
128, 0.0
129, 0.0
130, 0.0
131, 0.0
132, 0.0
133, 0.0
134, 0.0
135, 0.0
136, 0.0
137, 0.0
138, 0.0
139, 0.0
140, 0.0
141, 0.0
142, 0.0
143, 0.0
144, 0.0
145, 0.0
146, 0.0
147, 0.0
148, 0.0
149, 0.0
150, 0.0
151, 0.0
152, 0.0
153, 0.0
154, 0.0
155, 0.0
156, 0.0
157, 0.0
158, 0.0
159, 0.0
160, 0.0
161, 0.0
162, 0.0
163, 0.0
164, 0.0
165, 0.0
166, 0.0
167, 0.0
168, 0.0
169, 0.0
170, 0.0
171, 0.0
172, 0.0
173, 0.0
174, 0.0
175, 0.0
176, 0.0
177, 0.0
178, 0.0
179, 0.0
180, 0.0
181, 0.0
182, 0.0
183, 0.0
184, 0.0
185.0, 0.00029089141481955326
186.0, 0.0010399973113620132
187.0, 0.001079600026640061
188.0, 0.0005190978752861289
189.0, 0.0001994675759370746
190.0, 0.0005108401744106789
191.0, 0.0006713792646764524
192.0, 0.0015616011360095649
193.0, 0.0019984207893315067
194.0, 0.001523769060731645
195.0, 0.0010919100732978307
196.0, 0.0012059401936994763
197.0, 0.0009091541697938238
198.0, 0.0005665937416234818
199.0, 0.0007769998902283839
200.0, 0.0003795808682509244
201.0, 0.0001421828463880611
202.0, 7.361596169537701e-05
203.0, 4.862817237437459e-05
204.0, 0.00019120919356849304
205.0, 2.528804405458926e-05
206.0, 0.00011258206075967367
207.0, 9.902851094298242e-06
208.0, 0.0003948729354910099
209.0, 0.0005314368431689738
210.0, 0.0006318741953993148
211.0, 0.0007877961018684208
212.0, 0.0010733509502426257
213.0, 0.001617808308368235
214.0, 0.0017763242068880665
215.0, 0.0018990325018495777
216.0, 0.0021871219001618693
217.0, 0.002540518768561385
218.0, 0.0032583444982446246
219.0, 0.003600836469455875
220.0, 0.0038672254551525252
221.0, 0.004558855689308788
222.0, 0.005603624183936606
223.0, 0.007054340042076389
224.0, 0.008133010033628926
225.0, 0.008987441331962621
226.0, 0.010770350540021468
227.0, 0.012366530719242182
228.0, 0.014025663883541619
229.0, 0.016069359043850238
230.0, 0.01850922159472014
231.0, 0.020797166010055042
232.0, 0.023405553066119588
233.0, 0.026722853647496745
234.0, 0.03062742446848316
235.0, 0.03464119449525946
236.0, 0.04015626389811029
237.0, 0.04498118647163218
238.0, 0.04898087097114454
239.0, 0.05247992631479409
240.0, 0.05399776756785834
241.0, 0.0528369699084572
242.0, 0.04964202318172971
243.0, 0.04512346302667862
244.0, 0.03979126391906242
245.0, 0.034298835760309794
246.0, 0.029475635121263964
247.0, 0.025542305181309802
248.0, 0.022504517420704705
249.0, 0.020261539745498717
250.0, 0.018767418211229472
251.0, 0.017757205248488183
252.0, 0.017087431522716266
253.0, 0.016793019513203177
254.0, 0.017167151772098876
255.0, 0.018082880052142807
256.0, 0.019105945853941524
257.0, 0.020026483193570557
258.0, 0.021280282652362495
259.0, 0.022112649073902313
260.0, 0.0224666698580802
261.0, 0.021981789953568316
262.0, 0.020165929387914228
263.0, 0.018653348621050368
264.0, 0.01652003994293166
265.0, 0.014057740899120397
266.0, 0.011843522145584852
267.0, 0.010267295166544123
268.0, 0.009329432970497577
269.0, 0.00836401098011283
270.0, 0.007410676470098819
271.0, 0.006813930616372689
272.0, 0.006152620888062101
273.0, 0.005400224352232896
274.0, 0.004791100448954573
275.0, 0.004425529464411338
276.0, 0.004177085190355131
277.0, 0.003728174136137785
278.0, 0.0033896456350831954
279.0, 0.003458599658765494
280.0, 0.0038175256915047853
281.0, 0.0036432708367105542
282.0, 0.003075057986622676
283.0, 0.002584096472008509
284.0, 0.002288225356231481
285.0, 0.001968408537280833
286.0, 0.0014098819997195712
287.0, 0.0011726061587531496
288.0, 0.001218615803054647
289.0, 0.0012603630610269626
290.0, 0.0009265685802722255
291.0, 0.00043136196133709967
292.0, 0.00023405114330229737
293.0, 0.0003136783772461747
294.0, 0.0003448258608336632
295.0, 0.00015246079544439784
296.0, 0.00016770782332053389
297.0, 0.00020280624590219524
298.0, 0.0001376723669476169
299.0, 0.0004046349511010883
300.0, 0.0004185142084895244
301.0, 0.000534072751868584
302.0, 0.0007342623389500369
303.0, 0.0007581093337739198
304.0, 0.00035441215454945024
305.0, 0.0004428316598007667
306.0, 0.0003311915779581866
307.0, 5.061685436438419e-05
308.0, 2.51660075840834e-05
309.0, 1.2987781321976526e-05
310.0, 0.00033248634226485556
311.0, 0.000877525823469954
312.0, 0.0014295421436815096
313.0, 0.0019389121967514468
314.0, 0.0023952884009465904
315.0, 0.0034978615826468
316.0, 0.004688736452192439
317.0, 0.0056125042812852815
318.0, 0.006464727878876562
319.0, 0.007874470607297311
320.0, 0.009215487100384013
321.0, 0.010715814604216565
322.0, 0.012746160174881994
323.0, 0.015239686243623074
324.0, 0.018319761773823887
325.0, 0.02186764721888309
326.0, 0.025849046722670348
327.0, 0.030164461443162417
328.0, 0.034488705325181876
329.0, 0.03803673621441887
330.0, 0.03949943267987324
331.0, 0.038291084441127145
332.0, 0.034412764667482984
333.0, 0.02855552692487837
334.0, 0.022217969168196777
335.0, 0.01677549469085237
336.0, 0.012978822434677111
337.0, 0.01062458928411551
338.0, 0.008145874208985646
339.0, 0.006495867516193268
340.0, 0.005466730602214051
341.0, 0.004581117580237075
342.0, 0.003924850865616817
343.0, 0.0032420619860291404
344.0, 0.002982840117227575
345.0, 0.002897576567502739
346.0, 0.0026201310591440654
347.0, 0.00249276261412759
348.0, 0.002720589798860316
349.0, 0.00289818760894215
350.0, 0.0029011601099673072
351.0, 0.002986034408453621
352.0, 0.0034889929138328312
353.0, 0.0038626559791521136
354.0, 0.0044635209294020305
355.0, 0.005181987246608363
356.0, 0.005600292515200252
357.0, 0.0065123163661940505
358.0, 0.00761029985490681
359.0, 0.008754985493534088
360.0, 0.009888155757702929
361.0, 0.010985638435916033
362.0, 0.011811059243061424
363.0, 0.012622868690918993
364.0, 0.012501820162537924
365.0, 0.011289781541504755
366.0, 0.010111452229838808
367.0, 0.008918857902480508
368.0, 0.007603450032997346
369.0, 0.006630553140771407
370.0, 0.006234183416645531
371.0, 0.005985687524394319
372.0, 0.006454240610238238
373.0, 0.007659203668761373
374.0, 0.009285982792718925
375.0, 0.011159752977259175
376.0, 0.01365484897489213
377.0, 0.01745690207228698
378.0, 0.02072667296943232
379.0, 0.023607939772415508
380.0, 0.02712518648571786
381.0, 0.03132412454515701
382.0, 0.0360543869956224
383.0, 0.04148499539382181
384.0, 0.047988323879278
385.0, 0.05565110374357654
386.0, 0.06372787468292686
387.0, 0.07217800012134885
388.0, 0.0804879152280799
389.0, 0.08811866743952315
390.0, 0.09413760925070097
391.0, 0.09633846431486537
392.0, 0.09406741446605861
393.0, 0.0873342666368692
394.0, 0.07701995871045093
395.0, 0.06497506743103698
396.0, 0.05407049602742279
397.0, 0.043924171717962104
398.0, 0.03525361535073017
399.0, 0.028327744476205174
400.0, 0.022946332614126517
401.0, 0.01834730451476672
402.0, 0.01484280442099213
403.0, 0.011816974035519961
404.0, 0.009301421859764809
405.0, 0.007641683551173446
406.0, 0.006187363559061605
407.0, 0.005049743611867722
408.0, 0.0038714460144346997
409.0, 0.0028332268295918938
410.0, 0.0022677285930342702
411.0, 0.0014327861691059548
412.0, 0.0010344174982597262
413.0, 0.0005222812489609229
414.0, 8.24484652992993e-05
415.0, 0.0003788710795386183
416.0, 0.0006674875545363733
417.0, 0.0008164006869090907
418.0, 0.0010591976655221292
419.0, 0.00112964440493562
420.0, 0.0008296745856087693
421.0, 0.0008923117111661363
422.0, 0.0006502091923129713
423.0, 0.00023129825385427206
424.0, 0.000367389639326214
425.0, 0.0011788306923625422
426.0, 0.0017770520241841585
427.0, 0.002747978566497981
428.0, 0.003981227232545621
429.0, 0.005680260399464003
430.0, 0.007895056426227936
431.0, 0.009975422168335486
432.0, 0.012794114740428342
433.0, 0.01562589376163588
434.0, 0.018100033065473246
435.0, 0.02027740589272648
436.0, 0.021975538962703885
437.0, 0.022380695379078608
438.0, 0.020806990439341404
439.0, 0.017631171756468084
440.0, 0.013891575554141066
441.0, 0.010559017016871538
442.0, 0.007796537682718862
443.0, 0.005799053500281175
444.0, 0.004541261854763001
445.0, 0.0039025201146976572
446.0, 0.0037637485674196806
447.0, 0.004124578668596467
448.0, 0.004820770683400353
449.0, 0.006315230128591899
450.0, 0.008417541954043647
451.0, 0.010204635917620919
452.0, 0.012741189919724222
453.0, 0.015481133901036772
454.0, 0.018599594130999493
455.0, 0.02230135815671632
456.0, 0.026608267040776415
457.0, 0.03176386467581112
458.0, 0.03792566190192048
459.0, 0.045134454373292526
460.0, 0.05368426592526946
461.0, 0.06368861689105629
462.0, 0.07463382015211602
463.0, 0.08510154496323294
464.0, 0.09255653156376156
465.0, 0.09516972250218922
466.0, 0.09221569638832416
467.0, 0.08462855343443947
468.0, 0.07354185373452574
469.0, 0.05990679685732467
470.0, 0.04620148503918352
471.0, 0.034811024363536974
472.0, 0.026391475998385098
473.0, 0.019782791985535973
474.0, 0.015047281160935911
475.0, 0.01193211859511905
476.0, 0.009769675152256055
477.0, 0.00793752437922186
478.0, 0.00717615543853518
479.0, 0.006244088985592257
480.0, 0.005638992248750963
481.0, 0.005546123905571689
482.0, 0.005657893938852587
483.0, 0.006350671669563434
484.0, 0.00693547828605344
485.0, 0.007870608971135456
486.0, 0.009036739445011098
487.0, 0.010263368275142636
488.0, 0.012236875533433281
489.0, 0.014012899576057173
490.0, 0.01601030897903242
491.0, 0.01823221939025723
492.0, 0.020768390367350845
493.0, 0.024176665233980748
494.0, 0.028403211193923663
495.0, 0.032291053276059106
496.0, 0.03653975931282131
497.0, 0.041452837254941574
498.0, 0.04594727438256807
499.0, 0.048485040924697936
500.0, 0.0488737214370903
501.0, 0.04520023818639704
502.0, 0.03829558950220699
503.0, 0.030531703108680776
504.0, 0.023607461116447598
505.0, 0.018177306396592482
506.0, 0.013722480463182125
507.0, 0.010348852503434886
508.0, 0.007984724610952247
509.0, 0.006057680962060913
510.0, 0.005042936092595419
511.0, 0.003970646052722468
512.0, 0.0031689590919381093
513.0, 0.002738477883695757
514.0, 0.0022544847318753014
515.0, 0.0018123367124189156
516.0, 0.0015771381217881126
517.0, 0.0016513015844577055
518.0, 0.00164373670851575
519.0, 0.0013849244929277323
520.0, 0.001517897994472267
521.0, 0.0015840328306562146
522.0, 0.0016582908566152238
523.0, 0.0017867143331330377
524.0, 0.001810443041109648
525.0, 0.0015700511569652774
526.0, 0.00152973463419323
527.0, 0.0016394025665337063
528.0, 0.0018315497116062473
529.0, 0.0017853598102516779
530.0, 0.001443200782252485
531.0, 0.0014644666850264308
532.0, 0.001513013251911622
533.0, 0.0011430238037584979
534.0, 0.0009113133278539568
535.0, 0.001004510503233327
536.0, 0.0008900997224549124
537.0, 0.0011454457050684714
538.0, 0.0008409487108778236
539.0, 0.0004402181272235455
540.0, 0.0004341122465628786
541.0, 0.0006283357970191952
542.0, 0.00034297942334622644
543.0, 0.0004016002720887932
544.0, 3.1818655104519865e-05
545.0, 0.00025327280712495365
546.0, 2.9816214772528528e-05
547.0, 0.00018956842056669577
548.0, 0.00023336294566107034
549.0, 0.00043977731798537797
550.0, 0.00043140111613658785
551.0, 0.00018145420898881792
552.0, 4.814158753442537e-05
553.0, 0.0001041860706822977
554.0, 0.00032272063078492026
555.0, 0.00023810930844277611
556.0, 0.0001887546445961692
557.0, 0.00032157539437228363
558.0, 8.111965886487265e-06
559.0, 0.00023823804287014612
560.0, 0.000270863245596972
561.0, 0.0002833597361119694
562.0, 0.00017261996961579786
563.0, 0.00027035542521067977
564.0, 0.0001320912260107767
565.0, 8.234947496005061e-05
566.0, 0.00012212818160326934
567.0, 2.7854801376409962e-05
568.0, 0.000103211560988489
569.0, 0.00015851941071532476
570.0, 0.0004055298429714773
571.0, 0.0005377172218820685
572.0, 0.0005462987538624448
573.0, 0.0005419750638034279
574.0, 0.0005251296024000682
575.0, 0.00036744446252448846
576.0, 0.0002463253136164129
577.0, 0.0005528656963685675
578.0, 0.0006585682158305676
579.0, 0.0005473330274196347
580.0, 0.0005835588760234887
581.0, 0.0006671794032076263
582.0, 0.0008797135613457938
583.0, 0.0011094491475629254
584.0, 0.0012242822594053335
585.0, 0.0012803668562623423
586.0, 0.001377879865618947
587.0, 0.0013028739667170725
588.0, 0.001473232538286277
589.0, 0.001775266014183924
590.0, 0.0019551882273912756
591.0, 0.0018573858554678075
592.0, 0.0016066412490961621
593.0, 0.0016437755814128782
594.0, 0.001822149345667405
595.0, 0.0017101538762588615
596.0, 0.0016799866423282937
597.0, 0.0018980419559347199
598.0, 0.0016786665805892315
599.0, 0.0016173857310717425
600.0, 0.0014590237387279018
601.0, 0.0014586330534327747
602.0, 0.0014726300440217565
603.0, 0.0012876452279343344
604.0, 0.0013736563511923202
605.0, 0.0010579028594747434
606.0, 0.0014089925678374086
607.0, 0.001394297439977355
608.0, 0.0009047801109609432
609.0, 0.0009420742909232239
610.0, 0.001022261442703063
611.0, 0.0013788832139464025
612.0, 0.0011758108701023621
613.0, 0.0008596856514038636
614.0, 0.0008985725767172234
615.0, 0.0011495950068389482
616.0, 0.0010859176720313555
617.0, 0.0010732907039474504
618.0, 0.0007775870823244346
619.0, 0.0006829753953365411
620.0, 0.0008124818885306436
621.0, 0.0005079023573292087
622.0, 0.0006408641481937081
623.0, 0.0004266631186601648
624.0, 0.00044195993110398993
625.0, 0.0006289241097797609
626.0, 0.0006522817081121476
627.0, 0.0005139778044249643
628.0, 0.00047354528758658917
629.0, 0.00028628191929480385
630.0, 0.0005808189807222699
631.0, 0.0008319564057019394
632.0, 0.0005573678824802543
633.0, 0.0005041344274951435
634.0, 0.0003741726799174793
635.0, 0.0003088917977255854
636.0, 0.00020050759404527767
637.0, 0.00019891189765145606
638.0, 0.0003894570191109412
639.0, 0.0004352009367032574
640.0, 0.0005496798864094691
641.0, 0.0004984229629174528
642.0, 0.00042915242304141974
643.0, 0.0005394817883024566
644.0, 0.0006208585468594572
645.0, 0.00018969941819534228
646.0, 0.000124527605927741
647.0, 0.00019014712242650675
648.0, 0.0002615605200321942
649.0, 0.00035846113000429446
650.0, 0.00042964993745141103
651.0, 0.0003130712402633251
652.0, 0.00029522809905813184
653.0, 0.0004521593928495116
654.0, 0.000377743914417693
655.0, 0.00018966623958058764
656.0, 0.00021278575776438767
657.0, 0.0003830321540972676
658.0, 0.00035243882353082177
659.0, 0.00037085250097507015
660.0, 0.0004191733411347795
661.0, 0.0003286580637351973
662.0, 0.0002619462362354998
663.0, 0.0005610770248622617
664.0, 0.00030696544270650034
665.0, 0.0007910072171789827
666.0, 0.0009253874884359944
667.0, 0.0007619074058149831
668.0, 0.0007127726578156198
669.0, 0.0004981429591642599
670.0, 0.0006468702025321036
671.0, 0.0006440950006594593
672.0, 0.0007972269090101178
673.0, 0.0011128402296297485
674.0, 0.0012615241185516843
675.0, 0.0011499183829602308
676.0, 0.0011797645733825776
677.0, 0.0010033188127979936
678.0, 0.0009011943005258348
679.0, 0.0008376000310698065
680.0, 0.0009500924408092684
681.0, 0.001425230899839228
682.0, 0.0014249545201837847
683.0, 0.0013372162177872834
684.0, 0.0011897090494380057
685.0, 0.001332535123659475
686.0, 0.001521795084285876
687.0, 0.0013067106372228318
688.0, 0.0014197139373974192
689.0, 0.0017747960312267598
690.0, 0.001963642593506538
691.0, 0.0019399673373743241
692.0, 0.001955461293031081
693.0, 0.0021547859910224826
694.0, 0.0023181010452532425
695.0, 0.002147251389380247
696.0, 0.0021436343263493054
697.0, 0.002192950439503886
698.0, 0.0021600469968855837
699.0, 0.002032031029391038
700.0, 0.001896227045035795
701.0, 0.0019529533598275598
702.0, 0.0019490125388774376
703.0, 0.0020555346261863974
704.0, 0.0021913626867147186
705.0, 0.0021911529215267803
706.0, 0.002009728242575636
707.0, 0.0020047527952442223
708.0, 0.00224888017666359
709.0, 0.002242048520101125
710.0, 0.0020544259325394744
711.0, 0.0019326370439067713
712.0, 0.001917179930462559
713.0, 0.0018441472885882338
714.0, 0.0018874393253900691
715.0, 0.0018969182498617364
716.0, 0.0017839028347118896
717.0, 0.0015136316370453875
718.0, 0.0013011425295603746
719.0, 0.0014522352511324695
720.0, 0.0012658493317667563
721.0, 0.0011362402890019525
722.0, 0.0011179272812271216
723.0, 0.0010176974924096002
724.0, 0.0009037924769914106
725.0, 0.0009995686757451503
726.0, 0.0009019437025755517
727.0, 0.0007514217655663986
728.0, 0.0007701462169144952
729.0, 0.0006638454420853691
730.0, 0.0005870286245715944
731.0, 0.0006816305776484726
732.0, 0.0004987086927224788
733.0, 0.0007617318887360996
734.0, 0.0007963814907563632
735.0, 0.0006319806157319236
736.0, 0.0004121339500722821
737.0, 0.00024529326249579165
738.0, 0.000213270878518956
739.0, 0.0003371452541774125
740.0, 0.00012808477072637597
741.0, 4.402295433539996e-05
742.0, 0.0001726146162014586
743.0, 0.00018940983391981363
744.0, 3.315469343088822e-05
745.0, 6.738650323294557e-05
746.0, 1.1305595309356651e-05
747.0, 0.00017203584120990438
748.0, 6.338811639086184e-05
749.0, 8.09460126484728e-05
750.0, 1.912243407046663e-05
751.0, 0.00010840327628490766
752.0, 0.0002273271685829803
753.0, 0.00035091839370095446
754.0, 0.0002189192531849839
755.0, 0.00010004501665180513
756.0, 0.00012929263631516756
757.0, 0.00018124077772616861
758.0, 0.00017384997861291055
759.0, 0.00020421955539275805
760.0, 0.00044036798512196327
761.0, 0.0002984054842759903
762.0, 0.0001694715182690566
763.0, 0.00024976690091790756
764.0, 0.00031349901981291386
765.0, 0.00039552458478262886
766.0, 0.00011755235126770294
767.0, 6.330823956109878e-06
768.0, 1.2189127407349978e-05
769.0, 0.00015207115480641794
770.0, 0.00037476705202468515
771.0, 0.0003510113640524136
772.0, 0.00014623060093411206
773.0, 0.00012617469874175936
774.0, 6.207734474278752e-05
775.0, 0.00020312656165926595
776.0, 0.0001653108203063851
777.0, 0.00012020786461941735
778.0, 0.00029032021264006804
779.0, 0.00022660724102948175
780.0, 0.00026844923517281284
781.0, 0.0003656001461438259
782.0, 0.0006864992397413819
783.0, 0.0009148506972137325
784.0, 0.0008000022364311726
785.0, 0.0008619870762155967
786.0, 0.0013407474529047933
787.0, 0.00157541496669317
788.0, 0.0018459359873607753
789.0, 0.001907940238990859
790.0, 0.001908450320173049
791.0, 0.002256014186211466
792.0, 0.002619072298377913
793.0, 0.0028442422502944565
794.0, 0.0034064657311710547
795.0, 0.0034834318081834077
796.0, 0.0033638079133817595
797.0, 0.0036162897701743652
798.0, 0.0041009424657440065
799.0, 0.004369405075489933
800.0, 0.0051519928762587975
801.0, 0.005668847246052604
802.0, 0.0062187234458355315
803.0, 0.006668306238418759
804.0, 0.007235047169793673
805.0, 0.008248021502202064
806.0, 0.008963434636640948
807.0, 0.01020883089191834
808.0, 0.011361687146181697
809.0, 0.012725395720751065
810.0, 0.014338409547439132
811.0, 0.016425613909286194
812.0, 0.019189284361730896
813.0, 0.02188833024518203
814.0, 0.02607138631799603
815.0, 0.03011460118750582
816.0, 0.03479814712512319
817.0, 0.03959534097382751
818.0, 0.044322121417509366
819.0, 0.049186300021117915
820.0, 0.05237284443969867
821.0, 0.05391090062904927
822.0, 0.05453319816377637
823.0, 0.05494446073333192
824.0, 0.05633489250424451
825.0, 0.05894300392341764
826.0, 0.06258993264551624
827.0, 0.06787116040700145
828.0, 0.07332797702764014
829.0, 0.0790558447056012
830.0, 0.08337240027251581
831.0, 0.08436249555316855
832.0, 0.08186670405405898
833.0, 0.077896602557681
834.0, 0.07510679328536442
835.0, 0.07574078915789406
836.0, 0.08028636916593916
837.0, 0.09064784339584593
838.0, 0.10759360468455237
839.0, 0.1292426440562724
840.0, 0.15119850243222802
841.0, 0.17189372640382397
842.0, 0.20604109780860835
843.0, 0.24931568097619872
844.0, 0.30141099169549446
845.0, 0.36693213634654576
846.0, 0.45119149853829005
847.0, 0.5592974730877409
848.0, 0.6915903839826946
849.0, 0.8342051058312505
850.0, 0.9633975200300167
851.0, 0.9957131775287974
852.0, 0.8930082815201907
853.0, 0.7000009786063808
854.0, 0.503730313597543
855.0, 0.3638166673140758
856.0, 0.2645606001124173
857.0, 0.19852655133424943
858.0, 0.1542702191151813
859.0, 0.12333060371711238
860.0, 0.10213200282006646
861.0, 0.08753665396357485
862.0, 0.07698046508787021
863.0, 0.07005319968116568
864.0, 0.06670016172952559
865.0, 0.06580946426410259
866.0, 0.06585955948053611
867.0, 0.06749749878125749
868.0, 0.07156024627145668
869.0, 0.07739683512536774
870.0, 0.0844124468846643
871.0, 0.09584038997128655
872.0, 0.11027975612932785
873.0, 0.12781788339861042
874.0, 0.14615931278070224
875.0, 0.1562769641894568
876.0, 0.14931252132048323
877.0, 0.1247790300529075
878.0, 0.09274719918477603
879.0, 0.06650594046368383
880.0, 0.04788320615481952
881.0, 0.03526264639553508
882.0, 0.02659652207943224
883.0, 0.0205629894669471
884.0, 0.01634308596762292
885.0, 0.013217917093642336
886.0, 0.011018769226464565
887.0, 0.009075972682184446
888.0, 0.007722069364031662
889.0, 0.006619563540059046
890.0, 0.005748343482257798
891.0, 0.004956077138777991
892.0, 0.004055849295676025
893.0, 0.0032646783166980025
894.0, 0.002863008742001133
895.0, 0.002182294965197699
896.0, 0.0016295089356652415
897.0, 0.0015999264462985816
898.0, 0.001423526215917181
899.0, 0.000949159357748756
900.0, 0.0006839179125549736
901.0, 0.0004176850946821921
902.0, 0.00040213207299792246
903.0, 0.00038328229960862424
904.0, 0.00010019764005592458
905.0, 0.00017674865372441383
906.0, 0.0002588104357544282
907.0, 0.0005222784507345746
908.0, 0.0007316507999642087
909.0, 0.0005532805192733907
910.0, 0.00045323765196365954
911.0, 0.0004359834346996072
912.0, 0.00036387758950682516
913.0, 0.00035465282262267425
914.0, 0.0006069792431615617
915.0, 0.0006266188175755837
916.0, 9.647337110570794e-05
917.0, 0.00031699974009134643
918.0, 0.00010319064970115309
919.0, 5.023291603392801e-05
920.0, 0.00013033849966364547
921.0, 0.00021281852858654978
922.0, 7.158650163737663e-05
923.0, 0.0001858616771287191
924.0, 3.971741620536202e-05
925.0, 0.00022600540581518066
926.0, 0.0003307029375633834
927.0, 0.00018124408928302862
928.0, 0.0001021623672417948
929.0, 2.9824960925614715e-05
930.0, 7.98842914320187e-05
931.0, 0.0002636797787278837
932.0, 0.0002049413863753605
933.0, 1.744860325417854e-05
934.0, 0.0005965268532693317
935.0, 0.00029627335967874463
936.0, 0.00032443119563553536
937.0, 0.0006448592314992879
938.0, 0.0008164168719385735
939.0, 0.0009262817473404591
940.0, 0.0012046166907183698
941.0, 0.0012936594991594715
942.0, 0.0017808127462737274
943.0, 0.0017793126960525972
944.0, 0.001628790260391435
945.0, 0.0014092616427797435
946.0, 0.0011951423866858684
947.0, 0.0009552998245607475
948.0, 0.0005951376986424099
949.0, 0.0005133579403277431
950.0, 0.0007584866914399805
951.0, 0.00018987200375595242
952.0, 0.0003470322389182561
953.0, 0.0003782178813939477
954.0, 0.00015070599708495402
955.0, 7.01157852953344e-05
956.0, 7.257452049733592e-05
957.0, 9.451570732249552e-05
958.0, 0.0002802056131686655
959.0, 0.00017750246576511027
960.0, 0.0003637773804082788
961.0, 0.00043464277369744574
962.0, 0.0003796786005010494
963.0, 0.0004170773502326042
964.0, 0.00040075987730308726
965.0, 0.00015166381049081735
966.0, 0.00034938777884497
967.0, 0.00017197498411176626
968.0, 0.0003145760447146915
969.0, 0.00043514229900886564
970.0, 0.00038515932621764024
971.0, 0.0002865380869724789
972.0, 0.0002263372397452628
973.0, 0.0003104795160358194
974.0, 0.0005758788862120028
975.0, 8.894391404451983e-05
976.0, 1.6468822454705403e-05
977.0, 8.755920226268099e-05
978.0, 0.0001655056523635718
979.0, 0.00030421968072569044
980.0, 0.0003562881881243788
981.0, 0.0003372051281755744
982.0, 0.00047415615063925773
983.0, 0.00026911308599911297
984.0, 0.00035517106543723993
985.0, 0.00048590253468101807
986.0, 0.00043444050368797785
987.0, 0.0006342331757547676
988.0, 0.0009099102787868494
989.0, 0.0009452383615195294
990.0, 0.000796892215651914
991.0, 0.0005973169420639145
992.0, 0.000580147435891553
993.0, 0.0006938292836069925
994.0, 0.0010187079060937812
995.0, 0.001108347297680269
996.0, 0.0009978167966128886
997.0, 0.0009799774765571014
998.0, 0.0010615503606024046
999.0, 0.0010920106732254587
1000.0, 0.0010740068686451473
1001.0, 0.0009078705297938914
1002.0, 0.0008570369549887778
1003.0, 0.0009298834332738251
1004.0, 0.0009190930402394628
1005.0, 0.0009049927035012845
1006.0, 0.0008842913217611087
1007.0, 0.0006714934301255752
1008.0, 0.0003430618138974979
1009.0, 0.00045279213463021527
1010.0, 0.0007196243413536402
1011.0, 0.0007233730813053485
1012.0, 0.0004964306436052286
1013.0, 0.0005250936462847343
1014.0, 0.0005962640556775405
1015.0, 0.0006162563039943746
1016.0, 0.0006670681864600706
1017.0, 0.0005457615872493746
1018.0, 0.00037717664536561653
1019.0, 0.00046788857350975966
1020.0, 0.00010626670107395788
1021.0, 3.813250547840068e-05
1022.0, 0.0001291090916935178
1023.0, 0.0001766904147074901
1024.0, 0.00020506988476905674
1025.0, 0.00021388872856875233
1026.0, 0.0003029955820306558
1027.0, 0.0004773527626820018
1028.0, 0.0002600360806681179
1029.0, 7.216667742766355e-05
1030.0, 1.0632383080668538e-05
1031.0, 0.00013932594586862698
1032.0, 0.0003007035544464781
1033.0, 0.0002499355608346876
1034.0, 2.1765322394685864e-05
1035.0, 2.6012311257910153e-05
1036.0, 0.00012770308501901806
1037.0, 0.0001853121479769374
1038.0, 0.0003022390626417468
1039.0, 0.0002193127792330966
1040.0, 6.161466318310913e-05
1041.0, 8.554971043127666e-05
1042.0, 0.00025066681008234314
1043.0, 0.0002991979404922357
1044.0, 0.00015718527560840563
1045.0, 0.00010531029588497493
1046.0, 0.00019276811479715595
1047.0, 0.00019472117604095606
1048.0, 0.00028250330484981626
1049.0, 0.00010471626554690055
1050.0, 5.5307474852936625e-05
1051.0, 0.00013108253635584047
1052.0, 0.0004391841820001345
1053.0, 0.0004083844626249899
1054.0, 9.627378586875431e-05
1055.0, 8.917951365245407e-05
1056.0, 0.00022664980512601392
1057.0, 0.00025513021622539957
1058.0, 3.049124259228976e-05
1059.0, 6.824243561625324e-05
1060.0, 0.00016455177905694946
1061.0, 0.0002698821669398856
1062.0, 0.00024417705697311496
1063.0, 0.00033930709781043603
1064.0, 0.0001694479563883762
1065.0, 0.00012361510341855268
1066.0, 0.000317786278610028
1067.0, 0.00012813881867610317
1068.0, 6.346099457532805e-05
1069.0, 0.00019011432404366383
1070.0, 0.0002964141116062356
1071.0, 0.00023812872322283163
1072.0, 0.00018091484240366897
1073.0, 0.00011098833152128127
1074.0, 0.0006018780163298648
1075.0, 0.00034126866786835815
1076.0, 0.00032471813534491127
1077.0, 0.0005511188540047246
1078.0, 0.00025959199597300723
1079.0, 0.00015936234509877654
1080.0, 0.00022785284408259707
1081.0, 0.00018934390446455346
1082.0, 0.00025675121303055814
1083.0, 0.0003571937930048318
1084.0, 0.00016587861240522768
1085.0, 0.0004907998184696319
1086.0, 0.0006561215996118775
1087.0, 0.0006758781057124823
1088.0, 0.0003200523689925634
1089.0, 0.0004279675292511192
1090.0, 0.0007893412742245727
1091.0, 0.0007181862897313726
1092.0, 0.00041727052350713995
1093.0, 0.0003262504896580721
1094.0, 0.00023883548327793654
1095.0, 0.0001584345660933891
1096.0, 0.0002658528032698939
1097.0, 0.00016830257384009177
1098.0, 9.582931476668673e-05
1099.0, 9.7087802608069e-05
1100.0, 0.00025868433249865623
1101.0, 0.0004918661760721037
1102.0, 0.0004980875846797931
1103.0, 0.00027000320295313937
1104.0, 0.00017909118010558118
1105.0, 7.61126749805291e-05
1106.0, 4.05760386964912e-05
1107.0, 0.0003425591170825439
1108.0, 0.0003537631764521724
1109.0, 7.53525961299254e-05
1110.0, 3.3452011567074526e-05
1111.0, 8.432886675921849e-05
1112.0, 0.00024624330815330425
1113.0, 0.0002724868046988738
1114.0, 0.00012859685208014966
1115.0, 0.00016950722851463192
1116.0, 0.00013360076713477164
1117.0, 0.00023478525537719272
1118.0, 0.00021216353234259006
1119.0, 0.00030859206546872344
1120.0, 0.0002683899717650415
1121.0, 0.00028915980707362623
1122.0, 0.0003369247665026884
1123.0, 0.0003037800671123287
1124.0, 0.0004117118315379259
1125.0, 0.0005271763090096066
1126.0, 0.00021122244176391633
1127.0, 0.00037956174837597213
1128.0, 0.0005803166127811189
1129.0, 0.000380862408611005
1130.0, 0.00031569201176566105
1131.0, 0.0002542619894998507
1132.0, 0.00017891957243236018
1133.0, 0.0001258063862920468
1134.0, 0.000194261200923921
1135.0, 0.00032794702156064366
1136.0, 3.003418595520864e-05
1137.0, 0.0003437224389995166
1138.0, 0.0002792590593254323
1139.0, 0.00012807663853861472
1140.0, 4.108173889909917e-05
1141.0, 0.00013704975225240943
1142.0, 0.00026288887854171265
1143.0, 0.00014702911753577036
1144.0, 0.00012356037977260363
1145.0, 0.00014786265363540742
1146.0, 0.00012363680060317427
1147.0, 0.0005191389322500929
1148.0, 0.0002378953871886403
1149.0, 0.0001940934016461476
1150.0, 0.00033467946756223567
1151.0, 6.617167131937743e-05
1152.0, 0.00034890378746546975
1153.0, 0.00045819782601759214
1154.0, 0.0001980239892470633
1155.0, 5.8751127555031316e-05
1156.0, 8.83051421852386e-05
1157.0, 6.025089252866955e-05
1158.0, 0.00011061098453166278
1159.0, 0.00017928550182374697
1160.0, 0.00014182264157953093
1161.0, 8.49821582645614e-05
1162.0, 0.0003280450509637514
1163.0, 0.00031130944973604643
1164.0, 0.000178064562566841
1165.0, 0.0006560793534232456
1166.0, 0.0006250605137213823
1167.0, 0.00018206696659338995
1168.0, 0.0003310415294584267
1169.0, 0.00012101904389328584
1170.0, 4.734461071297782e-05
1171.0, 0.00011052237387001199
1172.0, 4.264763756317837e-05
1173.0, 0.00028028923152155824
1174.0, 0.00029538964341968907
1175.0, 0.00028209180878499893
1176.0, 0.0003075260013030744
1177.0, 0.0001555339537040281
1178.0, 9.775908876429086e-05
1179.0, 0.00029878126483144613
1180.0, 0.0003521552872671809
1181.0, 0.00017030670560391195
1182.0, 0.00012066414511220679
1183.0, 0.00015075079408758532
1184.0, 0.0002822469363481453
1185.0, 0.00024514252082223734
1186.0, 0.0002652498719175853
1187.0, 0.0002718005256634496
1188.0, 0.0002904717309252346
1189.0, 0.00023707480414640375
1190.0, 0.00028330892784290127
1191.0, 0.0003638351826504449
1192.0, 0.0002858179261111559
1193.0, 0.00039267381977002363
1194.0, 8.925955160048349e-05
1195.0, 0.00033807656549318064
1196.0, 0.000518492180213538
1197.0, 0.00046218212098518764
1198.0, 0.0004405718616556447
1199.0, 0.0005889650145200642
1200.0, 0.0003776614395042456
1201.0, 0.00017702801756598325
1202.0, 7.326435723357033e-05
1203.0, 8.456717262563985e-05
1204.0, 0.0002558297368160138
1205.0, 9.130187605716286e-05
1206.0, 2.2900064725835776e-05
1207.0, 0.00015601140071493496
1208.0, 0.0002196762611779216
1209.0, 0.00011432194017977978
1210.0, 0.000350313597488106
1211.0, 0.000284416048180127
1212.0, 0.00040431233039063145
1213.0, 0.0004116098491629304
1214.0, 0.0005770725912607526
1215.0, 0.0005235222150288988
1216.0, 0.00016564371127776554
1217.0, 0.0002580655628203904
1218.0, 0.00017574074153712217
1219.0, 0.0001958794572534823
1220.0, 0.0003880254374363068
1221.0, 0.00038307459261276063
1222.0, 0.00010039478986310349
1223.0, 0.0010592282773522024
1224.0, 0.0008382350914034741
1225.0, 0.00047166896901100844
1226.0, 0.0002304458428582693
1227.0, 0.00019561486060859344
1228.0, 0.00016748504660839703
1229.0, 3.0459063901937575e-05
1230.0, 0.0003264780073149138
1231.0, 0.0005066151880602616
1232.0, 0.00016903450990425546
1233.0, 3.2707254386533984e-05
1234.0, 5.95015736730124e-05
1235.0, 0.0002972535475294735
1236.0, 0.000356020082261667
1237.0, 0.00018917206523770398
1238.0, 0.0005743970382435706
1239.0, 0.0006581736975489892
1240.0, 0.0004316171949503299
1241.0, 0.00032098711203851297
1242.0, 0.0003703168839690345
1243.0, 0.000420788642343705
1244.0, 0.00020254568589158048
1245.0, 0.00027089715549909063
1246.0, 0.00022735410459746532
1247.0, 0.00045965062511799115
1248.0, 0.0004476569830005839
1249.0, 0.00033475332358052503
1250.0, 0.00011999880177827357
1251.0, 0.00030852894313755864
1252.0, 0.0006981860825939956
1253.0, 0.0005027304259963821
1254.0, 0.00042132949508217997
1255.0, 0.0005509417369822406
1256.0, 0.0004174817445723743
1257.0, 0.0007223642422620518
1258.0, 0.0016714101080092625
1259.0, 0.002011604310121453
1260.0, 0.0010878664607953423
1261.0, 0.0008572523202894642
1262.0, 0.0005144662863476587
1263.0, 0.00016576045904575804
1264.0, 0.00043026297290490957
1265.0, 0.0004312968891765322
1266.0, 8.971145246518938e-05
1267.0, 0.00020466391926229267
1268.0, 0.0004540452177136958
1269.0, 0.000498883521351938
1270.0, 0.0005036750453708999
1271.0, 0.00041032765394933657
1272.0, 0.0003300794999824369
1273.0, 0.00046839593132196023
1274.0, 0.00039813680417753673
1275.0, 0.0005244847631036699
1276.0, 0.0006702606456079792
1277.0, 0.0003310274462334281
1278.0, 0.0005115367964062129
1279.0, 0.00044831412579177696
1280.0, 0.000484437002940466
1281.0, 0.0006187931624923955
1282.0, 0.00035125428742376335
1283.0, 0.00036407707124386707
1284.0, 0.0006502509604607467
1285.0, 0.0005582239761207295
1286.0, 0.0002867298906141444
1287.0, 0.000131785389947525
1288.0, 0.0003505966588639049
1289.0, 0.000536437269153339
1290.0, 0.0003591696880100207
1291.0, 0.00037367250374314027
1292.0, 0.0005583548251267014
1293.0, 0.0007069061357980331
1294.0, 0.00015943455699919342
1295.0, 0.0002016839705585331
1296.0, 0.0004407411247394857
1297.0, 0.00041917009239503006
1298.0, 0.0004623615532533587
1299.0, 0.00026007103767054085
1300.0, 0.00020476088357682096
1301.0, 8.650914604185753e-05
1302, 0.0
1303, 0.0
1304, 0.0
1305, 0.0
1306, 0.0
1307, 0.0
1308, 0.0
1309, 0.0
1310, 0.0
1311, 0.0
1312, 0.0
1313, 0.0
1314, 0.0
1315, 0.0
1316, 0.0
1317, 0.0
1318, 0.0
1319, 0.0
1320, 0.0
1321, 0.0
1322, 0.0
1323, 0.0
1324, 0.0
1325, 0.0
1326, 0.0
1327, 0.0
1328, 0.0
1329, 0.0
1330, 0.0
1331, 0.0
1332, 0.0
1333, 0.0
1334, 0.0
1335, 0.0
1336, 0.0
1337, 0.0
1338, 0.0
1339, 0.0
1340, 0.0
1341, 0.0
1342, 0.0
1343, 0.0
1344, 0.0
1345, 0.0
1346, 0.0
1347, 0.0
1348, 0.0
1349, 0.0
1350, 0.0
1351, 0.0
1352, 0.0
1353, 0.0
1354, 0.0
1355, 0.0
1356, 0.0
1357, 0.0
1358, 0.0
1359, 0.0
1360, 0.0
1361, 0.0
1362, 0.0
1363, 0.0
1364, 0.0
1365, 0.0
1366, 0.0
1367, 0.0
1368, 0.0
1369, 0.0
1370, 0.0
1371, 0.0
1372, 0.0
1373, 0.0
1374, 0.0
1375, 0.0
1376, 0.0
1377, 0.0
1378, 0.0
1379, 0.0
1380, 0.0
1381, 0.0
1382, 0.0
1383, 0.0
1384, 0.0
1385, 0.0
1386, 0.0
1387, 0.0
1388, 0.0
1389, 0.0
1390, 0.0
1391, 0.0
1392, 0.0
1393, 0.0
1394, 0.0
1395, 0.0
1396, 0.0
1397, 0.0
1398, 0.0
1399, 0.0
1400, 0.0
1401, 0.0
1402, 0.0
1403, 0.0
1404, 0.0
1405, 0.0
1406, 0.0
1407, 0.0
1408, 0.0
1409, 0.0
1410, 0.0
1411, 0.0
1412, 0.0
1413, 0.0
1414, 0.0
1415, 0.0
1416, 0.0
1417, 0.0
1418, 0.0
1419, 0.0
1420, 0.0
1421, 0.0
1422, 0.0
1423, 0.0
1424, 0.0
1425, 0.0
1426, 0.0
1427, 0.0
1428, 0.0
1429, 0.0
1430, 0.0
1431, 0.0
1432, 0.0
1433, 0.0
1434, 0.0
1435, 0.0
1436, 0.0
1437, 0.0
1438, 0.0
1439, 0.0
1440, 0.0
1441, 0.0
1442, 0.0
1443, 0.0
1444, 0.0
1445, 0.0
1446, 0.0
1447, 0.0
1448, 0.0
1449, 0.0
1450, 0.0
1451, 0.0
1452, 0.0
1453, 0.0
1454, 0.0
1455, 0.0
1456, 0.0
1457, 0.0
1458, 0.0
1459, 0.0
1460, 0.0
1461, 0.0
1462, 0.0
1463, 0.0
1464, 0.0
1465, 0.0
1466, 0.0
1467, 0.0
1468, 0.0
1469, 0.0
1470, 0.0
1471, 0.0
1472, 0.0
1473, 0.0
1474, 0.0
1475, 0.0
1476, 0.0
1477, 0.0
1478, 0.0
1479, 0.0
1480, 0.0
1481, 0.0
1482, 0.0
1483, 0.0
1484, 0.0
1485, 0.0
1486, 0.0
1487, 0.0
1488, 0.0
1489, 0.0
1490, 0.0
1491, 0.0
1492, 0.0
1493, 0.0
1494, 0.0
1495, 0.0
1496, 0.0
1497, 0.0
1498, 0.0
1499, 0.0
1500, 0.0
1501, 0.0
1502, 0.0
1503, 0.0
1504, 0.0
1505, 0.0
1506, 0.0
1507, 0.0
1508, 0.0
1509, 0.0
1510, 0.0
1511, 0.0
1512, 0.0
1513, 0.0
1514, 0.0
1515, 0.0
1516, 0.0
1517, 0.0
1518, 0.0
1519, 0.0
1520, 0.0
1521, 0.0
1522, 0.0
1523, 0.0
1524, 0.0
1525, 0.0
1526, 0.0
1527, 0.0
1528, 0.0
1529, 0.0
1530, 0.0
1531, 0.0
1532, 0.0
1533, 0.0
1534, 0.0
1535, 0.0
1536, 0.0
1537, 0.0
1538, 0.0
1539, 0.0
1540, 0.0
1541, 0.0
1542, 0.0
1543, 0.0
1544, 0.0
1545, 0.0
1546, 0.0
1547, 0.0
1548, 0.0
1549, 0.0
1550, 0.0
1551, 0.0
1552, 0.0
1553, 0.0
1554, 0.0
1555, 0.0
1556, 0.0
1557, 0.0
1558, 0.0
1559, 0.0
1560, 0.0
1561, 0.0
1562, 0.0
1563, 0.0
1564, 0.0
1565, 0.0
1566, 0.0
1567, 0.0
1568, 0.0
1569, 0.0
1570, 0.0
1571, 0.0
1572, 0.0
1573, 0.0
1574, 0.0
1575, 0.0
1576, 0.0
1577, 0.0
1578, 0.0
1579, 0.0
1580, 0.0
1581, 0.0
1582, 0.0
1583, 0.0
1584, 0.0
1585, 0.0
1586, 0.0
1587, 0.0
1588, 0.0
1589, 0.0
1590, 0.0
1591, 0.0
1592, 0.0
1593, 0.0
1594, 0.0
1595, 0.0
1596, 0.0
1597, 0.0
1598, 0.0
1599, 0.0
