30, 0.0
31, 0.0
32, 0.0
33, 0.0
34, 0.0
35, 0.0
36, 0.0
37, 0.0
38, 0.0
39, 0.0
40, 0.0
41, 0.0
42, 0.0
43, 0.0
44, 0.0
45, 0.0
46, 0.0
47, 0.0
48, 0.0
49, 0.0
50, 0.0
51, 0.0
52, 0.0
53, 0.0
54, 0.0
55, 0.0
56, 0.0
57, 0.0
58, 0.0
59, 0.0
60, 0.0
61, 0.0
62, 0.0
63, 0.0
64, 0.0
65, 0.0
66, 0.0
67, 0.0
68, 0.0
69, 0.0
70, 0.0
71, 0.0
72, 0.0
73, 0.0
74, 0.0
75, 0.0
76, 0.0
77, 0.0
78, 0.0
79, 0.0
80, 0.0
81, 0.0
82, 0.0
83, 0.0
84, 0.0
85, 0.0
86, 0.0
87, 0.0
88, 0.0
89, 0.0
90, 0.0
91, 0.0
92, 0.0
93, 0.0
94, 0.0
95, 0.0
96, 0.0
97, 0.0
98, 0.0
99, 0.0
100, 0.0
101, 0.0
102, 0.0
103, 0.0
104, 0.0
105, 0.0
106, 0.0
107, 0.0
108, 0.0
109, 0.0
110, 0.0
111, 0.0
112, 0.0
113, 0.0
114, 0.0
115, 0.0
116, 0.0
117, 0.0
118, 0.0
119, 0.0
120, 0.0
121, 0.0
122, 0.0
123, 0.0
124, 0.0
125, 0.0
126, 0.0
127, 0.0
128, 0.0
129, 0.0
130, 0.0
131, 0.0
132, 0.0
133, 0.0
134, 0.0
135, 0.0
136, 0.0
137, 0.0
138, 0.0
139, 0.0
140, 0.0
141, 0.0
142, 0.0
143, 0.0
144, 0.0
145, 0.0
146, 0.0
147, 0.0
148, 0.0
149, 0.0
150, 0.0
151, 0.0
152, 0.0
153, 0.0
154, 0.0
155, 0.0
156, 0.0
157, 0.0
158, 0.0
159, 0.0
160, 0.0
161, 0.0
162.0, 0.0012584669303572272
163.0, 0.0020593772166387636
164.0, 0.0020574359220575955
165.0, 0.0011553101806821232
166.0, 0.001669854765961211
167.0, 0.001092481865410069
168.0, 0.004584873244589601
169.0, 0.010177165752862267
170.0, 0.017256458167948265
171.0, 0.02526301928682431
172.0, 0.033975511749857065
173.0, 0.04421248317443346
174.0, 0.05673538137690977
175.0, 0.07144153892225032
176.0, 0.08789053983511601
177.0, 0.10810675737520163
178.0, 0.12946729363966653
179.0, 0.15207263569794668
180.0, 0.1779150010087191
181.0, 0.21046423995249788
182.0, 0.24317289019546393
183.0, 0.2805109421131937
184.0, 0.3245906744177216
185.0, 0.3696133383386122
186.0, 0.4178346345862468
187.0, 0.46837117289889485
188.0, 0.521390047622339
189.0, 0.5777312723658489
190.0, 0.6344766959493381
191.0, 0.6914168736943067
192.0, 0.7454430432449843
193.0, 0.7954601402676403
194.0, 0.8516918136335274
195.0, 0.9018407913040657
196.0, 0.9440828682281756
197.0, 0.9778299118945786
198.0, 0.9970409273207556
199.0, 0.9980695563772889
200.0, 0.9821637653175938
201.0, 0.9520711581985136
202.0, 0.9108787051988791
203.0, 0.8600375021896209
204.0, 0.8020495052031805
205.0, 0.7385373884653359
206.0, 0.67088736516103
207.0, 0.602355572286454
208.0, 0.5350047077447704
209.0, 0.47098149777097353
210.0, 0.4119559366545082
211.0, 0.3604642654104559
212.0, 0.3134494963623852
213.0, 0.27405275323525713
214.0, 0.24344085105372215
215.0, 0.21953365813341946
216.0, 0.19714091185706983
217.0, 0.17837740241557296
218.0, 0.16261179491472574
219.0, 0.14873110364526046
220.0, 0.13538130301083223
221.0, 0.12629393691287918
222.0, 0.114227309713529
223.0, 0.10044546671738694
224.0, 0.09033473407925209
225.0, 0.07951862406045997
226.0, 0.07035741325603316
227.0, 0.061813401598904354
228.0, 0.05265996654074407
229.0, 0.0437259210420971
230.0, 0.03496306299189246
231.0, 0.03043773884403105
232.0, 0.028002879042880156
233.0, 0.022135541618017368
234.0, 0.02033374441788354
235.0, 0.018500184987608404
236.0, 0.018007701488334745
237.0, 0.01999702724229941
238.0, 0.019978348839696493
239.0, 0.020915482525058027
240.0, 0.021584422205109966
241.0, 0.02216161208714644
242.0, 0.024209219382163652
243.0, 0.02646193156688844
244.0, 0.027784316734024605
245.0, 0.02775415497681233
246.0, 0.027330492058582324
247.0, 0.029187461022361902
248.0, 0.03065303062381488
249.0, 0.03116838058646154
250.0, 0.032607085407588735
251.0, 0.03765128240460716
252.0, 0.04233197062500935
253.0, 0.04600829270193617
254.0, 0.050250886610067096
255.0, 0.055951388343284635
256.0, 0.05989099889958318
257.0, 0.06431727251943371
258.0, 0.06827884365593716
259.0, 0.07116121971404299
260.0, 0.0731316516914826
261.0, 0.07276563386643461
262.0, 0.06900680346865523
263.0, 0.06339924719410939
264.0, 0.05721147448005904
265.0, 0.050729446913497865
266.0, 0.04502033366700696
267.0, 0.040442375004553825
268.0, 0.03661701520017333
269.0, 0.032198443960846264
270.0, 0.028505051972205955
271.0, 0.024567168764439082
272.0, 0.0198997842885144
273.0, 0.015551837988977295
274.0, 0.014029877963397911
275.0, 0.013774899408045512
276.0, 0.01343326197478121
277.0, 0.012279050821802058
278.0, 0.010276581083932802
279.0, 0.008929630589564854
280.0, 0.008529289534455519
281.0, 0.008850813145338627
282.0, 0.008574006879959597
283.0, 0.005894494762197273
284.0, 0.003895771054662473
285.0, 0.00196103450636732
286.0, 0.001439972622376128
287.0, 0.0026328939031278246
288.0, 0.0010387416016912705
289.0, 0.0019399758573617764
290.0, 0.002464787189367518
291.0, 0.0028337751542118744
292.0, 0.0021423508636657005
293.0, 0.0025450175236024198
294.0, 0.0013718517695597262
295.0, 0.0008020359957684577
296.0, 0.0011548000049294656
297.0, 0.0011771689001807036
298.0, 0.0019409948784184028
299.0, 0.0023626774221823296
300.0, 0.0013961968483839947
301.0, 0.0014520149358317655
302.0, 0.0015884473865603662
303.0, 0.0010950815059944795
304.0, 0.0013041011369215084
305.0, 0.0014984615903677243
306.0, 0.0006748597990982687
307.0, 0.0006376219502466386
308.0, 0.0013871671334876603
309.0, 0.001554629534779222
310.0, 0.0009098869930347966
311.0, 0.0020278664349873505
312.0, 0.00134404391803774
313.0, 0.002937800656437929
314.0, 0.0028154321358392818
315.0, 0.0012665128883808925
316.0, 0.0009048390533899413
317.0, 0.002440114783635715
318.0, 0.002782159095823447
319.0, 0.0018849771430107759
320.0, 0.0024186530923664988
321.0, 0.0019160874167693876
322.0, 0.0031852968011798124
323.0, 0.0036859096148077935
324.0, 0.002554718371323275
325.0, 0.004544958834699365
326.0, 0.004440819449126173
327.0, 0.0033214683830784563
328.0, 0.0023640556259369237
329.0, 0.0020599793333197667
330.0, 0.0024921816701631797
331.0, 0.003348929535916924
332.0, 0.0030767494949145748
333.0, 0.001635241507629064
334.0, 0.0008288163534935398
335.0, 0.0018644775627589952
336.0, 0.0017288284772325395
337.0, 0.002154134735591019
338.0, 0.0037226596220367144
339.0, 0.004561308648829701
340.0, 0.0035727392518061533
341.0, 0.005143971806984928
342.0, 0.007247735826827235
343.0, 0.007301941204157424
344.0, 0.007938041507162905
345.0, 0.007436730479607613
346.0, 0.008189098645080745
347.0, 0.010319529604841936
348.0, 0.011685662835484873
349.0, 0.010555554699837351
350.0, 0.00936077574681621
351.0, 0.009684684350914852
352.0, 0.011457534333240857
353.0, 0.012797760160532402
354.0, 0.009769101523125857
355.0, 0.01045976316418533
356.0, 0.011098230352934205
357.0, 0.009253929834693211
358.0, 0.007757967368007283
359.0, 0.009755225375493469
360.0, 0.010055862726579514
361.0, 0.010206669187587055
362.0, 0.011089522060921994
363.0, 0.009779832138493958
364.0, 0.011592765899259505
365.0, 0.011255994055497993
366.0, 0.012039164997774797
367.0, 0.015889742026234183
368.0, 0.014537800814563129
369.0, 0.01692353535431915
370.0, 0.019463386518645244
371.0, 0.02056336683801735
372.0, 0.021139079019050072
373.0, 0.024998258980284002
374.0, 0.026033452324723916
375.0, 0.02752149633060631
376.0, 0.03097339218107404
377.0, 0.03494356945735227
378.0, 0.039020010384288886
379.0, 0.04428380499662223
380.0, 0.05095787771325547
381.0, 0.059054554815286674
382.0, 0.06843771982853729
383.0, 0.07705316593027381
384.0, 0.08969926618020208
385.0, 0.10296550278105866
386.0, 0.1157720966077381
387.0, 0.13096746846681875
388.0, 0.14709367894342565
389.0, 0.1671950180176483
390.0, 0.19095299762086956
391.0, 0.21500340238060744
392.0, 0.23589422960527492
393.0, 0.2571267421674043
394.0, 0.27932268233407936
395.0, 0.3022669959190529
396.0, 0.3237476630687059
397.0, 0.3392350580176772
398.0, 0.3528208114881108
399.0, 0.36240716502423964
400.0, 0.3641072168895587
401.0, 0.35695175407439944
402.0, 0.34547905911957666
403.0, 0.32546540075333225
404.0, 0.30417177870443707
405.0, 0.28267051728787546
406.0, 0.2608067961147492
407.0, 0.2414909390798133
408.0, 0.2233950524081244
409.0, 0.2071939714308511
410.0, 0.1930390656798574
411.0, 0.18087778596662116
412.0, 0.17016715533730728
413.0, 0.15893727314551812
414.0, 0.14905465789782726
415.0, 0.14121185673954323
416.0, 0.13329461193758294
417.0, 0.12229287052928142
418.0, 0.11685122649732967
419.0, 0.10813136424697622
420.0, 0.09858241328033734
421.0, 0.09241122482574456
422.0, 0.08696305604479906
423.0, 0.08272510687644573
424.0, 0.07567359133524067
425.0, 0.06966733268183296
426.0, 0.0672544302031392
427.0, 0.06373548911237444
428.0, 0.06157807737096565
429.0, 0.05756208484889913
430.0, 0.05516177242175603
431.0, 0.05643383483098809
432.0, 0.05556079470658736
433.0, 0.05260657143060807
434.0, 0.04995845225452499
435.0, 0.051219914261737144
436.0, 0.05469579178111233
437.0, 0.052244476798649714
438.0, 0.05388290425632748
439.0, 0.0563928466376656
440.0, 0.05688419582686339
441.0, 0.056961143281305054
442.0, 0.06156963433071901
443.0, 0.06725548142194007
444.0, 0.07032716447637391
445.0, 0.07327366276423873
446.0, 0.07768299951531539
447.0, 0.08182688813819704
448.0, 0.08780411865329946
449.0, 0.09657761515202493
450.0, 0.10553771436494794
451.0, 0.11414772558625054
452.0, 0.12437743730083949
453.0, 0.13186151139681818
454.0, 0.13935613365924188
455.0, 0.14550997914532687
456.0, 0.14965065123910287
457.0, 0.15354522127555245
458.0, 0.15865339161253622
459.0, 0.16291023546403677
460.0, 0.16496124945737825
461.0, 0.1622460541147602
462.0, 0.15400199239717138
463.0, 0.14672332019210152
464.0, 0.1385599710069281
465.0, 0.12574977202440715
466.0, 0.11076143908495664
467.0, 0.0969199848479753
468.0, 0.07941509087457704
469.0, 0.06873523023080014
470.0, 0.05901364865959708
471.0, 0.04748514568108817
472.0, 0.036746633892260176
473.0, 0.030479566700105914
474.0, 0.025788415582860817
475.0, 0.018676161888884112
476.0, 0.013334091111558121
477.0, 0.011291035544296288
478.0, 0.005823682753752144
479.0, 0.0031288720856389937
480.0, 0.0014521797565414107
481.0, 0.0013514331415168425
482.0, 0.0013941656707212114
483.0, 0.0008510494665464626
484.0, 0.0008757310443638023
485.0, 0.000543119226311619
486.0, 0.0013055126295580298
487.0, 0.0008752425825676916
488.0, 0.0017607164816351522
489.0, 0.0016506441439637822
490.0, 0.0005333639274718027
491.0, 0.0033465580562939924
492.0, 0.004959505489403218
493.0, 0.008309147110516264
494.0, 0.011698179107239455
495.0, 0.015139582966819115
496.0, 0.02095342153682196
497.0, 0.026592405081023347
498.0, 0.030272443905244553
499.0, 0.035770495059797666
500.0, 0.04094380907599167
501.0, 0.0474695770746334
502.0, 0.0543897407034279
503.0, 0.06020566583776107
504.0, 0.06445878136630967
505.0, 0.07358083217959795
506.0, 0.08120460054691976
507.0, 0.0874264093770653
508.0, 0.09367506087074332
509.0, 0.10009612890008841
510.0, 0.10472905336290342
511.0, 0.11346116981654719
512.0, 0.12014713539638494
513.0, 0.12423532882926837
514.0, 0.12873406370645016
515.0, 0.1321695399034794
516.0, 0.13485485364943167
517.0, 0.1368615467022835
518.0, 0.1384309223043341
519.0, 0.13832253987419435
520.0, 0.1342648786707754
521.0, 0.1306246290177452
522.0, 0.12665130753428322
523.0, 0.12152364018375016
524.0, 0.1151310317211463
525.0, 0.10827123316531764
526.0, 0.1021176777595157
527.0, 0.09683935133668546
528.0, 0.08971428806623084
529.0, 0.08086417910676148
530.0, 0.07232527401505867
531.0, 0.0658099680398051
532.0, 0.059791962955643034
533.0, 0.054566801725564676
534.0, 0.0494795525232603
535.0, 0.044409438089174816
536.0, 0.039579908126616895
537.0, 0.033867420238136506
538.0, 0.03053653755673323
539.0, 0.026087704192105647
540.0, 0.021661998420349382
541.0, 0.019108536695861676
542.0, 0.014521919813169292
543.0, 0.010909295612758569
544.0, 0.009126435765185893
545.0, 0.00869566418413641
546.0, 0.008139275916508489
547.0, 0.0060194496465981046
548.0, 0.0032599896188483437
549.0, 0.0013664202883608746
550.0, 0.0018459294740406577
551.0, 0.0007745450198952078
552.0, 0.0011857397847458648
553.0, 0.0006938743058853529
554.0, 0.0016654859445429443
555.0, 0.0009586506096952723
556.0, 0.0014242085211712795
557.0, 0.0006525392641442378
558.0, 0.0012108639093990836
559.0, 0.002482831827525377
560.0, 0.0019269698574750737
561.0, 0.0014596124494073302
562.0, 0.0027941061481934156
563.0, 0.0016919441048245428
564.0, 0.002103380549206616
565.0, 0.003860056569143395
566.0, 0.002307762110436672
567.0, 0.001042630911419869
568.0, 0.0009696132645976986
569.0, 0.0019254855839625701
570.0, 0.0030436036367076417
571.0, 0.0014724463515750526
572.0, 0.0009696340382990586
573.0, 0.001837179825838392
574.0, 0.0043083084879145285
575.0, 0.004777660618095484
576.0, 0.004865337693039294
577.0, 0.0069128464075484085
578.0, 0.0074045257142093465
579.0, 0.0063859702916047294
580.0, 0.007963527175086601
581.0, 0.010763020969945292
582.0, 0.010023962671484568
583.0, 0.010169564287420104
584.0, 0.012346578256586478
585.0, 0.01435655014619702
586.0, 0.014040559747514076
587.0, 0.014524724440743151
588.0, 0.014783003907382769
589.0, 0.01598159070374895
590.0, 0.01702753977616016
591.0, 0.01671564312310859
592.0, 0.017600929630409174
593.0, 0.018429049347197936
594.0, 0.0209152752779004
595.0, 0.022784579127761728
596.0, 0.02297121339683502
597.0, 0.023227007366317564
598.0, 0.024685520293825838
599.0, 0.025566708226279218
600.0, 0.023611844237574234
601.0, 0.023947357407752785
602.0, 0.028226366844477786
603.0, 0.028904647567611342
604.0, 0.027437609958853967
605.0, 0.03035451828013232
606.0, 0.030160297155536506
607.0, 0.027772823064514035
608.0, 0.029427555663494833
609.0, 0.032699264608034996
610.0, 0.02834550264243123
611.0, 0.029625814132620266
612.0, 0.03229296276577075
613.0, 0.03308141530389594
614.0, 0.032953672882367946
615.0, 0.030110810879011036
616.0, 0.027506853248094775
617.0, 0.028779933117262176
618.0, 0.02942054999531484
619.0, 0.027758121914980654
620.0, 0.027366810770357384
621.0, 0.026006501264247285
622.0, 0.025740191875961955
623.0, 0.02661560340833892
624.0, 0.027353614455225158
625.0, 0.027552250236272197
626.0, 0.02795170469665527
627.0, 0.02486505345764668
628.0, 0.0236067226120065
629.0, 0.022348254081312798
630.0, 0.02202002978633125
631.0, 0.022638238610658033
632.0, 0.020225121602376286
633.0, 0.022175454706733384
634.0, 0.020208595538480867
635.0, 0.019958229442856138
636.0, 0.022006273223968736
637.0, 0.021782591895176836
638.0, 0.018847087970813584
639.0, 0.02004138222602556
640.0, 0.020014366421355116
641.0, 0.018739677021354616
642.0, 0.0174504864664174
643.0, 0.016443631480901114
644.0, 0.015604894994526006
645.0, 0.015884907158485215
646.0, 0.015177390768306362
647.0, 0.01614910074263733
648.0, 0.01780550492989569
649.0, 0.01704082222488042
650.0, 0.01656421026114914
651.0, 0.01627862909753603
652.0, 0.01566989348808552
653.0, 0.01380341686216509
654.0, 0.012443552385875667
655.0, 0.012864569292105112
656.0, 0.008635240482217525
657.0, 0.01111918892667949
658.0, 0.01277550678928512
659.0, 0.012621627031159145
660.0, 0.010981171867137802
661.0, 0.008068115306640556
662.0, 0.00775429546993491
663.0, 0.006327416986854521
664.0, 0.007293245229504918
665.0, 0.006934005875905172
666.0, 0.005210899074431037
667.0, 0.005619572893408986
668.0, 0.004607909968831687
669.0, 0.0022608604973410767
670.0, 0.0015650792904183762
671.0, 0.0031564912847011997
672.0, 0.004794385943099699
673.0, 0.003921088411121142
674.0, 0.001322326751372548
675.0, 0.002499152365244906
676.0, 0.0023138543344334256
677.0, 0.0007660141733817808
678.0, 0.001201906773016396
679.0, 0.000957377189308743
680.0, 0.001961139898214903
681.0, 0.0013803239397004166
682.0, 0.0007279263077548395
683.0, 0.002636829631302899
684.0, 0.003271328565505551
685.0, 0.0012166701865332723
686.0, 0.0026003733276830313
687.0, 0.0012367653050314037
688.0, 0.0020307942539590897
689.0, 0.0010324821780578525
690.0, 0.0012664564688627238
691.0, 0.001268881028919191
692.0, 0.004990425730881461
693.0, 0.0029642253333295675
694.0, 0.00268701707380508
695.0, 0.004612425228744301
696.0, 0.004576133215328971
697.0, 0.001607949143198914
698.0, 0.0022331709685753367
699.0, 0.004128187194499992
700.0, 0.00270703710410644
701.0, 0.0021196626065388504
702.0, 0.001232558455474993
703.0, 0.0009293706793925963
704.0, 0.004371602848180141
705.0, 0.0038039689492275447
706.0, 0.00568751899980343
707.0, 0.005481150841965439
708.0, 0.00497841447750283
709.0, 0.005724101620523555
710.0, 0.005889398532911467
711.0, 0.006058251344810431
712.0, 0.007433709758386766
713.0, 0.005573671200771331
714.0, 0.00472361418122273
715.0, 0.005498103232168492
716.0, 0.00441067249359395
717.0, 0.003502157517898484
718.0, 0.008443868615625351
719.0, 0.008940645974129793
720.0, 0.006594752233982348
721.0, 0.004934196614316854
722.0, 0.005590089492184763
723.0, 0.010221743641861973
724.0, 0.009791445573613859
725.0, 0.009753612395649848
726.0, 0.009689876450799929
727.0, 0.00677756904435374
728.0, 0.004293048116362731
729.0, 0.0073070951909810986
730.0, 0.009980557609140312
731.0, 0.010343599020209922
732.0, 0.01022728616180175
733.0, 0.010060200995576755
734.0, 0.009704364472241597
735.0, 0.009684123133500429
736.0, 0.010962589007184474
737.0, 0.010196106928404409
738.0, 0.008641247970873733
739.0, 0.008722878475500006
740.0, 0.010617631935658668
741.0, 0.011458515993858153
742.0, 0.00944208166611121
743.0, 0.011007274041005878
744.0, 0.009663092778678791
745.0, 0.008894002352031027
746.0, 0.009375088876199882
747.0, 0.008756602874394337
748.0, 0.00641738218139381
749.0, 0.007913458044833538
750.0, 0.009844159352094844
751.0, 0.010482349523315873
752.0, 0.009480052439867619
753.0, 0.007234201450076144
754.0, 0.005951535914888556
755.0, 0.007385674801254263
756.0, 0.007552278481997165
757.0, 0.008530640726387742
758.0, 0.009424496343524375
759.0, 0.008731616970636126
760.0, 0.006612316654683456
761.0, 0.004297403021860135
762.0, 0.0026925283532218255
763.0, 0.0037192912952926553
764.0, 0.0018442022998476275
765.0, 0.002630842881473721
766.0, 0.004039790687773671
767.0, 0.0031700949054788243
768.0, 0.0033302741256091956
769.0, 0.003795047335234517
770.0, 0.0031572847587540546
771.0, 0.003828017908369991
772.0, 0.0048126430767046575
773.0, 0.0037102265087719543
774.0, 0.0008122158901035816
775.0, 0.002717871083500498
776.0, 0.003142584403981403
777.0, 0.0015589570004298557
778.0, 0.003048476763580529
779.0, 0.001996937995431717
780.0, 0.00392809579594701
781.0, 0.0028174726319608817
782.0, 0.000961273647160465
783.0, 0.0010614682153169991
784.0, 0.0023094867836721622
785.0, 0.0028790444078673934
786.0, 0.0031554139750462136
787.0, 0.0035826675000738355
788.0, 0.0034164116061866892
789.0, 0.004054548653836286
790.0, 0.004467945144979705
791.0, 0.0033971778279561814
792.0, 0.0020582293909400156
793.0, 0.002657359264405318
794.0, 0.0032165967584378025
795.0, 0.0007862308129313822
796.0, 0.004696420208330961
797.0, 0.005524412284773291
798.0, 0.004132608995437175
799.0, 0.005743706361453366
800.0, 0.006753862269730643
801.0, 0.0038561314135265525
802.0, 0.006578614125643311
803.0, 0.0067512480039773025
804.0, 0.0073285450354403404
805.0, 0.0073905989755504355
806.0, 0.008219054140459437
807.0, 0.010526067006462187
808.0, 0.01227041285762099
809.0, 0.012287511226926789
810.0, 0.013704634936567673
811.0, 0.013582370141214217
812.0, 0.01368639425081828
813.0, 0.014842163445218704
814.0, 0.015451818543355166
815.0, 0.014780692463217848
816.0, 0.016414217942912975
817.0, 0.016632359636835257
818.0, 0.018133186984733242
819.0, 0.02070206244005023
820.0, 0.021237828941863292
821.0, 0.02008702887691396
822.0, 0.021084989804328436
823.0, 0.0217783777317607
824.0, 0.017197146319928556
825.0, 0.016776692323886934
826.0, 0.019388448304121664
827.0, 0.020799624280502013
828.0, 0.019932427331590792
829.0, 0.018314166288290027
830.0, 0.017671425291950534
831.0, 0.01748791270387132
832.0, 0.015535781163824338
833.0, 0.01453704017978767
834.0, 0.014399710770355399
835.0, 0.013716623098043343
836.0, 0.012512311497051091
837.0, 0.010089224578670293
838.0, 0.009616163400289052
839.0, 0.009607266778708387
840.0, 0.010957749915127634
841.0, 0.010073525602960693
842.0, 0.008488410569030635
843.0, 0.010595102448412318
844.0, 0.010184186039912547
845.0, 0.010062870352116355
846.0, 0.008673185819567877
847.0, 0.008147292300975445
848.0, 0.007359656699771721
849.0, 0.005425512303598827
850.0, 0.005116938434852375
851.0, 0.007699018657759297
852.0, 0.008157736832022963
853.0, 0.006480204952434038
854.0, 0.008499822483070286
855.0, 0.008168860457487936
856.0, 0.005131410969908409
857.0, 0.004313447852544034
858.0, 0.004673127641752409
859.0, 0.004238144291458118
860.0, 0.0048354855702119675
861.0, 0.005082764946600906
862.0, 0.0035692405119157615
863.0, 0.001972099455936199
864.0, 0.002367872849029536
865.0, 0.00392445015966903
866.0, 0.005370431654770795
867.0, 0.006374944306579524
868.0, 0.00515725799507954
869.0, 0.0026124580581691585
870.0, 0.0007598647749771457
871.0, 0.00104180018934662
872.0, 0.0026478965346093905
873.0, 0.0023098474924807305
874.0, 0.0011293606070748668
875.0, 0.0025795961202585956
876.0, 0.0014401464737024275
877.0, 0.0012918671725160454
878.0, 0.0018162345739749825
879.0, 0.0017780749677854218
880.0, 0.006518890182855863
881.0, 0.0017150001207754206
882.0, 0.002385545186159768
883.0, 0.0020544578318839467
884.0, 0.0021879719345963165
885.0, 0.001437009012459762
886.0, 0.0020878686149043545
887.0, 0.003591035072765693
888.0, 0.0021240878319476104
889.0, 0.0037933108243850843
890.0, 0.0031644427746642463
891.0, 0.0017334094283764352
892.0, 0.0017771201453148932
893.0, 0.0028890810383069196
894.0, 0.0029274997900349056
895.0, 0.0011081604881836536
896.0, 0.0033261607575759394
897.0, 0.0007456486381999144
898.0, 0.0008431556096482051
899.0, 0.0009516621914055751
900.0, 0.002864512630415555
901.0, 0.005669552522966476
902.0, 0.0011989749123437032
903.0, 0.0034520967252470143
904.0, 0.0020821511467059486
905.0, 0.002877781119055366
906.0, 0.003215455635282802
907.0, 0.002117749894404508
908.0, 0.003004929365342081
909.0, 0.0018458919655344255
910.0, 0.000668965895847944
911.0, 0.0017945351904588081
912.0, 0.003571477563964275
913.0, 0.002710032524754437
914.0, 0.00279709489101142
915.0, 0.0019426432597563071
916.0, 0.0016542499964030894
917.0, 0.004593378247654168
918.0, 0.00343051764427145
919.0, 0.0012769490919091729
920.0, 0.004621737275543301
921.0, 0.004552460030290461
922.0, 0.005326814105971262
923.0, 0.0032083813644785838
924.0, 0.001810917373690144
925.0, 0.0033501218613108206
926.0, 0.0020008528812403867
927.0, 0.002811527179037087
928.0, 0.004647845161050506
929.0, 0.003051659302002306
930.0, 0.002992067094389378
931.0, 0.003975731129424887
932.0, 0.00310095795980428
933.0, 0.0028437609934573813
934.0, 0.0024919559865878957
935.0, 0.0034426057364626214
936.0, 0.003817461652132911
937.0, 0.003935923470738971
938.0, 0.0040689754225656455
939.0, 0.0046227447245882234
940.0, 0.005301990570112882
941.0, 0.005241518833569354
942.0, 0.006158103502160663
943.0, 0.004787036722128991
944.0, 0.0038934796477253387
945.0, 0.0035897888395486533
946.0, 0.005303132075088766
947.0, 0.00608479260493503
948.0, 0.005138931289614342
949.0, 0.006534164448596987
950.0, 0.004328342404443988
951.0, 0.0023757286061743157
952.0, 0.004797910116798863
953.0, 0.004837938178951922
954.0, 0.005838907652827654
955.0, 0.00633917576077487
956.0, 0.005336217295483648
957.0, 0.0075961435777157265
958.0, 0.006245306935635097
959.0, 0.006097091348607483
960.0, 0.005577810545884269
961.0, 0.002846599872165826
962.0, 0.0030843632120808803
963.0, 0.006429033731981623
964.0, 0.007941304615267071
965.0, 0.006228096079416219
966.0, 0.007476436981186775
967.0, 0.004251364654750294
968.0, 0.007715232305299784
969.0, 0.005210166515641587
970.0, 0.004566288978293956
971.0, 0.004362556422486226
972.0, 0.0014981566925030554
973.0, 0.0016192845026119225
974.0, 0.004347791250026742
975.0, 0.005723397956971025
976.0, 0.006553318614197631
977.0, 0.006432593035510738
978.0, 0.005509063574014345
979.0, 0.006326589672687105
980.0, 0.006595595825603252
981.0, 0.005684688268870004
982.0, 0.008580968961865252
983.0, 0.006454954882320034
984.0, 0.006608863658491696
985.0, 0.00655636017609843
986.0, 0.005724491721371665
987.0, 0.006242809011868545
988.0, 0.005791895424982665
989.0, 0.004003889652311363
990.0, 0.0043832448913289175
991.0, 0.004095378145405143
992.0, 0.005043364924242268
993.0, 0.0035132713708091712
994.0, 0.006227229371042227
995.0, 0.007013413905129712
996.0, 0.003982626655658527
997.0, 0.002008833383663419
998.0, 0.002382576724759092
999.0, 0.001851073324442359
1000.0, 0.003167036802066238
1001.0, 0.0016148292921306672
1002.0, 0.0009244108374514712
1003.0, 0.0013273287762506545
1004.0, 0.002590226320877922
1005.0, 0.004788770601750931
1006.0, 0.005419798144081785
1007.0, 0.0041921420728090394
1008.0, 0.0040068165255034375
1009.0, 0.0027653021983734985
1010.0, 0.0009835512434302849
1011.0, 0.0010277762378102632
1012.0, 0.0007439607279217991
1013.0, 0.001219796816441353
1014.0, 0.002006918454107481
1015.0, 0.0035072839175037417
1016.0, 0.0057662876188323475
1017.0, 0.00466641522458854
1018.0, 0.0033992962189281846
1019.0, 0.005155849517799482
1020.0, 0.002066935057475221
1021.0, 0.0008435363695609081
1022.0, 0.001416902676147878
1023.0, 0.003188047821893845
1024.0, 0.004439578720191761
1025.0, 0.003930352171489033
1026.0, 0.004416934126014299
1027.0, 0.003940655438374773
1028.0, 0.0033294502117735413
1029.0, 0.003597400243693518
1030.0, 0.0030456387650928357
1031.0, 0.0028362290029579898
1032.0, 0.003152595077219702
1033.0, 0.0035097754404818673
1034.0, 0.004932901444555966
1035.0, 0.0031000042016308214
1036.0, 0.00164172763011326
1037.0, 0.004549068466199049
1038.0, 0.0072727013791305025
1039.0, 0.005640008186618904
1040.0, 0.003466326379359262
1041.0, 0.0038726336930087917
1042.0, 0.004647721876203065
1043.0, 0.003332482143809526
1044.0, 0.0018480524266305256
1045.0, 0.003026863859258931
1046.0, 0.0035792749531498077
1047.0, 0.0035739145446148815
1048.0, 0.002747900864180476
1049.0, 0.002465552693837819
1050.0, 0.0029644664788335585
1051.0, 0.002863340872296015
1052.0, 0.0016109984598403025
1053.0, 0.0006327256664812298
1054.0, 0.0015153581917811657
1055.0, 0.0022581895877788055
1056.0, 0.0034887028448147292
1057.0, 0.001739440227169407
1058.0, 0.0008953877482299592
1059.0, 0.0016262272630361756
1060.0, 0.002446726594719866
1061.0, 0.0035758963899527882
1062.0, 0.002762785451282167
1063.0, 0.0025500654873379614
1064.0, 0.004812459411265004
1065.0, 0.0017466653830175234
1066.0, 0.0016667423755717923
1067.0, 0.002794641530581416
1068.0, 0.0021499523220813057
1069.0, 0.0012912145581532358
1070.0, 0.00163867543486131
1071.0, 0.003760891821489992
1072.0, 0.00364957306531393
1073.0, 0.0024245772757767463
1074.0, 0.0013448736392152544
1075.0, 0.0047050419240703524
1076.0, 0.0043497065968328705
1077.0, 0.002654957376875125
1078.0, 0.0031368147470889392
1079.0, 0.0027240691316930757
1080.0, 0.0010588778396042912
1081.0, 0.0017461757309952058
1082.0, 0.0007616547100685791
1083.0, 0.0034692259887849543
1084.0, 0.0006331797525998124
1085.0, 0.0023286030333093057
1086.0, 0.004050579238716625
1087.0, 0.002938427855501164
1088.0, 0.0013637262301903312
1089.0, 0.001175436256361179
1090.0, 0.0013135918766889884
1091.0, 0.0012730542668717233
1092.0, 0.0020394873072370466
1093.0, 0.0035891205796633728
1094.0, 0.003181450895915471
1095.0, 0.003551256506596543
1096.0, 0.0017127805441813468
1097.0, 0.0016164773786877234
1098.0, 0.002556556504252257
1099.0, 0.0006869483868249618
1100.0, 0.001327895285982165
1101.0, 0.0021142970675181194
1102.0, 0.0007574088385389774
1103.0, 0.001048060106781147
1104.0, 0.0009690886858895644
1105.0, 0.001293618834041993
1106.0, 0.0011997099560456194
1107.0, 0.0017720023644332724
1108.0, 0.00369136968373188
1109.0, 0.003703049084166166
1110.0, 0.004262394334240353
1111.0, 0.001282830150665474
1112.0, 0.005048430538272352
1113.0, 0.004467676123165479
1114.0, 0.004451889643231766
1115.0, 0.00478215969808413
1116.0, 0.0028123547859070725
1117.0, 0.0010615510528692914
1118.0, 0.0009283459184013054
1119.0, 0.0013483742419653165
1120.0, 0.0027703907112353477
1121.0, 0.003097285581694002
1122.0, 0.0008314848943159377
1123.0, 0.0028312340242515176
1124.0, 0.002303514273330676
1125.0, 0.0038925514558798917
1126.0, 0.005519413218798739
1127.0, 0.003962876376172897
1128.0, 0.001990821469490785
1129.0, 0.0016605861220811385
1130.0, 0.0012184512880922304
1131.0, 0.0016898139268147411
1132.0, 0.0015468790629122355
1133.0, 0.002933430897976772
1134.0, 0.003042254890682767
1135.0, 0.003199557085342079
1136.0, 0.004473007658838419
1137.0, 0.004353119096208771
1138.0, 0.003810528196566345
1139.0, 0.005044141615314672
1140.0, 0.005643915061376896
1141.0, 0.004052890739853001
1142.0, 0.006878964696392037
1143.0, 0.005513403983700012
1144.0, 0.005011148833002723
1145.0, 0.00549772243933138
1146.0, 0.003830200373071709
1147.0, 0.0019226392804575015
1148.0, 0.002378630358127892
1149.0, 0.0026808089861965682
1150.0, 0.0025460767079059916
1151.0, 0.003546268245338203
1152.0, 0.003922884144437479
1153.0, 0.005134501827050049
1154.0, 0.002407387047529546
1155.0, 0.003223730171526434
1156.0, 0.0029276231536220143
1157.0, 0.0020040977946116944
1158.0, 0.0032244223256804785
1159.0, 0.002281282338269634
1160.0, 0.003498563872986852
1161.0, 0.005974395261762928
1162.0, 0.003795792203670746
1163.0, 0.0052255289301128644
1164.0, 0.01118931113866212
1165.0, 0.006434830590563062
1166.0, 0.00335961323616337
1167.0, 0.0053436378407219955
1168.0, 0.005123012185558079
1169.0, 0.003941832615189373
1170.0, 0.0024605140488915696
1171.0, 0.0018007608725009276
1172.0, 0.003249489359662259
1173.0, 0.004340677789851633
1174.0, 0.0026985184072620175
1175.0, 0.0016057602084619306
1176.0, 0.0028153703008081173
1177.0, 0.006905313480071181
1178.0, 0.004866971088847193
1179.0, 0.004380722606484549
1180.0, 0.004082395261447596
1181.0, 0.003832642055989954
1182.0, 0.0038664772747707007
1183.0, 0.004431669431845954
1184.0, 0.005088626798456003
1185.0, 0.004051957322816375
1186.0, 0.003042679743103182
1187.0, 0.00566717727065531
1188.0, 0.0037198622192003957
1189.0, 0.003863458854992653
1190.0, 0.002723581208042897
1191.0, 0.004829884343519515
1192.0, 0.003236329151676889
1193.0, 0.004914027608898265
1194.0, 0.005879567719457895
1195.0, 0.004130976106794986
1196.0, 0.004814886320373137
1197.0, 0.003078220941722327
1198.0, 0.000818914164139071
1199.0, 0.002896225194541501
1200.0, 0.003920670743949409
1201.0, 0.004041902112057054
1202.0, 0.0016270592893780037
1203.0, 0.0040354383582845
1204.0, 0.004383951472829298
1205.0, 0.0017178528042865466
1206.0, 0.0016701813545938107
1207.0, 0.0018284069497967802
1208.0, 0.0015104922865730908
1209.0, 0.0037293226135618994
1210.0, 0.001953276646794051
1211.0, 0.0044859077909478184
1212.0, 0.004737424767189417
1213.0, 0.0030714695999639096
1214.0, 0.0017718388321265022
1215.0, 0.00276499175775315
1216.0, 0.002820662497477826
1217.0, 0.000887271199243216
1218.0, 0.002898687909851566
1219.0, 0.005402259277894582
1220.0, 0.0031008596182845786
1221.0, 0.002913075453193393
1222.0, 0.003281405497956577
1223.0, 0.0036011658381516266
1224.0, 0.0034449995960404876
1225.0, 0.0032498923219543723
1226.0, 0.001883064062198865
1227.0, 0.0027560389171243345
1228.0, 0.0029256797414670297
1229.0, 0.0012800148670274528
1230.0, 0.003126823036554916
1231.0, 0.004885618647743325
1232.0, 0.004509903463178166
1233.0, 0.0037211752294768435
1234.0, 0.0027557096786554503
1235.0, 0.0031767636952716423
1236.0, 0.005646138348670796
1237.0, 0.0028477727887207733
1238.0, 0.004208028432424804
1239.0, 0.003580284892859693
1240.0, 0.0012366319013224077
1241.0, 0.003592276826991656
1242.0, 0.0054131314557351005
1243.0, 0.005465142482730804
1244.0, 0.003268280869542086
1245.0, 0.0007842956212876232
1246.0, 0.0015170433328956052
1247.0, 0.0044910920727697
1248.0, 0.006067504390587217
1249.0, 0.0011366774662452106
1250.0, 0.0016309278041717298
1251.0, 0.0035921076052341694
1252.0, 0.004231775457681788
1253.0, 0.00474504498999214
1254.0, 0.0036077694242177796
1255.0, 0.003192046319956338
1256.0, 0.0029618820544634493
1257.0, 0.0039666815506870165
1258.0, 0.005045209792930587
1259.0, 0.0039031101774063843
1260.0, 0.003320996151883099
1261.0, 0.003090985120125118
1262.0, 0.0038711355980417753
1263.0, 0.003924637483669409
1264.0, 0.003382804755424553
1265.0, 0.0060219424378362245
1266.0, 0.003959779453688081
1267.0, 0.003895312910038814
1268.0, 0.004705802175129383
1269.0, 0.003987497258146888
1270.0, 0.004407978757329035
1271.0, 0.006099601204542628
1272.0, 0.006443602875582556
1273.0, 0.004818585413993681
1274.0, 0.003617343894164558
1275.0, 0.0059416614767107915
1276.0, 0.006982393417546071
1277.0, 0.0043668153581531395
1278.0, 0.0023140060389959757
1279.0, 0.002442664007256196
1280.0, 0.0020214991406251864
1281.0, 0.0024214670125377535
1282.0, 0.00615457779541128
1283.0, 0.005663038641093627
1284.0, 0.006819125275907519
1285.0, 0.008713314697912483
1286.0, 0.004499494876210397
1287.0, 0.0017183010263506807
1288.0, 0.004529119349570486
1289.0, 0.0023256484742805133
1290.0, 0.003332525347574193
1291.0, 0.00271964338585569
1292.0, 0.0026006775353626306
1293.0, 0.004369270344842353
1294.0, 0.0043758170117217405
1295.0, 0.005507959569361854
1296.0, 0.0026681508904710352
1297.0, 0.0036484510729335464
1298.0, 0.0029769758968712463
1299.0, 0.0011134353007268797
1300.0, 0.0014651614196264106
1301.0, 0.002236969632195038
1302.0, 0.0033074614866460176
1303.0, 0.002363707806080417
1304.0, 0.0007866563897127476
1305.0, 0.0006292497928626636
1306, 0.0
1307, 0.0
1308, 0.0
1309, 0.0
1310, 0.0
1311, 0.0
1312, 0.0
1313, 0.0
1314, 0.0
1315, 0.0
1316, 0.0
1317, 0.0
1318, 0.0
1319, 0.0
1320, 0.0
1321, 0.0
1322, 0.0
1323, 0.0
1324, 0.0
1325, 0.0
1326, 0.0
1327, 0.0
1328, 0.0
1329, 0.0
1330, 0.0
1331, 0.0
1332, 0.0
1333, 0.0
1334, 0.0
1335, 0.0
1336, 0.0
1337, 0.0
1338, 0.0
1339, 0.0
1340, 0.0
1341, 0.0
1342, 0.0
1343, 0.0
1344, 0.0
1345, 0.0
1346, 0.0
1347, 0.0
1348, 0.0
1349, 0.0
1350, 0.0
1351, 0.0
1352, 0.0
1353, 0.0
1354, 0.0
1355, 0.0
1356, 0.0
1357, 0.0
1358, 0.0
1359, 0.0
1360, 0.0
1361, 0.0
1362, 0.0
1363, 0.0
1364, 0.0
1365, 0.0
1366, 0.0
1367, 0.0
1368, 0.0
1369, 0.0
1370, 0.0
1371, 0.0
1372, 0.0
1373, 0.0
1374, 0.0
1375, 0.0
1376, 0.0
1377, 0.0
1378, 0.0
1379, 0.0
1380, 0.0
1381, 0.0
1382, 0.0
1383, 0.0
1384, 0.0
1385, 0.0
1386, 0.0
1387, 0.0
1388, 0.0
1389, 0.0
1390, 0.0
1391, 0.0
1392, 0.0
1393, 0.0
1394, 0.0
1395, 0.0
1396, 0.0
1397, 0.0
1398, 0.0
1399, 0.0
1400, 0.0
1401, 0.0
1402, 0.0
1403, 0.0
1404, 0.0
1405, 0.0
1406, 0.0
1407, 0.0
1408, 0.0
1409, 0.0
1410, 0.0
1411, 0.0
1412, 0.0
1413, 0.0
1414, 0.0
1415, 0.0
1416, 0.0
1417, 0.0
1418, 0.0
1419, 0.0
1420, 0.0
1421, 0.0
1422, 0.0
1423, 0.0
1424, 0.0
1425, 0.0
1426, 0.0
1427, 0.0
1428, 0.0
1429, 0.0
1430, 0.0
1431, 0.0
1432, 0.0
1433, 0.0
1434, 0.0
1435, 0.0
1436, 0.0
1437, 0.0
1438, 0.0
1439, 0.0
1440, 0.0
1441, 0.0
1442, 0.0
1443, 0.0
1444, 0.0
1445, 0.0
1446, 0.0
1447, 0.0
1448, 0.0
1449, 0.0
1450, 0.0
1451, 0.0
1452, 0.0
1453, 0.0
1454, 0.0
1455, 0.0
1456, 0.0
1457, 0.0
1458, 0.0
1459, 0.0
1460, 0.0
1461, 0.0
1462, 0.0
1463, 0.0
1464, 0.0
1465, 0.0
1466, 0.0
1467, 0.0
1468, 0.0
1469, 0.0
1470, 0.0
1471, 0.0
1472, 0.0
1473, 0.0
1474, 0.0
1475, 0.0
1476, 0.0
1477, 0.0
1478, 0.0
1479, 0.0
1480, 0.0
1481, 0.0
1482, 0.0
1483, 0.0
1484, 0.0
1485, 0.0
1486, 0.0
1487, 0.0
1488, 0.0
1489, 0.0
1490, 0.0
1491, 0.0
1492, 0.0
1493, 0.0
1494, 0.0
1495, 0.0
1496, 0.0
1497, 0.0
1498, 0.0
1499, 0.0
1500, 0.0
1501, 0.0
1502, 0.0
1503, 0.0
1504, 0.0
1505, 0.0
1506, 0.0
1507, 0.0
1508, 0.0
1509, 0.0
1510, 0.0
1511, 0.0
1512, 0.0
1513, 0.0
1514, 0.0
1515, 0.0
1516, 0.0
1517, 0.0
1518, 0.0
1519, 0.0
1520, 0.0
1521, 0.0
1522, 0.0
1523, 0.0
1524, 0.0
1525, 0.0
1526, 0.0
1527, 0.0
1528, 0.0
1529, 0.0
1530, 0.0
1531, 0.0
1532, 0.0
1533, 0.0
1534, 0.0
1535, 0.0
1536, 0.0
1537, 0.0
1538, 0.0
1539, 0.0
1540, 0.0
1541, 0.0
1542, 0.0
1543, 0.0
1544, 0.0
1545, 0.0
1546, 0.0
1547, 0.0
1548, 0.0
1549, 0.0
1550, 0.0
1551, 0.0
1552, 0.0
1553, 0.0
1554, 0.0
1555, 0.0
1556, 0.0
1557, 0.0
1558, 0.0
1559, 0.0
1560, 0.0
1561, 0.0
1562, 0.0
1563, 0.0
1564, 0.0
1565, 0.0
1566, 0.0
1567, 0.0
1568, 0.0
1569, 0.0
1570, 0.0
1571, 0.0
1572, 0.0
1573, 0.0
1574, 0.0
1575, 0.0
1576, 0.0
1577, 0.0
1578, 0.0
1579, 0.0
1580, 0.0
1581, 0.0
1582, 0.0
1583, 0.0
1584, 0.0
1585, 0.0
1586, 0.0
1587, 0.0
1588, 0.0
1589, 0.0
1590, 0.0
1591, 0.0
1592, 0.0
1593, 0.0
1594, 0.0
1595, 0.0
1596, 0.0
1597, 0.0
1598, 0.0
1599, 0.0
