30, 0.0
31, 0.0
32, 0.0
33, 0.0
34, 0.0
35, 0.0
36, 0.0
37, 0.0
38, 0.0
39, 0.0
40, 0.0
41, 0.0
42, 0.0
43, 0.0
44, 0.0
45, 0.0
46, 0.0
47, 0.0
48, 0.0
49, 0.0
50, 0.0
51, 0.0
52, 0.0
53, 0.0
54, 0.0
55, 0.0
56, 0.0
57, 0.0
58, 0.0
59, 0.0
60, 0.0
61, 0.0
62, 0.0
63, 0.0
64, 0.0
65, 0.0
66, 0.0
67, 0.0
68, 0.0
69, 0.0
70, 0.0
71, 0.0
72, 0.0
73, 0.0
74, 0.0
75, 0.0
76, 0.0
77, 0.0
78, 0.0
79, 0.0
80, 0.0
81, 0.0
82, 0.0
83, 0.0
84, 0.0
85, 0.0
86, 0.0
87, 0.0
88, 0.0
89, 0.0
90, 0.0
91, 0.0
92, 0.0
93, 0.0
94, 0.0
95, 0.0
96, 0.0
97, 0.0
98, 0.0
99, 0.0
100, 0.0
101, 0.0
102, 0.0
103, 0.0
104, 0.0
105, 0.0
106, 0.0
107, 0.0
108, 0.0
109, 0.0
110, 0.0
111, 0.0
112, 0.0
113, 0.0
114, 0.0
115, 0.0
116, 0.0
117, 0.0
118, 0.0
119, 0.0
120, 0.0
121, 0.0
122, 0.0
123, 0.0
124, 0.0
125, 0.0
126, 0.0
127, 0.0
128.0, 5.888020323871224e-05
129.0, 0.0007862427977865342
130.0, 0.00032156394365254925
131.0, 0.0014581296006381111
132.0, 0.005364617235475669
133.0, 0.009437096964407997
134.0, 0.011133551852408762
135.0, 0.01084288823197345
136.0, 0.0077260880937213465
137.0, 0.005298848938746723
138.0, 0.005311509891445984
139.0, 0.0028542357877810558
140.0, 0.0008904931110031754
141.0, 0.0014631800139323515
142.0, 0.007634743716108688
143.0, 0.01457729295596931
144.0, 0.02351305735119972
145.0, 0.02996173052365501
146.0, 0.03843729556470755
147.0, 0.05296289921557496
148.0, 0.06805232490906421
149.0, 0.07884342797281448
150.0, 0.08834186746331013
151.0, 0.09774954490128943
152.0, 0.10447783235950388
153.0, 0.10954579383301427
154.0, 0.11485785195232648
155.0, 0.11917339118951469
156.0, 0.12114859436235928
157.0, 0.125740886148768
158.0, 0.12452816158924629
159.0, 0.12322405863934001
160.0, 0.12838053800310117
161.0, 0.141239411350359
162.0, 0.14733658056242038
163.0, 0.15812909720149992
164.0, 0.17184400631297084
165.0, 0.18028280300870286
166.0, 0.18980243561408205
167.0, 0.19997948414948832
168.0, 0.21352001686221347
169.0, 0.2298347130772995
170.0, 0.24085700869431584
171.0, 0.24762090726105954
172.0, 0.2513405868239555
173.0, 0.25628308819246803
174.0, 0.266810728527332
175.0, 0.2723962158375305
176.0, 0.276971676682967
177.0, 0.2835626211898183
178.0, 0.28931592062440853
179.0, 0.287793554455543
180.0, 0.287413050459983
181.0, 0.2863374404447299
182.0, 0.28425584868106846
183.0, 0.2799776489883885
184.0, 0.2683578428547202
185.0, 0.26006487801337896
186.0, 0.24897790324186517
187.0, 0.23386797432360246
188.0, 0.22001395646047384
189.0, 0.2075191803753414
190.0, 0.2011579338804655
191.0, 0.1933112095482733
192.0, 0.17815208319187967
193.0, 0.1650250986185667
194.0, 0.15184648463758224
195.0, 0.13976742163506067
196.0, 0.1287654458598552
197.0, 0.11677905306171522
198.0, 0.10642146884778542
199.0, 0.09912801849096382
200.0, 0.09214812132779007
201.0, 0.08290217217300418
202.0, 0.0755717587968654
203.0, 0.07015425271778576
204.0, 0.06508253088823603
205.0, 0.0583163185559357
206.0, 0.0503857466460665
207.0, 0.04673038958728017
208.0, 0.04050350923055219
209.0, 0.036651426056945616
210.0, 0.03594525852362588
211.0, 0.03083586981811201
212.0, 0.02171615331915776
213.0, 0.019761716753574538
214.0, 0.019656599251830383
215.0, 0.015940475127377382
216.0, 0.015765579857081765
217.0, 0.012941467933500816
218.0, 0.011886211906870135
219.0, 0.013704870787545873
220.0, 0.01495948352770385
221.0, 0.00540582731595583
222.0, 0.0008689843123560895
223.0, 0.002681822274788957
224.0, 0.006639812830813493
225.0, 0.004518947476831122
226.0, 0.0014852571583921482
227.0, 0.002192396342064996
228.0, 0.003136029278014628
229.0, 0.0011289693287281862
230.0, 0.002368089400643113
231.0, 0.0057901709052472685
232.0, 0.006336558485719147
233.0, 0.0035649484892158042
234.0, 0.0032992558274048916
235.0, 0.003982616537970364
236.0, 0.0036732479584999154
237.0, 0.0025645057161450607
238.0, 0.0019493204673351188
239.0, 0.00228041357430322
240.0, 0.0018802715524568942
241.0, 0.0025620409175042863
242.0, 0.0017959511869786154
243.0, 0.002198239902897485
244.0, 0.00039619851782964
245.0, 0.003746173831532977
246.0, 0.004073607892918978
247.0, 0.002323766008611687
248.0, 0.0033380013379217042
249.0, 0.003545944557047209
250.0, 0.006674634020392383
251.0, 0.008986350692325533
252.0, 0.007569518700355117
253.0, 0.0029078753308238578
254.0, 0.007451726735804987
255.0, 0.00830585411487395
256.0, 0.008674306373999376
257.0, 0.012923129959698094
258.0, 0.015778282348910683
259.0, 0.012984306692793256
260.0, 0.013311368058675487
261.0, 0.016211985661373496
262.0, 0.018076656876371514
263.0, 0.02043764997373755
264.0, 0.022747639223063974
265.0, 0.022271446004510434
266.0, 0.022175376800556562
267.0, 0.02462788740379927
268.0, 0.024295883806935214
269.0, 0.02518766288770783
270.0, 0.028467723002799313
271.0, 0.031035186431698357
272.0, 0.030306769318264405
273.0, 0.030184798891830428
274.0, 0.027797018778343813
275.0, 0.030083449239329273
276.0, 0.03536046837419873
277.0, 0.036387520411674666
278.0, 0.03930843559543917
279.0, 0.039963177953170066
280.0, 0.039358903071761896
281.0, 0.039916899484544674
282.0, 0.042522116011394044
283.0, 0.04142910417409724
284.0, 0.04408442913429799
285.0, 0.047329615759288964
286.0, 0.04823036162370456
287.0, 0.04851562761422343
288.0, 0.04808072964504436
289.0, 0.047992378767911015
290.0, 0.050591435269800485
291.0, 0.05448234938282942
292.0, 0.05014301009111929
293.0, 0.04992825354395176
294.0, 0.051843168112675864
295.0, 0.05356571276708168
296.0, 0.05458454940162083
297.0, 0.0585394446297332
298.0, 0.065040828529962
299.0, 0.06300871672644033
300.0, 0.05919402828721182
301.0, 0.06315585666517588
302.0, 0.06778295448144096
303.0, 0.06843306748526858
304.0, 0.07154385992825774
305.0, 0.07409362475397903
306.0, 0.0745182205959924
307.0, 0.07895958651779067
308.0, 0.08022194448995182
309.0, 0.08421989519830214
310.0, 0.08762731245738976
311.0, 0.08789290144306747
312.0, 0.09047837692878055
313.0, 0.09378927848019251
314.0, 0.0975918192393572
315.0, 0.1022369814943056
316.0, 0.10740193387136654
317.0, 0.11157177411975212
318.0, 0.11577898707576795
319.0, 0.12062320673096939
320.0, 0.1249157587756402
321.0, 0.12959085915495425
322.0, 0.1389793566760431
323.0, 0.13898003707994905
324.0, 0.1459789544837059
325.0, 0.1561465579076551
326.0, 0.16066007746889505
327.0, 0.16274186853433115
328.0, 0.16847618540134454
329.0, 0.17385055976838712
330.0, 0.1811485651273479
331.0, 0.19045919410434742
332.0, 0.19116572193851855
333.0, 0.19406497875933834
334.0, 0.19639876950397386
335.0, 0.19995926865262642
336.0, 0.20481818221232123
337.0, 0.20407028473706293
338.0, 0.20339868150342777
339.0, 0.19843132226875237
340.0, 0.19279551739800407
341.0, 0.1904045794224667
342.0, 0.1872559350972247
343.0, 0.17789784426717778
344.0, 0.1745637721810675
345.0, 0.1679622241986092
346.0, 0.1571423940056471
347.0, 0.1523882374816839
348.0, 0.14484768724094732
349.0, 0.13168585115345424
350.0, 0.12013836687346509
351.0, 0.11159948165805374
352.0, 0.10178555398126665
353.0, 0.09344825379005507
354.0, 0.08376368145691136
355.0, 0.07243396669088811
356.0, 0.0618807759591071
357.0, 0.05442072888353086
358.0, 0.04958691899351762
359.0, 0.04320520044932728
360.0, 0.03719260635988784
361.0, 0.03224903696941854
362.0, 0.027171506281004603
363.0, 0.02054318383562744
364.0, 0.015778308259647815
365.0, 0.013798921969891745
366.0, 0.012141976650406918
367.0, 0.010053886156312657
368.0, 0.009387734566779424
369.0, 0.005502649829097664
370.0, 0.0036700917592556097
371.0, 0.0027013590220347655
372.0, 0.001447346178306217
373.0, 0.0011891060015580255
374.0, 0.0001560017331866753
375.0, 0.0004217419191761132
376.0, 0.0013123146538588373
377.0, 0.002213329529890202
378.0, 0.0015375609117611723
379.0, 0.0024955922233012703
380.0, 0.002531144597508059
381.0, 0.0025664215967233
382.0, 0.0032965259399041534
383.0, 0.003998281867757332
384.0, 0.0018452878423631006
385.0, 0.006289502999720358
386.0, 0.004955940352006051
387.0, 0.0012938771812611512
388.0, 0.0008198895058337561
389.0, 0.0008070571151338001
390.0, 0.003104156675789571
391.0, 0.005861145107140607
392.0, 0.0054971263125277794
393.0, 0.004505588573836311
394.0, 0.008194261137214671
395.0, 0.00835974424215776
396.0, 0.007732617132900476
397.0, 0.008448153590469186
398.0, 0.010424982111750572
399.0, 0.011497942858376192
400.0, 0.006414479963335358
401.0, 0.007894759226349867
402.0, 0.007234437688998659
403.0, 0.008101217453510286
404.0, 0.012617097570879832
405.0, 0.01123518405566168
406.0, 0.011429196173330181
407.0, 0.009871757893800936
408.0, 0.009192933853645863
409.0, 0.009820790833301346
410.0, 0.009017224004792329
411.0, 0.008129846133444592
412.0, 0.0117265770674069
413.0, 0.013980068008481216
414.0, 0.01335141077890541
415.0, 0.013018043923555931
416.0, 0.016426098558714505
417.0, 0.017114700154843416
418.0, 0.016555871624016928
419.0, 0.0171871193575722
420.0, 0.01986473852235576
421.0, 0.022309192187909322
422.0, 0.021003175805386867
423.0, 0.02160875230136998
424.0, 0.02203881616156483
425.0, 0.02245744730970746
426.0, 0.025483123222209192
427.0, 0.03130132818262342
428.0, 0.03200494478329113
429.0, 0.029741982752024016
430.0, 0.030920514225351
431.0, 0.03475833705384308
432.0, 0.035856758222601336
433.0, 0.034767547860271295
434.0, 0.0342454570122887
435.0, 0.035605560308551415
436.0, 0.038202792842462405
437.0, 0.03953387590476933
438.0, 0.03850727663938016
439.0, 0.03998394901239112
440.0, 0.041571613658473824
441.0, 0.04123275905180761
442.0, 0.04272506387267501
443.0, 0.046877784382218776
444.0, 0.047136981211983946
445.0, 0.04772348394062128
446.0, 0.04983084262478394
447.0, 0.05159400989185384
448.0, 0.052434226126662785
449.0, 0.0541577393364746
450.0, 0.058462701449215504
451.0, 0.06491127397050854
452.0, 0.06690821553368065
453.0, 0.0688572085094846
454.0, 0.0739614252880369
455.0, 0.07379091312795401
456.0, 0.07794465609326291
457.0, 0.08254103408179564
458.0, 0.086128576164897
459.0, 0.08775743429141492
460.0, 0.0881341148837376
461.0, 0.09356553946944324
462.0, 0.09724640601651866
463.0, 0.1000240826201403
464.0, 0.10582225846626171
465.0, 0.11261074859727674
466.0, 0.11407717434789834
467.0, 0.11782443197820332
468.0, 0.1231412185960892
469.0, 0.12392957444832443
470.0, 0.1266801686011486
471.0, 0.1314182696302397
472.0, 0.12544584902699032
473.0, 0.12769631278470778
474.0, 0.13058792299104585
475.0, 0.13202094601876194
476.0, 0.13167307723837735
477.0, 0.12904221514064998
478.0, 0.12648308339665307
479.0, 0.12573205636911175
480.0, 0.11899983349172825
481.0, 0.11450732855967681
482.0, 0.11278298576338364
483.0, 0.10657018040349799
484.0, 0.09941179961492934
485.0, 0.0935028618331594
486.0, 0.08261125578732938
487.0, 0.0755082056006188
488.0, 0.07188595089746977
489.0, 0.061754915719506184
490.0, 0.06000403297309477
491.0, 0.05197720746219651
492.0, 0.04397684806439046
493.0, 0.03658719268878489
494.0, 0.029482988080240292
495.0, 0.02663472288855066
496.0, 0.021256141184216714
497.0, 0.016476056641250535
498.0, 0.010537700584343002
499.0, 0.0047779274168543604
500.0, 0.002143193732263667
501.0, 0.0026136512337460935
502.0, 0.001980172434235331
503.0, 0.0006791272834515842
504.0, 0.001247928358313441
505.0, 0.005161837754517615
506.0, 0.005488157355154658
507.0, 0.0007692703328034182
508.0, 0.0016386197611299213
509.0, 0.0023867807568966402
510.0, 0.0015411899902437595
511.0, 0.0009011986527997136
512.0, 0.00037993823479922257
513.0, 0.002072666348077015
514.0, 0.004994614718591075
515.0, 0.006383351137557424
516.0, 0.006885022952474394
517.0, 0.007230370843303022
518.0, 0.007690703095051663
519.0, 0.009169620689174285
520.0, 0.012343333559897899
521.0, 0.017057898989383195
522.0, 0.016621502695674223
523.0, 0.016129651838604604
524.0, 0.020233565015680903
525.0, 0.023427398189618802
526.0, 0.026984354023876625
527.0, 0.026866172003307535
528.0, 0.027404465205376368
529.0, 0.0306042108118309
530.0, 0.033485085244688455
531.0, 0.033476532432735046
532.0, 0.034465150989444984
533.0, 0.037788275840330836
534.0, 0.03914582074311597
535.0, 0.0420306357712647
536.0, 0.04589864082168734
537.0, 0.04348099256999859
538.0, 0.04519837408214257
539.0, 0.04855380306321488
540.0, 0.04832325668253207
541.0, 0.048312615135782166
542.0, 0.05136286953064583
543.0, 0.05199050324186966
544.0, 0.05278978756086245
545.0, 0.053468592358496166
546.0, 0.054087906581622096
547.0, 0.05581455914043189
548.0, 0.057402362758452084
549.0, 0.05701630147016966
550.0, 0.058907124352999565
551.0, 0.06080841022950546
552.0, 0.06173241409937709
553.0, 0.06119556519493829
554.0, 0.06046596881456078
555.0, 0.06158287417258758
556.0, 0.06356367803154189
557.0, 0.06677229888798326
558.0, 0.06546163428793825
559.0, 0.06533471845858992
560.0, 0.06631562660487972
561.0, 0.06458615599838384
562.0, 0.06469776429621828
563.0, 0.06861519770223325
564.0, 0.06925329498735855
565.0, 0.0705426507327558
566.0, 0.07247180959665821
567.0, 0.0721245346421629
568.0, 0.07077760350040224
569.0, 0.07189800117989031
570.0, 0.06926244442416342
571.0, 0.06868070021144125
572.0, 0.06651790410115867
573.0, 0.06392177677166345
574.0, 0.06809719935920398
575.0, 0.06712831372995427
576.0, 0.06667619884847402
577.0, 0.06396922517032848
578.0, 0.06256547778968674
579.0, 0.06151222874486525
580.0, 0.05753810662472581
581.0, 0.054591868621456055
582.0, 0.050261358373970375
583.0, 0.04820090869651136
584.0, 0.04660580991346124
585.0, 0.04421143405225814
586.0, 0.04003332537176205
587.0, 0.03399163081894703
588.0, 0.035124418636327745
589.0, 0.031602469334767104
590.0, 0.029426751392240245
591.0, 0.027971151287756894
592.0, 0.023260492377619665
593.0, 0.018186584838799275
594.0, 0.0211381872805722
595.0, 0.018550967914876006
596.0, 0.018589996800278532
597.0, 0.017559519610408
598.0, 0.01519844534118904
599.0, 0.012761790910254872
600.0, 0.009970994322017564
601.0, 0.008738269282270537
602.0, 0.008397673737920549
603.0, 0.008158843146832264
604.0, 0.007918471129531078
605.0, 0.00513985210758581
606.0, 0.004075515662358297
607.0, 0.0038706588594547863
608.0, 0.003361353837248356
609.0, 0.0033731992982409587
610.0, 0.002915270935813539
611.0, 0.002575754116004015
612.0, 0.0022605081372226356
613.0, 0.0014592295045002318
614.0, 0.0003570172480071286
615.0, 0.00035167285823841217
616.0, 0.00016433726037986832
617.0, 0.00017323360691922707
618.0, 0.0002305559006039636
619.0, 0.00018670384735726777
620.0, 0.00048583290286522806
621.0, 0.002222762071928485
622.0, 0.002592643735433207
623.0, 0.0005613320307083409
624.0, 0.0004383569754882767
625.0, 0.0014198618086717766
626.0, 0.0011638707232464378
627.0, 0.0002085418929277527
628.0, 0.0021088760961684295
629.0, 0.0006362998228825515
630.0, 0.0025272284499012875
631.0, 0.001464363346246805
632.0, 0.0008782345451824167
633.0, 0.0015339175318472413
634.0, 0.00019496754886146696
635.0, 7.680947988740269e-05
636.0, 0.00043528320040785157
637.0, 0.00043948329855582346
638.0, 0.00033984810447085635
639.0, 0.0005579131578713769
640.0, 0.0013589729675056689
641.0, 0.0003501979928681682
642.0, 0.0023821114187550603
643.0, 0.0021142852611232715
644.0, 0.0010345218697075391
645.0, 0.001721450198728124
646.0, 0.0027592385396495965
647.0, 0.0016835294884372802
648.0, 0.001740352153783622
649.0, 0.0028837281149058022
650.0, 0.0020755586199501714
651.0, 0.003791868590001469
652.0, 0.004938117570415414
653.0, 0.0038618215527294964
654.0, 0.0036323212257895615
655.0, 0.0023728446581323826
656.0, 0.0034384343254861664
657.0, 0.005105597466248654
658.0, 0.004530501057048934
659.0, 0.004702470751738084
660.0, 0.0055068013585047315
661.0, 0.003388689227401905
662.0, 0.004420826503438155
663.0, 0.003918663912046555
664.0, 0.0035708055074029203
665.0, 0.004304548524650818
666.0, 0.006772185447079926
667.0, 0.008090129236759768
668.0, 0.005548007464170616
669.0, 0.005207103505898371
670.0, 0.006415782935368928
671.0, 0.007318531577382715
672.0, 0.008414534675061978
673.0, 0.008466705021758423
674.0, 0.007822246780519312
675.0, 0.008394487709467735
676.0, 0.008486691803037318
677.0, 0.0067977283825959465
678.0, 0.007043200927901368
679.0, 0.007747233637022996
680.0, 0.008363258327131827
681.0, 0.008664058863654714
682.0, 0.008255535574817025
683.0, 0.00759442929811873
684.0, 0.005895253869854137
685.0, 0.006274300494913306
686.0, 0.008146776479065566
687.0, 0.008688293738609411
688.0, 0.008327560006375238
689.0, 0.008149478490432974
690.0, 0.007386911610132492
691.0, 0.007444187049943462
692.0, 0.007849061591709852
693.0, 0.007005862311961594
694.0, 0.007033377638389025
695.0, 0.007262682736589913
696.0, 0.007778816410781018
697.0, 0.00931787286377669
698.0, 0.008112886180441242
699.0, 0.00583873975257861
700.0, 0.005866703844838526
701.0, 0.006188395993299849
702.0, 0.007847042644324521
703.0, 0.008657813071126322
704.0, 0.006600389990428616
705.0, 0.006995168964300304
706.0, 0.007527950637431769
707.0, 0.0054435783027836655
708.0, 0.00731740672027565
709.0, 0.007995526557329106
710.0, 0.0059406156373880605
711.0, 0.0038614580250873323
712.0, 0.003962470691759744
713.0, 0.006442845865146433
714.0, 0.006569853058683635
715.0, 0.007319040983712909
716.0, 0.008355793712207928
717.0, 0.00740338155417471
718.0, 0.00494789535756895
719.0, 0.003722196228204152
720.0, 0.004799167814129304
721.0, 0.005557805948341975
722.0, 0.00821508432190924
723.0, 0.007418872890951478
724.0, 0.005676719052137828
725.0, 0.0046933368466123525
726.0, 0.004637139754135394
727.0, 0.006130380952587333
728.0, 0.008334634745148875
729.0, 0.006414699491151932
730.0, 0.005326476709035948
731.0, 0.0062248472348846885
732.0, 0.008211724429622876
733.0, 0.007849952842511146
734.0, 0.005739969268711829
735.0, 0.006423450876969074
736.0, 0.009373259156563144
737.0, 0.00706384431106119
738.0, 0.004075982691528848
739.0, 0.006004412185771566
740.0, 0.007831485115858225
741.0, 0.007413465956690252
742.0, 0.007566229457309096
743.0, 0.00835753649399769
744.0, 0.008002848859837423
745.0, 0.00999172870097475
746.0, 0.007731945253024557
747.0, 0.006340072003518622
748.0, 0.00629359159519524
749.0, 0.00797344778651859
750.0, 0.009504026657578582
751.0, 0.007351952655273208
752.0, 0.00754372072613673
753.0, 0.004957187894947284
754.0, 0.005003133955328364
755.0, 0.006979978508426404
756.0, 0.008512748376656198
757.0, 0.00839524003073359
758.0, 0.007753146472059809
759.0, 0.007949963414558872
760.0, 0.007613654341377492
761.0, 0.004496746018981658
762.0, 0.007516644665038696
763.0, 0.0054328964658168135
764.0, 0.005556799993969611
765.0, 0.007884608463684835
766.0, 0.006370472060138126
767.0, 0.005799789667062397
768.0, 0.008306525909485555
769.0, 0.009092005498163809
770.0, 0.007470459295191393
771.0, 0.006890784337746168
772.0, 0.008225476378615076
773.0, 0.008564509588049425
774.0, 0.008692954659623985
775.0, 0.009919389180391034
776.0, 0.008175701938263965
777.0, 0.00769067130709648
778.0, 0.0088403982300189
779.0, 0.009172337345000723
780.0, 0.009260377455064053
781.0, 0.008971196724795343
782.0, 0.008471733923446521
783.0, 0.009347520904183561
784.0, 0.010401940255712545
785.0, 0.009669072249481213
786.0, 0.01136098054179735
787.0, 0.008709986455103284
788.0, 0.008159065653178444
789.0, 0.009608281964848715
790.0, 0.009730479591087818
791.0, 0.008782770888050767
792.0, 0.008350909844665895
793.0, 0.007174119862459335
794.0, 0.006454211515691522
795.0, 0.006485408235434245
796.0, 0.00809013404106609
797.0, 0.008905868134480879
798.0, 0.008192956579805491
799.0, 0.006699068018002166
800.0, 0.006206070398560868
801.0, 0.0076593883763055315
802.0, 0.003880298690735355
803.0, 0.00640902341879011
804.0, 0.008357132755535589
805.0, 0.006598226229962991
806.0, 0.004628805586321921
807.0, 0.005903953491023545
808.0, 0.007860747532488629
809.0, 0.00610881835680234
810.0, 0.004773609236895294
811.0, 0.003740520774533895
812.0, 0.004071915769458848
813.0, 0.0017026985934256635
814.0, 0.0019301019763805613
815.0, 0.0025599002435053096
816.0, 0.0016538729340024375
817.0, 0.0018722684693956394
818.0, 0.0028958140465838132
819.0, 0.0012006293572831824
820.0, 0.0011570537018536942
821.0, 0.001034337546447956
822.0, 0.0006766080978722409
823.0, 0.0007543832296263854
824.0, 0.0013569716585776898
825.0, 0.0003537058988846222
826.0, 0.0007374514984914366
827.0, 0.00021697579864043428
828.0, 0.0009809077646558318
829.0, 0.0008271367794155397
830.0, 0.00040585926425637525
831.0, 0.0037272176196952826
832.0, 0.0025984144851466033
833.0, 0.0011465200075909312
834.0, 0.0016375373943174577
835.0, 0.0018512299167629874
836.0, 0.002930195362387493
837.0, 0.0014555249828691645
838.0, 0.0009167920985792892
839.0, 0.0028378086092686818
840.0, 0.004422043124023467
841.0, 0.004028189299348569
842.0, 0.0024605269865663358
843.0, 0.0006901741043043527
844.0, 0.0009114825082860114
845.0, 0.0014418078269955133
846.0, 0.003003957869768686
847.0, 0.0020440599741376785
848.0, 0.0002186931616957443
849.0, 0.0023303959995247788
850.0, 0.000936777827430329
851.0, 0.0007910785939214003
852.0, 0.0007202586771808691
853.0, 0.0013702082173986981
854.0, 0.00025085360168997843
855.0, 0.001430230010235791
856.0, 0.003587608829835623
857.0, 0.0035533541261003262
858.0, 0.00314147761096536
859.0, 0.0030057340658037925
860.0, 0.0042477793324375845
861.0, 0.006772857885623918
862.0, 0.008345011849126916
863.0, 0.008613395724351674
864.0, 0.010561440095113336
865.0, 0.012299317362429394
866.0, 0.01586664241560261
867.0, 0.01884111443623648
868.0, 0.019155029407725198
869.0, 0.02234591681338042
870.0, 0.028619428567076475
871.0, 0.0309136352860458
872.0, 0.030933284925689038
873.0, 0.03459299834465986
874.0, 0.037074520209046176
875.0, 0.04444092096883679
876.0, 0.043438235979094623
877.0, 0.04408682527490853
878.0, 0.050519830086020553
879.0, 0.05682045514539034
880.0, 0.06247288967217801
881.0, 0.0655685102397024
882.0, 0.06647681310070194
883.0, 0.07184907468816053
884.0, 0.07820964288211821
885.0, 0.08241381299126792
886.0, 0.08985162063169791
887.0, 0.0949457011466553
888.0, 0.10500078465087459
889.0, 0.10827337132382786
890.0, 0.11705702356801309
891.0, 0.12779415259666368
892.0, 0.13196644976100122
893.0, 0.14515535347594938
894.0, 0.15520412482406812
895.0, 0.16660542358135716
896.0, 0.17823423815523992
897.0, 0.19494760221337654
898.0, 0.20438458761269657
899.0, 0.21948197959066323
900.0, 0.23903193612073975
901.0, 0.25758794158907966
902.0, 0.27686282111680977
903.0, 0.2991519448723809
904.0, 0.32665002312460245
905.0, 0.3557033044337732
906.0, 0.38698216591334456
907.0, 0.4193890554319856
908.0, 0.4552524796466616
909.0, 0.49635042457271183
910.0, 0.5373539397454886
911.0, 0.5810833018857224
912.0, 0.6299101413421366
913.0, 0.678355601200852
914.0, 0.7231014671114436
915.0, 0.7681197178023824
916.0, 0.823872779724393
917.0, 0.8567853359618673
918.0, 0.9016280195345489
919.0, 0.941760542174968
920.0, 0.9729789590951897
921.0, 0.9938162601318183
922.0, 0.9982833843489308
923.0, 0.9955802405945533
924.0, 0.9884073009263118
925.0, 0.9574801746604638
926.0, 0.9304520098312486
927.0, 0.884258430776409
928.0, 0.8388498689030193
929.0, 0.7894503311120986
930.0, 0.7388848373258459
931.0, 0.6829330913592276
932.0, 0.6283875124203215
933.0, 0.5782329797671497
934.0, 0.5296618315322503
935.0, 0.48381370967017057
936.0, 0.43958249342906774
937.0, 0.40896189606449196
938.0, 0.37152918736173474
939.0, 0.3302524223455164
940.0, 0.302755784124831
941.0, 0.2760169453985356
942.0, 0.2501569712150817
943.0, 0.23093754271363306
944.0, 0.21425978012776103
945.0, 0.19557473524157545
946.0, 0.17897902460744405
947.0, 0.16448397652439692
948.0, 0.14639496076571273
949.0, 0.1333574256448908
950.0, 0.12601714047776497
951.0, 0.11410880147113635
952.0, 0.10682811660237654
953.0, 0.10200201006188961
954.0, 0.09479589255866319
955.0, 0.08542747662714434
956.0, 0.07809423658240744
957.0, 0.07521638276604145
958.0, 0.06970532634711324
959.0, 0.059434107018167565
960.0, 0.05510354015601127
961.0, 0.053052096655806825
962.0, 0.047827246178012525
963.0, 0.04196276746111173
964.0, 0.041338774694789374
965.0, 0.03985773636859547
966.0, 0.03625980815664229
967.0, 0.034192463327647554
968.0, 0.033278567507494625
969.0, 0.031692884042902894
970.0, 0.03226121425663128
971.0, 0.030961079105277293
972.0, 0.025218818903626695
973.0, 0.01979542412191127
974.0, 0.021741116178266566
975.0, 0.024489115299505107
976.0, 0.017941851039039905
977.0, 0.014862967671856119
978.0, 0.01975410688416731
979.0, 0.02010124907364805
980.0, 0.014924441339827963
981.0, 0.014525809890069286
982.0, 0.016248000874964603
983.0, 0.01678560507437826
984.0, 0.014614567641383245
985.0, 0.013313825230627884
986.0, 0.011580279419548556
987.0, 0.005587424240840403
988.0, 0.0063995376404305405
989.0, 0.007472263884038754
990.0, 0.005007414082508784
991.0, 0.0023648662516695287
992.0, 0.00113761145872851
993.0, 0.0016788569991823409
994.0, 0.004022790107315903
995.0, 0.005176863433861906
996.0, 0.0023198214592215325
997.0, 0.0008684709758518034
998.0, 0.0036016802624345506
999.0, 0.002248304142125971
1000.0, 0.002709406933293742
1001.0, 0.002448333159851179
1002.0, 0.0006554266780742007
1003.0, 0.0011637169828006945
1004.0, 0.0015046497348605577
1005.0, 0.0018389717542365792
1006.0, 0.004794836204878401
1007.0, 0.002011368579019742
1008.0, 0.0019775466957198894
1009.0, 0.0016584728546603568
1010.0, 0.002917617249140834
1011.0, 0.0014718213050632643
1012.0, 0.00011073564478531576
1013.0, 0.001996200361855735
1014.0, 0.0016428743457511546
1015.0, 0.0007715679431172904
1016.0, 0.000241705209827893
1017.0, 0.0003167274335726403
1018.0, 0.0012135905047870727
1019.0, 0.0017268741881118802
1020.0, 0.0031108841047135143
1021.0, 0.002474030377342484
1022.0, 0.0015498901215579939
1023.0, 0.0004766072730937014
1024.0, 0.001197658728122322
1025.0, 0.0015470966276751796
1026.0, 0.00048083283321012
1027.0, 0.001534418263381206
1028.0, 0.0022635632420911055
1029.0, 0.0015770085747587733
1030.0, 0.0006398014170020133
1031.0, 0.00031848980578707387
1032.0, 0.002093703848846133
1033.0, 0.004042153747224511
1034.0, 0.0004940775664257954
1035.0, 0.0053691001746928105
1036.0, 0.006999607506498337
1037.0, 0.0019199986147535122
1038.0, 0.003537418426510834
1039.0, 0.006348823289139413
1040.0, 0.00928573777337549
1041.0, 0.0061599788264154265
1042.0, 0.003805200061406722
1043.0, 0.003869409545276217
1044.0, 0.0037676035354507692
1045.0, 0.003817896461507059
1046.0, 0.005398957335716766
1047.0, 0.0077828825655312925
1048.0, 0.005914660952650293
1049.0, 0.004283159249730716
1050.0, 0.0074164694528330655
1051.0, 0.008210047883931785
1052.0, 0.00639370531792815
1053.0, 0.009845358765775141
1054.0, 0.00672283245610624
1055.0, 0.0038935435697424773
1056.0, 0.006039293181656345
1057.0, 0.005800617435717515
1058.0, 0.006399603285788489
1059.0, 0.00826232100746628
1060.0, 0.008182458381306889
1061.0, 0.006899403745280071
1062.0, 0.005477464497946288
1063.0, 0.007176359072371791
1064.0, 0.006697854398088884
1065.0, 0.005674324420955914
1066.0, 0.006405939009942155
1067.0, 0.007842259132385385
1068.0, 0.007870633693195628
1069.0, 0.00457209371233876
1070.0, 0.005027994895453899
1071.0, 0.005635453660002872
1072.0, 0.004682010552384076
1073.0, 0.005904507574133043
1074.0, 0.005441238602873273
1075.0, 0.006325195112393864
1076.0, 0.006592885120697449
1077.0, 0.002279748782702853
1078.0, 0.00313054267264422
1079.0, 0.003011291469543563
1080.0, 0.000666947740743629
1081.0, 0.0010002299596961364
1082.0, 0.0066022400821141945
1083.0, 0.004150906499369306
1084.0, 0.0008905398765969579
1085.0, 6.870905100128064e-05
1086.0, 0.001554842672937185
1087.0, 0.0034836175285726453
1088.0, 0.0015220644595260648
1089.0, 0.0002515383634304654
1090.0, 0.0001330851290044318
1091.0, 0.00040280113823206164
1092.0, 0.0015922817054704163
1093.0, 0.0018046235635042606
1094.0, 0.00038815241105629486
1095.0, 0.00029981018044513905
1096.0, 0.0017053481957981925
1097.0, 0.0005326396099333717
1098.0, 0.0004190616095583302
1099.0, 0.0026068192555358874
1100.0, 0.003899470030259025
1101.0, 0.004225910853042525
1102.0, 0.0027130929820194786
1103.0, 0.005123877024320066
1104.0, 0.0026001577477626956
1105.0, 0.0040525278034675575
1106.0, 0.006976337163613316
1107.0, 0.008089773565467794
1108.0, 0.006911757368626689
1109.0, 0.006046966770910439
1110.0, 0.00784218362609203
1111.0, 0.007352007090986009
1112.0, 0.00803980373498745
1113.0, 0.01118503937602288
1114.0, 0.010248107954254971
1115.0, 0.01060471695733962
1116.0, 0.009661146716451779
1117.0, 0.013428683740910883
1118.0, 0.01190397626669894
1119.0, 0.01139856186487579
1120.0, 0.013359744394683057
1121.0, 0.012707417850540654
1122.0, 0.0142124278012883
1123.0, 0.018002716424486566
1124.0, 0.01714326043545688
1125.0, 0.015414122923600676
1126.0, 0.014442399619315378
1127.0, 0.015166769040836758
1128.0, 0.018693089576099664
1129.0, 0.018824991470510016
1130.0, 0.01801308486014571
1131.0, 0.01989487056512382
1132.0, 0.017577897273223845
1133.0, 0.01676961343245864
1134.0, 0.016961113332550765
1135.0, 0.020481798467573503
1136.0, 0.022546446036208746
1137.0, 0.017661140912447332
1138.0, 0.019408584447220482
1139.0, 0.021116834269432876
1140.0, 0.021554334777396218
1141.0, 0.016731198701672983
1142.0, 0.01608173084942169
1143.0, 0.017880525598898116
1144.0, 0.017685106054263364
1145.0, 0.017969643456576628
1146.0, 0.015851920388027883
1147.0, 0.014447734509699314
1148.0, 0.014502488361187126
1149.0, 0.01301635418519552
1150.0, 0.014934026993963878
1151.0, 0.012226070790422754
1152.0, 0.011864411710311315
1153.0, 0.011367032997048764
1154.0, 0.011881152569937142
1155.0, 0.010734368356783154
1156.0, 0.009351818123348047
1157.0, 0.0082585430770801
1158.0, 0.007067820354773578
1159.0, 0.008870126565011762
1160.0, 0.00929891874752885
1161.0, 0.007712388868355559
1162.0, 0.006192454467100032
1163.0, 0.006073572811889555
1164.0, 0.008813360307024683
1165.0, 0.008052799270313351
1166.0, 0.005961236830090721
1167.0, 0.00447521328733844
1168.0, 0.0037629614654313506
1169.0, 0.003385958120905799
1170.0, 0.0036106443490281992
1171.0, 0.0050928914305416115
1172.0, 0.0034221780673272086
1173.0, 0.002388503300156209
1174.0, 0.004322677693518609
1175.0, 0.0032656531475635784
1176.0, 0.003621677817641767
1177.0, 0.0024220125808925817
1178.0, 0.002629275150221621
1179.0, 0.001894756850644972
1180.0, 0.0015667659833384314
1181.0, 0.0013632022689110724
1182.0, 0.0029271986045053457
1183.0, 0.0025415194132976243
1184.0, 0.0011450507355973624
1185.0, 0.0019211910175151654
1186.0, 0.0016624188585719875
1187.0, 0.00032360860029095705
1188.0, 0.0006764566736413282
1189.0, 0.0017300285741115341
1190.0, 0.002429661504617905
1191.0, 0.0008904254147697683
1192.0, 0.001076504625642603
1193.0, 0.002812431362041574
1194.0, 0.0023731640893840827
1195.0, 0.00329617321563179
1196.0, 0.003987233337098996
1197.0, 0.002510172530825611
1198.0, 0.001456087119170932
1199.0, 0.0029585921239265347
1200.0, 0.004104051246232205
1201.0, 0.003982663829181795
1202.0, 0.004660787546249459
1203.0, 0.004088093731251229
1204.0, 0.0033022268368707282
1205.0, 0.0037942207845904977
1206.0, 0.0033069470319163235
1207.0, 0.004426158923889877
1208.0, 0.002825679464954257
1209.0, 0.00495433578209775
1210.0, 0.005812393780664549
1211.0, 0.0049272112642251
1212.0, 0.004387251600123313
1213.0, 0.00302654566642524
1214.0, 0.0024745149911739425
1215.0, 0.0025382489866973244
1216.0, 0.005170094653690354
1217.0, 0.006200268375009524
1218.0, 0.004345292093561439
1219.0, 0.003089385842339127
1220.0, 0.0031617012414079785
1221.0, 0.0039635052654239025
1222.0, 0.001991107759200003
1223.0, 0.0005556417293764058
1224.0, 0.0032655138454434846
1225.0, 0.0045305576298574415
1226.0, 0.0039462958023109805
1227.0, 0.005456270942761719
1228.0, 0.0046775675723542826
1229.0, 0.002941509710990765
1230.0, 0.004751276299999026
1231.0, 0.0022559406593823774
1232.0, 0.0018840542765490137
1233.0, 0.001429915768806144
1234.0, 0.000188797439900341
1235.0, 0.000916244682085179
1236.0, 0.0018489213513448403
1237.0, 0.0013232463198057148
1238, 0.0
1239, 0.0
1240, 0.0
1241, 0.0
1242, 0.0
1243, 0.0
1244, 0.0
1245, 0.0
1246, 0.0
1247, 0.0
1248, 0.0
1249, 0.0
1250, 0.0
1251, 0.0
1252, 0.0
1253, 0.0
1254, 0.0
1255, 0.0
1256, 0.0
1257, 0.0
1258, 0.0
1259, 0.0
1260, 0.0
1261, 0.0
1262, 0.0
1263, 0.0
1264, 0.0
1265, 0.0
1266, 0.0
1267, 0.0
1268, 0.0
1269, 0.0
1270, 0.0
1271, 0.0
1272, 0.0
1273, 0.0
1274, 0.0
1275, 0.0
1276, 0.0
1277, 0.0
1278, 0.0
1279, 0.0
1280, 0.0
1281, 0.0
1282, 0.0
1283, 0.0
1284, 0.0
1285, 0.0
1286, 0.0
1287, 0.0
1288, 0.0
1289, 0.0
1290, 0.0
1291, 0.0
1292, 0.0
1293, 0.0
1294, 0.0
1295, 0.0
1296, 0.0
1297, 0.0
1298, 0.0
1299, 0.0
1300, 0.0
1301, 0.0
1302, 0.0
1303, 0.0
1304, 0.0
1305, 0.0
1306, 0.0
1307, 0.0
1308, 0.0
1309, 0.0
1310, 0.0
1311, 0.0
1312, 0.0
1313, 0.0
1314, 0.0
1315, 0.0
1316, 0.0
1317, 0.0
1318, 0.0
1319, 0.0
1320, 0.0
1321, 0.0
1322, 0.0
1323, 0.0
1324, 0.0
1325, 0.0
1326, 0.0
1327, 0.0
1328, 0.0
1329, 0.0
1330, 0.0
1331, 0.0
1332, 0.0
1333, 0.0
1334, 0.0
1335, 0.0
1336, 0.0
1337, 0.0
1338, 0.0
1339, 0.0
1340, 0.0
1341, 0.0
1342, 0.0
1343, 0.0
1344, 0.0
1345, 0.0
1346, 0.0
1347, 0.0
1348, 0.0
1349, 0.0
1350, 0.0
1351, 0.0
1352, 0.0
1353, 0.0
1354, 0.0
1355, 0.0
1356, 0.0
1357, 0.0
1358, 0.0
1359, 0.0
1360, 0.0
1361, 0.0
1362, 0.0
1363, 0.0
1364, 0.0
1365, 0.0
1366, 0.0
1367, 0.0
1368, 0.0
1369, 0.0
1370, 0.0
1371, 0.0
1372, 0.0
1373, 0.0
1374, 0.0
1375, 0.0
1376, 0.0
1377, 0.0
1378, 0.0
1379, 0.0
1380, 0.0
1381, 0.0
1382, 0.0
1383, 0.0
1384, 0.0
1385, 0.0
1386, 0.0
1387, 0.0
1388, 0.0
1389, 0.0
1390, 0.0
1391, 0.0
1392, 0.0
1393, 0.0
1394, 0.0
1395, 0.0
1396, 0.0
1397, 0.0
1398, 0.0
1399, 0.0
1400, 0.0
1401, 0.0
1402, 0.0
1403, 0.0
1404, 0.0
1405, 0.0
1406, 0.0
1407, 0.0
1408, 0.0
1409, 0.0
1410, 0.0
1411, 0.0
1412, 0.0
1413, 0.0
1414, 0.0
1415, 0.0
1416, 0.0
1417, 0.0
1418, 0.0
1419, 0.0
1420, 0.0
1421, 0.0
1422, 0.0
1423, 0.0
1424, 0.0
1425, 0.0
1426, 0.0
1427, 0.0
1428, 0.0
1429, 0.0
1430, 0.0
1431, 0.0
1432, 0.0
1433, 0.0
1434, 0.0
1435, 0.0
1436, 0.0
1437, 0.0
1438, 0.0
1439, 0.0
1440, 0.0
1441, 0.0
1442, 0.0
1443, 0.0
1444, 0.0
1445, 0.0
1446, 0.0
1447, 0.0
1448, 0.0
1449, 0.0
1450, 0.0
1451, 0.0
1452, 0.0
1453, 0.0
1454, 0.0
1455, 0.0
1456, 0.0
1457, 0.0
1458, 0.0
1459, 0.0
1460, 0.0
1461, 0.0
1462, 0.0
1463, 0.0
1464, 0.0
1465, 0.0
1466, 0.0
1467, 0.0
1468, 0.0
1469, 0.0
1470, 0.0
1471, 0.0
1472, 0.0
1473, 0.0
1474, 0.0
1475, 0.0
1476, 0.0
1477, 0.0
1478, 0.0
1479, 0.0
1480, 0.0
1481, 0.0
1482, 0.0
1483, 0.0
1484, 0.0
1485, 0.0
1486, 0.0
1487, 0.0
1488, 0.0
1489, 0.0
1490, 0.0
1491, 0.0
1492, 0.0
1493, 0.0
1494, 0.0
1495, 0.0
1496, 0.0
1497, 0.0
1498, 0.0
1499, 0.0
1500, 0.0
1501, 0.0
1502, 0.0
1503, 0.0
1504, 0.0
1505, 0.0
1506, 0.0
1507, 0.0
1508, 0.0
1509, 0.0
1510, 0.0
1511, 0.0
1512, 0.0
1513, 0.0
1514, 0.0
1515, 0.0
1516, 0.0
1517, 0.0
1518, 0.0
1519, 0.0
1520, 0.0
1521, 0.0
1522, 0.0
1523, 0.0
1524, 0.0
1525, 0.0
1526, 0.0
1527, 0.0
1528, 0.0
1529, 0.0
1530, 0.0
1531, 0.0
1532, 0.0
1533, 0.0
1534, 0.0
1535, 0.0
1536, 0.0
1537, 0.0
1538, 0.0
1539, 0.0
1540, 0.0
1541, 0.0
1542, 0.0
1543, 0.0
1544, 0.0
1545, 0.0
1546, 0.0
1547, 0.0
1548, 0.0
1549, 0.0
1550, 0.0
1551, 0.0
1552, 0.0
1553, 0.0
1554, 0.0
1555, 0.0
1556, 0.0
1557, 0.0
1558, 0.0
1559, 0.0
1560, 0.0
1561, 0.0
1562, 0.0
1563, 0.0
1564, 0.0
1565, 0.0
1566, 0.0
1567, 0.0
1568, 0.0
1569, 0.0
1570, 0.0
1571, 0.0
1572, 0.0
1573, 0.0
1574, 0.0
1575, 0.0
1576, 0.0
1577, 0.0
1578, 0.0
1579, 0.0
1580, 0.0
1581, 0.0
1582, 0.0
1583, 0.0
1584, 0.0
1585, 0.0
1586, 0.0
1587, 0.0
1588, 0.0
1589, 0.0
1590, 0.0
1591, 0.0
1592, 0.0
1593, 0.0
1594, 0.0
1595, 0.0
1596, 0.0
1597, 0.0
1598, 0.0
1599, 0.0
