30, 0.0
31, 0.0
32, 0.0
33, 0.0
34, 0.0
35, 0.0
36, 0.0
37, 0.0
38, 0.0
39, 0.0
40, 0.0
41, 0.0
42, 0.0
43, 0.0
44, 0.0
45, 0.0
46, 0.0
47, 0.0
48, 0.0
49, 0.0
50, 0.0
51, 0.0
52, 0.0
53, 0.0
54, 0.0
55, 0.0
56, 0.0
57, 0.0
58, 0.0
59, 0.0
60, 0.0
61, 0.0
62, 0.0
63, 0.0
64, 0.0
65, 0.0
66, 0.0
67, 0.0
68, 0.0
69, 0.0
70, 0.0
71, 0.0
72, 0.0
73, 0.0
74, 0.0
75, 0.0
76, 0.0
77, 0.0
78, 0.0
79, 0.0
80, 0.0
81, 0.0
82, 0.0
83, 0.0
84, 0.0
85, 0.0
86, 0.0
87, 0.0
88, 0.0
89, 0.0
90, 0.0
91, 0.0
92.0, 4.789258063082289e-06
93.0, 0.003435941931306206
94.0, 0.008631195647698237
95.0, 0.009934354442965615
96.0, 0.012689083873046188
97.0, 0.014367224113855668
98.0, 0.010118452233986278
99.0, 0.007269218197968675
100.0, 0.0017149344287067738
101.0, 0.00029860978293147386
102.0, 0.0013413822702145126
103.0, 0.002224288564116031
104.0, 0.0016318414160466962
105.0, 0.010697014723008191
106.0, 0.015798689263239154
107.0, 0.02094160681064269
108.0, 0.0253450918137756
109.0, 0.03220975317613301
110.0, 0.041324620350855164
111.0, 0.05118064431475881
112.0, 0.06302481309126272
113.0, 0.07003939198793892
114.0, 0.07583449320318099
115.0, 0.08449120534365444
116.0, 0.09337122126986903
117.0, 0.0925767359374724
118.0, 0.09185600495594902
119.0, 0.0976234104408373
120.0, 0.09922613947910136
121.0, 0.0974764327977143
122.0, 0.09630066852338084
123.0, 0.09541339470094297
124.0, 0.08972868178364028
125.0, 0.08114130441547075
126.0, 0.07716933745330513
127.0, 0.07543067257194015
128.0, 0.06916821460110964
129.0, 0.059952045997688844
130.0, 0.05306956840958934
131.0, 0.04564256167225984
132.0, 0.03491400323391006
133.0, 0.03027303060665153
134.0, 0.027654232299748862
135.0, 0.024667134045519228
136.0, 0.021661278956373656
137.0, 0.021010356121754413
138.0, 0.020211221989855498
139.0, 0.022353928891314257
140.0, 0.027572668414450736
141.0, 0.03176700160425834
142.0, 0.03086516785074346
143.0, 0.034320157906537856
144.0, 0.04004383076550458
145.0, 0.042091010456520035
146.0, 0.04553163559491573
147.0, 0.04809109253316522
148.0, 0.05475346148138123
149.0, 0.06685432204749521
150.0, 0.06867425931470568
151.0, 0.06468200590601189
152.0, 0.06396320795402757
153.0, 0.06915190599635446
154.0, 0.07220024407325769
155.0, 0.06952712947763492
156.0, 0.06270087590768474
157.0, 0.05531377571882177
158.0, 0.05013747040013352
159.0, 0.04530998321013494
160.0, 0.04141668439362986
161.0, 0.03603025380474922
162.0, 0.02854263977593597
163.0, 0.025357525691831636
164.0, 0.021359350355179427
165.0, 0.01928739852829908
166.0, 0.019994849332359104
167.0, 0.013808530442616667
168.0, 0.011620139030710118
169.0, 0.010220051091752065
170.0, 0.008270177914796582
171.0, 0.00909798139446618
172.0, 0.0059864637067746
173.0, 0.0024428225764241297
174.0, 0.0011911122851532058
175.0, 0.0024154874733550795
176.0, 0.00415351370188056
177.0, 0.0035827432318231763
178.0, 0.0008203503123238958
179.0, 0.0034389798407662526
180.0, 0.00047027797650516477
181.0, 0.0006041179106074636
182.0, 0.0002475222588535169
183.0, 0.0006935671485187586
184.0, 0.004729466202471395
185.0, 0.0053785442719699265
186.0, 0.009634496941354095
187.0, 0.015565134585796116
188.0, 0.01869787402700602
189.0, 0.029613221474252816
190.0, 0.0360029464785878
191.0, 0.040799976935677634
192.0, 0.050668258131916076
193.0, 0.06288849961122157
194.0, 0.06722269827403002
195.0, 0.07794981653801417
196.0, 0.09284343019340985
197.0, 0.10350010280785728
198.0, 0.11868435950589698
199.0, 0.12866210552516102
200.0, 0.13681068763618404
201.0, 0.14670764155174393
202.0, 0.15425910341875718
203.0, 0.16088101410998348
204.0, 0.16671719815081312
205.0, 0.1719951216775107
206.0, 0.17627031515432076
207.0, 0.17237490835264271
208.0, 0.17276339425052717
209.0, 0.17411204949105927
210.0, 0.16984224048789673
211.0, 0.16348040778924183
212.0, 0.15534872672181452
213.0, 0.15008283498500835
214.0, 0.1482240377638367
215.0, 0.14662299824037262
216.0, 0.14518009641370375
217.0, 0.14817030998091582
218.0, 0.15022426161511995
219.0, 0.14753256449299978
220.0, 0.15371870386624165
221.0, 0.15987622138863317
222.0, 0.1601408321863179
223.0, 0.15483373002132308
224.0, 0.15290692131484843
225.0, 0.15334936597534823
226.0, 0.1476610535713757
227.0, 0.138022386031019
228.0, 0.13181260423505162
229.0, 0.12445079918087688
230.0, 0.11992684406247081
231.0, 0.10983449903701098
232.0, 0.09298902339030689
233.0, 0.07949248823843709
234.0, 0.06808444745581885
235.0, 0.06039420732850262
236.0, 0.052737246935516874
237.0, 0.0426108307690522
238.0, 0.034918953980377095
239.0, 0.024843181400606842
240.0, 0.01823209719702923
241.0, 0.013464377898059515
242.0, 0.003339230680787325
243.0, 0.0006093236095467155
244.0, 0.0013040482080870738
245.0, 0.0007793609071057019
246.0, 0.002087998236297469
247.0, 0.0038125324182846413
248.0, 0.000866602792183612
249.0, 0.001962281717436249
250.0, 0.003262949602690612
251.0, 0.005003378264889839
252.0, 0.009493471384772025
253.0, 0.015656669863806618
254.0, 0.021982550607572232
255.0, 0.027739340329865414
256.0, 0.03737251579308457
257.0, 0.04766275099562637
258.0, 0.0583250905165783
259.0, 0.07068581608242984
260.0, 0.08600725160499138
261.0, 0.10324252628909612
262.0, 0.11433874725656575
263.0, 0.12215113679322724
264.0, 0.12935238959843035
265.0, 0.1351942240199319
266.0, 0.13825505112414213
267.0, 0.13459692883055663
268.0, 0.12853916871555005
269.0, 0.12314536853843584
270.0, 0.10967160171627732
271.0, 0.0982206210903049
272.0, 0.0872214241979204
273.0, 0.07501646737819734
274.0, 0.06339088937344814
275.0, 0.05453983881116654
276.0, 0.043531100175234885
277.0, 0.034824120093679134
278.0, 0.02899799256238973
279.0, 0.022132524862504162
280.0, 0.020333266031526773
281.0, 0.01802308420690388
282.0, 0.01608032303420306
283.0, 0.01572269689076456
284.0, 0.012694745374373897
285.0, 0.006537377055107105
286.0, 0.0045195825970041365
287.0, 0.007074570858936568
288.0, 0.009998775736638689
289.0, 0.006218115228157756
290.0, 0.0036072745333960202
291.0, 0.004496441873657223
292.0, 0.007892765844218948
293.0, 0.009275427824216795
294.0, 0.0070584316629327985
295.0, 0.006732536330874765
296.0, 0.006398772928961283
297.0, 0.0026582107879408
298.0, 0.00028019636279113977
299.0, 0.0007705546164040285
300.0, 0.0026287969961057076
301.0, 0.0037551685955976473
302.0, 0.0021062492051652755
303.0, 0.0012408463102585691
304.0, 0.00353334243034703
305.0, 0.0031691261295972587
306.0, 0.0014344979611716296
307.0, 0.007184949004819838
308.0, 0.0039791761266148905
309.0, 0.004120700667278999
310.0, 0.003945794747651327
311.0, 0.001446782668483135
312.0, 0.0005608206219729427
313.0, 0.0014184496231596508
314.0, 0.0026257163186569903
315.0, 0.0033927392194925666
316.0, 0.0028552700356691257
317.0, 0.0016134394129943338
318.0, 0.002879468963989974
319.0, 0.0016338723707488736
320.0, 0.0015721295336448883
321.0, 0.00557461398814998
322.0, 0.007301749686096241
323.0, 0.009950656142227138
324.0, 0.010959296502282674
325.0, 0.011164243146524313
326.0, 0.007647575133632048
327.0, 0.003082260649881042
328.0, 0.003094369956528514
329.0, 0.0015683157582884854
330.0, 0.0024114202058210235
331.0, 0.005019439210859862
332.0, 0.006308364822606604
333.0, 0.012255221123355982
334.0, 0.016574279194476956
335.0, 0.019911178965443383
336.0, 0.027603240326024348
337.0, 0.03082971018877648
338.0, 0.03553421542367694
339.0, 0.044704199213366144
340.0, 0.0571890982194781
341.0, 0.06955165964187762
342.0, 0.07574592590775084
343.0, 0.08480844739219676
344.0, 0.0970594662945417
345.0, 0.11033443827692069
346.0, 0.12138759768187735
347.0, 0.1293459672229636
348.0, 0.13626884781098353
349.0, 0.13816504542191957
350.0, 0.1317368846992474
351.0, 0.12315779879320858
352.0, 0.11260844138038224
353.0, 0.10110706185919795
354.0, 0.08652096092880918
355.0, 0.07033818803982253
356.0, 0.059106421547482045
357.0, 0.044213874799325766
358.0, 0.03045257950131461
359.0, 0.022516122584577303
360.0, 0.01949062827358676
361.0, 0.01585242560244857
362.0, 0.011805492531091633
363.0, 0.010491164978602653
364.0, 0.011529505817072397
365.0, 0.012520507525357293
366.0, 0.013330507042466157
367.0, 0.015541927312528623
368.0, 0.02237647927306393
369.0, 0.032534733917587495
370.0, 0.042772379994902236
371.0, 0.05147345915136707
372.0, 0.06220436107872088
373.0, 0.07117829944488575
374.0, 0.08435403162493342
375.0, 0.10478920051130595
376.0, 0.11781788843588532
377.0, 0.1351849108961134
378.0, 0.15728157163063636
379.0, 0.18032800420115283
380.0, 0.20576482454376838
381.0, 0.24139922909617995
382.0, 0.27259750055631543
383.0, 0.30858120257462807
384.0, 0.3453452964209395
385.0, 0.38102283040000745
386.0, 0.4335371677824076
387.0, 0.4763606355538793
388.0, 0.5319372392228761
389.0, 0.5901732414508969
390.0, 0.6407270009865725
391.0, 0.7047746406928717
392.0, 0.7632322738320891
393.0, 0.8212063133768586
394.0, 0.8760868883997485
395.0, 0.9238156781419831
396.0, 0.9642753510324142
397.0, 0.9903031644302022
398.0, 0.9999683274466642
399.0, 0.9939629183725609
400.0, 0.9765534213037396
401.0, 0.952966739142036
402.0, 0.9209428224059875
403.0, 0.8872735811660398
404.0, 0.8552441776087106
405.0, 0.8240797274821602
406.0, 0.7930294745062492
407.0, 0.7704266419217021
408.0, 0.7463260879429674
409.0, 0.726787035092384
410.0, 0.709689692936743
411.0, 0.6856397291174078
412.0, 0.661416175317989
413.0, 0.6390587011813147
414.0, 0.6182570687406965
415.0, 0.5938856874606206
416.0, 0.5616102834553518
417.0, 0.5306735940615648
418.0, 0.4998438174855246
419.0, 0.46391720885269727
420.0, 0.42689884582385096
421.0, 0.3931699323372094
422.0, 0.35747810037044564
423.0, 0.3189230972287894
424.0, 0.28592050589995077
425.0, 0.2583556783023375
426.0, 0.23231311686668998
427.0, 0.20423990000861755
428.0, 0.1808031749205909
429.0, 0.15535618916046806
430.0, 0.1327360520121519
431.0, 0.11738010135539294
432.0, 0.1028182026104927
433.0, 0.08336711247001745
434.0, 0.06722023445043711
435.0, 0.062034474012949564
436.0, 0.058996211214244074
437.0, 0.048149294861902656
438.0, 0.03881266308533672
439.0, 0.03535768844983228
440.0, 0.03371436476434313
441.0, 0.03062055724401595
442.0, 0.02806411856303184
443.0, 0.0313037276920983
444.0, 0.0354232700078444
445.0, 0.03577855067395518
446.0, 0.03897036562412051
447.0, 0.04594373647079119
448.0, 0.05169736717232621
449.0, 0.06388208339667596
450.0, 0.07229030701309076
451.0, 0.07861288740621167
452.0, 0.08677388451461106
453.0, 0.10090403985644911
454.0, 0.1234958917182313
455.0, 0.1431362717396217
456.0, 0.16213137225055527
457.0, 0.18208301319603526
458.0, 0.205329965338267
459.0, 0.23720164042502784
460.0, 0.26517370958140574
461.0, 0.29328023699548794
462.0, 0.3287828575375667
463.0, 0.3683460812201474
464.0, 0.40040415651749384
465.0, 0.4348057836170511
466.0, 0.4564009267849897
467.0, 0.4602721143818536
468.0, 0.44188283792433947
469.0, 0.40032224032441094
470.0, 0.34944456040497246
471.0, 0.2884138170158704
472.0, 0.22999427373438067
473.0, 0.1784292376771486
474.0, 0.13554542801495978
475.0, 0.10344232543648817
476.0, 0.07008032001257913
477.0, 0.05289204096423665
478.0, 0.04081963297038824
479.0, 0.028056271959111565
480.0, 0.0179488008152449
481.0, 0.007912208385176932
482.0, 0.0014796433658806369
483.0, 0.0039656685952807556
484.0, 0.005739933665049812
485.0, 0.005855209637948441
486.0, 0.008918593741016966
487.0, 0.006264730555166449
488.0, 0.005393712662040797
489.0, 0.007587752169842316
490.0, 0.006317987173317201
491.0, 0.00708767963271375
492.0, 0.004429233509894091
493.0, 0.004944748562636697
494.0, 0.0016025240480400328
495.0, 0.0025202376209386887
496.0, 0.004381454746563129
497.0, 0.0023636975655484845
498.0, 0.0019937339214824044
499.0, 0.004240998013765075
500.0, 0.0017972930682366357
501.0, 0.0005150880854151067
502.0, 0.003399391189775369
503.0, 0.005353123745139714
504.0, 0.004276291157797675
505.0, 0.006170591934480958
506.0, 0.006250904508306847
507.0, 0.0048854628397155845
508.0, 0.005209551106048303
509.0, 0.0012950593223986164
510.0, 0.0025464079390720875
511.0, 0.005906236511187592
512.0, 0.004103446600003971
513.0, 0.0025250717318888597
514.0, 0.0043952865377454705
515.0, 0.006231161425659906
516.0, 0.00560464815024941
517.0, 0.005089411285182847
518.0, 0.0040993443168605035
519.0, 0.004463670547922426
520.0, 0.0064861929085759246
521.0, 0.003707241207826879
522.0, 0.004828572879621028
523.0, 0.00993173203090664
524.0, 0.011822229171357185
525.0, 0.008127791240903308
526.0, 0.008768209345332822
527.0, 0.012606907468531159
528.0, 0.013395339433926437
529.0, 0.014214717440562238
530.0, 0.01770947188636164
531.0, 0.020655608692692454
532.0, 0.01942985817245602
533.0, 0.021357721517675378
534.0, 0.019335177169695638
535.0, 0.02098547866338935
536.0, 0.028562175053652623
537.0, 0.02735532787298641
538.0, 0.03218869224952317
539.0, 0.03458366563689171
540.0, 0.037318711521863675
541.0, 0.03997805051926058
542.0, 0.04082738124442306
543.0, 0.044236424020127084
544.0, 0.04474661040518747
545.0, 0.04770436402294768
546.0, 0.04952651912706159
547.0, 0.04850725267906568
548.0, 0.04764575662607205
549.0, 0.047134285214868274
550.0, 0.04697597438283702
551.0, 0.046524769434094386
552.0, 0.042287336597653415
553.0, 0.03592062539070827
554.0, 0.03279314934754682
555.0, 0.03159160324834921
556.0, 0.02854390812727983
557.0, 0.024845202054068396
558.0, 0.02203482018865036
559.0, 0.020962158790431444
560.0, 0.022184014282647265
561.0, 0.023000988721900144
562.0, 0.022278067570110294
563.0, 0.022591140579822085
564.0, 0.02198694297199933
565.0, 0.02064878568754149
566.0, 0.021453080926776058
567.0, 0.020078109390167274
568.0, 0.0198214852869475
569.0, 0.02075167850316989
570.0, 0.020827586992218518
571.0, 0.020304937750433235
572.0, 0.021395602125233986
573.0, 0.023116551468415673
574.0, 0.02310003102621338
575.0, 0.023538638375608555
576.0, 0.025021949251629445
577.0, 0.025867866580686374
578.0, 0.024268925581064887
579.0, 0.022915433854543345
580.0, 0.022386208624335182
581.0, 0.022903224063119065
582.0, 0.023802999485572133
583.0, 0.022476188327365195
584.0, 0.016934735688546407
585.0, 0.0158691433058604
586.0, 0.011880381614132124
587.0, 0.012188224803949523
588.0, 0.014668262924577541
589.0, 0.01389902580789017
590.0, 0.01048164917005714
591.0, 0.013124458881012855
592.0, 0.007083382615965248
593.0, 0.006117246063546203
594.0, 0.007478485356313727
595.0, 0.006391149971890337
596.0, 0.006118439952666878
597.0, 0.008673669581223842
598.0, 0.008314125003809448
599.0, 0.0089685697605439
600.0, 0.009712559441834091
601.0, 0.009189470208104856
602.0, 0.00793574846392937
603.0, 0.00606973580682077
604.0, 0.005829996368744571
605.0, 0.010831517844237927
606.0, 0.013821237387063505
607.0, 0.014548047201809052
608.0, 0.015975103346157867
609.0, 0.013738047011034472
610.0, 0.015568098013828012
611.0, 0.017075873529716037
612.0, 0.01575997674689323
613.0, 0.01409281301148692
614.0, 0.014275829232604849
615.0, 0.014062953306509177
616.0, 0.014655976856204461
617.0, 0.010056178163606199
618.0, 0.007456793159471489
619.0, 0.008410886191287627
620.0, 0.00903080748329686
621.0, 0.0067941299563814405
622.0, 0.0043392544035064
623.0, 0.003936535218557252
624.0, 0.0036824389640502256
625.0, 0.0038429242956628936
626.0, 0.003659733613924443
627.0, 0.002474823394240678
628.0, 0.003633590963303082
629.0, 0.0029625007689502493
630.0, 0.0035323384094586695
631.0, 0.0033877807696747276
632.0, 0.0027400395671884005
633.0, 0.003560370535119723
634.0, 0.005535201375616764
635.0, 0.0036814164059043716
636.0, 0.0005585715982187594
637.0, 0.003185611368227202
638.0, 0.005036768320778529
639.0, 0.0032794918501791196
640.0, 0.004537864171063953
641.0, 0.0011597345106974604
642.0, 0.00219688519383124
643.0, 0.0005128707952589896
644.0, 0.0010563412878385383
645.0, 0.0012454963225766288
646.0, 0.0013216174881093268
647.0, 0.0005612332485133696
648.0, 0.0018679837308153437
649.0, 0.0018916374843069564
650.0, 0.003387495875436551
651.0, 0.0019464530230943252
652.0, 0.0005576917912497082
653.0, 0.0004331529481753121
654.0, 0.0003735958170634255
655.0, 0.000963303043160929
656.0, 0.0003888034881419545
657.0, 0.000784447226644209
658.0, 0.00043815532012608126
659.0, 0.0008247494198269611
660.0, 0.0009833905403427564
661.0, 0.00109158005979758
662.0, 0.0009693425806669505
663.0, 0.0006566199734538843
664.0, 0.00038499281851862627
665.0, 0.0006953800128453507
666.0, 0.00041383204817035566
667.0, 0.0031780304058786515
668.0, 0.0007711226912990747
669.0, 0.00039073656546149315
670.0, 0.0009739558384306981
671.0, 0.000243607845149235
672.0, 0.0018760560562305205
673.0, 0.007219776450579038
674.0, 0.0012511573426385759
675.0, 0.0008763266522042951
676.0, 0.005596971187778894
677.0, 0.007993736991039486
678.0, 0.00719727539608296
679.0, 0.007497617826581668
680.0, 0.009993061002719803
681.0, 0.006554488629457002
682.0, 0.007987959449502953
683.0, 0.010178036356328805
684.0, 0.01015623275627145
685.0, 0.009815891649774594
686.0, 0.011779388632436286
687.0, 0.011806641548445936
688.0, 0.010453141108892155
689.0, 0.008141335772909729
690.0, 0.009213586994819903
691.0, 0.010465287760547393
692.0, 0.008975749959767262
693.0, 0.00734415075693441
694.0, 0.007459685220748135
695.0, 0.011239088685727113
696.0, 0.009353289982213093
697.0, 0.006182691661832609
698.0, 0.006576212447913079
699.0, 0.007756225902019435
700.0, 0.005384153464183945
701.0, 0.005690436977177164
702.0, 0.007822748686493375
703.0, 0.009029656465800895
704.0, 0.008909983643792453
705.0, 0.009395024293047359
706.0, 0.009406918173484062
707.0, 0.006292970613699003
708.0, 0.009427247846063356
709.0, 0.009366152020607966
710.0, 0.011726453200385891
711.0, 0.012633171381342326
712.0, 0.01220913228225757
713.0, 0.01329408177625505
714.0, 0.014848671954296145
715.0, 0.014299421252323087
716.0, 0.015396983510253441
717.0, 0.012772494731278854
718.0, 0.014271871388356026
719.0, 0.016308773207478176
720.0, 0.013568926639975618
721.0, 0.011953916165193305
722.0, 0.010793953924304168
723.0, 0.008172735648826347
724.0, 0.004967832260935046
725.0, 0.003384899846338212
726.0, 0.0020295933722891814
727.0, 0.0015331535243845293
728.0, 0.005111377365422987
729.0, 0.004849785532278244
730.0, 0.0016958307196605342
731.0, 0.0030944078342298263
732.0, 0.0036585524017189973
733.0, 0.0013113716054629454
734.0, 0.0004822737910212244
735.0, 0.0003316260477384891
736.0, 0.0004267894750178694
737.0, 0.0022461279237370475
738.0, 0.0007842518212038611
739.0, 0.0003990526233391975
740.0, 0.0009931951348570098
741.0, 0.0006335560803734894
742.0, 0.0007809068975533277
743.0, 0.00029452608719522546
744.0, 0.00015606686629789508
745.0, 0.0015660398992637344
746.0, 0.0004563283988689136
747.0, 0.0033888133214496014
748.0, 0.006605542565022609
749.0, 0.0034152573803111525
750.0, 0.0032897602098027764
751.0, 0.0012917705347771844
752.0, 0.0004575639282260126
753.0, 0.00038811281300700566
754.0, 0.002889572535155884
755.0, 0.004748820562867331
756.0, 0.003096934848136263
757.0, 0.0004882834214834148
758.0, 0.0003389741082833812
759.0, 0.00031677948307910417
760.0, 3.228872270307081e-05
761.0, 1.132359066504016e-05
762.0, 0.0008847257065269151
763.0, 0.0006688295690175034
764.0, 0.00047840594945378724
765.0, 0.0010496751705766894
766.0, 0.0027567411433206076
767.0, 0.0015683241364621984
768.0, 0.0007642791261152992
769.0, 0.0010511386436927504
770.0, 0.0009954736609028708
771.0, 0.0005958880091999899
772.0, 0.00027594529392518176
773.0, 0.0017544537778809023
774.0, 0.0006871938835162914
775.0, 0.00037626998575312625
776.0, 0.00027102047832754437
777.0, 0.0009483965929993732
778.0, 0.0003857653486817518
779.0, 0.001676623733914078
780.0, 0.001089928106004905
781.0, 0.0029169568716490377
782.0, 0.002016199986630299
783.0, 0.0009094901607867369
784.0, 0.0003258667527815107
785.0, 0.0005626858734798498
786.0, 0.0014376924865390354
787.0, 7.606850972622262e-05
788.0, 0.0020128617102494442
789.0, 0.0035889474035822144
790.0, 0.0020312101308190486
791.0, 0.0015305518236214892
792.0, 0.003171350519786096
793.0, 0.0033405931147148216
794.0, 0.0018117128704333075
795.0, 0.0017544168537679315
796.0, 0.00013501887594580532
797.0, 0.0017758244573182118
798.0, 0.0002315550097490538
799.0, 0.00010304451202709927
800.0, 0.00014968932750671863
801.0, 0.0019033771261335146
802.0, 0.005257399751416933
803.0, 0.002002304326335302
804.0, 0.00010652176176566619
805.0, 0.002187410662889548
806.0, 0.005665664063793124
807.0, 0.004059555098761329
808.0, 0.0037509286260115223
809.0, 0.005388424642420346
810.0, 0.0037671253074944293
811.0, 0.0032790488218099574
812.0, 0.0001765253712237204
813.0, 0.004395119899868637
814.0, 0.0036617515679849525
815.0, 0.0033293321999449186
816.0, 0.004082084519478511
817.0, 0.00278877791443483
818.0, 0.0010211743107867855
819.0, 0.002393625769831249
820.0, 0.0028086322032515126
821.0, 0.0027105028579735863
822.0, 0.003446248191776331
823.0, 0.004268916551733632
824.0, 0.004659962141303041
825.0, 0.003936038454886678
826.0, 0.0029917929041103396
827.0, 0.003610483567574114
828.0, 0.0031723418327859487
829.0, 0.0002368791863247128
830.0, 0.0001572691374117981
831.0, 0.0004576333781181055
832.0, 0.00036298229246880837
833.0, 0.002364125053011435
834.0, 0.004013823657439329
835.0, 0.005179697848848252
836.0, 0.005011846118185691
837.0, 0.0007230773677363768
838.0, 0.0020333026982883745
839.0, 0.006810652219771413
840.0, 0.006584040274769502
841.0, 0.0038023630898834865
842.0, 0.0037645249801248597
843.0, 0.006146252954615463
844.0, 0.004388452904393007
845.0, 0.00024794727870995994
846.0, 0.0005379715472913681
847.0, 0.003166568656604233
848.0, 0.0022817683512790362
849.0, 0.001753305448284679
850.0, 0.0025637498213917256
851.0, 0.0038022962117834603
852.0, 0.005981017431129845
853.0, 0.0037278346422680757
854.0, 0.0037910898627481994
855.0, 0.0030276820718177443
856.0, 0.0012613815680542764
857.0, 0.002467078812085086
858.0, 0.004888684725544101
859.0, 0.004313656907258585
860.0, 0.001987125130761859
861.0, 0.00425695811618515
862.0, 0.0036043655455268147
863.0, 0.0035882294852668992
864.0, 0.005161846619999444
865.0, 0.0032776212172445245
866.0, 0.002255905115932716
867.0, 0.0030785768224999583
868.0, 0.002582120732364707
869.0, 0.00268341937228758
870.0, 0.005551210097664822
871.0, 4.672366983418594e-05
872.0, 0.004155056651950553
873.0, 0.0029037868452355003
874.0, 0.0012878092989024434
875.0, 0.0006594223311684686
876.0, 0.0013973431738781277
877.0, 0.004685646130323342
878.0, 0.00374207466658599
879.0, 0.0007219104729694971
880.0, 0.005367830997239253
881.0, 0.006749739272809662
882.0, 0.006828846986126101
883.0, 0.006309938104940925
884.0, 0.004890372122601376
885.0, 0.005149850078114111
886.0, 0.0027369601454588508
887.0, 0.0026833646549171263
888.0, 0.004528497294569718
889.0, 0.0053581775391835776
890.0, 0.000977640068470373
891.0, 0.0017772766277775322
892.0, 0.003458796088339191
893.0, 0.004221843848777407
894.0, 0.004174058953662624
895.0, 0.003687987765337428
896.0, 0.004534261192645518
897.0, 0.0024444289130153537
898.0, 0.0003880501691691957
899.0, 0.0029880435803151494
900.0, 0.0057168775349197955
901.0, 0.0021798119723651886
902.0, 0.0004245852788568772
903.0, 0.001421337708833696
904.0, 0.001167963187957687
905.0, 0.00026525026058856936
906.0, 0.0009471549465567228
907.0, 0.0002662669374566421
908.0, 0.0021732459221247427
909.0, 0.0027238762218893416
910.0, 0.002629338149447399
911.0, 0.0006301513460451372
912.0, 0.000937923290083469
913.0, 0.003650156849111777
914.0, 0.0016854878220501292
915.0, 0.0009854217371064943
916.0, 0.0019625228174826852
917.0, 0.0005389245735145246
918.0, 0.0004901035642423491
919.0, 0.0005255655106598362
920.0, 0.00020019536755949132
921.0, 0.0006222065275010874
922.0, 0.0022610263744736892
923.0, 0.0017162610850265196
924.0, 0.00020800814820811224
925.0, 0.0018103385407389917
926.0, 0.0007105596238327958
927.0, 0.0002003937261951219
928.0, 0.0004903256302720439
929.0, 0.0008135011984820262
930.0, 0.00041539529564206843
931.0, 0.00012127728840784696
932.0, 0.0006810128841173429
933.0, 0.0007966886858806398
934.0, 0.003685054055201868
935.0, 0.0006859142982246479
936.0, 0.0007449139343695323
937.0, 0.0007728209915903663
938.0, 0.0004101125807885253
939.0, 0.0007860715956835388
940.0, 0.0023416166158346844
941.0, 0.002410599477681163
942.0, 0.0027003683937947554
943.0, 0.00392852937298094
944.0, 0.006102577516110912
945.0, 0.003925542380471481
946.0, 0.002995111297087061
947.0, 0.004361126846851676
948.0, 0.005668598799037854
949.0, 0.007795005678709471
950.0, 0.011221743764408995
951.0, 0.014780461423296127
952.0, 0.016193182274160757
953.0, 0.017037885855121875
954.0, 0.021237061867790192
955.0, 0.022049587477155005
956.0, 0.02680452784422263
957.0, 0.03164479320045053
958.0, 0.034834598824954544
959.0, 0.04109543547172011
960.0, 0.04833533858646613
961.0, 0.05146513267923541
962.0, 0.05512153368567979
963.0, 0.06432248650734564
964.0, 0.07047285151155752
965.0, 0.0738923867695401
966.0, 0.08082228798052114
967.0, 0.08703695922316225
968.0, 0.08326778767366572
969.0, 0.08834523337280925
970.0, 0.09145069872704567
971.0, 0.09136991088194533
972.0, 0.09580031404097947
973.0, 0.09992888413073721
974.0, 0.10059501261580728
975.0, 0.10786103352346438
976.0, 0.11702623972583936
977.0, 0.12626409657259116
978.0, 0.1373837229954563
979.0, 0.1461068435338686
980.0, 0.15808366339081323
981.0, 0.17291365835062503
982.0, 0.18745485908507972
983.0, 0.2032766574930938
984.0, 0.22069271980109947
985.0, 0.238231217685431
986.0, 0.254635222700018
987.0, 0.25959977953805274
988.0, 0.2646456499152187
989.0, 0.2715743638714083
990.0, 0.26611115066231483
991.0, 0.25509039782195925
992.0, 0.2405936571222946
993.0, 0.2225164398922912
994.0, 0.20271184995697414
995.0, 0.1830681680497852
996.0, 0.1675284111490646
997.0, 0.14630326895183973
998.0, 0.13274918349351622
999.0, 0.11991036968767804
1000.0, 0.10453996974998264
1001.0, 0.0937261032888596
1002.0, 0.08357597205241474
1003.0, 0.07568113773446361
1004.0, 0.07003277790911563
1005.0, 0.06552834987782402
1006.0, 0.06042145676766358
1007.0, 0.050369336455998795
1008.0, 0.04432300793254651
1009.0, 0.039186420185321244
1010.0, 0.03848939295170133
1011.0, 0.03553596381855073
1012.0, 0.032306794388579946
1013.0, 0.028433875136096166
1014.0, 0.023814888727154496
1015.0, 0.02083479789519311
1016.0, 0.019494036656026698
1017.0, 0.019193191574465144
1018.0, 0.01628422794551867
1019.0, 0.014683148556849651
1020.0, 0.013345101846836628
1021.0, 0.01336885529730519
1022.0, 0.010495837375376163
1023.0, 0.008786882340016159
1024.0, 0.0075494623901554946
1025.0, 0.00924616570741447
1026.0, 0.009710444978738797
1027.0, 0.00760352537451738
1028.0, 0.008604923426001658
1029.0, 0.009425320642914825
1030.0, 0.005311186738991069
1031.0, 0.006203833126281363
1032.0, 0.008346128839277003
1033.0, 0.007463462841107667
1034.0, 0.0051516637567435575
1035.0, 0.00428825678856211
1036.0, 0.0060304623408010734
1037.0, 0.005960819651686463
1038.0, 0.003224761555028536
1039.0, 0.003016066673340218
1040.0, 0.003330653675445698
1041.0, 0.0004792794046637591
1042.0, 0.0008510903183022196
1043.0, 0.0004464401618750283
1044.0, 0.00048746313685422223
1045.0, 0.0002240503545780858
1046.0, 0.0003490875995090677
1047.0, 0.0005340112574324139
1048.0, 0.0008514592090039233
1049.0, 0.0003844726893466541
1050.0, 0.00036688002511136057
1051.0, 0.0011387589726712338
1052.0, 0.0007253509688990525
1053.0, 0.0005134969468793663
1054.0, 0.0007660377147148847
1055.0, 0.0003159192225299501
1056.0, 0.0003509686541604221
1057.0, 0.00034932987324368553
1058.0, 0.0012647101126299265
1059.0, 0.001408442227558747
1060.0, 0.0018894408723923828
1061.0, 0.003053574720298799
1062.0, 0.0038848827667016706
1063.0, 0.002743129720232064
1064.0, 0.003546994374348745
1065.0, 0.005448555200005384
1066.0, 0.00629539567814105
1067.0, 0.009617641365327998
1068.0, 0.009386274542237257
1069.0, 0.011116703315003753
1070.0, 0.011541620108528048
1071.0, 0.01314565802148214
1072.0, 0.013326872645117137
1073.0, 0.014290042068840868
1074.0, 0.014125004530215927
1075.0, 0.017369153106667787
1076.0, 0.020336449418840052
1077.0, 0.018626985308861015
1078.0, 0.01953677081850203
1079.0, 0.025889276325696733
1080.0, 0.029015335811673496
1081.0, 0.03059387180830276
1082.0, 0.03542269015547653
1083.0, 0.04004486999141397
1084.0, 0.04619116841243159
1085.0, 0.05674063122914492
1086.0, 0.0637635001223751
1087.0, 0.06507123213530859
1088.0, 0.05716893032115736
1089.0, 0.04165255656474247
1090.0, 0.0294168651588462
1091.0, 0.024059335898944302
1092.0, 0.019732392978211555
1093.0, 0.014580081933792854
1094.0, 0.011475197008701784
1095.0, 0.009661929648582994
1096.0, 0.009359350153918335
1097.0, 0.00909905326939874
1098.0, 0.00781795195351076
1099.0, 0.008092326325346113
1100.0, 0.00654906198147393
1101.0, 0.007629612142899781
1102.0, 0.005831949176936861
1103.0, 0.004875978100075311
1104.0, 0.00463724980648427
1105.0, 0.002533912777569151
1106.0, 0.001163141111776716
1107.0, 0.0009992841231975687
1108.0, 0.00017402054153532309
1109.0, 0.0006783445438876276
1110.0, 0.0032515898925013836
1111.0, 0.0005143005921713734
1112.0, 0.0037279919583809123
1113.0, 0.003492258812885367
1114.0, 0.002426769522078716
1115.0, 0.0017285544595302747
1116.0, 0.00012453064290362408
1117.0, 0.003145754858303035
1118.0, 0.004656481919801559
1119.0, 0.0016242931362342905
1120.0, 0.0006101875605752901
1121.0, 0.0017403856179808534
1122.0, 0.0008640695487906819
1123.0, 0.0006406510385710844
1124.0, 0.000508338950485082
1125.0, 0.000539237716566486
1126.0, 0.0010696760476182896
1127.0, 0.0001472723012615062
1128.0, 0.002649751685714387
1129.0, 0.004309450848729472
1130.0, 0.004888376127956669
1131.0, 0.0021183303747275718
1132.0, 0.0024805561751197764
1133.0, 0.001326040353220411
1134.0, 0.0006139355730349196
1135.0, 0.001912400644467186
1136.0, 0.0007843205127987528
1137.0, 0.0014120680591199633
1138.0, 0.0034432975586093993
1139.0, 0.0036040656809521814
1140.0, 0.0007286921670346615
1141.0, 0.0017500560806761813
1142.0, 0.00034532207821925877
1143.0, 0.0008494232304479525
1144.0, 0.00030159910380875434
1145.0, 0.002199815026584843
1146.0, 0.002391710137780993
1147.0, 0.002019035437963406
1148.0, 0.0016429220712497778
1149.0, 0.003346328950801878
1150.0, 0.00435290030741328
1151.0, 0.002048006038307921
1152.0, 0.0008100219719026034
1153.0, 0.002489520753555043
1154.0, 0.0030826625691081533
1155.0, 0.0018787603556706838
1156.0, 0.0010911081396268868
1157.0, 0.0050092606420655
1158.0, 0.005730770560576417
1159.0, 0.0053908172586896175
1160.0, 0.003758051471982839
1161.0, 0.003567123407220333
1162.0, 0.0024198579845643485
1163.0, 0.00020556820964778784
1164.0, 0.0039045054586320104
1165.0, 0.0026675337507799262
1166.0, 0.0012249180587818947
1167.0, 0.0011846006223276784
1168.0, 0.003549276610179863
1169.0, 0.005111758735820375
1170.0, 0.006014978592103111
1171.0, 0.005674687708165128
1172.0, 0.0030354148344372157
1173.0, 0.005095180266572341
1174.0, 0.0048576171192332655
1175.0, 0.003307507820566745
1176.0, 9.180241594872852e-05
1177.0, 0.005312156489566901
1178.0, 0.006839556270131607
1179.0, 0.005961994182239076
1180.0, 0.006701850288149521
1181.0, 0.005881277990572992
1182.0, 0.004177813576884094
1183.0, 0.003214592575052715
1184.0, 0.0004534256007579978
1185.0, 0.0013854100016800956
1186.0, 0.00397699334397139
1187.0, 0.0016326219006447674
1188.0, 0.002775488803580586
1189.0, 0.0056097367925592705
1190.0, 0.004629742871423004
1191.0, 0.006708052566587335
1192.0, 0.0027200917950500813
1193.0, 0.002333508072489396
1194.0, 0.004843503269117259
1195.0, 0.0009502504644596174
1196.0, 0.003939586241439609
1197.0, 0.006658524419182845
1198.0, 0.004278016877333411
1199.0, 0.002964661097036797
1200.0, 0.0017270510558412423
1201.0, 0.0020678062967837588
1202.0, 0.002080385722882838
1203.0, 0.0016083847716243521
1204.0, 0.000831887953534194
1205.0, 0.0002130655802743244
1206.0, 0.00019298113468012486
1207.0, 0.00036680250915980004
1208.0, 0.00028590200840469587
1209.0, 0.0013262742460702149
1210.0, 0.0012867620187456902
1211.0, 0.0009664744433265187
1212.0, 0.00523495193405383
1213.0, 0.0022904161216980847
1214.0, 0.0015199144538833355
1215.0, 0.0006405280516651254
1216.0, 0.000351151501889396
1217.0, 0.0019824943097012703
1218.0, 0.00028325281435671987
1219.0, 0.0016532878924634007
1220.0, 0.0022521327166362868
1221.0, 0.000945032587853304
1222.0, 0.0011115103006760175
1223.0, 0.0027000732528406333
1224.0, 0.002503720057682136
1225.0, 0.0005507535095075481
1226.0, 0.00032376894562356697
1227.0, 0.002661129186685709
1228.0, 0.003103782838496081
1229.0, 0.0011897435943615837
1230.0, 0.002988183000942525
1231.0, 0.0020987076577662135
1232.0, 0.0002232159491120766
1233.0, 0.003006806418337009
1234.0, 0.00474112808486202
1235.0, 0.0027554675479819174
1236.0, 0.0010576859366491136
1237.0, 0.0011111620743941616
1238.0, 0.002745183953194889
1239.0, 0.004519639907791194
1240.0, 0.007315170192983438
1241.0, 0.007264116614850785
1242.0, 0.005516363985050493
1243.0, 0.0059632342449122125
1244.0, 0.006962704142508396
1245.0, 0.007154502377387785
1246.0, 0.005910181577688478
1247.0, 0.0062808018976635615
1248.0, 0.006158196754630731
1249.0, 0.006613941612650153
1250.0, 0.006773691508553822
1251.0, 0.0071667009888778
1252.0, 0.006077805024373391
1253.0, 0.005523562644252043
1254.0, 0.007128003039439124
1255.0, 0.008480483545529199
1256.0, 0.008681623697785882
1257.0, 0.0065684750230042555
1258.0, 0.0065840786940604785
1259.0, 0.005555230946693847
1260.0, 0.004047013411524207
1261.0, 0.006170127593629619
1262.0, 0.0050554502533793014
1263.0, 0.005935876832452357
1264.0, 0.005469306681382208
1265.0, 0.0011920609525777656
1266.0, 0.00019891878345450992
1267.0, 0.0024100444609103187
1268.0, 0.009352426538461233
1269.0, 0.007634318555366038
1270.0, 0.00705687472388205
1271.0, 0.006222688983229119
1272.0, 0.005879393116637509
1273.0, 0.007303156467227346
1274.0, 0.007355925409438406
1275.0, 0.005913279305354496
1276.0, 0.0059483864800727575
1277.0, 0.008374439335424764
1278.0, 0.007533441477130841
1279.0, 0.001986007138640679
1280.0, 0.0022850705015154235
1281.0, 0.0045817395978505265
1282.0, 0.0005910686831957373
1283.0, 0.0014030848503199648
1284.0, 0.003855275850731156
1285.0, 0.00034512877535651586
1286, 0.0
1287, 0.0
1288, 0.0
1289, 0.0
1290, 0.0
1291, 0.0
1292, 0.0
1293, 0.0
1294, 0.0
1295, 0.0
1296, 0.0
1297, 0.0
1298, 0.0
1299, 0.0
1300, 0.0
1301, 0.0
1302, 0.0
1303, 0.0
1304, 0.0
1305, 0.0
1306, 0.0
1307, 0.0
1308, 0.0
1309, 0.0
1310, 0.0
1311, 0.0
1312, 0.0
1313, 0.0
1314, 0.0
1315, 0.0
1316, 0.0
1317, 0.0
1318, 0.0
1319, 0.0
1320, 0.0
1321, 0.0
1322, 0.0
1323, 0.0
1324, 0.0
1325, 0.0
1326, 0.0
1327, 0.0
1328, 0.0
1329, 0.0
1330, 0.0
1331, 0.0
1332, 0.0
1333, 0.0
1334, 0.0
1335, 0.0
1336, 0.0
1337, 0.0
1338, 0.0
1339, 0.0
1340, 0.0
1341, 0.0
1342, 0.0
1343, 0.0
1344, 0.0
1345, 0.0
1346, 0.0
1347, 0.0
1348, 0.0
1349, 0.0
1350, 0.0
1351, 0.0
1352, 0.0
1353, 0.0
1354, 0.0
1355, 0.0
1356, 0.0
1357, 0.0
1358, 0.0
1359, 0.0
1360, 0.0
1361, 0.0
1362, 0.0
1363, 0.0
1364, 0.0
1365, 0.0
1366, 0.0
1367, 0.0
1368, 0.0
1369, 0.0
1370, 0.0
1371, 0.0
1372, 0.0
1373, 0.0
1374, 0.0
1375, 0.0
1376, 0.0
1377, 0.0
1378, 0.0
1379, 0.0
1380, 0.0
1381, 0.0
1382, 0.0
1383, 0.0
1384, 0.0
1385, 0.0
1386, 0.0
1387, 0.0
1388, 0.0
1389, 0.0
1390, 0.0
1391, 0.0
1392, 0.0
1393, 0.0
1394, 0.0
1395, 0.0
1396, 0.0
1397, 0.0
1398, 0.0
1399, 0.0
1400, 0.0
1401, 0.0
1402, 0.0
1403, 0.0
1404, 0.0
1405, 0.0
1406, 0.0
1407, 0.0
1408, 0.0
1409, 0.0
1410, 0.0
1411, 0.0
1412, 0.0
1413, 0.0
1414, 0.0
1415, 0.0
1416, 0.0
1417, 0.0
1418, 0.0
1419, 0.0
1420, 0.0
1421, 0.0
1422, 0.0
1423, 0.0
1424, 0.0
1425, 0.0
1426, 0.0
1427, 0.0
1428, 0.0
1429, 0.0
1430, 0.0
1431, 0.0
1432, 0.0
1433, 0.0
1434, 0.0
1435, 0.0
1436, 0.0
1437, 0.0
1438, 0.0
1439, 0.0
1440, 0.0
1441, 0.0
1442, 0.0
1443, 0.0
1444, 0.0
1445, 0.0
1446, 0.0
1447, 0.0
1448, 0.0
1449, 0.0
1450, 0.0
1451, 0.0
1452, 0.0
1453, 0.0
1454, 0.0
1455, 0.0
1456, 0.0
1457, 0.0
1458, 0.0
1459, 0.0
1460, 0.0
1461, 0.0
1462, 0.0
1463, 0.0
1464, 0.0
1465, 0.0
1466, 0.0
1467, 0.0
1468, 0.0
1469, 0.0
1470, 0.0
1471, 0.0
1472, 0.0
1473, 0.0
1474, 0.0
1475, 0.0
1476, 0.0
1477, 0.0
1478, 0.0
1479, 0.0
1480, 0.0
1481, 0.0
1482, 0.0
1483, 0.0
1484, 0.0
1485, 0.0
1486, 0.0
1487, 0.0
1488, 0.0
1489, 0.0
1490, 0.0
1491, 0.0
1492, 0.0
1493, 0.0
1494, 0.0
1495, 0.0
1496, 0.0
1497, 0.0
1498, 0.0
1499, 0.0
1500, 0.0
1501, 0.0
1502, 0.0
1503, 0.0
1504, 0.0
1505, 0.0
1506, 0.0
1507, 0.0
1508, 0.0
1509, 0.0
1510, 0.0
1511, 0.0
1512, 0.0
1513, 0.0
1514, 0.0
1515, 0.0
1516, 0.0
1517, 0.0
1518, 0.0
1519, 0.0
1520, 0.0
1521, 0.0
1522, 0.0
1523, 0.0
1524, 0.0
1525, 0.0
1526, 0.0
1527, 0.0
1528, 0.0
1529, 0.0
1530, 0.0
1531, 0.0
1532, 0.0
1533, 0.0
1534, 0.0
1535, 0.0
1536, 0.0
1537, 0.0
1538, 0.0
1539, 0.0
1540, 0.0
1541, 0.0
1542, 0.0
1543, 0.0
1544, 0.0
1545, 0.0
1546, 0.0
1547, 0.0
1548, 0.0
1549, 0.0
1550, 0.0
1551, 0.0
1552, 0.0
1553, 0.0
1554, 0.0
1555, 0.0
1556, 0.0
1557, 0.0
1558, 0.0
1559, 0.0
1560, 0.0
1561, 0.0
1562, 0.0
1563, 0.0
1564, 0.0
1565, 0.0
1566, 0.0
1567, 0.0
1568, 0.0
1569, 0.0
1570, 0.0
1571, 0.0
1572, 0.0
1573, 0.0
1574, 0.0
1575, 0.0
1576, 0.0
1577, 0.0
1578, 0.0
1579, 0.0
1580, 0.0
1581, 0.0
1582, 0.0
1583, 0.0
1584, 0.0
1585, 0.0
1586, 0.0
1587, 0.0
1588, 0.0
1589, 0.0
1590, 0.0
1591, 0.0
1592, 0.0
1593, 0.0
1594, 0.0
1595, 0.0
1596, 0.0
1597, 0.0
1598, 0.0
1599, 0.0
