30, 0.0
31, 0.0
32, 0.0
33, 0.0
34, 0.0
35, 0.0
36, 0.0
37, 0.0
38, 0.0
39, 0.0
40, 0.0
41, 0.0
42, 0.0
43, 0.0
44, 0.0
45, 0.0
46, 0.0
47, 0.0
48, 0.0
49, 0.0
50, 0.0
51, 0.0
52, 0.0
53, 0.0
54, 0.0
55, 0.0
56, 0.0
57, 0.0
58, 0.0
59, 0.0
60, 0.0
61, 0.0
62, 0.0
63, 0.0
64, 0.0
65, 0.0
66, 0.0
67, 0.0
68, 0.0
69, 0.0
70, 0.0
71, 0.0
72, 0.0
73, 0.0
74, 0.0
75, 0.0
76, 0.0
77, 0.0
78, 0.0
79, 0.0
80, 0.0
81, 0.0
82, 0.0
83, 0.0
84, 0.0
85, 0.0
86, 0.0
87, 0.0
88, 0.0
89, 0.0
90, 0.0
91, 0.0
92, 0.0
93, 0.0
94, 0.0
95, 0.0
96, 0.0
97, 0.0
98, 0.0
99, 0.0
100, 0.0
101, 0.0
102, 0.0
103, 0.0
104, 0.0
105, 0.0
106, 0.0
107, 0.0
108, 0.0
109, 0.0
110, 0.0
111, 0.0
112, 0.0
113, 0.0
114, 0.0
115, 0.0
116, 0.0
117, 0.0
118, 0.0
119, 0.0
120, 0.0
121, 0.0
122, 0.0
123, 0.0
124, 0.0
125, 0.0
126, 0.0
127, 0.0
128, 0.0
129, 0.0
130, 0.0
131, 0.0
132, 0.0
133, 0.0
134, 0.0
135, 0.0
136, 0.0
137, 0.0
138, 0.0
139, 0.0
140, 0.0
141, 0.0
142, 0.0
143, 0.0
144, 0.0
145, 0.0
146, 0.0
147, 0.0
148, 0.0
149, 0.0
150, 0.0
151, 0.0
152, 0.0
153, 0.0
154, 0.0
155, 0.0
156, 0.0
157, 0.0
158, 0.0
159, 0.0
160, 0.0
161, 0.0
162, 0.0
163, 0.0
164, 0.0
165, 0.0
166, 0.0
167, 0.0
168, 0.0
169, 0.0
170, 0.0
171, 0.0
172.0, 5.783201632930074e-05
173.0, 0.0031866310532929184
174.0, 0.00676972680859889
175.0, 0.005054528823115289
176.0, 0.0032728535187184684
177.0, 0.009060452313174868
178.0, 0.014583328269119743
179.0, 0.017219861576829507
180.0, 0.019771588965811087
181.0, 0.02082527337703638
182.0, 0.023860105860069505
183.0, 0.02413985245957077
184.0, 0.020955821530824675
185.0, 0.024574021078464497
186.0, 0.028409093958922195
187.0, 0.02778868494505932
188.0, 0.025549254320113478
189.0, 0.028599553840309856
190.0, 0.02990672253044272
191.0, 0.03302375231898983
192.0, 0.034944851059156797
193.0, 0.03285824155619597
194.0, 0.033310270012727385
195.0, 0.030282384621860937
196.0, 0.030364216538773865
197.0, 0.033475986197479234
198.0, 0.029522676084554774
199.0, 0.03221397385179847
200.0, 0.0366005163998301
201.0, 0.038506009901267575
202.0, 0.037299025003303815
203.0, 0.039141787658911666
204.0, 0.04139175895682891
205.0, 0.037868030157804
206.0, 0.03161268279370664
207.0, 0.03819128838766784
208.0, 0.041160541629002734
209.0, 0.04121131613561401
210.0, 0.04065853265980062
211.0, 0.03981574338874211
212.0, 0.03666157040560363
213.0, 0.034538008806747456
214.0, 0.0345020534741012
215.0, 0.03521351940057437
216.0, 0.03119880132846005
217.0, 0.029010997600489703
218.0, 0.029513223481707686
219.0, 0.03037859240947339
220.0, 0.02815056347838599
221.0, 0.023720401824573134
222.0, 0.023106355301687375
223.0, 0.02188094655468581
224.0, 0.01758295316418629
225.0, 0.023064647412382098
226.0, 0.01953862621980023
227.0, 0.017369341510596225
228.0, 0.019404101038675247
229.0, 0.018916256012992703
230.0, 0.023520516364864224
231.0, 0.024731540965732657
232.0, 0.02583726755645034
233.0, 0.03019431885700566
234.0, 0.02782818881134292
235.0, 0.029080531513719
236.0, 0.031741069939408
237.0, 0.03271617591771402
238.0, 0.030939193166657872
239.0, 0.036115287701130976
240.0, 0.03557805168152433
241.0, 0.0350831440715957
242.0, 0.041384045634485375
243.0, 0.044103146498068235
244.0, 0.04308105859557982
245.0, 0.041203120095433525
246.0, 0.04080607210415471
247.0, 0.04214649118079864
248.0, 0.03985032131645874
249.0, 0.03901245278657983
250.0, 0.03732872845566757
251.0, 0.03362269605553757
252.0, 0.0332556473491882
253.0, 0.026785693830112506
254.0, 0.026059896863682666
255.0, 0.029219164994665824
256.0, 0.02631366453168179
257.0, 0.02404566076067525
258.0, 0.025846639925160543
259.0, 0.025255246755163416
260.0, 0.020878320609685544
261.0, 0.022633163168183666
262.0, 0.02488634177571643
263.0, 0.02278139655761822
264.0, 0.021679322150266547
265.0, 0.02790017741867133
266.0, 0.022575313598949553
267.0, 0.021003197576375268
268.0, 0.019562839022214
269.0, 0.016247558713326143
270.0, 0.01601228466426005
271.0, 0.014809712404025673
272.0, 0.011806599324300603
273.0, 0.010644815550174325
274.0, 0.013290925085324612
275.0, 0.014182846271458134
276.0, 0.011743822425072364
277.0, 0.006640149230718504
278.0, 0.003983431069616304
279.0, 0.008775764205658973
280.0, 0.00793314793783648
281.0, 0.009639275232742075
282.0, 0.007160611031427973
283.0, 0.0006039358641982635
284.0, 0.0004716313632694391
285.0, 0.0007231797965862599
286.0, 0.00033573492808733433
287.0, 0.001079282145795962
288.0, 0.0006575932168755342
289.0, 0.004728885928727351
290.0, 0.0030303097081401053
291.0, 0.0034353481986754697
292.0, 0.007095266846687152
293.0, 0.005989616515157172
294.0, 0.00277860405370977
295.0, 0.0031233554945747114
296.0, 0.004400946291566059
297.0, 0.00397729951765292
298.0, 0.003749873735309634
299.0, 0.002293613035080695
300.0, 0.0020115829615697813
301.0, 0.001950655802864721
302.0, 0.00047501644372818005
303.0, 0.0008712659696205581
304.0, 0.002773150658746478
305.0, 0.001049295140619803
306.0, 0.0017315898179307873
307.0, 0.0007370772244426181
308.0, 0.003795223320103791
309.0, 0.0032473340821908454
310.0, 0.0020625288235858272
311.0, 0.0035528913229396887
312.0, 0.002625953575344258
313.0, 0.001195551545870651
314.0, 0.0003540597595624405
315.0, 0.001429666719426154
316.0, 0.0017794268610125143
317.0, 0.00043591909507698177
318.0, 0.0004098290228536489
319.0, 5.668002068541191e-05
320.0, 0.0011331315621513317
321.0, 0.0004881390011844814
322.0, 0.008060923874825147
323.0, 0.005070935789682393
324.0, 0.0020411838872179825
325.0, 0.002682851373326923
326.0, 9.779889804308933e-05
327.0, 0.007950663234566578
328.0, 0.006237476693934416
329.0, 0.002927221324668446
330.0, 0.005499636110834651
331.0, 0.00835793601415664
332.0, 0.01098692773708442
333.0, 0.008179115191926491
334.0, 0.00619659033517261
335.0, 0.009584048995805134
336.0, 0.005537999712918337
337.0, 0.00639035906945997
338.0, 0.009148891224040253
339.0, 0.010281181979167152
340.0, 0.008244971433904109
341.0, 0.004178962743476117
342.0, 0.008949949315558765
343.0, 0.011088705948639876
344.0, 0.008177247151276627
345.0, 0.008230862618246642
346.0, 0.008336421217521994
347.0, 0.007717439129587612
348.0, 0.005263542542634871
349.0, 0.003857777024649409
350.0, 0.008657255953285356
351.0, 0.00911830556415236
352.0, 0.007925493061778987
353.0, 0.007093671620887583
354.0, 0.0074222469832439675
355.0, 0.00884343605143987
356.0, 0.007830961458098707
357.0, 0.004837381471828268
358.0, 0.0019880352776099073
359.0, 0.001869857223188465
360.0, 0.007291944765976963
361.0, 0.00475500760264101
362.0, 0.00546650733398027
363.0, 0.007166137994911616
364.0, 0.005524868816839909
365.0, 0.008654594082960205
366.0, 0.005993280631924324
367.0, 0.00353861973011852
368.0, 0.004365177457708732
369.0, 0.0062435642791311185
370.0, 0.004174179002326274
371.0, 0.007872028545430208
372.0, 0.005844305740074783
373.0, 0.001754445771859214
374.0, 0.007060641397151092
375.0, 0.005659942855537962
376.0, 0.0022311777069350964
377.0, 0.0028134369540404706
378.0, 0.003861170195198558
379.0, 0.0019129156026037818
380.0, 0.0020707202741958924
381.0, 0.0010592836952063435
382.0, 0.0010154062803229785
383.0, 0.0011338656650678107
384.0, 0.0009828954649410866
385.0, 0.0053862576372686165
386.0, 0.0014156731772968448
387.0, 0.0004898906773229679
388.0, 0.0011494043802434488
389.0, 0.003936524707488278
390.0, 0.0074843625150291
391.0, 0.0050129348156789265
392.0, 0.002948903999817854
393.0, 0.0030393693227141637
394.0, 0.0033846858163892875
395.0, 0.003207003800877808
396.0, 0.0010765486740662309
397.0, 0.0011509404194547563
398.0, 0.005298202115186839
399.0, 0.0068636590129904215
400.0, 0.007957905322829768
401.0, 0.009299755234883392
402.0, 0.011562513562128573
403.0, 0.014190543989775102
404.0, 0.015311921858537612
405.0, 0.01493101421000035
406.0, 0.014964715995404252
407.0, 0.017044607558877645
408.0, 0.019655494149014505
409.0, 0.019826113675495062
410.0, 0.023746528103444117
411.0, 0.026313373958548634
412.0, 0.029223936028800426
413.0, 0.031774905448561756
414.0, 0.03026763203282594
415.0, 0.03527668021749771
416.0, 0.03650151921423424
417.0, 0.03904770393116434
418.0, 0.04207484949250879
419.0, 0.03781089706319416
420.0, 0.04069044343783472
421.0, 0.04127782532070679
422.0, 0.04183039444759557
423.0, 0.04329621693098736
424.0, 0.04265783212295111
425.0, 0.04417582975771818
426.0, 0.04583216917541438
427.0, 0.044018852087720724
428.0, 0.04297136115577528
429.0, 0.05084532620528801
430.0, 0.057044342829821924
431.0, 0.05840367960332
432.0, 0.05671569796656786
433.0, 0.05479660349582775
434.0, 0.05538107854571547
435.0, 0.058510713610019915
436.0, 0.054979920436154135
437.0, 0.05149814102179419
438.0, 0.0506984248264815
439.0, 0.049956968199565355
440.0, 0.05035339188746194
441.0, 0.04916420919361475
442.0, 0.04664133958425336
443.0, 0.045337965684138636
444.0, 0.04716633506691171
445.0, 0.050326258064372555
446.0, 0.045964308088505795
447.0, 0.04655183786598944
448.0, 0.04779801622989065
449.0, 0.043280149322741816
450.0, 0.04409358828853409
451.0, 0.039323405030614614
452.0, 0.039811684249834146
453.0, 0.04445992138093023
454.0, 0.04677013565050806
455.0, 0.042404102776027235
456.0, 0.03894737409553451
457.0, 0.04156355511275118
458.0, 0.04539966741088438
459.0, 0.04759917894207378
460.0, 0.0506282180175227
461.0, 0.04971181561517081
462.0, 0.05040483490389284
463.0, 0.05608387795701206
464.0, 0.06168500628837223
465.0, 0.06188136943955182
466.0, 0.06433951233944264
467.0, 0.06617701082507126
468.0, 0.06619673471131311
469.0, 0.06701455764435936
470.0, 0.07148983892844173
471.0, 0.07008115302208072
472.0, 0.07100129980823389
473.0, 0.07426585155663222
474.0, 0.07736691707022739
475.0, 0.07953758938719915
476.0, 0.08329699344971844
477.0, 0.08552076602809285
478.0, 0.0888598981421974
479.0, 0.09244938074933257
480.0, 0.09185819783961857
481.0, 0.08431486991956967
482.0, 0.08752383350720015
483.0, 0.08782818762655159
484.0, 0.08516191458517552
485.0, 0.08060112369702188
486.0, 0.07405865091575468
487.0, 0.07520119340265496
488.0, 0.0717908677249264
489.0, 0.06675508377087488
490.0, 0.06125713710921235
491.0, 0.05513514271727287
492.0, 0.053323949526172365
493.0, 0.052867869140583224
494.0, 0.049265823710616725
495.0, 0.04579437561439132
496.0, 0.04300014356183142
497.0, 0.034453393068212886
498.0, 0.03519997329240997
499.0, 0.03668407305406145
500.0, 0.03375258678397331
501.0, 0.027347838110525827
502.0, 0.021464762617455856
503.0, 0.019215658727095887
504.0, 0.017419083610922297
505.0, 0.015858867405031337
506.0, 0.015129281773845992
507.0, 0.014558932681442743
508.0, 0.010840073197016699
509.0, 0.009290558158015768
510.0, 0.006116243543072509
511.0, 0.001952600195878534
512.0, 0.00030115333207207987
513.0, 0.0019570100729630053
514.0, 0.000535500553430493
515.0, 0.000305850028133439
516.0, 0.00040624525176904014
517.0, 0.000812971317476279
518.0, 0.00021894723245570317
519.0, 0.002720096344337881
520.0, 0.005686034072213307
521.0, 0.0047463788033242265
522.0, 0.0034765730469350307
523.0, 0.0036996926099600235
524.0, 0.001995912580714841
525.0, 0.0050369610359610835
526.0, 0.005499603623104358
527.0, 0.0012520879936118946
528.0, 0.002870982602720031
529.0, 0.0019024872712546687
530.0, 0.007153297333385668
531.0, 0.014393479909683001
532.0, 0.013019249122919293
533.0, 0.011701787313670744
534.0, 0.01891931260379463
535.0, 0.02333486364177932
536.0, 0.02543447142112466
537.0, 0.03068189921517988
538.0, 0.038218972344861254
539.0, 0.045979540017098364
540.0, 0.052894491931647074
541.0, 0.05875077357491765
542.0, 0.06524619701897898
543.0, 0.0702612672132978
544.0, 0.07273434593303667
545.0, 0.07212783605497605
546.0, 0.0667846856111622
547.0, 0.060187490421622386
548.0, 0.056050595233682145
549.0, 0.054167972161813384
550.0, 0.05510647137413789
551.0, 0.06013991705516204
552.0, 0.05858338118740541
553.0, 0.060217683631779
554.0, 0.059466995781596386
555.0, 0.05706313789437408
556.0, 0.05719084001185372
557.0, 0.057730067755042
558.0, 0.06007020088458839
559.0, 0.058575342301331434
560.0, 0.05453708511685795
561.0, 0.05138634225501834
562.0, 0.05034514083425646
563.0, 0.04795657263005447
564.0, 0.049929890366569134
565.0, 0.04912980731574041
566.0, 0.048830626297922626
567.0, 0.05272150466201858
568.0, 0.05565125683832296
569.0, 0.054967054311872585
570.0, 0.055824204862807564
571.0, 0.05388728735220195
572.0, 0.052234885502136515
573.0, 0.056382831553340895
574.0, 0.06159112314169305
575.0, 0.06323594734511824
576.0, 0.06542832479126229
577.0, 0.07114552653470023
578.0, 0.07789006780885759
579.0, 0.08060378514352581
580.0, 0.08235445581727928
581.0, 0.08065029291312976
582.0, 0.08093372998615037
583.0, 0.0828736903560645
584.0, 0.0846021110788605
585.0, 0.08660858446240889
586.0, 0.08587273270503981
587.0, 0.08477741861612359
588.0, 0.08280231101301867
589.0, 0.07900744203692985
590.0, 0.07311005375090354
591.0, 0.06500156216103917
592.0, 0.05821969048740182
593.0, 0.05719164904652445
594.0, 0.05621046679495782
595.0, 0.05118248956429934
596.0, 0.044246954909473744
597.0, 0.03918651339550957
598.0, 0.0402500857682494
599.0, 0.03846255057495248
600.0, 0.037266021379628464
601.0, 0.037266079405339395
602.0, 0.03201122516914847
603.0, 0.03886600780246693
604.0, 0.03926936079484457
605.0, 0.0369584061156992
606.0, 0.039425448356593215
607.0, 0.04597422363787767
608.0, 0.045612885520546494
609.0, 0.045907189563728336
610.0, 0.051213963605683754
611.0, 0.058787928374287715
612.0, 0.06347264275055349
613.0, 0.06202815547644388
614.0, 0.05581210426255969
615.0, 0.06040066569331596
616.0, 0.06369041492710512
617.0, 0.061857522385468405
618.0, 0.05839050904181616
619.0, 0.057372797699050355
620.0, 0.056499534122869
621.0, 0.057258210195744126
622.0, 0.05133645614612783
623.0, 0.04501327597232296
624.0, 0.045545844331682406
625.0, 0.04981922020566801
626.0, 0.044516096329689996
627.0, 0.03904771141347191
628.0, 0.03637876137541932
629.0, 0.03579460930635931
630.0, 0.03337113037350515
631.0, 0.026579985263883152
632.0, 0.023628930709582514
633.0, 0.02126994105673918
634.0, 0.01647124557164224
635.0, 0.013836497819410083
636.0, 0.01441070439191602
637.0, 0.012976132587577122
638.0, 0.009990241289303016
639.0, 0.00810892297785648
640.0, 0.010508336416539274
641.0, 0.007596755556562297
642.0, 0.0012960951816256186
643.0, 0.004710756739980325
644.0, 0.005660388931181398
645.0, 0.0006256264681367437
646.0, 0.002490408003376352
647.0, 0.004987017466978844
648.0, 0.0018094947987199778
649.0, 0.00039681055825437647
650.0, 0.0010421336130376471
651.0, 0.00047298170727791476
652.0, 0.0008605906045144008
653.0, 0.0013000629511772442
654.0, 0.00313161125473465
655.0, 0.001108294398530208
656.0, 0.0013569399939153456
657.0, 0.00264164832670124
658.0, 0.0040119525580195456
659.0, 0.0032033336695421904
660.0, 0.00039921549678620984
661.0, 0.0013693303159423684
662.0, 0.0021233018141245557
663.0, 0.0009725097041985318
664.0, 0.0010953727668606386
665.0, 0.000546788141067875
666.0, 0.0008738975479642918
667.0, 0.003982459095364611
668.0, 0.001466821580474628
669.0, 0.0016439064265285552
670.0, 0.005110590130213248
671.0, 0.005339423816909147
672.0, 0.0011618906139234525
673.0, 0.0007727402511347454
674.0, 0.004384410580474361
675.0, 0.003423556045843508
676.0, 0.004010837387289611
677.0, 0.0044470144634115765
678.0, 0.0031245086444487294
679.0, 0.001760246017805194
680.0, 0.0011781439138466095
681.0, 0.003166236604255829
682.0, 0.005031020658672733
683.0, 0.00531013027966948
684.0, 0.0035800581811218863
685.0, 0.001809215831652657
686.0, 0.004491945940818081
687.0, 0.00532699328295347
688.0, 0.0033788426290238672
689.0, 0.0038691441613754995
690.0, 0.005266118932918517
691.0, 0.005131176598393714
692.0, 0.006040410771727391
693.0, 0.0030245259313064713
694.0, 0.0011693554609071434
695.0, 0.0018843908001865712
696.0, 0.002768707529715636
697.0, 0.002479207198973209
698.0, 0.0017212261145280478
699.0, 0.0010050837846804024
700.0, 0.001038793747337496
701.0, 0.0014852967915458674
702.0, 0.0002966462409779211
703.0, 0.0009948011369403536
704.0, 0.0041567110767333085
705.0, 0.0031701144382298547
706.0, 0.008632698597052854
707.0, 0.007141900657230408
708.0, 0.0033811069490338923
709.0, 0.0037801541125028104
710.0, 0.006899980145102795
711.0, 0.006567945722946963
712.0, 0.010278451288192249
713.0, 0.007088132183778273
714.0, 0.004393095938617218
715.0, 0.00448659599165527
716.0, 0.003989064184760572
717.0, 0.002273527154912235
718.0, 0.0068104885830481705
719.0, 0.0036288286696430894
720.0, 0.002600048927676013
721.0, 0.0031857802671535025
722.0, 0.002985363665322713
723.0, 0.003372848101235842
724.0, 0.0011336083277080089
725.0, 0.006200529946696456
726.0, 0.005179651225232162
727.0, 0.004153518764216609
728.0, 0.005944775003247151
729.0, 0.005300914113239311
730.0, 0.0006958709874099758
731.0, 0.0007172352933208132
732.0, 0.0023409330120099953
733.0, 0.003239801363589858
734.0, 0.0042248663652451795
735.0, 0.004836746731214944
736.0, 0.002922720319260339
737.0, 0.005918388326733257
738.0, 0.003182949950273223
739.0, 0.0024382055376882764
740.0, 0.0018318500765754403
741.0, 0.0010599472592005188
742.0, 0.0021925002934464863
743.0, 0.004210787320675314
744.0, 0.0007788782082535418
745.0, 0.0029337393940431734
746.0, 0.0056885801961879335
747.0, 0.005619052362828963
748.0, 0.004975665996681883
749.0, 0.005135944959481914
750.0, 0.0017893881641873532
751.0, 0.004075592304183114
752.0, 0.004364335190294854
753.0, 0.005690653458766259
754.0, 0.005183295939771722
755.0, 0.0023743972915228556
756.0, 0.0038310622250504823
757.0, 0.0016142846837223803
758.0, 0.004237201674540382
759.0, 0.002981619255435585
760.0, 0.002687314648084375
761.0, 0.004789231691202513
762.0, 0.005152932594948883
763.0, 0.004936908154857322
764.0, 0.0018260691679446342
765.0, 0.0030090278760150067
766.0, 0.004919368305763303
767.0, 0.005633620722796697
768.0, 0.005259389552415803
769.0, 0.0038080724965693946
770.0, 0.0019515301224438532
771.0, 0.0044810552731378035
772.0, 0.004852259569244558
773.0, 0.0031404622049891326
774.0, 0.005573277620027367
775.0, 0.010346538163125913
776.0, 0.008501074795759902
777.0, 0.00724763300196475
778.0, 0.004157445826547013
779.0, 0.005924562041814131
780.0, 0.006330546359128619
781.0, 0.0021537507535466264
782.0, 0.001803887839596572
783.0, 0.0014267037110463625
784.0, 0.004089695864616658
785.0, 0.0035038479485958967
786.0, 0.004955881833967677
787.0, 0.004907157165513808
788.0, 0.0039716003708893406
789.0, 0.005057834390911837
790.0, 0.002137818156727612
791.0, 0.003888751367042532
792.0, 0.006893169976534846
793.0, 0.0030932103565140968
794.0, 0.0016014839597511018
795.0, 0.004530879236902543
796.0, 0.004368203787457453
797.0, 0.007042202979577825
798.0, 0.001016309487583251
799.0, 0.0062191145808546166
800.0, 0.006949798320828699
801.0, 0.004719192996174415
802.0, 0.006681790783522668
803.0, 0.007284663467617603
804.0, 0.004732798119940217
805.0, 0.0068574891369411195
806.0, 0.004933288668649407
807.0, 0.00475964988986452
808.0, 0.004583123850729609
809.0, 0.003552476277545221
810.0, 0.0054132618246059
811.0, 0.00434059112204768
812.0, 0.006646575673773055
813.0, 0.006383436239848078
814.0, 0.004365332891901676
815.0, 0.003967756566754998
816.0, 0.0057245662113689175
817.0, 0.007128741167162041
818.0, 0.006012245060943118
819.0, 0.011056423581237106
820.0, 0.007129281360200747
821.0, 0.004573646486940578
822.0, 0.006914826944709199
823.0, 0.009325802078026562
824.0, 0.008638210651746869
825.0, 0.009729532717937256
826.0, 0.011292343360381518
827.0, 0.010849614528424494
828.0, 0.00880014708461122
829.0, 0.007185699009958721
830.0, 0.007151834227227059
831.0, 0.00863327146272678
832.0, 0.007873937098079004
833.0, 0.0070454436630340705
834.0, 0.008278257969228138
835.0, 0.009142281965649045
836.0, 0.008451953338819294
837.0, 0.008185615470886544
838.0, 0.009232001067476125
839.0, 0.007729222254411265
840.0, 0.006714474102774024
841.0, 0.008249303644754392
842.0, 0.006357930922353034
843.0, 0.005469549125854253
844.0, 0.007523001122053396
845.0, 0.007720608305328856
846.0, 0.0029675951780025103
847.0, 0.006383907494313576
848.0, 0.005361118660793517
849.0, 0.00657856738486834
850.0, 0.004447454129556395
851.0, 0.0017811960348441303
852.0, 0.0035267337334362616
853.0, 0.004649704017303279
854.0, 0.004611051723631152
855.0, 0.0024473729896437686
856.0, 0.007471642020920586
857.0, 0.007559190772247421
858.0, 0.004118685889861019
859.0, 0.0030764837371180056
860.0, 0.0030589153090338217
861.0, 0.0016037938224214955
862.0, 0.002507239632588476
863.0, 0.0015785847566788871
864.0, 0.0008535966898569012
865.0, 0.00044669483114267734
866.0, 0.00038442331147962806
867.0, 0.00042989294635393865
868.0, 0.000437264817761562
869.0, 0.0030030068562586906
870.0, 0.0005150163485678867
871.0, 0.0009876706770887964
872.0, 0.0016465876960712784
873.0, 0.0014450043611527036
874.0, 0.00037841882569558346
875.0, 0.001849805563459738
876.0, 0.0026155301214891673
877.0, 0.0024603988333699216
878.0, 0.0018779329950553024
879.0, 0.0033653217921337064
880.0, 0.004187969918639288
881.0, 0.0012424855621548095
882.0, 0.001460658447306943
883.0, 0.0025605446835584742
884.0, 0.004495238891356322
885.0, 0.0027062952820736943
886.0, 0.003583819601227368
887.0, 0.0009593303954772629
888.0, 0.0016103941002727825
889.0, 0.0009798825153135848
890.0, 0.0040625974761738
891.0, 0.0005764387029686069
892.0, 0.0022127553816482905
893.0, 0.0013330238210462815
894.0, 0.0035706614559249464
895.0, 0.004914782211912524
896.0, 0.004701550743839427
897.0, 0.005996181183545769
898.0, 0.00572084420701858
899.0, 0.0009289378668332987
900.0, 0.007469850085589188
901.0, 0.008380081536932083
902.0, 0.011467993917813345
903.0, 0.014944368789249615
904.0, 0.015508331740588263
905.0, 0.016420432978994353
906.0, 0.016982035995269696
907.0, 0.014428787621701532
908.0, 0.01823177069924951
909.0, 0.020576756727269635
910.0, 0.02174825133489766
911.0, 0.024578619673316846
912.0, 0.026175874334936133
913.0, 0.023884122265095717
914.0, 0.02530187304308682
915.0, 0.026276096053655988
916.0, 0.030117235375144987
917.0, 0.034587136392111584
918.0, 0.0371615725297652
919.0, 0.04089670195590182
920.0, 0.04545068415903903
921.0, 0.04669680452159435
922.0, 0.05086568532261317
923.0, 0.056381940248468806
924.0, 0.056604929021766656
925.0, 0.059529359399242254
926.0, 0.06779924844638308
927.0, 0.07800021392612665
928.0, 0.0848147323281117
929.0, 0.08858838313873717
930.0, 0.10423707171362438
931.0, 0.12092903568392321
932.0, 0.1380780700415258
933.0, 0.15957027933051174
934.0, 0.18563616431532823
935.0, 0.21414232240242237
936.0, 0.24555159813483302
937.0, 0.27984371903168426
938.0, 0.3119346448466206
939.0, 0.3588267818449721
940.0, 0.3878245996151024
941.0, 0.4287631167805199
942.0, 0.4615010723504391
943.0, 0.474297782648794
944.0, 0.47160487976402454
945.0, 0.45749309776861546
946.0, 0.44293204854466295
947.0, 0.44275055620862214
948.0, 0.45610836453031256
949.0, 0.4852533456070316
950.0, 0.5283228353991892
951.0, 0.5777658382326898
952.0, 0.6374292561377688
953.0, 0.7116464895430307
954.0, 0.7803017794468866
955.0, 0.843563634744821
956.0, 0.8942629131937913
957.0, 0.9440963560945765
958.0, 0.9735096996363688
959.0, 0.9915221366870187
960.0, 0.9963885007372953
961.0, 0.9747034303229545
962.0, 0.9458322123784105
963.0, 0.9073880580690067
964.0, 0.8740019578815115
965.0, 0.8487026907098745
966.0, 0.8295953901786466
967.0, 0.8140423079520896
968.0, 0.810375213221343
969.0, 0.8247680182304317
970.0, 0.8527048094648486
971.0, 0.8987344612311825
972.0, 0.9366637617275935
973.0, 0.9729722974395311
974.0, 0.9765279678461026
975.0, 0.9347594799693462
976.0, 0.8593748724409926
977.0, 0.763393779860007
978.0, 0.6557579827211917
979.0, 0.5534907805055268
980.0, 0.46492259292990984
981.0, 0.38542438057819717
982.0, 0.321478539489801
983.0, 0.2725716730958292
984.0, 0.23667319253831712
985.0, 0.21113664008732244
986.0, 0.19221795607538028
987.0, 0.17458517253957356
988.0, 0.153541659813192
989.0, 0.13770897820055267
990.0, 0.12491877511340126
991.0, 0.10867508970346185
992.0, 0.09421095119153039
993.0, 0.08277547973196164
994.0, 0.07101356409955376
995.0, 0.06066097960607553
996.0, 0.05745938496742705
997.0, 0.049129452220274004
998.0, 0.047495248055452154
999.0, 0.042642345284709865
1000.0, 0.03980863796134459
1001.0, 0.03859922206849599
1002.0, 0.03504049626707982
1003.0, 0.032959044183044094
1004.0, 0.03643586380166129
1005.0, 0.03832330738753362
1006.0, 0.038927779309053986
1007.0, 0.037384556239042466
1008.0, 0.03643086528767725
1009.0, 0.0341103531301742
1010.0, 0.032681628623446396
1011.0, 0.029792431982485136
1012.0, 0.024346883491366027
1013.0, 0.020884411372100543
1014.0, 0.0169011136377044
1015.0, 0.014042417219111494
1016.0, 0.008728857180525018
1017.0, 0.0040651521992437975
1018.0, 0.0016660213030825367
1019.0, 0.006102356125368594
1020.0, 0.004476142818773787
1021.0, 0.002156316180711613
1022.0, 0.0064891965260484375
1023.0, 0.0038517793380421056
1024.0, 0.0052642072776525875
1025.0, 0.006400499130116113
1026.0, 0.0024414779330301055
1027.0, 0.0013144082259211958
1028.0, 0.0015072882126344045
1029.0, 0.00787186366884114
1030.0, 0.010564656633130871
1031.0, 0.007934850187930602
1032.0, 0.014174556793803857
1033.0, 0.01529347552310594
1034.0, 0.0231635111909456
1035.0, 0.024682429662377575
1036.0, 0.022992413349529135
1037.0, 0.026043260820199154
1038.0, 0.03376856947906531
1039.0, 0.03842891207288164
1040.0, 0.03766491598321006
1041.0, 0.039255237336586285
1042.0, 0.04135606297654115
1043.0, 0.04105978929232663
1044.0, 0.041171283357012624
1045.0, 0.04270518775158875
1046.0, 0.038525553107873665
1047.0, 0.0329945194580547
1048.0, 0.030514489394295827
1049.0, 0.028156321213271857
1050.0, 0.0255533418712323
1051.0, 0.022650291641742086
1052.0, 0.015992765798040796
1053.0, 0.011935738627197818
1054.0, 0.010749769812949575
1055.0, 0.00908999907628687
1056.0, 0.007686579128891418
1057.0, 0.004141196835724286
1058.0, 0.0008378856497719437
1059.0, 0.0008595787308933624
1060.0, 0.000653816244845374
1061.0, 0.00047679147355791517
1062.0, 0.004645215306900139
1063.0, 0.0010004454542608917
1064.0, 0.0031616401831843074
1065.0, 0.0012832876545693437
1066.0, 0.001996942973560743
1067.0, 0.005479429236603722
1068.0, 0.005451509236444216
1069.0, 0.002871401820711544
1070.0, 0.005210745122586308
1071.0, 0.006016892826743353
1072.0, 0.002219742642698985
1073.0, 0.00080187986287811
1074.0, 0.00334998697536464
1075.0, 0.00394022483044647
1076.0, 0.0034608206084255806
1077.0, 0.006129756099077375
1078.0, 0.008798093103227003
1079.0, 0.004836133125204067
1080.0, 0.005108205518243507
1081.0, 0.006981548896610591
1082.0, 0.007243992144746127
1083.0, 0.003135142564806779
1084.0, 0.0017847447591079878
1085.0, 0.0029479617345935963
1086.0, 0.006014496600278552
1087.0, 0.006643635318950792
1088.0, 0.0015812618556511398
1089.0, 0.0050422187005964994
1090.0, 0.003881412037988594
1091.0, 0.008764794278015518
1092.0, 0.010039203123097157
1093.0, 0.010610517416247842
1094.0, 0.011395326348983227
1095.0, 0.013881422221100264
1096.0, 0.016282033761199747
1097.0, 0.015227105201450961
1098.0, 0.012712289458531076
1099.0, 0.011785660257939038
1100.0, 0.010345232336208527
1101.0, 0.010780866572407927
1102.0, 0.01026012578233772
1103.0, 0.007212961160833742
1104.0, 0.009937713652484009
1105.0, 0.008103381004646682
1106.0, 0.0073878384498975635
1107.0, 0.01155170899608505
1108.0, 0.008563586515530538
1109.0, 0.00965365702920721
1110.0, 0.010739873761089402
1111.0, 0.010765281350507049
1112.0, 0.009506301458035816
1113.0, 0.013285702797759449
1114.0, 0.011224620228175154
1115.0, 0.009742540850461496
1116.0, 0.011973049820558333
1117.0, 0.013961774330755714
1118.0, 0.012175460635134049
1119.0, 0.008297260902778571
1120.0, 0.011339588734522328
1121.0, 0.014627896408164686
1122.0, 0.014027333064426217
1123.0, 0.009652169508354043
1124.0, 0.007824424648825708
1125.0, 0.008309918083421044
1126.0, 0.009220430342147689
1127.0, 0.010465043087249182
1128.0, 0.010426025679819725
1129.0, 0.009190967792030833
1130.0, 0.012290916673965504
1131.0, 0.013965209980833622
1132.0, 0.011645021590094062
1133.0, 0.012034274420594944
1134.0, 0.012759966110126841
1135.0, 0.013217478329150701
1136.0, 0.013763672015361125
1137.0, 0.012668220894450735
1138.0, 0.01064849005868938
1139.0, 0.007813592776733257
1140.0, 0.0046870468611664735
1141.0, 0.007404146510248256
1142.0, 0.00447153782090821
1143.0, 0.0016364396554929734
1144.0, 0.0023380566986814007
1145.0, 0.00350099338430871
1146.0, 0.0037215526663624413
1147.0, 0.0011930871766906161
1148.0, 0.0010200451021198987
1149.0, 0.000985488712442612
1150.0, 0.0020662555132740486
1151.0, 0.0007422256519424875
1152.0, 0.0014973759327768785
1153.0, 0.001471951807559704
1154.0, 0.00022922073185212738
1155.0, 0.0012272335343031027
1156.0, 0.0014424514966097563
1157.0, 0.0006763781548361238
1158.0, 0.0029718106206874676
1159.0, 0.0016086298778178261
1160.0, 0.0011868353961637865
1161.0, 0.002142056105636192
1162.0, 0.003076942690169287
1163.0, 0.0018094373354433698
1164.0, 0.0018881860111986544
1165.0, 0.005209607367238533
1166.0, 0.005373697235926737
1167.0, 0.006280164269471096
1168.0, 0.0027380386567042274
1169.0, 6.129638777834984e-05
1170.0, 0.00011135985452817771
1171.0, 0.002369546521105573
1172.0, 0.005669485701853087
1173.0, 0.0033544379598198
1174.0, 0.001877021868647771
1175.0, 0.004556630044892442
1176.0, 0.005247965180948161
1177.0, 0.008586046389207071
1178.0, 0.00437685349084256
1179.0, 0.004844497905597956
1180.0, 0.006025313039528548
1181.0, 0.005932181330407904
1182.0, 0.0053272417796307574
1183.0, 0.004091525722174954
1184.0, 0.0027377812574055057
1185.0, 0.003475688318558558
1186.0, 0.006936739786923446
1187.0, 0.0048610633249768186
1188.0, 0.003355943129312141
1189.0, 0.0023249538645208285
1190.0, 0.004208695781272098
1191.0, 0.00716578367685541
1192.0, 0.005158011867956701
1193.0, 0.003640208092383594
1194.0, 0.008278882216614788
1195.0, 0.009951203992767204
1196.0, 0.007690545001859809
1197.0, 0.010629118446499953
1198.0, 0.007228495774980154
1199.0, 0.010429784803994301
1200.0, 0.010559628903621315
1201.0, 0.010851916824579562
1202.0, 0.009372886027564349
1203.0, 0.010847857986901101
1204.0, 0.010632299971948008
1205.0, 0.01083476274518641
1206.0, 0.013037551354046113
1207.0, 0.012372867070390528
1208.0, 0.009168712833631663
1209.0, 0.010876192515435014
1210.0, 0.015014917727934209
1211.0, 0.009209128225775003
1212.0, 0.009325147430845906
1213.0, 0.01086758712804255
1214.0, 0.010438058073187536
1215.0, 0.012461424707181515
1216.0, 0.007903043774554705
1217.0, 0.0071788897444219615
1218.0, 0.006630720876624141
1219.0, 0.009152066353693849
1220.0, 0.010619146015808692
1221.0, 0.006334876818262958
1222.0, 0.008737531122230104
1223.0, 0.009530869039097487
1224.0, 0.006661169359214093
1225.0, 0.007969814383615473
1226.0, 0.0064813059742580646
1227.0, 0.007778443506634654
1228.0, 0.007339273653155832
1229.0, 0.0015230967941132405
1230.0, 0.0032174521830940317
1231.0, 0.006154396825829754
1232.0, 0.0031546270034750468
1233.0, 0.0018180711432066899
1234.0, 0.003970627832091125
1235.0, 0.00632711170427786
1236.0, 0.008584213976378563
1237.0, 0.0057649724713482575
1238.0, 0.008471678028072
1239.0, 0.006645404307497455
1240.0, 0.006464287917634046
1241.0, 0.008057672985299373
1242.0, 0.00769972114793774
1243.0, 0.006160703839688868
1244.0, 0.006568111149752602
1245.0, 0.006256821990973249
1246.0, 0.004701043842608439
1247.0, 0.004725302749712671
1248.0, 0.0034506924226686045
1249.0, 0.0004890196402535123
1250.0, 0.00632679394161527
1251.0, 0.002682252469401207
1252.0, 0.004917359640072339
1253.0, 0.004577920370288675
1254.0, 0.005131561078210989
1255.0, 0.006973934562782982
1256.0, 0.00643964126569616
1257.0, 0.003356149271052707
1258.0, 0.0025695208959170524
1259.0, 0.0043975543282324565
1260.0, 0.005486199984383515
1261.0, 0.005190380242368658
1262.0, 0.0024508294150131687
1263.0, 0.0009049619166856925
1264.0, 0.008184306762904697
1265.0, 0.00296733577027118
1266.0, 0.005845420734882339
1267.0, 0.003513586396000739
1268.0, 0.004603054396101156
1269.0, 0.006164467435540404
1270.0, 0.0027305791301088637
1271.0, 0.001759027617148288
1272.0, 0.0022858683815814317
1273.0, 0.0039221155839662715
1274.0, 0.006309619307845437
1275.0, 0.005294892745435588
1276.0, 0.005991955962816289
1277.0, 0.005562454875179643
1278.0, 0.003259881078155085
1279.0, 0.004397738393740089
1280.0, 0.006622429601022384
1281.0, 0.002043942452531014
1282.0, 0.0009587309231149238
1283.0, 0.0017748827641738741
1284.0, 0.004123730935954589
1285.0, 0.0027413520495962913
1286.0, 0.0037398548210150896
1287.0, 0.0016095371152278993
1288.0, 0.00028178195972710263
1289.0, 0.006115725832284475
1290.0, 0.009170060464136608
1291.0, 0.003970281093304476
1292.0, 0.005008119325516632
1293.0, 0.002554311448777783
1294.0, 0.003277640930552847
1295.0, 0.0027860024275784168
1296.0, 0.0009086829161808406
1297.0, 0.0017228986565033598
1298.0, 0.0019398983982336965
1299.0, 0.0025541473561901686
1300.0, 0.0005037272652800015
1301.0, 0.0011809736091341603
1302.0, 0.0024582576313201708
1303.0, 5.3783426100090063e-05
1304, 0.0
1305, 0.0
1306, 0.0
1307, 0.0
1308, 0.0
1309, 0.0
1310, 0.0
1311, 0.0
1312, 0.0
1313, 0.0
1314, 0.0
1315, 0.0
1316, 0.0
1317, 0.0
1318, 0.0
1319, 0.0
1320, 0.0
1321, 0.0
1322, 0.0
1323, 0.0
1324, 0.0
1325, 0.0
1326, 0.0
1327, 0.0
1328, 0.0
1329, 0.0
1330, 0.0
1331, 0.0
1332, 0.0
1333, 0.0
1334, 0.0
1335, 0.0
1336, 0.0
1337, 0.0
1338, 0.0
1339, 0.0
1340, 0.0
1341, 0.0
1342, 0.0
1343, 0.0
1344, 0.0
1345, 0.0
1346, 0.0
1347, 0.0
1348, 0.0
1349, 0.0
1350, 0.0
1351, 0.0
1352, 0.0
1353, 0.0
1354, 0.0
1355, 0.0
1356, 0.0
1357, 0.0
1358, 0.0
1359, 0.0
1360, 0.0
1361, 0.0
1362, 0.0
1363, 0.0
1364, 0.0
1365, 0.0
1366, 0.0
1367, 0.0
1368, 0.0
1369, 0.0
1370, 0.0
1371, 0.0
1372, 0.0
1373, 0.0
1374, 0.0
1375, 0.0
1376, 0.0
1377, 0.0
1378, 0.0
1379, 0.0
1380, 0.0
1381, 0.0
1382, 0.0
1383, 0.0
1384, 0.0
1385, 0.0
1386, 0.0
1387, 0.0
1388, 0.0
1389, 0.0
1390, 0.0
1391, 0.0
1392, 0.0
1393, 0.0
1394, 0.0
1395, 0.0
1396, 0.0
1397, 0.0
1398, 0.0
1399, 0.0
1400, 0.0
1401, 0.0
1402, 0.0
1403, 0.0
1404, 0.0
1405, 0.0
1406, 0.0
1407, 0.0
1408, 0.0
1409, 0.0
1410, 0.0
1411, 0.0
1412, 0.0
1413, 0.0
1414, 0.0
1415, 0.0
1416, 0.0
1417, 0.0
1418, 0.0
1419, 0.0
1420, 0.0
1421, 0.0
1422, 0.0
1423, 0.0
1424, 0.0
1425, 0.0
1426, 0.0
1427, 0.0
1428, 0.0
1429, 0.0
1430, 0.0
1431, 0.0
1432, 0.0
1433, 0.0
1434, 0.0
1435, 0.0
1436, 0.0
1437, 0.0
1438, 0.0
1439, 0.0
1440, 0.0
1441, 0.0
1442, 0.0
1443, 0.0
1444, 0.0
1445, 0.0
1446, 0.0
1447, 0.0
1448, 0.0
1449, 0.0
1450, 0.0
1451, 0.0
1452, 0.0
1453, 0.0
1454, 0.0
1455, 0.0
1456, 0.0
1457, 0.0
1458, 0.0
1459, 0.0
1460, 0.0
1461, 0.0
1462, 0.0
1463, 0.0
1464, 0.0
1465, 0.0
1466, 0.0
1467, 0.0
1468, 0.0
1469, 0.0
1470, 0.0
1471, 0.0
1472, 0.0
1473, 0.0
1474, 0.0
1475, 0.0
1476, 0.0
1477, 0.0
1478, 0.0
1479, 0.0
1480, 0.0
1481, 0.0
1482, 0.0
1483, 0.0
1484, 0.0
1485, 0.0
1486, 0.0
1487, 0.0
1488, 0.0
1489, 0.0
1490, 0.0
1491, 0.0
1492, 0.0
1493, 0.0
1494, 0.0
1495, 0.0
1496, 0.0
1497, 0.0
1498, 0.0
1499, 0.0
1500, 0.0
1501, 0.0
1502, 0.0
1503, 0.0
1504, 0.0
1505, 0.0
1506, 0.0
1507, 0.0
1508, 0.0
1509, 0.0
1510, 0.0
1511, 0.0
1512, 0.0
1513, 0.0
1514, 0.0
1515, 0.0
1516, 0.0
1517, 0.0
1518, 0.0
1519, 0.0
1520, 0.0
1521, 0.0
1522, 0.0
1523, 0.0
1524, 0.0
1525, 0.0
1526, 0.0
1527, 0.0
1528, 0.0
1529, 0.0
1530, 0.0
1531, 0.0
1532, 0.0
1533, 0.0
1534, 0.0
1535, 0.0
1536, 0.0
1537, 0.0
1538, 0.0
1539, 0.0
1540, 0.0
1541, 0.0
1542, 0.0
1543, 0.0
1544, 0.0
1545, 0.0
1546, 0.0
1547, 0.0
1548, 0.0
1549, 0.0
1550, 0.0
1551, 0.0
1552, 0.0
1553, 0.0
1554, 0.0
1555, 0.0
1556, 0.0
1557, 0.0
1558, 0.0
1559, 0.0
1560, 0.0
1561, 0.0
1562, 0.0
1563, 0.0
1564, 0.0
1565, 0.0
1566, 0.0
1567, 0.0
1568, 0.0
1569, 0.0
1570, 0.0
1571, 0.0
1572, 0.0
1573, 0.0
1574, 0.0
1575, 0.0
1576, 0.0
1577, 0.0
1578, 0.0
1579, 0.0
1580, 0.0
1581, 0.0
1582, 0.0
1583, 0.0
1584, 0.0
1585, 0.0
1586, 0.0
1587, 0.0
1588, 0.0
1589, 0.0
1590, 0.0
1591, 0.0
1592, 0.0
1593, 0.0
1594, 0.0
1595, 0.0
1596, 0.0
1597, 0.0
1598, 0.0
1599, 0.0
