30, 0.0
31, 0.0
32, 0.0
33, 0.0
34, 0.0
35, 0.0
36, 0.0
37, 0.0
38, 0.0
39, 0.0
40, 0.0
41, 0.0
42, 0.0
43, 0.0
44, 0.0
45, 0.0
46, 0.0
47, 0.0
48, 0.0
49, 0.0
50, 0.0
51, 0.0
52, 0.0
53, 0.0
54, 0.0
55, 0.0
56, 0.0
57, 0.0
58, 0.0
59, 0.0
60, 0.0
61, 0.0
62, 0.0
63, 0.0
64, 0.0
65, 0.0
66, 0.0
67, 0.0
68, 0.0
69, 0.0
70, 0.0
71, 0.0
72, 0.0
73, 0.0
74, 0.0
75, 0.0
76, 0.0
77, 0.0
78, 0.0
79, 0.0
80, 0.0
81, 0.0
82, 0.0
83, 0.0
84, 0.0
85, 0.0
86, 0.0
87, 0.0
88, 0.0
89, 0.0
90, 0.0
91, 0.0
92, 0.0
93, 0.0
94, 0.0
95, 0.0
96, 0.0
97, 0.0
98, 0.0
99, 0.0
100, 0.0
101, 0.0
102, 0.0
103, 0.0
104, 0.0
105, 0.0
106, 0.0
107, 0.0
108, 0.0
109, 0.0
110, 0.0
111, 0.0
112, 0.0
113, 0.0
114.0, 0.0010499539717657195
115.0, 0.0017906641117451721
116.0, 0.00034794282433401745
117.0, 0.00257241881198929
118.0, 0.0030932051364017414
119.0, 0.0015428580931960965
120.0, 0.003459950064487671
121.0, 0.005279108798641567
122.0, 0.0067932032991574335
123.0, 0.007680880699665838
124.0, 0.008230823666782135
125.0, 0.00960369395910864
126.0, 0.011791969254540796
127.0, 0.01368612974299351
128.0, 0.016263685972679867
129.0, 0.01996468045283783
130.0, 0.025479605104060474
131.0, 0.03061211260845035
132.0, 0.04228252629893921
133.0, 0.05973596391842528
134.0, 0.0770713616948096
135.0, 0.10089897758661458
136.0, 0.12581344353473314
137.0, 0.14860704507173345
138.0, 0.1586654066477835
139.0, 0.15489170406995892
140.0, 0.1366904309268949
141.0, 0.09837360232699541
142.0, 0.07012286694759264
143.0, 0.04821118246822672
144.0, 0.031822718730504504
145.0, 0.023751557068705537
146.0, 0.017927227748849747
147.0, 0.013865681587338785
148.0, 0.010973009406955296
149.0, 0.009888305568890516
150.0, 0.009181864360648221
151.0, 0.008562852600734111
152.0, 0.010253814946715513
153.0, 0.009071807070906506
154.0, 0.007259829807908767
155.0, 0.0079927031185495
156.0, 0.006230703928907666
157.0, 0.004996651926832144
158.0, 0.00471707869845225
159.0, 0.004411839677283277
160.0, 0.004016988464965708
161.0, 0.004177928208521263
162.0, 0.005629427108090291
163.0, 0.006136493739226618
164.0, 0.006661097225995894
165.0, 0.007455932184169725
166.0, 0.009334830869937664
167.0, 0.011568774776854017
168.0, 0.012993107212244885
169.0, 0.012884282657277263
170.0, 0.012517572411606743
171.0, 0.01132668289563037
172.0, 0.009723624399913868
173.0, 0.008617125899404441
174.0, 0.008305590554862477
175.0, 0.009296732786144986
176.0, 0.011712475446761954
177.0, 0.013850652002969309
178.0, 0.016742024825376636
179.0, 0.01950759963152716
180.0, 0.021006032573002747
181.0, 0.026244054666767515
182.0, 0.027572170809447624
183.0, 0.024630296854214438
184.0, 0.020766735190462855
185.0, 0.019111496224383052
186.0, 0.017970303360060613
187.0, 0.01637395878010463
188.0, 0.018758034559493937
189.0, 0.021317832585480295
190.0, 0.024174937624794588
191.0, 0.027991904392722117
192.0, 0.03218058827508254
193.0, 0.040708316232103074
194.0, 0.054638270047622214
195.0, 0.06789740450890992
196.0, 0.0794914565186374
197.0, 0.08993671491007699
198.0, 0.09955418162295607
199.0, 0.09699532836085706
200.0, 0.0935515474148531
201.0, 0.09018310420606737
202.0, 0.08539407633461317
203.0, 0.08123752166937315
204.0, 0.07765852161797052
205.0, 0.0746960628326498
206.0, 0.06509544124626926
207.0, 0.0575549880552426
208.0, 0.05054445386212736
209.0, 0.0412007227802697
210.0, 0.035438102839280596
211.0, 0.030958237344865823
212.0, 0.026971489658977235
213.0, 0.02058726052984164
214.0, 0.01760071398950612
215.0, 0.015575427926656218
216.0, 0.0128352794957312
217.0, 0.012578701900474375
218.0, 0.0109281801593914
219.0, 0.008529203689906678
220.0, 0.007439598116536809
221.0, 0.006611866785867251
222.0, 0.005558836770256773
223.0, 0.0042653090736219125
224.0, 0.004463482603065188
225.0, 0.0029970418408355346
226.0, 0.0018303498753604482
227.0, 0.0029737920836279616
228.0, 0.0033875417053768255
229.0, 0.004001105297169031
230.0, 0.004724582169412483
231.0, 0.005047409060225235
232.0, 0.003531690521675357
233.0, 0.0033595092540135104
234.0, 0.005342602828963377
235.0, 0.0029631933052110915
236.0, 0.003463096280026651
237.0, 0.0042448679163750395
238.0, 0.002464273556481506
239.0, 0.005104556812789069
240.0, 0.005860675142055859
241.0, 0.0049660321052526725
242.0, 0.004939312701864155
243.0, 0.006883555837941615
244.0, 0.007766507744524323
245.0, 0.006676969818223609
246.0, 0.007801384267583202
247.0, 0.009330316931714586
248.0, 0.010210933445495944
249.0, 0.009167401934391292
250.0, 0.01229802339869391
251.0, 0.013756301172895443
252.0, 0.014115501054293688
253.0, 0.01660725958051535
254.0, 0.018972368542227322
255.0, 0.022088569290472152
256.0, 0.026187755498982293
257.0, 0.03008425104272973
258.0, 0.03536613397329029
259.0, 0.042656875928094536
260.0, 0.05287781427838823
261.0, 0.06199488621794236
262.0, 0.07560666216408105
263.0, 0.09297231981382509
264.0, 0.11207102321590996
265.0, 0.12654589275259495
266.0, 0.13770706004330174
267.0, 0.14448665422459378
268.0, 0.13618755377651084
269.0, 0.12233056304526284
270.0, 0.10512229067985962
271.0, 0.08565599744871567
272.0, 0.0658233037948732
273.0, 0.05123840716295142
274.0, 0.040992244670034365
275.0, 0.0340154380938794
276.0, 0.027509123961817795
277.0, 0.021742308467104822
278.0, 0.017337318575135992
279.0, 0.017243799020420583
280.0, 0.014584235562664288
281.0, 0.012389834068364433
282.0, 0.011919563308725461
283.0, 0.009929900898258516
284.0, 0.007033517320408683
285.0, 0.0051729709714706034
286.0, 0.006722505718238314
287.0, 0.0055961769302698685
288.0, 0.005203068988911022
289.0, 0.005267669722759442
290.0, 0.0043988713991588956
291.0, 0.0036303081308467536
292.0, 0.00435524581223429
293.0, 0.006067935902054932
294.0, 0.001971834836862885
295.0, 0.0029296963112921694
296.0, 0.004178812706636389
297.0, 0.0029138190559616396
298.0, 0.0033980066721794717
299.0, 0.002324896444664053
300.0, 0.001319638129622569
301.0, 0.002745939841331615
302.0, 0.003852617468695954
303.0, 0.002727509350802434
304.0, 0.000610759283809296
305.0, 0.0020920603454474217
306.0, 0.0015764055471561783
307.0, 0.001201168729525963
308.0, 0.0015022942218616791
309.0, 0.0017282094056466344
310.0, 0.0008989683598851865
311.0, 0.0008992729389643497
312.0, 0.0029696856339502756
313.0, 0.0007844371236464107
314.0, 0.0007535884545880756
315.0, 0.0016869841528406571
316.0, 0.0020270132848506537
317.0, 0.0017107615033311117
318.0, 0.0017678385221835177
319.0, 0.0018411597343192128
320.0, 0.0005744201268727189
321.0, 0.001374500454149759
322.0, 0.002011953613533216
323.0, 0.001904552645369166
324.0, 0.0009704841824542332
325.0, 0.0016000478943714446
326.0, 0.0024441456614743774
327.0, 0.0028067165936745734
328.0, 0.0027317166923728252
329.0, 0.0015548968765898951
330.0, 0.00048576541172586145
331.0, 0.0008400031976243597
332.0, 0.0004527692003774598
333.0, 0.00019991446755759871
334.0, 0.0002451742357558084
335.0, 0.000880531732873266
336.0, 0.0026505386341682874
337.0, 0.0029012433548408585
338.0, 0.001891922639103509
339.0, 0.0024740784793717313
340.0, 0.002010293225365702
341.0, 0.0022046667757843886
342.0, 0.003256969279021053
343.0, 0.0012699834246961822
344.0, 0.000501554809046464
345.0, 0.0004916733929423592
346.0, 0.0010153809091100541
347.0, 0.0026309713153987364
348.0, 0.0019164434363198434
349.0, 0.000584454077473399
350.0, 0.0006056564454661076
351.0, 0.0017140789374105298
352.0, 0.0022016085841178655
353.0, 0.0022130726340279217
354.0, 0.0022106399953085477
355.0, 0.001352988888406067
356.0, 0.0011854408966091628
357.0, 0.001891404985098362
358.0, 0.00329856823098512
359.0, 0.0020198929368035246
360.0, 0.0033330408164109126
361.0, 0.007390997321014682
362.0, 0.0030287596655040683
363.0, 0.0017729055695404896
364.0, 0.0021253269793752054
365.0, 0.0032112305675071054
366.0, 0.001200372648561561
367.0, 0.0012288841732188355
368.0, 0.0014088464235046151
369.0, 0.00011424148803062552
370.0, 0.0016299420594125874
371.0, 0.0012722350954828176
372.0, 0.00024293128173862093
373.0, 0.00033357883648406253
374.0, 0.0014624164250607056
375.0, 0.0014076136291634777
376.0, 0.0009326511566157343
377.0, 0.002199674247814318
378.0, 0.001478984644469197
379.0, 0.002468375387218758
380.0, 0.004461467360947711
381.0, 0.0024847893466177886
382.0, 0.001158857661992425
383.0, 0.0013036122381947385
384.0, 0.0026374346201563526
385.0, 0.001702520630056148
386.0, 0.001139351183662525
387.0, 0.000806290760262588
388.0, 0.0007967257568323245
389.0, 0.0028684814585333935
390.0, 0.0031198343024952334
391.0, 0.002092223117828071
392.0, 0.00015665325445694985
393.0, 0.0008529272237695909
394.0, 0.001577635975124518
395.0, 0.001762393870441483
396.0, 0.0008025060899538198
397.0, 0.0008355288990235728
398.0, 0.0006613388223815767
399.0, 0.0007503637338611446
400.0, 0.0018528101724505472
401.0, 0.0009496676340087725
402.0, 0.0006145801571064458
403.0, 0.0007514371642002879
404.0, 0.0008065205092985777
405.0, 0.0005814055667273489
406.0, 0.0016107364293944729
407.0, 0.0030574682857385273
408.0, 0.0019243992790581328
409.0, 0.003263896501336024
410.0, 0.0026229448157522417
411.0, 0.00013722299955804494
412.0, 8.242205988177238e-05
413.0, 0.00100505098676388
414.0, 0.0010961378749462652
415.0, 0.0004761462880754027
416.0, 0.0030346655390981695
417.0, 0.0024328766716456094
418.0, 0.0017762231470278317
419.0, 0.0019968497622246477
420.0, 0.0005199385550000721
421.0, 0.0007033134078575054
422.0, 0.0015819538343632747
423.0, 0.0025158423815447705
424.0, 0.0011460796226158993
425.0, 0.001829442084914578
426.0, 0.0022637224488017836
427.0, 0.0010542218985790438
428.0, 0.0028112986490950445
429.0, 0.0030391979311988346
430.0, 0.002461311449780712
431.0, 0.0016762740979494159
432.0, 0.0034360417602198852
433.0, 0.0025893625291712563
434.0, 0.0013045217209238457
435.0, 0.0018742074837635415
436.0, 0.002605319424989607
437.0, 0.0015944333872828758
438.0, 0.0011754223011647875
439.0, 0.0044734059440115995
440.0, 0.0025389888808707664
441.0, 0.0034277802701608447
442.0, 0.004611281194173714
443.0, 0.0015879133649344566
444.0, 0.0008031868995602311
445.0, 0.0019087330889544754
446.0, 0.003086969999418967
447.0, 0.0010709529975864627
448.0, 0.0025604816007558898
449.0, 0.0019065472642284973
450.0, 0.0004885092606214586
451.0, 0.002358073037881557
452.0, 0.0044621922403371575
453.0, 0.003790779070435741
454.0, 0.002004734570071042
455.0, 0.003942775952957337
456.0, 0.002546187487845169
457.0, 0.0014635051023074298
458.0, 0.001252801047961872
459.0, 0.0019944825718646035
460.0, 0.00081303715472284
461.0, 0.002462263250048447
462.0, 0.00535457066942704
463.0, 0.002322689721710522
464.0, 0.0020934474178824513
465.0, 0.0021378135222573772
466.0, 0.0019223962341301606
467.0, 0.0012866035770172646
468.0, 0.004482365492161901
469.0, 0.004244386816837084
470.0, 0.0015163104034546203
471.0, 0.004827590414388565
472.0, 0.0030658081424539967
473.0, 0.0022157840043753522
474.0, 0.003075114784030349
475.0, 0.0037150701680343655
476.0, 0.0014393403410476126
477.0, 0.0015369017408042038
478.0, 0.0037064781275979726
479.0, 0.002186768147766328
480.0, 0.0032778564583370406
481.0, 0.004613950158845204
482.0, 0.005198645979102769
483.0, 0.003357071985130751
484.0, 0.00382104601093897
485.0, 0.002661722102667403
486.0, 0.0009108399868526639
487.0, 0.00607506735979576
488.0, 0.004771325696752663
489.0, 0.002494697172537128
490.0, 0.0016831781420589796
491.0, 0.006548757365082562
492.0, 0.0031529786495251505
493.0, 0.0016408738281792632
494.0, 0.002881792373692213
495.0, 0.0017451462981831402
496.0, 0.0014258669351905678
497.0, 0.0027300738557652685
498.0, 0.004241443655706271
499.0, 0.0006738519374676248
500.0, 0.0037331779795927887
501.0, 0.0037650057626563973
502.0, 0.0012701057886456777
503.0, 0.0037225684431976226
504.0, 0.004972377971380564
505.0, 0.003368938690386661
506.0, 0.0009126113083035498
507.0, 0.004034077618037134
508.0, 0.004008371518711695
509.0, 0.004482352811112729
510.0, 0.005163048447463486
511.0, 0.003835677660810205
512.0, 0.0018847731437192975
513.0, 0.0030271045099524896
514.0, 0.005028410665630655
515.0, 0.001817300460589252
516.0, 0.0028059828390162157
517.0, 0.004131291001124795
518.0, 0.004472950925267066
519.0, 0.0020977773250511144
520.0, 0.003073117689035541
521.0, 0.0023867533930377344
522.0, 0.0022028761405596567
523.0, 0.006866918476748432
524.0, 0.002157899612968965
525.0, 0.00013995389675173491
526.0, 0.0014993925855943807
527.0, 0.006197028303896918
528.0, 0.0022288129359726763
529.0, 0.003372220203164466
530.0, 0.005484408932156577
531.0, 0.003106323921019658
532.0, 0.004657341218690078
533.0, 0.005328893910110119
534.0, 0.004476877452585893
535.0, 0.0016386425847771725
536.0, 0.0026948710922360857
537.0, 0.0034031536938098706
538.0, 0.0034373427661760552
539.0, 0.0027332403738925277
540.0, 0.005362649420720356
541.0, 0.0033786261913333624
542.0, 0.0026247434773418333
543.0, 0.00583892633458963
544.0, 0.0013954790377966053
545.0, 0.003269728032031401
546.0, 0.00592116504217863
547.0, 0.006286148873447172
548.0, 0.002156967122936522
549.0, 0.005762140724890175
550.0, 0.006327402390131131
551.0, 0.0021651031283706655
552.0, 0.005950761515634309
553.0, 0.0033983724216054873
554.0, 0.0015104720128928516
555.0, 0.0022616026137047586
556.0, 0.005582555314442459
557.0, 0.00341945700753524
558.0, 0.0022672350517903327
559.0, 0.0031387693107725895
560.0, 0.0052472923234996105
561.0, 0.0019110714078720303
562.0, 0.0035148863590616438
563.0, 0.0063558504701920916
564.0, 0.0006552074874849748
565.0, 0.002254432232946431
566.0, 0.002760991778561082
567.0, 0.002192116326160712
568.0, 0.00144790755791803
569.0, 0.005357755299369202
570.0, 0.005260619044732832
571.0, 0.0033827444709093957
572.0, 0.002229093832647057
573.0, 0.0031217520924119507
574.0, 0.0025517098853717547
575.0, 0.0028396718191356306
576.0, 0.005146875963824443
577.0, 0.0030847884037706755
578.0, 0.002593505923547106
579.0, 0.00216339636699688
580.0, 0.001281126915464048
581.0, 0.0014544999487198624
582.0, 0.003457254490425207
583.0, 0.00336561639943436
584.0, 0.0014848662547903627
585.0, 0.004115285623946365
586.0, 0.003777953742817353
587.0, 0.0045212225979276216
588.0, 0.005789302043088945
589.0, 0.00406882762262181
590.0, 0.0031365519409974306
591.0, 0.003931882457732058
592.0, 0.004520262945457679
593.0, 0.0015779859258311202
594.0, 0.004846720939538952
595.0, 0.006662620729687606
596.0, 0.006041659713037887
597.0, 0.00255114418072585
598.0, 0.0070980699416569905
599.0, 0.0050101306635410665
600.0, 0.0032930502764854904
601.0, 0.006198140411558937
602.0, 0.006040260779414609
603.0, 0.003212445388930482
604.0, 0.002408935115521958
605.0, 0.004202635405731894
606.0, 0.000851591489452327
607.0, 0.00362502303087432
608.0, 0.00531617716240872
609.0, 0.004190713699478689
610.0, 0.0007124820570603215
611.0, 0.00534339042354921
612.0, 0.005277737878138029
613.0, 0.002839891401193651
614.0, 0.005129740036672947
615.0, 0.004811988120279654
616.0, 0.003085469993546451
617.0, 0.002826725535781013
618.0, 0.006632138050244962
619.0, 0.0017421952616824825
620.0, 0.003979148688587944
621.0, 0.005784924337223918
622.0, 0.0030587678975980076
623.0, 0.00254333921171841
624.0, 0.004648972998296018
625.0, 0.0039082257610537074
626.0, 0.0009788145679481778
627.0, 0.0065180073064692035
628.0, 0.004148474593362476
629.0, 0.001927293897540271
630.0, 0.0023683739421378578
631.0, 0.007456162488264062
632.0, 0.0028696927835910576
633.0, 0.003117218431767114
634.0, 0.004236047400104265
635.0, 0.00024556704575020975
636.0, 0.0023617344067576387
637.0, 0.0038604195123872927
638.0, 0.003496311051149162
639.0, 0.001327724373933184
640.0, 0.005534839314274349
641.0, 0.004258830373803297
642.0, 0.002797535457706458
643.0, 0.0033343578072561656
644.0, 0.006465512596987459
645.0, 0.0026144739545137267
646.0, 0.003740939341633082
647.0, 0.006914750319640317
648.0, 0.0020010905938722652
649.0, 0.0027427230110776456
650.0, 0.005037259129758098
651.0, 0.005293186655692422
652.0, 0.0006393102103002197
653.0, 0.008712092457131565
654.0, 0.005592204943622716
655.0, 0.0036427101487632747
656.0, 0.007948125149281969
657.0, 0.0052951846537556795
658.0, 0.0019388653720548202
659.0, 0.0027501743720404585
660.0, 0.006215882484925414
661.0, 0.0042826316336871464
662.0, 0.00266431083677818
663.0, 0.004253335850881205
664.0, 0.0055934937995725945
665.0, 0.0015472062854740053
666.0, 0.005752758906009146
667.0, 0.004019348340380396
668.0, 0.002584524011764946
669.0, 0.005371474080268371
670.0, 0.006252387382116297
671.0, 0.0026733140860288065
672.0, 0.002915533100006476
673.0, 0.0064667788499474495
674.0, 0.0018875794726909874
675.0, 0.005741876824976215
676.0, 0.006425519595183485
677.0, 0.004028103097114378
678.0, 0.001377599749047455
679.0, 0.0064664260349297535
680.0, 0.006034885095094662
681.0, 0.004246890361674037
682.0, 0.004491690347236676
683.0, 0.006037315870953167
684.0, 0.003306845243587481
685.0, 0.003035235849422482
686.0, 0.005456812637884709
687.0, 0.0032806687487896722
688.0, 0.004289725123459691
689.0, 0.006422514590969015
690.0, 0.007765448398293177
691.0, 0.0060017900121066585
692.0, 0.012829836413509139
693.0, 0.014532478311997924
694.0, 0.015128984342739462
695.0, 0.01739003341647107
696.0, 0.0194943492031089
697.0, 0.011315435906716896
698.0, 0.008229751125324964
699.0, 0.009716103843911753
700.0, 0.0010600501709249702
701.0, 0.0046615816663434125
702.0, 0.005791175101392726
703.0, 0.004661636398468883
704.0, 0.0036162976048843523
705.0, 0.009505502900897028
706.0, 0.006678362832703006
707.0, 0.006538862059687282
708.0, 0.013871224592165653
709.0, 0.0203938552160829
710.0, 0.01674402288700126
711.0, 0.014456823926926363
712.0, 0.013016678811271385
713.0, 0.0064528144155081
714.0, 0.003976254701621171
715.0, 0.0067379765524847755
716.0, 0.00931199375435602
717.0, 0.007772359879669948
718.0, 0.011083533129700585
719.0, 0.012469306662970076
720.0, 0.009919098357244652
721.0, 0.005900855675848794
722.0, 0.009951297720662087
723.0, 0.00416669750736126
724.0, 0.005945104252374542
725.0, 0.008178679317824393
726.0, 0.0005378034888508946
727.0, 0.0040006579982364765
728.0, 0.009073980310561952
729.0, 0.00810447017497975
730.0, 0.001290173701384139
731.0, 0.0071071307539441984
732.0, 0.0069580849838660795
733.0, 0.005266691011817049
734.0, 0.005773013111786712
735.0, 0.013019527729009182
736.0, 0.0030317660672917425
737.0, 0.002716921646918489
738.0, 0.0052038675631204435
739.0, 0.005729574765543513
740.0, 0.0064091196104947255
741.0, 0.005467247369458703
742.0, 0.0038112495500490814
743.0, 0.0037113369867548206
744.0, 0.00919439111192057
745.0, 0.007316384340649866
746.0, 0.00600163066594068
747.0, 0.007421672547197553
748.0, 0.011195996429289444
749.0, 0.002449958924088902
750.0, 0.004923355363332249
751.0, 0.006619443787226226
752.0, 0.005578754628870044
753.0, 0.005898172440065201
754.0, 0.007901550586525884
755.0, 0.0048499700836271585
756.0, 0.003084137488005354
757.0, 0.007560154983014874
758.0, 0.006814427724931256
759.0, 0.005495477133196676
760.0, 0.007393481527516894
761.0, 0.009405520875969051
762.0, 0.0006192352482407987
763.0, 0.006893259199544442
764.0, 0.007658584782294242
765.0, 0.004354808931859405
766.0, 0.0012889319823382326
767.0, 0.012666253910739812
768.0, 0.007296248382283044
769.0, 0.0036526007179192173
770.0, 0.006006143749566091
771.0, 0.009174485499383581
772.0, 0.004455835590141568
773.0, 0.005921622250352489
774.0, 0.007662289630093644
775.0, 0.004516519201494799
776.0, 0.006619909527322129
777.0, 0.008000563966178363
778.0, 0.005765972867401848
779.0, 0.003514312959769913
780.0, 0.011334427320411143
781.0, 0.004453441853641162
782.0, 0.0035031042552648366
783.0, 0.005712947936430318
784.0, 0.007196721560297151
785.0, 0.003573262584036975
786.0, 0.008505039599556006
787.0, 0.007351830048344077
788.0, 0.0027398353978161675
789.0, 0.007159478665649595
790.0, 0.005238981984644202
791.0, 0.0030876813436128006
792.0, 0.004926854821702073
793.0, 0.010648813462120429
794.0, 0.0052304409323914326
795.0, 0.0033349902708128005
796.0, 0.005118658819225922
797.0, 0.00697204695080607
798.0, 0.0035933082285324546
799.0, 0.005155510223426451
800.0, 0.0033249758220583094
801.0, 0.0028164611180620776
802.0, 0.005348587044007573
803.0, 0.007807172205860071
804.0, 0.004006261004448874
805.0, 0.004344829512848529
806.0, 0.006543536965417667
807.0, 0.006191650684422054
808.0, 0.0014874743406927899
809.0, 0.004895901995159528
810.0, 0.005622494423644025
811.0, 0.0029022589787528175
812.0, 0.005178999477693137
813.0, 0.006071153126790571
814.0, 0.004864821952025112
815.0, 0.004871915039369188
816.0, 0.0074497356854835994
817.0, 0.0034460212988431703
818.0, 0.006961821279403275
819.0, 0.00848491431755914
820.0, 0.006244026134903843
821.0, 0.0014078729981275547
822.0, 0.008602615560302122
823.0, 0.005094583624693016
824.0, 0.0029341400525589685
825.0, 0.006645483950948749
826.0, 0.008731636746664323
827.0, 0.005460313388851634
828.0, 0.006271411477657726
829.0, 0.007375306111132169
830.0, 0.004464464108007298
831.0, 0.00566411079075709
832.0, 0.008456045945634427
833.0, 0.006566762053924246
834.0, 0.003421558070406235
835.0, 0.00947123212117761
836.0, 0.005761099682913015
837.0, 0.0038344263906800284
838.0, 0.005605571001495303
839.0, 0.009186180425650881
840.0, 0.0028902624789266733
841.0, 0.009954978515134955
842.0, 0.008644529654099155
843.0, 0.00315970733286509
844.0, 0.0020185741893197526
845.0, 0.007723660089632293
846.0, 0.004204095122543482
847.0, 0.003908702011731727
848.0, 0.007202393441091752
849.0, 0.006673877877621341
850.0, 0.003136972540962347
851.0, 0.005608096221548313
852.0, 0.005917403858752312
853.0, 0.0021280401992328406
854.0, 0.006362810322852106
855.0, 0.006569800914780582
856.0, 0.004737314744676017
857.0, 0.0052866058993563374
858.0, 0.01064077212838573
859.0, 0.005365982281702236
860.0, 0.01191031268122403
861.0, 0.021932456892481484
862.0, 0.028470212079326564
863.0, 0.024450978079351315
864.0, 0.035567243038551966
865.0, 0.026314290592615478
866.0, 0.013184096057282185
867.0, 0.007197783586109827
868.0, 0.015249085791997245
869.0, 0.008421072555910776
870.0, 0.009171039322138105
871.0, 0.011046868195276085
872.0, 0.00774382974863063
873.0, 0.0009953337957017238
874.0, 0.00910528856112497
875.0, 0.007149189965083104
876.0, 0.002850661410645657
877.0, 0.009816879318051645
878.0, 0.00703602331532484
879.0, 0.0037203216907934007
880.0, 0.00760332388381154
881.0, 0.012352369985581254
882.0, 0.0016088634859931497
883.0, 0.005304959355246499
884.0, 0.005577720116358728
885.0, 0.0035017186086065727
886.0, 0.0024426919834887257
887.0, 0.010325422649290789
888.0, 0.004986538930686856
889.0, 0.00335973643346443
890.0, 0.006496511257264467
891.0, 0.011282610532859741
892.0, 0.003967888855521441
893.0, 0.010798922529669724
894.0, 0.010477560865756323
895.0, 0.005624565119377082
896.0, 0.0038527609067431877
897.0, 0.011018523554793998
898.0, 0.004764407171466541
899.0, 0.0041492864655377866
900.0, 0.007971630996390016
901.0, 0.006497422104295663
902.0, 0.006584634192667623
903.0, 0.009339849848220798
904.0, 0.009564892834838077
905.0, 0.007922783207329665
906.0, 0.010381584425503555
907.0, 0.00677159315094285
908.0, 0.004100395144917137
909.0, 0.006517465971974789
910.0, 0.011600199806563554
911.0, 0.005346295251837482
912.0, 0.004880875273953349
913.0, 0.007747611422757519
914.0, 0.007932635598267845
915.0, 0.004448703454491405
916.0, 0.012171082407823993
917.0, 0.008029226631282827
918.0, 0.0036380090194175737
919.0, 0.004337995942355195
920.0, 0.0105049724308393
921.0, 0.0018670530218273928
922.0, 0.009258742637443331
923.0, 0.00927399705284559
924.0, 0.005093202041536149
925.0, 0.006389094314201127
926.0, 0.011215486623552389
927.0, 0.007091803633373098
928.0, 0.006615960354385982
929.0, 0.009649817902969012
930.0, 0.010309804388267282
931.0, 0.003660655003608747
932.0, 0.010337522436122872
933.0, 0.010505101604871057
934.0, 0.005977719758212555
935.0, 0.012843412605850575
936.0, 0.010022678517778914
937.0, 0.006230483660764682
938.0, 0.007514021506455535
939.0, 0.011581392343843566
940.0, 0.007653291917306014
941.0, 0.008956353914003564
942.0, 0.010856070418015782
943.0, 0.007749896005928549
944.0, 0.0027869089129636732
945.0, 0.01162583197449568
946.0, 0.00868952957880716
947.0, 0.006214494449410134
948.0, 0.007341749131967183
949.0, 0.010940042051673062
950.0, 0.00883680141966265
951.0, 0.008114650949824956
952.0, 0.00904113080734862
953.0, 0.007382517215822331
954.0, 0.003959048751949032
955.0, 0.011898915078186516
956.0, 0.0054454955128844535
957.0, 0.005482668820608993
958.0, 0.00837955888325802
959.0, 0.008803714315785287
960.0, 0.002665071672893533
961.0, 0.00806665537094133
962.0, 0.009718682488255545
963.0, 0.006650824182904903
964.0, 0.002895272605069739
965.0, 0.013053442051278084
966.0, 0.004940993832232664
967.0, 0.0067895908379034895
968.0, 0.01104312661094194
969.0, 0.008768041863972948
970.0, 0.0034841497346295137
971.0, 0.01159871567439009
972.0, 0.007559265509720888
973.0, 0.001745463749918473
974.0, 0.004774248732990528
975.0, 0.007601366377017039
976.0, 0.003237299451212846
977.0, 0.006366335246456899
978.0, 0.009840797144516333
979.0, 0.006364854801725819
980.0, 0.00131705174973235
981.0, 0.00757470920215547
982.0, 0.0064626001194147496
983.0, 0.0033056731562629586
984.0, 0.005356143560247882
985.0, 0.012590205318945159
986.0, 0.005786696637308858
987.0, 0.008855909023110729
988.0, 0.010427048294870334
989.0, 0.0018224805503152584
990.0, 0.0022660197919275684
991.0, 0.007327200517156698
992.0, 0.005623083316204975
993.0, 0.0042681254216087264
994.0, 0.0076318442952328595
995.0, 0.003500374020931157
996.0, 0.002865962859320232
997.0, 0.00904075649967469
998.0, 0.010142485497844682
999.0, 0.002459963456594735
1000.0, 0.008758289482876191
1001.0, 0.012293216030449326
1002.0, 0.007428616970802594
1003.0, 0.00661503627603801
1004.0, 0.012712945657396522
1005.0, 0.0034152324606516408
1006.0, 0.0044800991852923305
1007.0, 0.00877043080218408
1008.0, 0.007643999804172036
1009.0, 0.002553940605239496
1010.0, 0.01310066700846916
1011.0, 0.008134941588507283
1012.0, 0.004612046778209938
1013.0, 0.008161770779342914
1014.0, 0.013542755199480793
1015.0, 0.0012945771131055127
1016.0, 0.010741050939304091
1017.0, 0.011140175272631957
1018.0, 0.006686944549293402
1019.0, 0.005411832198446384
1020.0, 0.017966894138264067
1021.0, 0.006317439041124344
1022.0, 0.008157114603572324
1023.0, 0.01381991744260663
1024.0, 0.015032704214217657
1025.0, 0.0062300443126927195
1026.0, 0.014552401724642668
1027.0, 0.010008745785851798
1028.0, 0.007160867914937257
1029.0, 0.010423043654197526
1030.0, 0.01700826116315362
1031.0, 0.006761250472498944
1032.0, 0.009736464702331363
1033.0, 0.012114031019658
1034.0, 0.009872010114326292
1035.0, 0.004972592894211075
1036.0, 0.014059107337773775
1037.0, 0.009348272412938462
1038.0, 0.00901783633232196
1039.0, 0.01307970840561666
1040.0, 0.016537630638815224
1041.0, 0.011812856205563937
1042.0, 0.016774093107295936
1043.0, 0.0142529238221734
1044.0, 0.010428029950673675
1045.0, 0.012191829747435119
1046.0, 0.021113453715187143
1047.0, 0.011289382349783385
1048.0, 0.016347360998471092
1049.0, 0.0217414881259039
1050.0, 0.019850191842208164
1051.0, 0.016409098274128814
1052.0, 0.026222873128174604
1053.0, 0.019949301649409307
1054.0, 0.014531778889662651
1055.0, 0.016491890519145957
1056.0, 0.02267734572367596
1057.0, 0.017776327295551727
1058.0, 0.016130920522091384
1059.0, 0.019072258263121707
1060.0, 0.02257952420784233
1061.0, 0.02309579321722926
1062.0, 0.03759504423814802
1063.0, 0.033715996537466375
1064.0, 0.04341213487305862
1065.0, 0.06973548206936682
1066.0, 0.11201652002953773
1067.0, 0.18319833337329472
1068.0, 0.4116284882322145
1069.0, 0.5705810433040764
1070.0, 0.5658449943428717
1071.0, 0.3996596960847816
1072.0, 0.20382655159892335
1073.0, 0.10142253252893274
1074.0, 0.06221044095232256
1075.0, 0.051210792184793935
1076.0, 0.043258916636914224
1077.0, 0.026598428069432106
1078.0, 0.041303133686274224
1079.0, 0.03569136848651036
1080.0, 0.03413774593745406
1081.0, 0.04066774776921223
1082.0, 0.04878398970682331
1083.0, 0.04419075615327173
1084.0, 0.06897221916472046
1085.0, 0.114014971607077
1086.0, 0.24509414760596965
1087.0, 0.5241283425692804
1088.0, 0.9773394448842712
1089.0, 0.9603299131541712
1090.0, 0.6349724072618129
1091.0, 0.30459268780726845
1092.0, 0.12458661820260548
1093.0, 0.05668407893504076
1094.0, 0.04687694165004018
1095.0, 0.034412028693937384
1096.0, 0.02167912875496542
1097.0, 0.01847185924861148
1098.0, 0.030418451676412245
1099.0, 0.01259575761087959
1100.0, 0.01748124454224167
1101.0, 0.021305773158974042
1102.0, 0.016820322062830174
1103.0, 0.008655297761187977
1104.0, 0.021362796745722834
1105.0, 0.012938867635056589
1106.0, 0.011440090142566925
1107.0, 0.01546439354519324
1108.0, 0.016419916197665974
1109.0, 0.0026968133753804795
1110.0, 0.008904876019796858
1111.0, 0.009067852615085902
1112.0, 0.005520355833945368
1113.0, 0.0063921213754759235
1114.0, 0.015526801268507062
1115.0, 0.004857668486360478
1116.0, 0.006317477207355564
1117.0, 0.011287990331519109
1118.0, 0.01109966863986086
1119.0, 0.006500526333711631
1120.0, 0.014021691698186277
1121.0, 0.010954341546260571
1122.0, 0.005810865740409487
1123.0, 0.011594693052146887
1124.0, 0.01726679073567223
1125.0, 0.0023452691605652465
1126.0, 0.005368993658656571
1127.0, 0.01513508550706298
1128.0, 0.00938804809985896
1129.0, 0.007042944681001822
1130.0, 0.018457294204718026
1131.0, 0.0076422364406176285
1132.0, 0.002744867793301923
1133.0, 0.01295006023208654
1134.0, 0.012323440582437848
1135.0, 0.002902499471815633
1136.0, 0.010403779920458857
1137.0, 0.017725396557063094
1138.0, 0.00726243302956882
1139.0, 0.012701246710789652
1140.0, 0.01848036436964585
1141.0, 0.006934602958427112
1142.0, 0.0007865787213720884
1143.0, 0.018036539779130847
1144.0, 0.009878032145538824
1145.0, 0.006586428718542472
1146.0, 0.01598797802944303
1147.0, 0.017801971892195206
1148.0, 0.006360921811017249
1149.0, 0.014575864198284567
1150.0, 0.012707923865404232
1151.0, 0.006730552791663939
1152.0, 0.009551258157572124
1153.0, 0.017905374222081428
1154.0, 0.00525143488649911
1155.0, 0.010700866150047556
1156.0, 0.016300016078367945
1157.0, 0.012286752975098821
1158.0, 0.0031649176619976526
1159.0, 0.01431425631724819
1160.0, 0.012768142369044931
1161.0, 0.007795247391650014
1162.0, 0.010993101151453872
1163.0, 0.02096006137571836
1164.0, 0.0026684867184852776
1165.0, 0.013691882445779551
1166.0, 0.01529974177853878
1167.0, 0.008484930456631493
1168.0, 0.006004491237741261
1169.0, 0.020834432347660487
1170.0, 0.010899693142022686
1171.0, 0.0030805731574742837
1172.0, 0.012462875352978815
1173.0, 0.015760445434607837
1174.0, 0.004774221732146379
1175.0, 0.013999206496866094
1176.0, 0.011242248844508704
1177.0, 0.005802570914145121
1178.0, 0.010710189173878061
1179.0, 0.01583761038067156
1180.0, 0.006481134648704255
1181.0, 0.0074371687922895665
1182.0, 0.017819870088599078
1183.0, 0.009899594011644126
1184.0, 0.006971722213187916
1185.0, 0.014244269011451718
1186.0, 0.009237935236965544
1187.0, 0.005293717897824379
1188.0, 0.014497417240614945
1189.0, 0.011298771353548176
1190.0, 0.0026226441083349716
1191.0, 0.003201874119402489
1192.0, 0.018655285970470267
1193.0, 0.004655722025528508
1194.0, 0.008149503907385294
1195.0, 0.012586573733856531
1196.0, 0.010567312115756693
1197.0, 0.00611955056018332
1198.0, 0.018563190110842814
1199.0, 0.010009015024169822
1200.0, 0.003992768686815085
1201.0, 0.01232872644854543
1202.0, 0.022481910066043116
1203.0, 0.0007670963288238354
1204.0, 0.0141563327653957
1205.0, 0.018741975481751386
1206.0, 0.009853902696306508
1207.0, 0.007807306006883457
1208.0, 0.020470569752472512
1209.0, 0.009893196635787634
1210.0, 0.005243379587284964
1211.0, 0.016869035091969853
1212.0, 0.01531414399537873
1213.0, 0.009093556700452036
1214.0, 0.018611568662483848
1215.0, 0.015567667457578038
1216.0, 0.010772433220923508
1217.0, 0.016918793609910752
1218.0, 0.016906907509802366
1219.0, 0.010142689120650257
1220.0, 0.012763460515608187
1221.0, 0.021628347138849466
1222.0, 0.01067414336993015
1223.0, 0.01690393918110468
1224.0, 0.02176059609010417
1225.0, 0.013319588612931543
1226.0, 0.007744483452373406
1227.0, 0.023994737158603275
1228.0, 0.012761582149771585
1229.0, 0.0072484633142107895
1230.0, 0.015957468755115403
1231.0, 0.027509720048023018
1232.0, 0.00949398481237947
1233.0, 0.015293607109933086
1234.0, 0.022196624850915718
1235.0, 0.01420408343359559
1236.0, 0.010867241680536103
1237.0, 0.028200648806573678
1238.0, 0.010291949841354658
1239.0, 0.007718821207408755
1240.0, 0.022255411049172245
1241.0, 0.018304216284261966
1242.0, 0.005162510647518979
1243.0, 0.014862676027290486
1244.0, 0.021907545593803937
1245.0, 0.008045316966865628
1246.0, 0.016505537127556043
1247.0, 0.020143517003806573
1248.0, 0.012025808271940077
1249.0, 0.011503054903275009
1250.0, 0.027850315809038975
1251.0, 0.012797345243566958
1252.0, 0.014218843387059261
1253.0, 0.0207827164293063
1254.0, 0.017797441130827103
1255.0, 0.004560491928042601
1256.0, 0.027963548236539338
1257.0, 0.018936075575888466
1258.0, 0.009634954583754136
1259.0, 0.01512352771246261
1260.0, 0.026568483928442174
1261.0, 0.01275974985332213
1262.0, 0.007308396648956814
1263.0, 0.0215891823906434
1264.0, 0.014624265994329371
1265.0, 0.008953195631256423
1266.0, 0.018166797640900352
1267.0, 0.013427333978276912
1268.0, 0.006768211267066401
1269.0, 0.024316542630477275
1270.0, 0.019949809835421082
1271.0, 0.00944028879975976
1272.0, 0.014177237678668467
1273.0, 0.02594032386755797
1274.0, 0.004766272474662147
1275.0, 0.017339252615166778
1276.0, 0.019727472372296873
1277.0, 0.010825821326590213
1278.0, 0.008713397030840309
1279.0, 0.03300711043902642
1280.0, 0.012024937647164839
1281.0, 0.006315392795577835
1282.0, 0.015073278754553207
1283.0, 0.015953981899877005
1284.0, 0.004087202489422748
1285.0, 0.020282342884726433
1286.0, 0.017779863009174914
1287.0, 0.005933422408128018
1288.0, 0.00975637936040372
1289.0, 0.01734455322911891
1290.0, 0.014409082226411239
1291.0, 0.009633925374766752
1292.0, 0.02294250059908383
1293.0, 0.008839494604245941
1294.0, 0.0069812549503097225
1295.0, 0.01587582599462173
1296.0, 0.01838606016134783
1297.0, 0.0010737752964367162
1298.0, 0.017501223834810238
1299.0, 0.014322209014097899
1300.0, 0.006142456489221827
1301.0, 0.011773772779390965
1302.0, 0.023960481882893195
1303.0, 0.0003983870032773064
1304.0, 0.009000145196526461
1305.0, 0.021158961423766155
1306.0, 0.01243166457845409
1307.0, 0.005048311694737019
1308.0, 0.01439092327948061
1309.0, 0.02554461316424895
1310.0, 0.004048849449547436
1311.0, 0.019153188169665505
1312.0, 0.019681075000048582
1313.0, 0.011637818437125826
1314.0, 0.011849844385726845
1315.0, 0.02688601434778255
1316.0, 0.013654641992624804
1317.0, 0.014779582940705263
1318.0, 0.022452723938948316
1319.0, 0.018173343980756467
1320.0, 0.011562407379593027
1321.0, 0.027675488085636673
1322.0, 0.022281936708728932
1323.0, 0.00767355757292857
1324.0, 0.018278480428601605
1325.0, 0.020766697635392756
1326.0, 0.012613453095144077
1327.0, 0.015911650055464653
1328.0, 0.032585763290817235
1329.0, 0.011322541519068348
1330.0, 0.014682389509504514
1331.0, 0.021865240084333278
1332.0, 0.017818783426141703
1333.0, 0.007982448591219674
1334.0, 0.02978510732483588
1335.0, 0.016918469466728783
1336.0, 0.012024016620277763
1337.0, 0.024172564604867386
1338.0, 0.024973970568308548
1339.0, 0.0065431501371902125
1340.0, 0.01915110899862994
1341.0, 0.02984822239004037
1342.0, 0.009868028608384835
1343.0, 0.017464755088060755
1344.0, 0.02817960681211512
1345.0, 0.02136780415793731
1346.0, 0.012503701624271111
1347.0, 0.028375238237374638
1348.0, 0.014913235632260763
1349.0, 0.012689282279091801
1350.0, 0.020995377558426544
1351.0, 0.02213807552149467
1352.0, 0.006526555278738333
1353.0, 0.027976393647011356
1354.0, 0.022335223055507475
1355.0, 0.010357058564447403
1356.0, 0.016631543352716285
1357.0, 0.026441422054481967
1358.0, 0.018463825014246985
1359.0, 0.00811704576682828
1360.0, 0.030816130016790837
1361.0, 0.016335434979729106
1362.0, 0.015862048556990326
1363.0, 0.02409419501109377
1364.0, 0.02286592715673411
1365.0, 0.010442381629998934
1366.0, 0.0314597369798393
1367.0, 0.022934685704868882
1368.0, 0.008610804779656221
1369.0, 0.0129211591989517
1370.0, 0.02093904760640999
1371.0, 0.0030452355125684324
1372.0, 0.002441545649556085
1373.0, 0.02601354837850132
1374.0, 0.012187463936790129
1375.0, 0.010968398508122066
1376.0, 0.020838786762001953
1377.0, 0.018332699870676917
1378.0, 0.0009126849419172148
1379.0, 0.019810213649069985
1380.0, 0.017138625163562224
1381.0, 0.006540534218445579
1382, 0.0
1383, 0.0
1384, 0.0
1385, 0.0
1386, 0.0
1387, 0.0
1388, 0.0
1389, 0.0
1390, 0.0
1391, 0.0
1392, 0.0
1393, 0.0
1394, 0.0
1395, 0.0
1396, 0.0
1397, 0.0
1398, 0.0
1399, 0.0
1400, 0.0
1401, 0.0
1402, 0.0
1403, 0.0
1404, 0.0
1405, 0.0
1406, 0.0
1407, 0.0
1408, 0.0
1409, 0.0
1410, 0.0
1411, 0.0
1412, 0.0
1413, 0.0
1414, 0.0
1415, 0.0
1416, 0.0
1417, 0.0
1418, 0.0
1419, 0.0
1420, 0.0
1421, 0.0
1422, 0.0
1423, 0.0
1424, 0.0
1425, 0.0
1426, 0.0
1427, 0.0
1428, 0.0
1429, 0.0
1430, 0.0
1431, 0.0
1432, 0.0
1433, 0.0
1434, 0.0
1435, 0.0
1436, 0.0
1437, 0.0
1438, 0.0
1439, 0.0
1440, 0.0
1441, 0.0
1442, 0.0
1443, 0.0
1444, 0.0
1445, 0.0
1446, 0.0
1447, 0.0
1448, 0.0
1449, 0.0
1450, 0.0
1451, 0.0
1452, 0.0
1453, 0.0
1454, 0.0
1455, 0.0
1456, 0.0
1457, 0.0
1458, 0.0
1459, 0.0
1460, 0.0
1461, 0.0
1462, 0.0
1463, 0.0
1464, 0.0
1465, 0.0
1466, 0.0
1467, 0.0
1468, 0.0
1469, 0.0
1470, 0.0
1471, 0.0
1472, 0.0
1473, 0.0
1474, 0.0
1475, 0.0
1476, 0.0
1477, 0.0
1478, 0.0
1479, 0.0
1480, 0.0
1481, 0.0
1482, 0.0
1483, 0.0
1484, 0.0
1485, 0.0
1486, 0.0
1487, 0.0
1488, 0.0
1489, 0.0
1490, 0.0
1491, 0.0
1492, 0.0
1493, 0.0
1494, 0.0
1495, 0.0
1496, 0.0
1497, 0.0
1498, 0.0
1499, 0.0
1500, 0.0
1501, 0.0
1502, 0.0
1503, 0.0
1504, 0.0
1505, 0.0
1506, 0.0
1507, 0.0
1508, 0.0
1509, 0.0
1510, 0.0
1511, 0.0
1512, 0.0
1513, 0.0
1514, 0.0
1515, 0.0
1516, 0.0
1517, 0.0
1518, 0.0
1519, 0.0
1520, 0.0
1521, 0.0
1522, 0.0
1523, 0.0
1524, 0.0
1525, 0.0
1526, 0.0
1527, 0.0
1528, 0.0
1529, 0.0
1530, 0.0
1531, 0.0
1532, 0.0
1533, 0.0
1534, 0.0
1535, 0.0
1536, 0.0
1537, 0.0
1538, 0.0
1539, 0.0
1540, 0.0
1541, 0.0
1542, 0.0
1543, 0.0
1544, 0.0
1545, 0.0
1546, 0.0
1547, 0.0
1548, 0.0
1549, 0.0
1550, 0.0
1551, 0.0
1552, 0.0
1553, 0.0
1554, 0.0
1555, 0.0
1556, 0.0
1557, 0.0
1558, 0.0
1559, 0.0
1560, 0.0
1561, 0.0
1562, 0.0
1563, 0.0
1564, 0.0
1565, 0.0
1566, 0.0
1567, 0.0
1568, 0.0
1569, 0.0
1570, 0.0
1571, 0.0
1572, 0.0
1573, 0.0
1574, 0.0
1575, 0.0
1576, 0.0
1577, 0.0
1578, 0.0
1579, 0.0
1580, 0.0
1581, 0.0
1582, 0.0
1583, 0.0
1584, 0.0
1585, 0.0
1586, 0.0
1587, 0.0
1588, 0.0
1589, 0.0
1590, 0.0
1591, 0.0
1592, 0.0
1593, 0.0
1594, 0.0
1595, 0.0
1596, 0.0
1597, 0.0
1598, 0.0
1599, 0.0
