30, 0.0
31, 0.0
32, 0.0
33, 0.0
34, 0.0
35, 0.0
36, 0.0
37, 0.0
38, 0.0
39, 0.0
40, 0.0
41, 0.0
42, 0.0
43, 0.0
44, 0.0
45, 0.0
46, 0.0
47, 0.0
48, 0.0
49.0, 0.00025475761079207104
50.0, 0.0010175049484928754
51.0, 0.0012964643534061264
52.0, 0.002270353954683025
53.0, 0.0037696492437973763
54.0, 0.004411345544342226
55.0, 0.004741010431529907
56.0, 0.004893321696907922
57.0, 0.004921976965518744
58.0, 0.005951551425689594
59.0, 0.006828148245899984
60.0, 0.007516714187757119
61.0, 0.008447681995235618
62.0, 0.008723972752301317
63.0, 0.00838779267979293
64.0, 0.007288743176628798
65.0, 0.006147340559491217
66.0, 0.005264344454436881
67.0, 0.004620942509233991
68.0, 0.003928538084981375
69.0, 0.0034711252853004675
70.0, 0.0030824930168001003
71.0, 0.0026409840044329625
72.0, 0.0021732445267195572
73.0, 0.001795096246065288
74.0, 0.0015734231831691116
75.0, 0.0018766577028312553
76.0, 0.0013534448610086323
77.0, 0.0009223046865790908
78.0, 0.0013617604421826456
79.0, 0.001028219397294704
80.0, 0.0006202372753443017
81.0, 0.0002589458520138982
82.0, 0.00028241227629793755
83.0, 0.00023484173123375607
84.0, 0.00030367094272173707
85.0, 0.0006582760120102644
86.0, 0.00037173659878913845
87.0, 0.00033643425991773717
88.0, 0.0005839167347517106
89.0, 0.001015143942363856
90.0, 0.0012181954391226838
91.0, 0.0013786190356364066
92.0, 0.0016041576878109208
93.0, 0.002228270475383602
94.0, 0.00243638874443016
95.0, 0.0023302236140883056
96.0, 0.0023815983247687136
97.0, 0.003066137250511925
98.0, 0.0036476629555185613
99.0, 0.0037305761473248977
100.0, 0.0037529062629579695
101.0, 0.003486238372138411
102.0, 0.0031430804460478457
103.0, 0.0033616182572521
104.0, 0.0035086945837693355
105.0, 0.003684832263832258
106.0, 0.003928833001071955
107.0, 0.003586448133319072
108.0, 0.003080949633190917
109.0, 0.0026050184614852027
110.0, 0.0026017686400425055
111.0, 0.0025874461566731434
112.0, 0.00276645432644555
113.0, 0.0031648847575813654
114.0, 0.0027270826027723694
115.0, 0.0024636021156254754
116.0, 0.0021940413385996347
117.0, 0.0016328121171536494
118.0, 0.001959923187851057
119.0, 0.002085277624289526
120.0, 0.001817485661379131
121.0, 0.001407179898678283
122.0, 0.0012112561144666293
123.0, 0.001090817925431668
124.0, 0.0009215419669503751
125.0, 0.0008168811301831
126.0, 0.0006170556285244973
127.0, 0.00032804129605987193
128.0, 7.651772743102819e-05
129.0, 0.0003451811891787435
130.0, 0.0004963650710254536
131.0, 7.714420227653885e-05
132.0, 6.47234996813837e-05
133.0, 0.0002560865412638104
134.0, 0.000469348216851937
135.0, 0.00013438632660295552
136.0, 4.576470263383579e-05
137.0, 0.00021143419097639077
138.0, 0.0006472372339539245
139.0, 0.00017942495161596582
140.0, 0.0003007451002555167
141.0, 0.000646799238593956
142.0, 0.0005711769635574971
143.0, 0.0006742872290411445
144.0, 0.0008089534737319993
145.0, 0.0009058788432698745
146.0, 0.000530688090188542
147.0, 0.000726951851055376
148.0, 0.0010495110589302243
149.0, 0.0010549225998818757
150.0, 0.0007893566197697407
151.0, 0.0008024084141055883
152.0, 0.0010488182151129621
153.0, 0.0010395426741969748
154.0, 0.0007213209089186706
155.0, 0.0006027400199468418
156.0, 0.0010032912317305286
157.0, 0.001014513927873238
158.0, 0.0006305290172761257
159.0, 0.00011551523111363568
160.0, 9.419155313716248e-05
161.0, 0.00042661937273553974
162.0, 0.0008837460100702293
163.0, 0.0014303231025986365
164.0, 0.0024044587166273126
165.0, 0.003178709618084407
166.0, 0.003941846183716533
167.0, 0.004916576516776959
168.0, 0.006737338568429496
169.0, 0.007769164581736678
170.0, 0.008222611868764813
171.0, 0.010104033845658097
172.0, 0.010971644173981747
173.0, 0.011582131906918317
174.0, 0.012316942604036266
175.0, 0.011650010668554065
176.0, 0.010013308172720819
177.0, 0.008019861863403005
178.0, 0.006939707182271347
179.0, 0.004701221660412324
180.0, 0.0028780379162231936
181.0, 0.0017757361611827473
182.0, 0.00041566752502797204
183.0, 0.000599031220201368
184.0, 0.0010811256428954479
185.0, 0.0007575058807086233
186.0, 0.0013226260212447138
187.0, 0.0009895699572147413
188.0, 0.0001404633794934103
189.0, 0.0005102739913148815
190.0, 0.0003967096787966501
191.0, 0.00028572873310205986
192.0, 0.0003540376651681973
193.0, 0.00031337908318380676
194.0, 0.0005891452062863557
195.0, 0.000876909345932357
196.0, 0.0007529013814458865
197.0, 0.0012657148168549203
198.0, 0.00150904780970151
199.0, 0.001557118170962922
200.0, 0.0024021231638995917
201.0, 0.0027515236961753904
202.0, 0.002678406946972687
203.0, 0.002181932823381942
204.0, 0.004153605581525493
205.0, 0.004641517756802286
206.0, 0.004654152170941397
207.0, 0.005931883253916551
208.0, 0.006306634085332711
209.0, 0.007136328897131455
210.0, 0.008478663853473059
211.0, 0.009104784675317912
212.0, 0.010562528255573586
213.0, 0.012521050020393413
214.0, 0.014844510748309652
215.0, 0.0164621326828405
216.0, 0.018886403560406457
217.0, 0.02141282086239443
218.0, 0.022564407319969722
219.0, 0.02706607062884095
220.0, 0.03148517158553416
221.0, 0.03523323474696851
222.0, 0.03903037152858908
223.0, 0.04454973969332938
224.0, 0.0497423835241968
225.0, 0.053224118380367856
226.0, 0.056911599106526406
227.0, 0.05896967684350896
228.0, 0.059710773012769953
229.0, 0.05957717117753343
230.0, 0.05818804796555777
231.0, 0.05479964042248879
232.0, 0.05004300875441649
233.0, 0.049302332351790476
234.0, 0.045926293724980645
235.0, 0.04381360338118868
236.0, 0.045452520489388915
237.0, 0.0445898498963255
238.0, 0.04611497704381212
239.0, 0.049621676584260616
240.0, 0.054707011293417915
241.0, 0.058405570178615446
242.0, 0.06469475695528394
243.0, 0.07263790798462093
244.0, 0.0738372493626087
245.0, 0.07657120401593387
246.0, 0.07759862576602646
247.0, 0.07519270942291123
248.0, 0.07058929112648764
249.0, 0.06912398097561898
250.0, 0.06754018425499111
251.0, 0.06130663496663176
252.0, 0.06206603342637677
253.0, 0.060773131036029764
254.0, 0.058151300633942714
255.0, 0.06049924177971398
256.0, 0.06330430319778212
257.0, 0.0655102953825041
258.0, 0.06688359444807929
259.0, 0.06999495854916027
260.0, 0.06813160452089129
261.0, 0.06488997141922717
262.0, 0.06340036784582541
263.0, 0.05756925482910687
264.0, 0.05177367616357834
265.0, 0.046350573896618424
266.0, 0.04165510368016993
267.0, 0.035892637641615655
268.0, 0.03193040894407936
269.0, 0.029763820774627695
270.0, 0.02503558408621407
271.0, 0.023622866546109463
272.0, 0.022622445714378662
273.0, 0.02052644290795227
274.0, 0.02190386687800651
275.0, 0.023209012795944495
276.0, 0.024269639557183437
277.0, 0.024805512461371644
278.0, 0.028823849374735915
279.0, 0.0316688177183494
280.0, 0.034027909021189025
281.0, 0.03970766859904941
282.0, 0.04105850126251042
283.0, 0.03999032168577421
284.0, 0.037126992054674124
285.0, 0.033947890463738674
286.0, 0.02905062862888701
287.0, 0.025050713275348017
288.0, 0.02384638435187285
289.0, 0.02019926268578422
290.0, 0.018459677334241167
291.0, 0.017742433749408523
292.0, 0.016711975020744098
293.0, 0.01634515245504331
294.0, 0.017194273024076792
295.0, 0.018386764865926258
296.0, 0.01654971274565805
297.0, 0.017829383738621935
298.0, 0.018271904504846476
299.0, 0.016819913900477535
300.0, 0.015707275728846087
301.0, 0.015504873764369737
302.0, 0.01518922398134969
303.0, 0.01405582615789025
304.0, 0.015169463650016616
305.0, 0.014360837911190085
306.0, 0.013065843116515718
307.0, 0.013371861967719658
308.0, 0.014028640965056285
309.0, 0.013720279089330642
310.0, 0.013359924756650815
311.0, 0.01617612993917106
312.0, 0.014860166233311298
313.0, 0.014807746798241171
314.0, 0.016918801587554204
315.0, 0.017485771895539643
316.0, 0.018074678000290438
317.0, 0.018948338508224936
318.0, 0.020231766676331836
319.0, 0.020814324507218464
320.0, 0.02441732035802739
321.0, 0.027676303581145784
322.0, 0.026944378603065634
323.0, 0.031718631213669114
324.0, 0.03574803093069462
325.0, 0.03957408228664833
326.0, 0.04496817506245061
327.0, 0.05387261419507264
328.0, 0.061509232317998964
329.0, 0.06911983215420611
330.0, 0.0849786666615782
331.0, 0.09198815527074526
332.0, 0.09634361337981956
333.0, 0.10036406425333162
334.0, 0.10721069388559705
335.0, 0.10946364652241544
336.0, 0.11298672187946193
337.0, 0.12113110800629892
338.0, 0.1156716256395552
339.0, 0.11458201555938888
340.0, 0.11342439054993492
341.0, 0.1070992837305507
342.0, 0.10103608638492242
343.0, 0.09716997282042554
344.0, 0.0932403264139574
345.0, 0.08440284921978201
346.0, 0.0831801942401312
347.0, 0.08039838552138011
348.0, 0.07623164919360083
349.0, 0.07630387302402052
350.0, 0.07722480344095449
351.0, 0.07749914671872002
352.0, 0.07765330036499749
353.0, 0.0845196445283103
354.0, 0.0842257950716024
355.0, 0.0847501298923886
356.0, 0.08962712187967578
357.0, 0.08948254395541479
358.0, 0.08779601000000647
359.0, 0.08730429167975905
360.0, 0.09039123832260842
361.0, 0.08263254683424198
362.0, 0.08035011868289126
363.0, 0.07958918096972588
364.0, 0.07469406152257047
365.0, 0.07419499701551421
366.0, 0.07465213752088858
367.0, 0.07462535915572618
368.0, 0.07141410931171047
369.0, 0.07373539788557225
370.0, 0.07128600485403253
371.0, 0.06509757275126209
372.0, 0.06484560607576988
373.0, 0.059765368147866295
374.0, 0.05368642395767401
375.0, 0.04817433527440809
376.0, 0.04644519401829415
377.0, 0.04087176549823922
378.0, 0.03737325510593848
379.0, 0.03794236925450496
380.0, 0.03426600299856169
381.0, 0.03322641714758924
382.0, 0.0341130307010297
383.0, 0.03642851830571149
384.0, 0.03423580223050034
385.0, 0.035828601548446644
386.0, 0.03744462023578089
387.0, 0.035340332198425424
388.0, 0.037837176244098776
389.0, 0.03826637929683398
390.0, 0.03701198418350391
391.0, 0.03473368372563913
392.0, 0.03520954287154964
393.0, 0.03179854364636821
394.0, 0.027321562329387913
395.0, 0.028708994854630823
396.0, 0.02498328944433704
397.0, 0.021518741736983076
398.0, 0.01910525095891201
399.0, 0.01791986984452871
400.0, 0.013916297260805363
401.0, 0.011706373611174976
402.0, 0.011245897433600103
403.0, 0.008024453360332206
404.0, 0.007861929055703775
405.0, 0.007674684630008985
406.0, 0.006512248433532564
407.0, 0.004412775918855059
408.0, 0.004298817967017151
409.0, 0.0037461089881698217
410.0, 0.002085079886762162
411.0, 0.0031208721146988305
412.0, 0.002918690499749374
413.0, 0.0025963541603853863
414.0, 0.002785960302243405
415.0, 0.003475252471448743
416.0, 0.0030327807042027175
417.0, 0.0031861283091996684
418.0, 0.00515785446371414
419.0, 0.003910473605979331
420.0, 0.004347388354112865
421.0, 0.005329091371826183
422.0, 0.00577524978766321
423.0, 0.004591486665043876
424.0, 0.005718540550437389
425.0, 0.0068615776586030824
426.0, 0.005105623607750822
427.0, 0.00645194013434154
428.0, 0.006677277601793574
429.0, 0.00624461034842596
430.0, 0.006097644390857852
431.0, 0.0071402146999167354
432.0, 0.00619235366990297
433.0, 0.004943148679341391
434.0, 0.007005450719152276
435.0, 0.005740220584610665
436.0, 0.005441852446790164
437.0, 0.0060207227731635905
438.0, 0.006273560027027506
439.0, 0.004759132407674176
440.0, 0.005320580936018351
441.0, 0.006803005080129031
442.0, 0.004630881016760931
443.0, 0.0054837941175958985
444.0, 0.006677904564554473
445.0, 0.007358375896399521
446.0, 0.006284953114907092
447.0, 0.008643511394826527
448.0, 0.009239291100598306
449.0, 0.008275024901586372
450.0, 0.010622747556496505
451.0, 0.010107367618435312
452.0, 0.009538721374503789
453.0, 0.009747597961244851
454.0, 0.011302516078322609
455.0, 0.010346534298931743
456.0, 0.011146163152489768
457.0, 0.01377041536538663
458.0, 0.012535661481136346
459.0, 0.013439401161140794
460.0, 0.015142033650446737
461.0, 0.01666628509515638
462.0, 0.0149146200595831
463.0, 0.018065650360022088
464.0, 0.019772265498157582
465.0, 0.01886685016477951
466.0, 0.021843397212373553
467.0, 0.023382311377483027
468.0, 0.024101640581003017
469.0, 0.024953012509183407
470.0, 0.03076109165196454
471.0, 0.03090747633435419
472.0, 0.0322947137599389
473.0, 0.03691716525533574
474.0, 0.039311924485283624
475.0, 0.04197513296980368
476.0, 0.04687932614069114
477.0, 0.05375451213476398
478.0, 0.05435021462199096
479.0, 0.06138289960453771
480.0, 0.06700603940490854
481.0, 0.06860977965409695
482.0, 0.0718790210351965
483.0, 0.07668608160157368
484.0, 0.07760252091523935
485.0, 0.07375069816442613
486.0, 0.07651086004377336
487.0, 0.07057302930964794
488.0, 0.06426910792263223
489.0, 0.060408164053093794
490.0, 0.053815960846993444
491.0, 0.04603710903944439
492.0, 0.04079698268898228
493.0, 0.038489418135385325
494.0, 0.030826051793945975
495.0, 0.02712116766498512
496.0, 0.024281977147870958
497.0, 0.02115597046520101
498.0, 0.01818663185297229
499.0, 0.01721116833260387
500.0, 0.014504550702934936
501.0, 0.009865025047664594
502.0, 0.010608975640269738
503.0, 0.009515031785784734
504.0, 0.007892783319420886
505.0, 0.00653838580589604
506.0, 0.0073011216476220235
507.0, 0.005166320411703643
508.0, 0.004312998605510781
509.0, 0.005172643939926416
510.0, 0.0033311953861698716
511.0, 0.0028272169672558427
512.0, 0.003034615555575955
513.0, 0.003169199808275654
514.0, 0.0006513313094962734
515.0, 0.0020364212172148334
516.0, 0.0024576366913996064
517.0, 0.0014681953139873602
518.0, 0.0019465314479886135
519.0, 0.0027430612526755387
520.0, 0.0024920078752649257
521.0, 0.0018851107928076997
522.0, 0.004053806935364
523.0, 0.0030927140080218634
524.0, 0.0038813424781813316
525.0, 0.005892621173109684
526.0, 0.00534636189667199
527.0, 0.004657609355222385
528.0, 0.006023345609902798
529.0, 0.0078065154128684495
530.0, 0.005580761218657057
531.0, 0.007213576992034729
532.0, 0.008021681312405639
533.0, 0.007810181759274775
534.0, 0.007182709728351695
535.0, 0.00882240528094567
536.0, 0.007874272116951157
537.0, 0.006492516998906331
538.0, 0.00858586036475199
539.0, 0.00736036765205558
540.0, 0.006665026045613539
541.0, 0.006925211779047168
542.0, 0.008444736188039119
543.0, 0.005894109066688207
544.0, 0.006339855183310478
545.0, 0.006933657548871102
546.0, 0.004735123923028337
547.0, 0.005357578456691615
548.0, 0.005826582486480422
549.0, 0.0053272688708672486
550.0, 0.0034354480062621096
551.0, 0.005125787408992509
552.0, 0.004090470160663327
553.0, 0.003125497744146861
554.0, 0.00386618950638908
555.0, 0.004738822656806585
556.0, 0.0030329598949323114
557.0, 0.002631793554045154
558.0, 0.004554052175864821
559.0, 0.0026263259059710934
560.0, 0.003080781046850546
561.0, 0.003693545400322765
562.0, 0.0037062282612980156
563.0, 0.0033598689223374883
564.0, 0.0043084942373773595
565.0, 0.00422004060846635
566.0, 0.0034041604239123256
567.0, 0.004955250734975797
568.0, 0.004830518220889712
569.0, 0.00439393377007713
570.0, 0.004396602731189222
571.0, 0.006049530441909228
572.0, 0.004590501385243418
573.0, 0.0047924141528559484
574.0, 0.005925687867873229
575.0, 0.005826972243946824
576.0, 0.005128011401534446
577.0, 0.006028372740129161
578.0, 0.00667081100945112
579.0, 0.0046759018414938795
580.0, 0.006422813296798859
581.0, 0.00590976203491847
582.0, 0.004847305649325226
583.0, 0.004750104814929232
584.0, 0.004861781768417663
585.0, 0.00351890829262695
586.0, 0.003078710653288164
587.0, 0.004525666026986606
588.0, 0.0036560291827799625
589.0, 0.0032737619321767724
590.0, 0.0031271030721718713
591.0, 0.002986348932657426
592.0, 0.0022061904124232234
593.0, 0.0030038849644477856
594.0, 0.002662639362729492
595.0, 0.0012915326949474199
596.0, 0.0015581021539394497
597.0, 0.0018088823743244527
598.0, 0.0015042996980121166
599.0, 0.001148773102984604
600.0, 0.001952237028888182
601.0, 0.0012380975167296058
602.0, 0.0005626560422568871
603.0, 0.000286253791902047
604.0, 0.0007153087660600256
605.0, 0.0011143027181474989
606.0, 0.0011545512305922918
607.0, 0.0011248881498978232
608.0, 0.0012292630827153656
609.0, 0.0003881256232965086
610.0, 8.684042878317206e-05
611.0, 0.00031701044950105503
612.0, 0.0009955498535856094
613.0, 0.0015628000398813968
614.0, 0.0013650075642529635
615.0, 0.0011426225770412317
616.0, 0.0009946548267788357
617.0, 0.00030395075081297103
618.0, 0.0009436103003663503
619.0, 0.0008099034286284506
620.0, 0.0003657486678126943
621.0, 0.0016096911591593614
622.0, 0.0006160571698121771
623.0, 0.0005002759369172825
624.0, 0.001198120056679235
625.0, 0.0022091280670611664
626.0, 0.0007846774695638998
627.0, 0.0010943204647482958
628.0, 0.0014712661296621638
629.0, 0.0006270677513257101
630.0, 0.001433134577976245
631.0, 0.0016815907272279133
632.0, 0.001420342752084973
633.0, 0.00092955661754601
634.0, 0.0016910430807464394
635.0, 0.001135391288279566
636.0, 0.0006493382890602543
637.0, 0.000696809229918913
638.0, 0.0014790587126561458
639.0, 0.0008960326928665321
640.0, 0.001178704898144748
641.0, 0.0017012249316242793
642.0, 0.0008939883792852835
643.0, 0.000804041395500355
644.0, 0.0009045286187570443
645.0, 0.001581411046829466
646.0, 0.003086077028179924
647.0, 0.0026002171278228722
648.0, 0.003921523452774936
649.0, 0.00524781670055076
650.0, 0.005793968125104407
651.0, 0.007014840167357396
652.0, 0.010764378056201115
653.0, 0.014314157971538888
654.0, 0.017809210150053545
655.0, 0.024136757051114507
656.0, 0.02812026175150084
657.0, 0.02814201559475736
658.0, 0.025070619554177196
659.0, 0.020695700773804483
660.0, 0.013624535779412531
661.0, 0.010186342145578316
662.0, 0.00824398422215648
663.0, 0.00583223347498183
664.0, 0.004673508564238101
665.0, 0.004794457639987509
666.0, 0.004385654362652524
667.0, 0.0032076247209337294
668.0, 0.004225352388653525
669.0, 0.0034425357257876314
670.0, 0.003159406335298214
671.0, 0.003682178467716784
672.0, 0.0045035262799441814
673.0, 0.0034654320530825493
674.0, 0.003935826579048796
675.0, 0.00455200450923968
676.0, 0.0034690282451488113
677.0, 0.0034295175843180236
678.0, 0.003986235568545325
679.0, 0.004202604696689587
680.0, 0.0038675400884300506
681.0, 0.005476860576897922
682.0, 0.005366405671420111
683.0, 0.005159819639154221
684.0, 0.0053586681209185786
685.0, 0.005996299392718932
686.0, 0.005309205724033918
687.0, 0.005762871261639098
688.0, 0.00653373506695557
689.0, 0.00613070429822473
690.0, 0.005774061620775479
691.0, 0.006830985570381202
692.0, 0.007224439774472512
693.0, 0.006009544377929612
694.0, 0.007145033277816002
695.0, 0.006680809392491402
696.0, 0.006458579789583763
697.0, 0.007008885267075457
698.0, 0.008114924358363881
699.0, 0.007289103065645491
700.0, 0.00752061809768183
701.0, 0.00812823780248657
702.0, 0.007694543324299342
703.0, 0.008089088369220919
704.0, 0.008587467260819723
705.0, 0.00864768325690339
706.0, 0.008167350029615548
707.0, 0.00896258506945423
708.0, 0.009694265805433533
709.0, 0.009818946478486967
710.0, 0.009811576642956074
711.0, 0.011357580961649526
712.0, 0.009755331371566305
713.0, 0.010062222914207457
714.0, 0.011303970295090022
715.0, 0.011697825373922117
716.0, 0.011064241321346285
717.0, 0.01173151830489028
718.0, 0.011576909471751773
719.0, 0.01027377697417378
720.0, 0.012348350126971684
721.0, 0.01216634680654897
722.0, 0.01185446108705696
723.0, 0.012031249033285254
724.0, 0.012940804663566497
725.0, 0.012384499871985956
726.0, 0.013133154154064651
727.0, 0.01375613782460441
728.0, 0.012935807580702514
729.0, 0.012205236198137875
730.0, 0.01337406655967616
731.0, 0.013484134805236631
732.0, 0.01253431814657391
733.0, 0.014515292005530943
734.0, 0.013785516407980284
735.0, 0.013490694996676905
736.0, 0.014246648493945952
737.0, 0.016184927564175805
738.0, 0.014231431249868792
739.0, 0.015168423768487985
740.0, 0.01605083209468026
741.0, 0.015391871445223443
742.0, 0.015086921831265173
743.0, 0.016017773987097864
744.0, 0.015796700237546108
745.0, 0.015188931826967754
746.0, 0.016782904912841845
747.0, 0.016497002209238495
748.0, 0.015446309684003717
749.0, 0.01516116825017336
750.0, 0.016458509865335702
751.0, 0.015506813581032751
752.0, 0.015881381073393486
753.0, 0.016288936650544282
754.0, 0.01616212748491717
755.0, 0.015164238394394583
756.0, 0.01638230228966008
757.0, 0.015491936134172638
758.0, 0.014417720160887545
759.0, 0.015424303276031389
760.0, 0.01527726194817071
761.0, 0.014435985628861503
762.0, 0.014719651273830804
763.0, 0.015772165879929294
764.0, 0.013716520919842524
765.0, 0.014658558292553988
766.0, 0.015064535826868309
767.0, 0.014608841380569837
768.0, 0.013603546271218297
769.0, 0.015045711779020726
770.0, 0.014615502627830132
771.0, 0.014644926797129618
772.0, 0.01573255135921099
773.0, 0.015425763673344469
774.0, 0.014095854199758846
775.0, 0.014404271979906022
776.0, 0.015306081919141842
777.0, 0.014750607867790406
778.0, 0.014942379241165564
779.0, 0.015234788923939861
780.0, 0.01490898708823483
781.0, 0.014231850359930789
782.0, 0.016131900540155664
783.0, 0.015430681139998327
784.0, 0.015319020884276557
785.0, 0.015935336464547593
786.0, 0.01659118198020691
787.0, 0.015309923265203276
788.0, 0.01647053684881406
789.0, 0.017319517013608468
790.0, 0.01671893820036296
791.0, 0.016772529867321525
792.0, 0.01774865205801568
793.0, 0.017781299985135317
794.0, 0.017595307486860577
795.0, 0.018669349484425744
796.0, 0.01895617318405284
797.0, 0.0188595352756507
798.0, 0.01915210133728845
799.0, 0.01984152714555717
800.0, 0.019237060050426007
801.0, 0.020244432789586278
802.0, 0.020801913361449074
803.0, 0.020786259499891473
804.0, 0.020556567936256383
805.0, 0.022127647200565623
806.0, 0.021399938342747664
807.0, 0.021404463387214714
808.0, 0.022902684318793345
809.0, 0.02338908831890092
810.0, 0.022124600506790125
811.0, 0.02299712847806949
812.0, 0.024163553703384414
813.0, 0.02316081348180468
814.0, 0.022982142030494812
815.0, 0.024062805224792917
816.0, 0.024067562239357417
817.0, 0.023247030970689763
818.0, 0.024832753487272676
819.0, 0.023230551095633774
820.0, 0.023256907281634476
821.0, 0.02424216112495079
822.0, 0.024877395614111807
823.0, 0.022674463218663343
824.0, 0.023741605612534005
825.0, 0.02392158450333294
826.0, 0.022876291506174116
827.0, 0.02252151559764811
828.0, 0.022930295404873947
829.0, 0.02207630131283359
830.0, 0.02196167550596219
831.0, 0.023288811752240332
832.0, 0.021986357897509582
833.0, 0.021113783552302093
834.0, 0.02181519058244871
835.0, 0.0223711512621263
836.0, 0.02010795375840148
837.0, 0.021330736949959236
838.0, 0.020929212249331614
839.0, 0.01993817767819157
840.0, 0.01938296970944806
841.0, 0.020848401580145646
842.0, 0.01931813896665697
843.0, 0.01943287734057781
844.0, 0.01998631726093521
845.0, 0.01925451837245101
846.0, 0.01763381579478464
847.0, 0.019215755845425876
848.0, 0.0190843283525345
849.0, 0.017596222224702977
850.0, 0.01868599181988198
851.0, 0.019080395140443275
852.0, 0.017907157202240245
853.0, 0.01766749453957411
854.0, 0.019090199505441684
855.0, 0.017702779864978598
856.0, 0.01782808607659351
857.0, 0.018370085647329736
858.0, 0.01827284004634397
859.0, 0.016773093292475116
860.0, 0.018913148715419475
861.0, 0.017417994337871952
862.0, 0.016123686919864825
863.0, 0.016504249449116597
864.0, 0.018384908409983705
865.0, 0.015901438747653103
866.0, 0.016425881306327553
867.0, 0.01725925595909475
868.0, 0.01635238988677049
869.0, 0.015309108858403257
870.0, 0.01703502423225554
871.0, 0.01633792046635325
872.0, 0.015013655224258292
873.0, 0.016497173333825478
874.0, 0.015572104800666318
875.0, 0.01439060239541432
876.0, 0.014358440111640003
877.0, 0.014826105011034502
878.0, 0.012883573560802237
879.0, 0.013929879072818303
880.0, 0.01403724280233871
881.0, 0.012678722102517687
882.0, 0.010823941449121008
883.0, 0.014141978459300156
884.0, 0.012959582034578313
885.0, 0.012034308765854849
886.0, 0.012191981233413347
887.0, 0.013103928055531129
888.0, 0.010666751178097254
889.0, 0.011677521027337693
890.0, 0.011808652922047018
891.0, 0.010586865470883892
892.0, 0.010139646132042685
893.0, 0.011092451496906535
894.0, 0.00971834418780889
895.0, 0.009439076690276167
896.0, 0.011099872380862456
897.0, 0.010143664146353218
898.0, 0.008406581222008214
899.0, 0.010316025993406653
900.0, 0.011565265399761044
901.0, 0.008871290154297608
902.0, 0.011907713800786531
903.0, 0.012578773055587382
904.0, 0.01212369553713771
905.0, 0.01242252318380387
906.0, 0.015449187801532623
907.0, 0.013651330554192903
908.0, 0.013332206422663128
909.0, 0.014189885386923442
910.0, 0.014386490877244138
911.0, 0.010063862577688909
912.0, 0.011147788629393272
913.0, 0.00906036946789511
914.0, 0.006545851298384133
915.0, 0.0056005180825955125
916.0, 0.006032296233570532
917.0, 0.002613279524316932
918.0, 0.0022520933786336073
919.0, 0.003091223068342861
920.0, 0.0026130268683652873
921.0, 0.001704233861566226
922.0, 0.001278595990899568
923.0, 0.001917706228065372
924.0, 0.002356216236103047
925.0, 0.00092646655288384
926.0, 0.0014321385979633996
927.0, 0.0035018459836850787
928.0, 0.002975816548843908
929.0, 0.0012922795710155032
930.0, 0.004151191015211284
931.0, 0.004424286598890759
932.0, 0.003020179898239268
933.0, 0.0037443658831928283
934.0, 0.006244929800239941
935.0, 0.0037336220347898032
936.0, 0.005825194330672116
937.0, 0.006858983053222005
938.0, 0.00630483651463326
939.0, 0.005271332151558319
940.0, 0.00886665616681976
941.0, 0.00698363221829887
942.0, 0.007644471944322523
943.0, 0.009614492249505084
944.0, 0.010197358314408619
945.0, 0.006788326234770056
946.0, 0.009471252586902096
947.0, 0.010044120523539056
948.0, 0.00818732794587774
949.0, 0.006321435750485056
950.0, 0.010146644667034754
951.0, 0.007787521021159707
952.0, 0.007769882016274559
953.0, 0.00962961597676861
954.0, 0.008307527271782179
955.0, 0.007508018398133364
956.0, 0.009730865073786026
957.0, 0.00947319242052828
958.0, 0.0072465022723640846
959.0, 0.008954263064096628
960.0, 0.010342673509501287
961.0, 0.007298159950489921
962.0, 0.007526797541627413
963.0, 0.011172982983240569
964.0, 0.007384534709456028
965.0, 0.00691890013432034
966.0, 0.009321712535058887
967.0, 0.008456415409451417
968.0, 0.003967352883613623
969.0, 0.008443351041923725
970.0, 0.007127535462917325
971.0, 0.004217197943441813
972.0, 0.00370879582437669
973.0, 0.006058637167341844
974.0, 0.000799026739838388
975.0, 0.0014022190731578766
976.0, 0.001672755725533444
977.0, 0.0035540747602962478
978.0, 0.00770268577941804
979.0, 0.0037546662152650357
980.0, 0.009648278227546193
981.0, 0.015016449990961135
982.0, 0.016676135743871084
983.0, 0.015586951874032466
984.0, 0.02823420784073239
985.0, 0.027989258015080454
986.0, 0.033067525173267276
987.0, 0.04376495107149146
988.0, 0.05439072659485649
989.0, 0.05455878921578244
990.0, 0.07551738861123156
991.0, 0.09687793978585596
992.0, 0.12099519234471931
993.0, 0.15950781611478707
994.0, 0.2370440548188669
995.0, 0.3140139951307924
996.0, 0.42737117265964575
997.0, 0.5309564591808259
998.0, 0.5429941907194554
999.0, 0.4354453981048767
1000.0, 0.3691577203830876
1001.0, 0.30455990128568466
1002.0, 0.25355814448311076
1003.0, 0.25143383202871494
1004.0, 0.27758835755847694
1005.0, 0.2943079044310779
1006.0, 0.34027245427961467
1007.0, 0.40364958065667766
1008.0, 0.44528577561740895
1009.0, 0.49610268507062105
1010.0, 0.5691711574528331
1011.0, 0.592451252075079
1012.0, 0.5851747769970476
1013.0, 0.6175870096777477
1014.0, 0.5835985820256168
1015.0, 0.5183501497758546
1016.0, 0.4722282561230743
1017.0, 0.4328287453841291
1018.0, 0.35194605724058237
1019.0, 0.3073224140965279
1020.0, 0.27165925381572587
1021.0, 0.22624504290379646
1022.0, 0.1844959306922768
1023.0, 0.17695251677135607
1024.0, 0.14813900353900328
1025.0, 0.12367100129155788
1026.0, 0.11248344998964935
1027.0, 0.10448605542507707
1028.0, 0.08024560698168667
1029.0, 0.07698268564321663
1030.0, 0.07112401637367656
1031.0, 0.06064001916839597
1032.0, 0.053793477784501276
1033.0, 0.06212147506079593
1034.0, 0.053415778339872336
1035.0, 0.054421162149693704
1036.0, 0.06049641190338545
1037.0, 0.06453244116253389
1038.0, 0.060847052233590784
1039.0, 0.08005282647843262
1040.0, 0.08852765481675008
1041.0, 0.0921545303569714
1042.0, 0.10082335072538541
1043.0, 0.12100009692544628
1044.0, 0.10756753640500945
1045.0, 0.11673034248634111
1046.0, 0.12818663056636057
1047.0, 0.13299734345311917
1048.0, 0.13158162694427447
1049.0, 0.16341867890279657
1050.0, 0.18450597813676506
1051.0, 0.2265578182515188
1052.0, 0.3017351378587743
1053.0, 0.40261359582842243
1054.0, 0.45288546885610353
1055.0, 0.518535574459952
1056.0, 0.5213584640785515
1057.0, 0.46294408311826857
1058.0, 0.380933083194688
1059.0, 0.3775032374609403
1060.0, 0.33310683391647294
1061.0, 0.32193552035916223
1062.0, 0.331924846329236
1063.0, 0.3364399084732084
1064.0, 0.30662752089728984
1065.0, 0.32136564781795424
1066.0, 0.30207846592176923
1067.0, 0.2671433578838184
1068.0, 0.24097809265459016
1069.0, 0.24010573208561167
1070.0, 0.19372752918748148
1071.0, 0.17193689129125836
1072.0, 0.15802357311287732
1073.0, 0.1367177690303485
1074.0, 0.1015002791881479
1075.0, 0.11023549357990936
1076.0, 0.09330320148995828
1077.0, 0.07485479998146811
1078.0, 0.06795995666471981
1079.0, 0.07251053560117292
1080.0, 0.05072167616695759
1081.0, 0.052831771102557545
1082.0, 0.05644346430094033
1083.0, 0.054141451598324765
1084.0, 0.04957373063634739
1085.0, 0.06722226428025382
1086.0, 0.06767058497180864
1087.0, 0.07760257351394143
1088.0, 0.09755250800947307
1089.0, 0.11740257131372918
1090.0, 0.12534599079263006
1091.0, 0.17476319110982724
1092.0, 0.21519709652296162
1093.0, 0.2485732261062165
1094.0, 0.28900953040331023
1095.0, 0.35162304347450907
1096.0, 0.335975340381814
1097.0, 0.33746319246313305
1098.0, 0.3349566756888955
1099.0, 0.30671949790312675
1100.0, 0.25564043005423825
1101.0, 0.2686381864181807
1102.0, 0.2541895608982444
1103.0, 0.2462055930003594
1104.0, 0.26585733751164475
1105.0, 0.31210639345301133
1106.0, 0.31797481116627185
1107.0, 0.372499579354006
1108.0, 0.44113675781923317
1109.0, 0.5014863708711708
1110.0, 0.5493149686488472
1111.0, 0.6851923996073221
1112.0, 0.7527848445365473
1113.0, 0.8223100923982986
1114.0, 0.9104964388346948
1115.0, 0.9925570234185556
1116.0, 0.9357404082930622
1117.0, 0.9763438598965437
1118.0, 0.9542469536283017
1119.0, 0.8719680089606258
1120.0, 0.7784162041928958
1121.0, 0.7629420177084522
1122.0, 0.6466092337795984
1123.0, 0.5763380187578903
1124.0, 0.5327280434545535
1125.0, 0.4810356791335496
1126.0, 0.386150179058697
1127.0, 0.388868850936143
1128.0, 0.34526284331323065
1129.0, 0.2989790919133068
1130.0, 0.2733894915877682
1131.0, 0.27053462287225605
1132.0, 0.2249683920938677
1133.0, 0.22323864828305962
1134.0, 0.2261166051604813
1135.0, 0.21470318158158286
1136.0, 0.19439481446216464
1137.0, 0.2287042881463856
1138.0, 0.2189652142499157
1139.0, 0.2221691785019958
1140.0, 0.2436503800620189
1141.0, 0.26624161719937384
1142.0, 0.2516949205562177
1143.0, 0.30260331929637524
1144.0, 0.3330109125406794
1145.0, 0.3486594583709654
1146.0, 0.37881147313298313
1147.0, 0.4501761713621124
1148.0, 0.4528844694292725
1149.0, 0.4904741274836713
1150.0, 0.5563901291036896
1151.0, 0.6000058270253938
1152.0, 0.6021595270023778
1153.0, 0.671080438050987
1154.0, 0.6950361364695568
1155.0, 0.6860577371906558
1156.0, 0.7026319078479567
1157.0, 0.7318646504726579
1158.0, 0.6760872497110848
1159.0, 0.649058469387267
1160.0, 0.6518854944297485
1161.0, 0.5986727246057084
1162.0, 0.5281016977984571
1163.0, 0.5153506847541384
1164.0, 0.46403582198297477
1165.0, 0.39371200541365486
1166.0, 0.3652103767983239
1167.0, 0.3342992375740756
1168.0, 0.2770041709564539
1169.0, 0.2525388689950532
1170.0, 0.24739146766978198
1171.0, 0.2064966243092726
1172.0, 0.18455565424554538
1173.0, 0.1824271191379761
1174.0, 0.15810496764285922
1175.0, 0.12649171088966682
1176.0, 0.1343320217452009
1177.0, 0.1195911886885393
1178.0, 0.0965516313049673
1179.0, 0.09151677125147431
1180.0, 0.09622918799854548
1181.0, 0.07114350364295459
1182.0, 0.0684796295285493
1183.0, 0.06838536849128807
1184.0, 0.059008783646431334
1185.0, 0.04547289707357072
1186.0, 0.060321952454190385
1187.0, 0.05474726689512851
1188.0, 0.05091076982847421
1189.0, 0.05711800467514294
1190.0, 0.06783128276364986
1191.0, 0.04763648221588799
1192.0, 0.07150417798654732
1193.0, 0.08126069188796908
1194.0, 0.08252307596389431
1195.0, 0.09155177415784924
1196.0, 0.12509111715544158
1197.0, 0.12320973393034118
1198.0, 0.14025293620110482
1199.0, 0.17035044871872349
1200.0, 0.19207812246382944
1201.0, 0.19818408449805677
1202.0, 0.2620890512384665
1203.0, 0.2843954311843934
1204.0, 0.29212207679737817
1205.0, 0.32803073194390164
1206.0, 0.37728218076555703
1207.0, 0.3613826771177229
1208.0, 0.3735510772625203
1209.0, 0.4006124764886652
1210.0, 0.37873409046722695
1211.0, 0.3492407146153622
1212.0, 0.3616321782419238
1213.0, 0.34106670637859704
1214.0, 0.2971544685529962
1215.0, 0.29489268041035555
1216.0, 0.2836805262593218
1217.0, 0.25333197815007524
1218.0, 0.2459506097191631
1219.0, 0.2582119796922829
1220.0, 0.2317324634023358
1221.0, 0.23383400970625057
1222.0, 0.25121218638258663
1223.0, 0.25474948596546704
1224.0, 0.24679390287697783
1225.0, 0.28852716189003363
1226.0, 0.29877026883025876
1227.0, 0.3106493492166535
1228.0, 0.3442107441912425
1229.0, 0.39376896561350244
1230.0, 0.3846386990439667
1231.0, 0.4461485202674659
1232.0, 0.4918007882052798
1233.0, 0.5073484349921781
1234.0, 0.5230504193549314
1235.0, 0.6137913698235659
1236.0, 0.6109297453346265
1237.0, 0.631806881658136
1238.0, 0.6778957218387813
1239.0, 0.7063921853070162
1240.0, 0.6882019304222605
1241.0, 0.7455840438332418
1242.0, 0.758548672412577
1243.0, 0.7398275956233857
1244.0, 0.7615710811990384
1245.0, 0.8048280017478431
1246.0, 0.7630740932478509
1247.0, 0.7605838018499892
1248.0, 0.8058125143833054
1249.0, 0.7813969842160677
1250.0, 0.7487474880970522
1251.0, 0.7685521379743424
1252.0, 0.7827616148409596
1253.0, 0.7026276963679454
1254.0, 0.7115763296813971
1255.0, 0.6961226450471552
1256.0, 0.643741340243428
1257.0, 0.6056472215731162
1258.0, 0.6173545420542673
1259.0, 0.5522208208824991
1260.0, 0.5229443531638539
1261.0, 0.5127254894440345
1262.0, 0.4823663518334888
1263.0, 0.40450873380018254
1264.0, 0.4349664503007429
1265.0, 0.4061648952235724
1266.0, 0.36800990177645004
1267.0, 0.3557916804472362
1268.0, 0.3633040943810733
1269.0, 0.32002285447403506
1270.0, 0.32103904152771945
1271.0, 0.33050062481524656
1272.0, 0.3124480704651824
1273.0, 0.2978947706577844
1274.0, 0.3200096575392717
1275.0, 0.31550574916914065
1276.0, 0.3036944138412289
1277.0, 0.3266994288956476
1278.0, 0.3308793609704901
1279.0, 0.3214610465989369
1280.0, 0.3442487636443837
1281.0, 0.3829429227419812
1282.0, 0.36171205809284374
1283.0, 0.37593509753450993
1284.0, 0.40273226099821396
1285.0, 0.41271243021984144
1286.0, 0.4003141355977903
1287.0, 0.45251273168861617
1288.0, 0.4474314028830075
1289.0, 0.44375147775813134
1290.0, 0.46696931697408167
1291.0, 0.498544745906491
1292.0, 0.4686455446792485
1293.0, 0.4955706475370477
1294.0, 0.5149583379265897
1295.0, 0.5014236796730773
1296.0, 0.5025165967477093
1297.0, 0.5435214921348331
1298.0, 0.5253753313734258
1299.0, 0.5066735393773456
1300.0, 0.5427533968099266
1301.0, 0.5470170163835976
1302.0, 0.5312931143343679
1303.0, 0.5447761426693485
1304.0, 0.5572978960172065
1305.0, 0.5072637960474049
1306.0, 0.5085349210186965
1307.0, 0.5058601231939711
1308.0, 0.4712580536186918
1309.0, 0.4237941838006786
1310.0, 0.45617272570470335
1311.0, 0.40208332196724644
1312.0, 0.3659201121713092
1313.0, 0.3600490155929345
1314.0, 0.35198788372826073
1315.0, 0.30079089173251083
1316.0, 0.3083792392786674
1317.0, 0.2980603887367022
1318.0, 0.2631143221104867
1319.0, 0.2490524798702252
1320.0, 0.25488391982209296
1321.0, 0.227759514412782
1322.0, 0.20483337912655086
1323.0, 0.22028236890492797
1324.0, 0.20165423665509238
1325.0, 0.18072204163808522
1326.0, 0.18243928180647148
1327.0, 0.1902156831668702
1328.0, 0.15765325269094976
1329.0, 0.1697679991133257
1330.0, 0.1695635105972743
1331.0, 0.15430224347440646
1332.0, 0.14381434482296873
1333.0, 0.1622045721430297
1334.0, 0.13783362999433302
1335.0, 0.12893354178083544
1336.0, 0.13263779464411019
1337.0, 0.12473103410090594
1338.0, 0.10386570155643547
1339.0, 0.10827953968988363
1340.0, 0.1036694656436825
1341.0, 0.0861126009550675
1342.0, 0.08683262054498998
1343.0, 0.08717343891685121
1344.0, 0.07331200273046767
1345.0, 0.0637464719112827
1346.0, 0.07725406709582798
1347.0, 0.06399915566526886
1348.0, 0.05745099465599586
1349.0, 0.05950619129982524
1350.0, 0.05853815526840954
1351.0, 0.041270617849300764
1352.0, 0.04953797813949773
1353.0, 0.04777218298941729
1354.0, 0.039063998761064006
1355.0, 0.03700644616403559
1356.0, 0.04196610339877388
1357.0, 0.03252223151173364
1358.0, 0.028044624209746412
1359.0, 0.037175279711100365
1360.0, 0.028377618682855706
1361.0, 0.021450901375299675
1362.0, 0.02746786444804226
1363.0, 0.02587419988466199
1364.0, 0.015342032576719903
1365.0, 0.021999310781849264
1366.0, 0.021215779228564997
1367.0, 0.014724994680642567
1368.0, 0.01217558725595062
1369.0, 0.020208990776971213
1370.0, 0.0065568338053890104
1371.0, 0.0048194186200090855
1372.0, 0.00810031653311436
1373.0, 0.008892112529467916
1374.0, 0.006185503152666853
1375.0, 0.005315779412655601
1376.0, 0.002953062802894199
1377.0, 0.004988424440779844
1378.0, 0.00478007785193196
1379.0, 0.00316974705401672
1380.0, 0.003680716605456654
1381.0, 0.008061368859354965
1382.0, 0.0027030930969007155
1383.0, 0.007919909199153986
1384.0, 0.008037604141645734
1385.0, 0.00434088153366769
1386.0, 0.004760933412784087
1387.0, 0.012710697293581728
1388.0, 0.0026813215771887026
1389.0, 0.003061647313270769
1390.0, 0.009710957686213714
1391.0, 0.008674425089386152
1392.0, 0.004667059312910402
1393.0, 0.007819066677389418
1394.0, 0.010533496608858182
1395.0, 0.001882915730822042
1396.0, 0.006139521707545833
1397.0, 0.0076154851150210005
1398.0, 0.0049698245002543955
1399.0, 0.004121318185422218
1400.0, 0.009687293373773746
1401.0, 0.0029623901758813074
1402.0, 0.0028671663098227915
1403.0, 0.00718358041924349
1404.0, 0.007299930373900634
1405.0, 0.0024550653976831895
1406.0, 0.003973841225266484
1407.0, 0.005284827199288664
1408.0, 0.0043188164567653595
1409.0, 0.005615692820768712
1410.0, 0.004228051224562695
1411.0, 0.0007447543382256969
1412.0, 0.0018028732410177257
1413.0, 0.006289757463537595
1414.0, 0.005398933827616404
1415.0, 0.0021511762129496573
1416.0, 0.002407514124881621
1417.0, 0.0047519390011971
1418.0, 0.004159454781754581
1419.0, 0.0013405761280551323
1420.0, 0.000375920827955011
1421.0, 0.00312811088642132
1422.0, 0.0044573466092007715
1423.0, 0.0029232921158350864
1424.0, 0.0010872809776150258
1425.0, 0.004446689821106026
1426.0, 0.0070192125483869135
1427.0, 0.004135470245559657
1428.0, 0.0015273072090907498
1429.0, 0.00132599596634979
1430.0, 0.00322945270274572
1431.0, 0.004853653146169663
1432.0, 0.0006871484272329359
1433.0, 0.0012038688452446161
1434.0, 0.0044114733767512985
1435.0, 0.0049994733637763215
1436.0, 0.0031104832110802963
1437.0, 0.0027520104479626046
1438.0, 0.005463491968831641
1439.0, 0.002964927958830208
1440.0, 0.005944976193773646
1441.0, 0.006231443801702442
1442.0, 0.0034631590804272455
1443.0, 0.0027072564551389165
1444.0, 0.009539521434390507
1445.0, 0.006025686334421456
1446.0, 0.005880082564181308
1447.0, 0.00898037918200806
1448.0, 0.00850045505991939
1449.0, 0.005997412691523365
1450.0, 0.009887107342928617
1451.0, 0.013319117906022365
1452.0, 0.006228622862558915
1453.0, 0.009612451968686422
1454.0, 0.011955596869025423
1455.0, 0.00996880602362664
1456.0, 0.008535571297541962
1457.0, 0.014465944186692139
1458.0, 0.009825433669120908
1459.0, 0.009327137331178011
1460.0, 0.01370918802019093
1461.0, 0.013828055494331578
1462.0, 0.009824813829573583
1463.0, 0.012786296143561375
1464.0, 0.014353078273829537
1465.0, 0.01082288951345094
1466.0, 0.013254233824475778
1467.0, 0.014453662812534409
1468.0, 0.012655579534160695
1469.0, 0.011900458120670811
1470.0, 0.017478710234913566
1471.0, 0.01660431072424741
1472.0, 0.015737661333022904
1473.0, 0.01783832612496862
1474.0, 0.01830980350601265
1475.0, 0.01629011592260168
1476.0, 0.01694381108610926
1477.0, 0.01918040680475095
1478.0, 0.015733297300546737
1479.0, 0.017695184713948476
1480.0, 0.01912127697359512
1481.0, 0.0168809786956054
1482.0, 0.014053386177617882
1483.0, 0.01926878115216056
1484.0, 0.01663125924656445
1485.0, 0.014373520897966095
1486.0, 0.01743247317984787
1487.0, 0.017269406272045942
1488.0, 0.013338543777740481
1489.0, 0.014075387656258256
1490.0, 0.016598134241338717
1491.0, 0.010921487518693868
1492.0, 0.012990340208237491
1493.0, 0.014868411397996752
1494.0, 0.013318052524876488
1495.0, 0.011470391379393456
1496.0, 0.015604361964129967
1497.0, 0.012294363064314156
1498.0, 0.009313659854794473
1499.0, 0.012192909187107574
1500.0, 0.012710477567380975
1501.0, 0.010048323926251417
1502.0, 0.009632193469208803
1503.0, 0.012901324101837513
1504.0, 0.007940980145024121
1505.0, 0.00924541332382265
1506.0, 0.010298494412512038
1507.0, 0.00861724793680261
1508.0, 0.006848940175609992
1509.0, 0.00921705822846768
1510.0, 0.008690229862969804
1511.0, 0.005613568529565564
1512.0, 0.006618415212713754
1513.0, 0.006240360295562337
1514.0, 0.004398341447755857
1515.0, 0.0044124464136190145
1516.0, 0.00821934502251015
1517.0, 0.003307940760001043
1518.0, 0.003545281686914455
1519.0, 0.005840278205056384
1520.0, 0.0037316759480321266
1521.0, 0.0009328297144261291
1522.0, 0.0023406325609825027
1523, 0.0
1524, 0.0
1525, 0.0
1526, 0.0
1527, 0.0
1528, 0.0
1529, 0.0
1530, 0.0
1531, 0.0
1532, 0.0
1533, 0.0
1534, 0.0
1535, 0.0
1536, 0.0
1537, 0.0
1538, 0.0
1539, 0.0
1540, 0.0
1541, 0.0
1542, 0.0
1543, 0.0
1544, 0.0
1545, 0.0
1546, 0.0
1547, 0.0
1548, 0.0
1549, 0.0
1550, 0.0
1551, 0.0
1552, 0.0
1553, 0.0
1554, 0.0
1555, 0.0
1556, 0.0
1557, 0.0
1558, 0.0
1559, 0.0
1560, 0.0
1561, 0.0
1562, 0.0
1563, 0.0
1564, 0.0
1565, 0.0
1566, 0.0
1567, 0.0
1568, 0.0
1569, 0.0
1570, 0.0
1571, 0.0
1572, 0.0
1573, 0.0
1574, 0.0
1575, 0.0
1576, 0.0
1577, 0.0
1578, 0.0
1579, 0.0
1580, 0.0
1581, 0.0
1582, 0.0
1583, 0.0
1584, 0.0
1585, 0.0
1586, 0.0
1587, 0.0
1588, 0.0
1589, 0.0
1590, 0.0
1591, 0.0
1592, 0.0
1593, 0.0
1594, 0.0
1595, 0.0
1596, 0.0
1597, 0.0
1598, 0.0
1599, 0.0
