30, 0.0
31, 0.0
32, 0.0
33, 0.0
34, 0.0
35, 0.0
36, 0.0
37, 0.0
38, 0.0
39, 0.0
40, 0.0
41, 0.0
42, 0.0
43, 0.0
44, 0.0
45, 0.0
46, 0.0
47, 0.0
48, 0.0
49, 0.0
50, 0.0
51, 0.0
52, 0.0
53, 0.0
54, 0.0
55, 0.0
56, 0.0
57, 0.0
58, 0.0
59, 0.0
60, 0.0
61, 0.0
62, 0.0
63, 0.0
64, 0.0
65, 0.0
66, 0.0
67, 0.0
68, 0.0
69, 0.0
70, 0.0
71, 0.0
72, 0.0
73, 0.0
74, 0.0
75, 0.0
76, 0.0
77, 0.0
78, 0.0
79, 0.0
80, 0.0
81, 0.0
82, 0.0
83, 0.0
84, 0.0
85, 0.0
86, 0.0
87, 0.0
88, 0.0
89, 0.0
90, 0.0
91, 0.0
92, 0.0
93, 0.0
94, 0.0
95, 0.0
96, 0.0
97, 0.0
98, 0.0
99.0, 3.00190320091636e-05
100.0, 0.004025104498623765
101.0, 0.028425714219199698
102.0, 0.00896793139817997
103.0, 0.0036739598839343377
104.0, 0.014022095708551502
105.0, 0.021044802764219918
106.0, 0.023750754579128553
107.0, 0.04058984528567787
108.0, 0.06873671541875456
109.0, 0.08902527197790569
110.0, 0.040480371320105
111.0, 0.012280651849440397
112.0, 0.0038453997831226472
113.0, 0.001328113917585796
114.0, 0.007427627295247956
115.0, 0.014820625810018539
116.0, 0.03404913844637352
117.0, 0.054353651913520346
118.0, 0.04313664317323525
119.0, 0.04436837853322463
120.0, 0.03723966223362421
121.0, 0.01972875820355372
122.0, 0.011969878014949656
123.0, 0.020926390908328884
124.0, 0.06716938277824458
125.0, 0.09474867887795756
126.0, 0.05318079504945784
127.0, 0.033699155285976744
128.0, 0.019172432454241342
129.0, 0.020572736028060222
130.0, 0.03858552559772442
131.0, 0.03574520313803038
132.0, 0.058064998266113596
133.0, 0.07075905681665325
134.0, 0.05788674221608524
135.0, 0.052457438093415444
136.0, 0.05955899501905739
137.0, 0.082014128800832
138.0, 0.10653702323262532
139.0, 0.12430247100744758
140.0, 0.1728532238745581
141.0, 0.20117088293798047
142.0, 0.20976500935729891
143.0, 0.216504733146276
144.0, 0.21981232371438128
145.0, 0.2273434746724721
146.0, 0.23996967903608413
147.0, 0.2621661395759045
148.0, 0.3099809282052874
149.0, 0.32620644804572924
150.0, 0.3446170190583655
151.0, 0.3702440474508528
152.0, 0.37937555350856306
153.0, 0.3960315214472665
154.0, 0.3941475715396689
155.0, 0.3776011515786549
156.0, 0.35889656527498065
157.0, 0.3443097590178744
158.0, 0.32218298464759515
159.0, 0.3035494813237726
160.0, 0.29345408993106764
161.0, 0.28031274542689943
162.0, 0.2758624388502054
163.0, 0.2586414138295019
164.0, 0.22090233835998976
165.0, 0.1692797144002087
166.0, 0.11935226295101194
167.0, 0.0646827648558437
168.0, 0.025123216651428002
169.0, 0.014187625498722961
170.0, 0.002371203480528058
171.0, 0.0016537129128387682
172.0, 0.0016888702884858052
173.0, 0.007634056347359364
174.0, 0.013263614054966288
175.0, 0.012611587928104734
176.0, 0.011024474842591947
177.0, 0.011405287364068971
178.0, 0.012540845928435745
179.0, 0.005793575462257951
180.0, 0.003017100754530322
181.0, 0.0021392209583757657
182.0, 0.013718508386144005
183.0, 0.018888921019046268
184.0, 0.037301407150994406
185.0, 0.058821532792055514
186.0, 0.07169791384539444
187.0, 0.07670033502660338
188.0, 0.09983055104003173
189.0, 0.11661316601064946
190.0, 0.1297320477026511
191.0, 0.15391749751384443
192.0, 0.1821030268995404
193.0, 0.19391166246269445
194.0, 0.20476774597044764
195.0, 0.22762780546805272
196.0, 0.2575873065715866
197.0, 0.2806881003668371
198.0, 0.3037683201077825
199.0, 0.32568645494283394
200.0, 0.3423197318259318
201.0, 0.37171393992202356
202.0, 0.4019801069104024
203.0, 0.44221744379777744
204.0, 0.4936202189560085
205.0, 0.529097576527054
206.0, 0.5598496640720202
207.0, 0.5938918113459991
208.0, 0.6261549131773163
209.0, 0.6443668175322844
210.0, 0.6555975503339566
211.0, 0.6481658566897524
212.0, 0.6276423050319292
213.0, 0.6054653756581746
214.0, 0.5854374241019865
215.0, 0.5542457734970534
216.0, 0.5248434389572774
217.0, 0.49868709947833667
218.0, 0.4640743591254978
219.0, 0.44175305249684177
220.0, 0.4271515963357551
221.0, 0.4141730939857718
222.0, 0.40004943227623413
223.0, 0.3899615604910988
224.0, 0.38564181878087916
225.0, 0.3875959652152684
226.0, 0.3894187002427872
227.0, 0.3809733512680186
228.0, 0.3740736748173269
229.0, 0.37178245915820773
230.0, 0.374383484354177
231.0, 0.3772794344526517
232.0, 0.3692491022774905
233.0, 0.373867587483243
234.0, 0.3702943935920361
235.0, 0.3635590887257843
236.0, 0.38043241596376337
237.0, 0.38392181500586425
238.0, 0.3757433209710195
239.0, 0.37054959033988716
240.0, 0.3734523841618807
241.0, 0.3651404181187225
242.0, 0.36476788666187177
243.0, 0.3553454609614562
244.0, 0.3392936298702512
245.0, 0.3355399235346995
246.0, 0.31554032954402367
247.0, 0.3044004160885719
248.0, 0.29670967904945333
249.0, 0.28216641138232373
250.0, 0.2587888891340381
251.0, 0.2448289220601254
252.0, 0.2361285911267612
253.0, 0.22792753391785353
254.0, 0.21827244560166223
255.0, 0.20736734281583766
256.0, 0.19045629857948831
257.0, 0.17695387484896494
258.0, 0.17053925452731672
259.0, 0.16282758223018076
260.0, 0.15974115187308502
261.0, 0.14238142079006483
262.0, 0.12569661023385265
263.0, 0.12919549672244157
264.0, 0.12810571659771877
265.0, 0.11485367263430006
266.0, 0.10433411230313828
267.0, 0.10152884227490752
268.0, 0.09676893308336137
269.0, 0.09019126434298783
270.0, 0.08910372897624315
271.0, 0.08228245676781375
272.0, 0.06783647428892119
273.0, 0.0760130114055823
274.0, 0.07408194585406379
275.0, 0.0647622242405139
276.0, 0.05671260107488513
277.0, 0.055619778570515074
278.0, 0.05318095277519969
279.0, 0.0494533166023757
280.0, 0.04347977476993898
281.0, 0.037166074817745684
282.0, 0.0343105129587153
283.0, 0.025457604225698618
284.0, 0.024674261037613745
285.0, 0.019946758897853047
286.0, 0.0012249254482911585
287.0, 0.0026835018832346543
288.0, 0.004289200267953489
289.0, 0.006759005349014523
290.0, 0.005576571446646667
291.0, 0.003296633370270931
292.0, 0.006670484882369342
293.0, 0.0031392091468249454
294.0, 0.004201605913923441
295.0, 0.0007151445935004395
296.0, 0.0035215371208650514
297.0, 0.002334297613295332
298.0, 0.00011044319143778029
299.0, 0.000607856299451417
300.0, 0.0025689293306519582
301.0, 0.00025812859807408867
302.0, 0.004448677574898717
303.0, 0.01035077764206223
304.0, 0.015704800759009423
305.0, 0.01883237045954287
306.0, 0.02437821179433936
307.0, 0.030541474761818815
308.0, 0.03669624516434945
309.0, 0.04245444041703747
310.0, 0.04725318320904052
311.0, 0.053125465330660794
312.0, 0.05745087260502126
313.0, 0.06582381057620612
314.0, 0.07616687606427905
315.0, 0.07236805149699808
316.0, 0.0716837965503494
317.0, 0.07251755058969808
318.0, 0.07447209559521736
319.0, 0.07862264266961913
320.0, 0.08769470384746604
321.0, 0.08867981611150091
322.0, 0.08794107615869944
323.0, 0.08894040039810724
324.0, 0.09258069182125898
325.0, 0.11080519594882955
326.0, 0.11322416358159752
327.0, 0.11474833871146958
328.0, 0.12176474742750061
329.0, 0.12578994816654565
330.0, 0.13588826978238894
331.0, 0.13214989453590037
332.0, 0.12875330836456525
333.0, 0.13728974331050592
334.0, 0.14782644519178537
335.0, 0.1589308554148695
336.0, 0.15595499246162814
337.0, 0.15081568761646985
338.0, 0.15640197782873644
339.0, 0.16188982742337032
340.0, 0.16732154515014408
341.0, 0.17267761309737265
342.0, 0.17532213608176947
343.0, 0.17322937187305232
344.0, 0.16974537935057987
345.0, 0.16230407820762788
346.0, 0.15320076696205712
347.0, 0.14128742322941754
348.0, 0.1262802803907475
349.0, 0.11829393329491229
350.0, 0.1098151909363423
351.0, 0.09545172528225308
352.0, 0.07930654325102715
353.0, 0.07035649831390668
354.0, 0.06764187829843077
355.0, 0.06257826435283127
356.0, 0.0484268179945099
357.0, 0.03158438151815617
358.0, 0.026666886048976875
359.0, 0.01735594097003277
360.0, 0.010613580680192318
361.0, 0.006915687662163118
362.0, 0.003688813064234644
363.0, 0.000698066804028838
364.0, 0.0017160421054261705
365.0, 0.003843910107035637
366.0, 0.010967128929381731
367.0, 0.021561825526552864
368.0, 0.02613689532437425
369.0, 0.01462993164957433
370.0, 0.007874342530601885
371.0, 0.00980383395733142
372.0, 0.014101873784274084
373.0, 0.007701566145749757
374.0, 0.0019501307935755917
375.0, 0.004797306520338669
376.0, 0.007441134665336563
377.0, 0.0035821396144967033
378.0, 0.01991723471864986
379.0, 0.018317277294124686
380.0, 0.020614839610245992
381.0, 0.02453472166961495
382.0, 0.02256192345081717
383.0, 0.04213508323195671
384.0, 0.04990105609606731
385.0, 0.055394656793701404
386.0, 0.06312594145508058
387.0, 0.0706559599789317
388.0, 0.08204688979606573
389.0, 0.09388155762492424
390.0, 0.11181161315819467
391.0, 0.12438201495784983
392.0, 0.12750417355144975
393.0, 0.15655256620702238
394.0, 0.16035200338512293
395.0, 0.16301541456308238
396.0, 0.17406335305670043
397.0, 0.18736306148628973
398.0, 0.19642747184650924
399.0, 0.19616335658977738
400.0, 0.2038995095181616
401.0, 0.21358990901661803
402.0, 0.21395399789357109
403.0, 0.22734142598040097
404.0, 0.24337367003055882
405.0, 0.2519053212335536
406.0, 0.25563513646830105
407.0, 0.2621946644748572
408.0, 0.27271620461742774
409.0, 0.28720874355526005
410.0, 0.30368575406626763
411.0, 0.3215763544888325
412.0, 0.3391203430566465
413.0, 0.3514081949227312
414.0, 0.36910670765611264
415.0, 0.38714370908711804
416.0, 0.40218575638669524
417.0, 0.41619222889030805
418.0, 0.4322031540496155
419.0, 0.4424047290836592
420.0, 0.46061705894477917
421.0, 0.4791030542249571
422.0, 0.4898963828064827
423.0, 0.5120466628094454
424.0, 0.514621581554529
425.0, 0.5194939591984884
426.0, 0.5282792265829879
427.0, 0.5371073721477205
428.0, 0.5532285526896715
429.0, 0.5701255029180435
430.0, 0.5869634616557907
431.0, 0.6028758116271381
432.0, 0.6176560210861783
433.0, 0.6334797101857197
434.0, 0.6391189023317472
435.0, 0.659330336588801
436.0, 0.6792873064016732
437.0, 0.6889921188337634
438.0, 0.7015831241721022
439.0, 0.7010872762559341
440.0, 0.7059376300282416
441.0, 0.7105886893989588
442.0, 0.7072138422337348
443.0, 0.6982486348934186
444.0, 0.6819008849508169
445.0, 0.6702121584109872
446.0, 0.644659638154799
447.0, 0.6106384890582834
448.0, 0.5917307091047007
449.0, 0.5512422544894784
450.0, 0.5081872895354703
451.0, 0.47475603045242065
452.0, 0.44543183931630875
453.0, 0.40805828522448967
454.0, 0.3727070376295275
455.0, 0.3392965718856489
456.0, 0.31374975368984553
457.0, 0.2890353977266171
458.0, 0.2581616564623206
459.0, 0.2322163317632869
460.0, 0.2200325160340862
461.0, 0.19758804794863313
462.0, 0.17302517061472625
463.0, 0.15694223810390812
464.0, 0.13758930732605962
465.0, 0.11614196233120533
466.0, 0.10261244091627124
467.0, 0.09591653860371863
468.0, 0.09277567665776726
469.0, 0.08880791727922444
470.0, 0.07180573299229163
471.0, 0.06790150305811092
472.0, 0.0649686445919883
473.0, 0.05857373518811309
474.0, 0.05680666217366403
475.0, 0.04727406209007284
476.0, 0.045402860244301235
477.0, 0.044134896928586756
478.0, 0.0454341574961082
479.0, 0.05522365006532583
480.0, 0.07002938880621139
481.0, 0.06716750959764266
482.0, 0.07161618286138365
483.0, 0.07365204946834158
484.0, 0.06646197662990047
485.0, 0.0752222356462912
486.0, 0.08254093143353725
487.0, 0.09098666636399456
488.0, 0.09713029545713857
489.0, 0.10400722842393022
490.0, 0.1211873684479831
491.0, 0.1362119081824128
492.0, 0.14163061004107572
493.0, 0.15525260889377904
494.0, 0.17390102135356394
495.0, 0.18391469919526848
496.0, 0.1991563902758387
497.0, 0.20532934861948893
498.0, 0.21780623552185813
499.0, 0.2337558189622607
500.0, 0.24204187302537522
501.0, 0.23994144207476933
502.0, 0.2386059373107618
503.0, 0.23475514349528337
504.0, 0.2277452461344337
505.0, 0.21671339504791517
506.0, 0.20119487212740977
507.0, 0.1902321309039808
508.0, 0.17235902127223135
509.0, 0.1586825541298439
510.0, 0.14193898369033967
511.0, 0.11624144337509247
512.0, 0.10696323879860475
513.0, 0.0882968192392364
514.0, 0.07418545781239737
515.0, 0.056052739116485124
516.0, 0.035641544660331335
517.0, 0.036970105672857904
518.0, 0.03098648546533673
519.0, 0.020191022038615426
520.0, 0.01189311156514009
521.0, 0.011036822912686088
522.0, 0.01391447050701422
523.0, 0.0026695872985228503
524.0, 0.0011639820994557121
525.0, 0.008233103097254866
526.0, 0.011857235318431344
527.0, 0.007084030359295595
528.0, 0.007538037642653079
529.0, 0.004002510680561102
530.0, 0.007272769396831006
531.0, 0.012741839553332229
532.0, 0.014864383486022415
533.0, 0.012120067791183914
534.0, 0.005514499209487398
535.0, 0.011377755444659245
536.0, 0.009652215781598769
537.0, 0.004684734907894716
538.0, 0.0018559573205148934
539.0, 0.015423722129635825
540.0, 0.014878685117947077
541.0, 0.024316074119389547
542.0, 0.03188342895376301
543.0, 0.03470423787175103
544.0, 0.04576133807449241
545.0, 0.05644332823984193
546.0, 0.06348002368282976
547.0, 0.07436435617218845
548.0, 0.0838493745886853
549.0, 0.09179563596895855
550.0, 0.11097595534459738
551.0, 0.11600107931593723
552.0, 0.12305606444471805
553.0, 0.12594446138634555
554.0, 0.1256925376404409
555.0, 0.1291757009066929
556.0, 0.12836323172479008
557.0, 0.13847198927965593
558.0, 0.14435757988597256
559.0, 0.14127769125565276
560.0, 0.1355709421866046
561.0, 0.1356509665180517
562.0, 0.14054159144181283
563.0, 0.14355823181127292
564.0, 0.14812376413275277
565.0, 0.15204822210406108
566.0, 0.15118908480596405
567.0, 0.14918191387500557
568.0, 0.15355989381031573
569.0, 0.15063183956897108
570.0, 0.1464461487467303
571.0, 0.14480497222786506
572.0, 0.1414630451204077
573.0, 0.13895338768812174
574.0, 0.1352482170026778
575.0, 0.12707938227409032
576.0, 0.12297758197448458
577.0, 0.12414402241341581
578.0, 0.11675849209032962
579.0, 0.1061770462908796
580.0, 0.10063081066179316
581.0, 0.08965322534595438
582.0, 0.07908831676655985
583.0, 0.07765653690718984
584.0, 0.07312699550331668
585.0, 0.06638438006144444
586.0, 0.05034852845000204
587.0, 0.04479527035535762
588.0, 0.04644225121208503
589.0, 0.036828168277110565
590.0, 0.03435581682237831
591.0, 0.03009909344085053
592.0, 0.014793952683664261
593.0, 0.005681219110741769
594.0, 0.012358455821226086
595.0, 0.019214554037201896
596.0, 0.013421269573309231
597.0, 0.009944743471309683
598.0, 0.006275285933010514
599.0, 0.003548929128198629
600.0, 0.002275535115213562
601.0, 0.005159039216974613
602.0, 0.003116791101379047
603.0, 0.0019335410173123106
604.0, 0.004608300956003083
605.0, 0.0033866442947859078
606.0, 0.0024390456251771734
607.0, 0.009524560763291204
608.0, 0.002607211966394616
609.0, 0.002533549607721098
610.0, 0.003128085069159679
611.0, 0.0053138038689572575
612.0, 0.0021647641817953626
613.0, 0.00914789926305313
614.0, 0.001960026124748791
615.0, 0.00291862114871393
616.0, 0.0058306391228537535
617.0, 0.004841811767186284
618.0, 0.007897948193426842
619.0, 0.010615001175373784
620.0, 0.004532824897572178
621.0, 0.006773141439658929
622.0, 0.01228506791332461
623.0, 0.012775113978453927
624.0, 0.00938966574490882
625.0, 0.010967460376954714
626.0, 0.013733457341679713
627.0, 0.020623081072448656
628.0, 0.019736777312054542
629.0, 0.01263614022719167
630.0, 0.017933953601147863
631.0, 0.02339346864285975
632.0, 0.02122307845960818
633.0, 0.020930940190892425
634.0, 0.024779794690190766
635.0, 0.028716039193019162
636.0, 0.02884676186716787
637.0, 0.02197440785236276
638.0, 0.020841137903186036
639.0, 0.030115747257571684
640.0, 0.0391967698989189
641.0, 0.04375816851373483
642.0, 0.050488750562673254
643.0, 0.04206673134024038
644.0, 0.04756680813518851
645.0, 0.0467867536179379
646.0, 0.04447146992997099
647.0, 0.05197638359476689
648.0, 0.06280641924271933
649.0, 0.07010994231549604
650.0, 0.07063247932134006
651.0, 0.07616236090842081
652.0, 0.0809569181505782
653.0, 0.08237144498087172
654.0, 0.0899804759480059
655.0, 0.09052467621202989
656.0, 0.09972178288464498
657.0, 0.1105545259529433
658.0, 0.11906580330334916
659.0, 0.12815578076974177
660.0, 0.1414601661144311
661.0, 0.1509659242544694
662.0, 0.16604277886801241
663.0, 0.17926310479880403
664.0, 0.19900357681229638
665.0, 0.22309019948945194
666.0, 0.23956379012082105
667.0, 0.2695876044212024
668.0, 0.29591460341065157
669.0, 0.32606249379616004
670.0, 0.36771738472860416
671.0, 0.4142020066909991
672.0, 0.45609044417581524
673.0, 0.5065206505368666
674.0, 0.5520932256648916
675.0, 0.6028249149390006
676.0, 0.6613322455103998
677.0, 0.7279235172243448
678.0, 0.8016528850575132
679.0, 0.8660907050416528
680.0, 0.9296107012436166
681.0, 0.9715518823933078
682.0, 0.9945459992634019
683.0, 0.9969830030132353
684.0, 0.9745519826241238
685.0, 0.936114020648512
686.0, 0.8619863858281223
687.0, 0.7704024864997269
688.0, 0.6799224034145035
689.0, 0.588005234892819
690.0, 0.4982608606318632
691.0, 0.43542783737333707
692.0, 0.37217952343296107
693.0, 0.3235371598913956
694.0, 0.2773450539428935
695.0, 0.23430998928604405
696.0, 0.2024710919549586
697.0, 0.18357082098888106
698.0, 0.173461170574671
699.0, 0.15012670560839156
700.0, 0.13337255003785967
701.0, 0.12172395542774853
702.0, 0.11466683314487373
703.0, 0.11553763588604535
704.0, 0.10523257913564016
705.0, 0.09134315598689184
706.0, 0.0893675534617227
707.0, 0.08517556975808267
708.0, 0.07833856402776909
709.0, 0.07414656736193906
710.0, 0.06412546230099116
711.0, 0.06604539331524158
712.0, 0.06565886443160755
713.0, 0.06612510398541104
714.0, 0.06419955933486873
715.0, 0.0537474857600309
716.0, 0.03814601935138941
717.0, 0.035868351239815355
718.0, 0.04252766737956305
719.0, 0.03601315005694431
720.0, 0.02941461551271732
721.0, 0.02702281739919335
722.0, 0.019218007929581206
723.0, 0.015341735717244896
724.0, 0.01667427539365807
725.0, 0.01313606655533166
726.0, 0.004959521740872642
727.0, 0.001068638345152795
728.0, 0.0007571442216136345
729.0, 0.004750656268680097
730.0, 0.0007327882725391634
731.0, 0.007124206326125768
732.0, 0.001266400293987661
733.0, 0.002238087978436054
734.0, 0.005472703617554387
735.0, 0.007710790226850061
736.0, 0.011304675451395612
737.0, 0.0036134797094510623
738.0, 0.008148269240696686
739.0, 0.00348968198492989
740.0, 0.0055845432742064535
741.0, 0.002710301015403511
742.0, 0.011496507761839986
743.0, 0.009436130807972318
744.0, 0.016928410729723
745.0, 0.014652973501894175
746.0, 0.014999504895879562
747.0, 0.02583888341047388
748.0, 0.033260299197093515
749.0, 0.029099766937819526
750.0, 0.03583777376031826
751.0, 0.05333584181053355
752.0, 0.05866946233433142
753.0, 0.05778227179400422
754.0, 0.06555705522305026
755.0, 0.07520559534601584
756.0, 0.08255655293856216
757.0, 0.081940360304921
758.0, 0.09652182840043581
759.0, 0.10901978976930869
760.0, 0.11365297589991057
761.0, 0.12058852891941531
762.0, 0.12822262257194167
763.0, 0.12240803195887824
764.0, 0.1413625317741675
765.0, 0.13766656138027752
766.0, 0.12901747660826557
767.0, 0.13152105393350152
768.0, 0.12322148910383875
769.0, 0.12016740531481913
770.0, 0.11231910608550244
771.0, 0.10513233661319805
772.0, 0.09020387094578827
773.0, 0.08523648075656805
774.0, 0.08973651817128507
775.0, 0.06968852634242935
776.0, 0.06295845954837241
777.0, 0.055069874616255336
778.0, 0.042068198171657925
779.0, 0.03679742483614315
780.0, 0.03452951731817675
781.0, 0.025672106086605962
782.0, 0.019966973913573813
783.0, 0.02218890597650873
784.0, 0.03240525062116639
785.0, 0.026884392410933773
786.0, 0.021289887088276196
787.0, 0.017776668169184773
788.0, 0.008964046803361186
789.0, 0.016464835087904535
790.0, 0.021862665043115615
791.0, 0.013198152025062335
792.0, 0.010335663427848333
793.0, 0.011094073015873002
794.0, 0.008006882077322898
795.0, 0.008333204688666046
796.0, 0.015679441916637844
797.0, 0.005426800114730108
798.0, 0.0005524144921515363
799.0, 0.004497604880945041
800.0, 0.009234867132172508
801.0, 0.005911824979358252
802.0, 0.004283243227167921
803.0, 0.003285937645788411
804.0, 0.004647889664048616
805.0, 0.011600829235269517
806.0, 0.004955054724052967
807.0, 0.002548840475108051
808.0, 0.0014412285022246526
809.0, 0.0019301310436196488
810.0, 0.007301275668866039
811.0, 0.0025935662392577653
812.0, 0.005151138883417151
813.0, 0.008182106590283107
814.0, 0.008139627705671148
815.0, 0.01083458092999604
816.0, 0.012126415244415668
817.0, 0.017147566768262096
818.0, 0.01598231932819306
819.0, 0.006152235911448994
820.0, 0.01105380393957209
821.0, 0.019232778172142348
822.0, 0.017150996179770624
823.0, 0.014539289549686014
824.0, 0.02191288418873122
825.0, 0.032918695001744075
826.0, 0.03598606419431207
827.0, 0.029891181256423885
828.0, 0.022699761341432555
829.0, 0.023697560564279827
830.0, 0.031748610743028045
831.0, 0.030983834162536594
832.0, 0.0332367588763944
833.0, 0.03421190110298059
834.0, 0.02711157965542889
835.0, 0.028163081593039624
836.0, 0.03463025681311483
837.0, 0.034291523245422714
838.0, 0.03634125846046095
839.0, 0.027717159432360524
840.0, 0.022678235768519246
841.0, 0.026545118000526634
842.0, 0.02852027670356274
843.0, 0.022470576014092327
844.0, 0.01800613155928413
845.0, 0.026752290093868415
846.0, 0.02500283631354756
847.0, 0.016166365303673935
848.0, 0.01918329079039904
849.0, 0.022089247608424876
850.0, 0.01737915457541336
851.0, 0.013041339818011083
852.0, 0.015419966527362775
853.0, 0.012354109246370475
854.0, 0.019077780287596796
855.0, 0.019465094355846396
856.0, 0.01648740718711666
857.0, 0.015856420084057448
858.0, 0.01581258615935259
859.0, 0.011702359216878492
860.0, 0.008058615204002972
861.0, 0.009449061321174913
862.0, 0.01412537116510898
863.0, 0.010306654370046844
864.0, 0.010039578847159931
865.0, 0.01063226955997183
866.0, 0.008818982371268543
867.0, 0.020422237231991373
868.0, 0.015399342463068398
869.0, 0.013873850356477457
870.0, 0.007597347765119702
871.0, 0.0042520764595654886
872.0, 0.0072698108707744905
873.0, 0.010651870369573508
874.0, 0.00734652477725867
875.0, 0.002231992436698058
876.0, 0.002122978793645409
877.0, 0.01597350584186098
878.0, 0.006715387726136254
879.0, 0.004327223518797198
880.0, 0.017385990156632582
881.0, 0.021208899680760993
882.0, 0.0207252407396218
883.0, 0.016590620650054875
884.0, 0.020312994113082527
885.0, 0.014093393586494342
886.0, 0.017805124417649285
887.0, 0.027845757147704753
888.0, 0.03240637978018435
889.0, 0.03528615018818285
890.0, 0.02867912943462915
891.0, 0.02520619648485673
892.0, 0.02685390408994635
893.0, 0.02881423200002787
894.0, 0.029310940039788097
895.0, 0.03222224942188676
896.0, 0.031748279217610656
897.0, 0.01951495858336503
898.0, 0.03034511137684312
899.0, 0.03399860782798711
900.0, 0.03191075031837587
901.0, 0.024059178734250376
902.0, 0.022943145376364462
903.0, 0.029579935558144775
904.0, 0.03461926937067241
905.0, 0.039700476416520615
906.0, 0.04247829414103698
907.0, 0.04371420847879357
908.0, 0.03663898100113244
909.0, 0.04184738920027649
910.0, 0.04933715107021457
911.0, 0.05155639505149909
912.0, 0.05724216689541804
913.0, 0.059607784392472614
914.0, 0.0703143298194519
915.0, 0.07266143629235727
916.0, 0.0646697490854523
917.0, 0.06959021120847121
918.0, 0.06956849740868351
919.0, 0.06315337480528292
920.0, 0.07434600641570484
921.0, 0.07011998162618634
922.0, 0.05738131598679766
923.0, 0.05171425602947741
924.0, 0.05086957164625972
925.0, 0.044195113135642075
926.0, 0.03939875417872902
927.0, 0.0387162527395708
928.0, 0.03197381300367433
929.0, 0.029678318154343485
930.0, 0.018113609994814806
931.0, 0.013035378168422587
932.0, 0.011803478558993425
933.0, 0.0070586855469791775
934.0, 0.00685453655611106
935.0, 0.012638455690095668
936.0, 0.008187382300580788
937.0, 0.010183368566098578
938.0, 0.0055955708407193746
939.0, 0.0007868071373123244
940.0, 0.0023179923343038416
941.0, 0.006174815851161244
942.0, 0.01126356228713574
943.0, 0.006599311298504764
944.0, 0.0016978914732928977
945.0, 0.006639894072092168
946.0, 0.012185205149845144
947.0, 0.018901550960582145
948.0, 0.00783244099482966
949.0, 0.000832456409753019
950.0, 0.0033544966459593357
951.0, 0.0062816234066278434
952.0, 0.0016755538375624282
953.0, 0.006599210673345667
954.0, 0.007638981278140121
955.0, 0.0015596610808085163
956.0, 0.00389952425867635
957.0, 0.008607724864607754
958.0, 0.011064402120893616
959.0, 0.017033186781643124
960.0, 0.028297243882089033
961.0, 0.03384073888934577
962.0, 0.031128001013518765
963.0, 0.043968124428675356
964.0, 0.0480273825099173
965.0, 0.05168625010262451
966.0, 0.051487859995749286
967.0, 0.05267891023837535
968.0, 0.05590128203881768
969.0, 0.049144123534182696
970.0, 0.04974155403229396
971.0, 0.0669066756709181
972.0, 0.0679450643714859
973.0, 0.07639466106557091
974.0, 0.07339879440989378
975.0, 0.07482777635178317
976.0, 0.08696495210776414
977.0, 0.08907315719179018
978.0, 0.09204087890995043
979.0, 0.09618934655322398
980.0, 0.08881444073882083
981.0, 0.07964256986045395
982.0, 0.07823814558046166
983.0, 0.08253651616422211
984.0, 0.08877102260077889
985.0, 0.09382452215257518
986.0, 0.09324699267067918
987.0, 0.08891685396803686
988.0, 0.08140277495701452
989.0, 0.084202940917055
990.0, 0.09111089395418082
991.0, 0.09059699664241512
992.0, 0.08628985138315692
993.0, 0.09016812856192408
994.0, 0.0954383572526909
995.0, 0.08486636474927768
996.0, 0.09071186914986465
997.0, 0.08881716837944201
998.0, 0.07448134860612925
999.0, 0.06996812204143088
1000.0, 0.0698220028300415
1001.0, 0.06991158136902241
1002.0, 0.0689689125356997
1003.0, 0.061829531313409784
1004.0, 0.050686404629338884
1005.0, 0.05333097592227849
1006.0, 0.05301341789070284
1007.0, 0.053458811728619375
1008.0, 0.047824838332240896
1009.0, 0.044615890313642055
1010.0, 0.046865537751699916
1011.0, 0.046161390944249495
1012.0, 0.04200589254764135
1013.0, 0.043836391124675744
1014.0, 0.04131606742676223
1015.0, 0.03375842684597452
1016.0, 0.03176424244570468
1017.0, 0.028944427837078505
1018.0, 0.034665321586009955
1019.0, 0.040373423497321044
1020.0, 0.03347454347529986
1021.0, 0.027945014161238152
1022.0, 0.02546692064351222
1023.0, 0.028410131638633086
1024.0, 0.03044304884622272
1025.0, 0.023346855570676027
1026.0, 0.02326876923243259
1027.0, 0.030773281780552355
1028.0, 0.0382822435615082
1029.0, 0.03988543780605073
1030.0, 0.03664978506699269
1031.0, 0.04507355848104969
1032.0, 0.05035098779779438
1033.0, 0.056238028160237936
1034.0, 0.0650855245810261
1035.0, 0.06557529549354435
1036.0, 0.06483953381466598
1037.0, 0.07535808789881795
1038.0, 0.08411449581748104
1039.0, 0.07569562608322525
1040.0, 0.07093627580758548
1041.0, 0.080040646653011
1042.0, 0.08186868201333256
1043.0, 0.08555833239262871
1044.0, 0.07898262265018917
1045.0, 0.0803317420786537
1046.0, 0.09003043606164604
1047.0, 0.0928276737575278
1048.0, 0.08975319315260392
1049.0, 0.08912742777364188
1050.0, 0.08435473202794212
1051.0, 0.07820445360997656
1052.0, 0.06824418057867693
1053.0, 0.06664154145220579
1054.0, 0.06669240298074447
1055.0, 0.0578822380443404
1056.0, 0.04454762854021016
1057.0, 0.039659355366665705
1058.0, 0.04588287742901488
1059.0, 0.046894096991164626
1060.0, 0.04390841553445156
1061.0, 0.031192527012169603
1062.0, 0.026178301440490832
1063.0, 0.03545372209462545
1064.0, 0.03712928045039661
1065.0, 0.032702387608216484
1066.0, 0.03508165038744111
1067.0, 0.038668394623323034
1068.0, 0.03715260780270577
1069.0, 0.0382043613444189
1070.0, 0.035742430172038465
1071.0, 0.04208673930400324
1072.0, 0.05079910354784442
1073.0, 0.051411999328087626
1074.0, 0.05335553410245
1075.0, 0.06779229632794502
1076.0, 0.0813190682076339
1077.0, 0.0817925250057843
1078.0, 0.0868258508168679
1079.0, 0.0853141188377808
1080.0, 0.10047046176432929
1081.0, 0.11221959040801227
1082.0, 0.13177214663270825
1083.0, 0.13162006715196695
1084.0, 0.13677548078155086
1085.0, 0.14144434262827385
1086.0, 0.13031730539596892
1087.0, 0.14031946636479078
1088.0, 0.1438157176191029
1089.0, 0.15071607736954898
1090.0, 0.13987070272286797
1091.0, 0.1358809141251551
1092.0, 0.13276407514791969
1093.0, 0.11459105875907752
1094.0, 0.10352455789726665
1095.0, 0.09644844531793141
1096.0, 0.07861869617179498
1097.0, 0.06916712291854407
1098.0, 0.05911901542235224
1099.0, 0.06263929997777574
1100.0, 0.057805557390658194
1101.0, 0.04882652731106168
1102.0, 0.04306205724310034
1103.0, 0.03564023407015708
1104.0, 0.024950709393511083
1105.0, 0.024934404701176704
1106.0, 0.031782646257660856
1107.0, 0.02885800831924124
1108.0, 0.028728105481113604
1109.0, 0.02244365461652164
1110.0, 0.022423671851571382
1111.0, 0.015704382272280198
1112.0, 0.017764231682692574
1113.0, 0.015314829344178719
1114.0, 0.012038833345501194
1115.0, 0.00990250985460595
1116.0, 0.010859590775198385
1117.0, 0.011677880922243497
1118.0, 0.001228787298029032
1119.0, 0.013310961075498498
1120.0, 0.02265310214526515
1121.0, 0.007215301506130277
1122.0, 0.0009551727828552645
1123.0, 0.0007146334253046423
1124.0, 0.0003339671403723994
1125.0, 0.0040814528003309545
1126.0, 0.003594775505036845
1127.0, 0.003548312055970667
1128.0, 0.0010082626178054197
1129.0, 0.002163625150812157
1130.0, 0.0011441170960641118
1131.0, 0.00034839129644610506
1132.0, 0.002223729500508158
1133.0, 0.0050115619142821885
1134.0, 0.00046851432771905866
1135.0, 0.0018710751316792693
1136.0, 0.006203863595194245
1137.0, 0.006782237810548913
1138.0, 0.006603683619495705
1139.0, 0.0019477879023763937
1140.0, 0.0074639085327429695
1141.0, 0.0030779278963590406
1142.0, 0.005842848188965517
1143.0, 0.0020328266153235076
1144.0, 0.004249437893594015
1145.0, 0.0029140262342722393
1146.0, 0.01088866877384907
1147.0, 0.008445217360491475
1148.0, 0.001596719383948189
1149.0, 0.007314946173485639
1150.0, 0.007609512026935901
1151.0, 0.013188990575003171
1152.0, 0.003391652903916611
1153.0, 0.012224267008985011
1154.0, 0.009619871685820361
1155.0, 0.013339853518732077
1156.0, 0.012160691637786762
1157.0, 0.015832128330818002
1158.0, 0.017787520412484003
1159.0, 0.008982902965462202
1160.0, 0.00666462475429672
1161.0, 0.015787709644197862
1162.0, 0.022795330574629825
1163.0, 0.023121562780561423
1164.0, 0.014981596532084975
1165.0, 0.016411821353300972
1166.0, 0.014538333950352634
1167.0, 0.016722592803531704
1168.0, 0.011819533589632353
1169.0, 0.011003644434783032
1170.0, 0.015516873263193807
1171.0, 0.010133962481744063
1172.0, 0.008452222056048658
1173.0, 0.0179510820955399
1174.0, 0.019469212590329802
1175.0, 0.007602197135356396
1176.0, 0.009965919120434928
1177.0, 0.017862179637271856
1178.0, 0.021470337628057886
1179.0, 0.01748042321523077
1180.0, 0.008186995977400762
1181.0, 0.005830106960566971
1182.0, 0.013172810847764744
1183.0, 0.017032581923937157
1184.0, 0.015580929126829837
1185.0, 0.01410555916325191
1186.0, 0.013192921177667318
1187.0, 0.023536304045538203
1188.0, 0.013600883782062522
1189.0, 0.013679140186809997
1190.0, 0.01522271380824661
1191.0, 0.011400479402453664
1192.0, 0.01070856879067
1193.0, 0.00881022099235166
1194.0, 0.0033518880719524144
1195.0, 0.00695567963352949
1196.0, 0.014952899253963375
1197.0, 0.020868094101892384
1198.0, 0.01982164665073578
1199.0, 0.010588400494540476
1200.0, 0.005410090306790763
1201.0, 0.007632122194377781
1202.0, 0.006668777322089532
1203.0, 0.015697094974357027
1204.0, 0.018467136091407294
1205.0, 0.015827467364166865
1206.0, 0.015094383435061176
1207.0, 0.007786479508433183
1208.0, 0.006120651845841855
1209.0, 0.01346923518757186
1210.0, 0.015644274897534227
1211.0, 0.01861515883543083
1212.0, 0.01679871953155768
1213.0, 0.01495870763665054
1214.0, 0.00804871212099078
1215.0, 0.007495197479999051
1216.0, 0.004429829717424245
1217.0, 0.009069261345639795
1218.0, 0.012318485730477434
1219.0, 0.007836251158606224
1220.0, 0.018974464123011067
1221.0, 0.015315490333067056
1222.0, 0.005043448750169502
1223.0, 0.005413559144404906
1224.0, 0.005368190624957837
1225.0, 0.01745575528346909
1226.0, 0.013064189711247853
1227.0, 0.016125681601053786
1228.0, 0.020263508320723083
1229.0, 0.015528878755872503
1230.0, 0.01977661437338924
1231.0, 0.026120122509221202
1232.0, 0.018954406122535968
1233.0, 0.02280240703011554
1234.0, 0.03177110461834385
1235.0, 0.024437730448378374
1236.0, 0.015058659833708967
1237.0, 0.019358474686447733
1238.0, 0.017609969781387805
1239.0, 0.02100748143873104
1240.0, 0.011965425984488402
1241.0, 0.014335051761095209
1242.0, 0.017444707890411724
1243.0, 0.018593264328131024
1244.0, 0.01679664682490645
1245.0, 0.007006074357704062
1246.0, 0.009524967063737944
1247.0, 0.016530392090852507
1248.0, 0.015151708455913793
1249.0, 0.010799840913848823
1250.0, 0.005618735587953964
1251.0, 0.009047115836928592
1252.0, 0.010223015665392994
1253.0, 0.010888686097099724
1254.0, 0.011457426998533152
1255.0, 0.006821762123426197
1256.0, 0.008300195201861631
1257.0, 0.011542716400127207
1258.0, 0.008084318951679355
1259.0, 0.008422428033667108
1260.0, 0.01031323553090849
1261.0, 0.00755833551245528
1262.0, 0.01887847714774864
1263.0, 0.009026374617820236
1264.0, 0.01884484632471563
1265.0, 0.014121215838608765
1266.0, 0.007395863505180143
1267.0, 0.0013860987675742864
1268.0, 0.0008270562429178837
1269.0, 0.0028972826941069127
1270.0, 0.001805814921031371
1271.0, 0.012160405379985561
1272.0, 0.013231892235437713
1273.0, 0.005877497166333132
1274.0, 0.0060975361726139776
1275.0, 0.007886956786433124
1276.0, 0.010273975746559373
1277.0, 0.005475695352140719
1278.0, 0.007835831448059837
1279.0, 0.013113317199267234
1280.0, 0.01470333979267822
1281.0, 0.015652553162576154
1282.0, 0.010361795276943288
1283.0, 0.0034771956174700688
1284.0, 0.001107639814123602
1285.0, 0.0025571251363068286
1286.0, 0.000916936078836249
1287.0, 0.000999365958279693
1288.0, 0.010608687036018275
1289.0, 0.01743094592539628
1290.0, 0.009243057714662384
1291.0, 0.004527369385182578
1292.0, 0.00570892394269393
1293.0, 0.007012301985701012
1294.0, 0.003944546847919001
1295.0, 0.008605161651171835
1296.0, 0.01271920504683844
1297.0, 0.00888617998472117
1298.0, 0.001131073303100944
1299.0, 0.011321264894172622
1300.0, 0.013575748353228815
1301.0, 2.255290792769741e-05
1302, 0.0
1303, 0.0
1304, 0.0
1305, 0.0
1306, 0.0
1307, 0.0
1308, 0.0
1309, 0.0
1310, 0.0
1311, 0.0
1312, 0.0
1313, 0.0
1314, 0.0
1315, 0.0
1316, 0.0
1317, 0.0
1318, 0.0
1319, 0.0
1320, 0.0
1321, 0.0
1322, 0.0
1323, 0.0
1324, 0.0
1325, 0.0
1326, 0.0
1327, 0.0
1328, 0.0
1329, 0.0
1330, 0.0
1331, 0.0
1332, 0.0
1333, 0.0
1334, 0.0
1335, 0.0
1336, 0.0
1337, 0.0
1338, 0.0
1339, 0.0
1340, 0.0
1341, 0.0
1342, 0.0
1343, 0.0
1344, 0.0
1345, 0.0
1346, 0.0
1347, 0.0
1348, 0.0
1349, 0.0
1350, 0.0
1351, 0.0
1352, 0.0
1353, 0.0
1354, 0.0
1355, 0.0
1356, 0.0
1357, 0.0
1358, 0.0
1359, 0.0
1360, 0.0
1361, 0.0
1362, 0.0
1363, 0.0
1364, 0.0
1365, 0.0
1366, 0.0
1367, 0.0
1368, 0.0
1369, 0.0
1370, 0.0
1371, 0.0
1372, 0.0
1373, 0.0
1374, 0.0
1375, 0.0
1376, 0.0
1377, 0.0
1378, 0.0
1379, 0.0
1380, 0.0
1381, 0.0
1382, 0.0
1383, 0.0
1384, 0.0
1385, 0.0
1386, 0.0
1387, 0.0
1388, 0.0
1389, 0.0
1390, 0.0
1391, 0.0
1392, 0.0
1393, 0.0
1394, 0.0
1395, 0.0
1396, 0.0
1397, 0.0
1398, 0.0
1399, 0.0
1400, 0.0
1401, 0.0
1402, 0.0
1403, 0.0
1404, 0.0
1405, 0.0
1406, 0.0
1407, 0.0
1408, 0.0
1409, 0.0
1410, 0.0
1411, 0.0
1412, 0.0
1413, 0.0
1414, 0.0
1415, 0.0
1416, 0.0
1417, 0.0
1418, 0.0
1419, 0.0
1420, 0.0
1421, 0.0
1422, 0.0
1423, 0.0
1424, 0.0
1425, 0.0
1426, 0.0
1427, 0.0
1428, 0.0
1429, 0.0
1430, 0.0
1431, 0.0
1432, 0.0
1433, 0.0
1434, 0.0
1435, 0.0
1436, 0.0
1437, 0.0
1438, 0.0
1439, 0.0
1440, 0.0
1441, 0.0
1442, 0.0
1443, 0.0
1444, 0.0
1445, 0.0
1446, 0.0
1447, 0.0
1448, 0.0
1449, 0.0
1450, 0.0
1451, 0.0
1452, 0.0
1453, 0.0
1454, 0.0
1455, 0.0
1456, 0.0
1457, 0.0
1458, 0.0
1459, 0.0
1460, 0.0
1461, 0.0
1462, 0.0
1463, 0.0
1464, 0.0
1465, 0.0
1466, 0.0
1467, 0.0
1468, 0.0
1469, 0.0
1470, 0.0
1471, 0.0
1472, 0.0
1473, 0.0
1474, 0.0
1475, 0.0
1476, 0.0
1477, 0.0
1478, 0.0
1479, 0.0
1480, 0.0
1481, 0.0
1482, 0.0
1483, 0.0
1484, 0.0
1485, 0.0
1486, 0.0
1487, 0.0
1488, 0.0
1489, 0.0
1490, 0.0
1491, 0.0
1492, 0.0
1493, 0.0
1494, 0.0
1495, 0.0
1496, 0.0
1497, 0.0
1498, 0.0
1499, 0.0
1500, 0.0
1501, 0.0
1502, 0.0
1503, 0.0
1504, 0.0
1505, 0.0
1506, 0.0
1507, 0.0
1508, 0.0
1509, 0.0
1510, 0.0
1511, 0.0
1512, 0.0
1513, 0.0
1514, 0.0
1515, 0.0
1516, 0.0
1517, 0.0
1518, 0.0
1519, 0.0
1520, 0.0
1521, 0.0
1522, 0.0
1523, 0.0
1524, 0.0
1525, 0.0
1526, 0.0
1527, 0.0
1528, 0.0
1529, 0.0
1530, 0.0
1531, 0.0
1532, 0.0
1533, 0.0
1534, 0.0
1535, 0.0
1536, 0.0
1537, 0.0
1538, 0.0
1539, 0.0
1540, 0.0
1541, 0.0
1542, 0.0
1543, 0.0
1544, 0.0
1545, 0.0
1546, 0.0
1547, 0.0
1548, 0.0
1549, 0.0
1550, 0.0
1551, 0.0
1552, 0.0
1553, 0.0
1554, 0.0
1555, 0.0
1556, 0.0
1557, 0.0
1558, 0.0
1559, 0.0
1560, 0.0
1561, 0.0
1562, 0.0
1563, 0.0
1564, 0.0
1565, 0.0
1566, 0.0
1567, 0.0
1568, 0.0
1569, 0.0
1570, 0.0
1571, 0.0
1572, 0.0
1573, 0.0
1574, 0.0
1575, 0.0
1576, 0.0
1577, 0.0
1578, 0.0
1579, 0.0
1580, 0.0
1581, 0.0
1582, 0.0
1583, 0.0
1584, 0.0
1585, 0.0
1586, 0.0
1587, 0.0
1588, 0.0
1589, 0.0
1590, 0.0
1591, 0.0
1592, 0.0
1593, 0.0
1594, 0.0
1595, 0.0
1596, 0.0
1597, 0.0
1598, 0.0
1599, 0.0
