30, 0.0
31, 0.0
32, 0.0
33, 0.0
34, 0.0
35, 0.0
36, 0.0
37, 0.0
38, 0.0
39, 0.0
40, 0.0
41, 0.0
42, 0.0
43, 0.0
44, 0.0
45, 0.0
46, 0.0
47, 0.0
48, 0.0
49, 0.0
50.0, 0.00020590045122639128
51.0, 0.00048670902628222243
52.0, 0.0006260931775455018
53.0, 0.000709911141449245
54.0, 0.0007306665567186739
55.0, 0.0006931340876175133
56.0, 0.0009263995559833946
57.0, 0.001093410167176008
58.0, 0.001179947730181661
59.0, 0.0011284937871473412
60.0, 0.0012886060998118835
61.0, 0.001264590391903748
62.0, 0.0009660449162070693
63.0, 0.001076549134475575
64.0, 0.0010417052566780687
65.0, 0.0009143941152676616
66.0, 0.000753540034359597
67.0, 0.0008269884854613283
68.0, 0.0008847174874366837
69.0, 0.0008605810773020366
70.0, 0.0006750731391725944
71.0, 0.0006671876826577397
72.0, 0.0007730461818104626
73.0, 0.0009335887521999423
74.0, 0.0007292811645254379
75.0, 0.0005955708329291315
76.0, 0.0006105850672829017
77.0, 0.0005333667030810607
78.0, 0.0004189663981289042
79.0, 0.0002631396392936561
80.0, 4.580960907886659e-05
81.0, 5.958000334167176e-05
82.0, 9.130706480187866e-05
83.0, 0.00010896853558239956
84.0, 0.0001518460253749732
85.0, 0.00016454147469035387
86.0, 0.00016754252774215617
87.0, 0.00017997885595039194
88.0, 6.562000736549703e-05
89.0, 4.6841118707870296e-05
90.0, 0.00013937547832043113
91.0, 0.00025805543541567436
92.0, 0.0004284200708836059
93.0, 0.0005597006228097677
94.0, 0.0005655202011716023
95.0, 0.0008241521294717763
96.0, 0.001003078369425719
97.0, 0.0011122608374503386
98.0, 0.0013200927084313346
99.0, 0.0014105136994417822
100.0, 0.0015229131746362576
101.0, 0.0017462478968230943
102.0, 0.0017493221547928792
103.0, 0.0017444491994936626
104.0, 0.0018068278122500261
105.0, 0.0021746261015305485
106.0, 0.0022044981222523667
107.0, 0.002291039982737607
108.0, 0.002600682429292522
109.0, 0.002511866525870322
110.0, 0.0026603870984269946
111.0, 0.0028534124704284796
112.0, 0.0026794332519793555
113.0, 0.002898913863998761
114.0, 0.00318547618884006
115.0, 0.00343737979655149
116.0, 0.003336055344312844
117.0, 0.003358111231506083
118.0, 0.003560040432884283
119.0, 0.004075618680875585
120.0, 0.003821199464577359
121.0, 0.0037874836173533983
122.0, 0.004050670485112929
123.0, 0.003979731022824464
124.0, 0.004226426293938583
125.0, 0.0044839572999740476
126.0, 0.004499742549327649
127.0, 0.004448643779549972
128.0, 0.004503294000828582
129.0, 0.004614489315338823
130.0, 0.004545149019996457
131.0, 0.004974889246876281
132.0, 0.005203895401063374
133.0, 0.004876796334003378
134.0, 0.005122204742870342
135.0, 0.00540442819985627
136.0, 0.005673886888228082
137.0, 0.005820695025180898
138.0, 0.006051774518032882
139.0, 0.006299363537318755
140.0, 0.006545133211943286
141.0, 0.006764246843905358
142.0, 0.007333686714315009
143.0, 0.007970022296930755
144.0, 0.008362114338457969
145.0, 0.009079555894903326
146.0, 0.009853537547780102
147.0, 0.010642743800079011
148.0, 0.011394742510886598
149.0, 0.012783178914320579
150.0, 0.01415305786381607
151.0, 0.01512157618813296
152.0, 0.017741987288889028
153.0, 0.02013578268632532
154.0, 0.02245953015414437
155.0, 0.02517179264240016
156.0, 0.02882510059714317
157.0, 0.03258293701595739
158.0, 0.03632849085231996
159.0, 0.04160484694712132
160.0, 0.04652980334283083
161.0, 0.051619314272380375
162.0, 0.057500918933848594
163.0, 0.06265048600954215
164.0, 0.06652154589018902
165.0, 0.06946374624692866
166.0, 0.07323151273263577
167.0, 0.07412173398600924
168.0, 0.07369169790722166
169.0, 0.07255198778928018
170.0, 0.06801875749272863
171.0, 0.06278609578040616
172.0, 0.05679734237191526
173.0, 0.049766089251765955
174.0, 0.0434774664927875
175.0, 0.03786221970460424
176.0, 0.03288067642506195
177.0, 0.0281830323877247
178.0, 0.024353595758563888
179.0, 0.021033472595161834
180.0, 0.01803930366219265
181.0, 0.015693794978593953
182.0, 0.013643519842760797
183.0, 0.01197654956938414
184.0, 0.01107571675129851
185.0, 0.009926654533448197
186.0, 0.008955925532569183
187.0, 0.008291465515943362
188.0, 0.007722679847802999
189.0, 0.00705565920821807
190.0, 0.006403622919227506
191.0, 0.005892574398782486
192.0, 0.005515231122880798
193.0, 0.005188323833088049
194.0, 0.004889387164954454
195.0, 0.004566736834787763
196.0, 0.004266933315747014
197.0, 0.00398523317065721
198.0, 0.003720617806480005
199.0, 0.003456127809259649
200.0, 0.0032108364444544254
201.0, 0.003114709883639229
202.0, 0.00337144511709539
203.0, 0.0030771311167958767
204.0, 0.002772303451883613
205.0, 0.0025751869090980067
206.0, 0.002745743914013281
207.0, 0.002532922367969322
208.0, 0.0022288267141318983
209.0, 0.0019615936414714547
210.0, 0.002074627131309563
211.0, 0.0019606943277310847
212.0, 0.0018631020267125251
213.0, 0.00212118284882655
214.0, 0.0020131198629315034
215.0, 0.0019153444301333662
216.0, 0.001850905647179615
217.0, 0.0017259317997982276
218.0, 0.0017031752813410532
219.0, 0.0016917700334072108
220.0, 0.0016595864444737991
221.0, 0.0017679038772117329
222.0, 0.0016852622065252746
223.0, 0.001512164708929504
224.0, 0.0013599282231169024
225.0, 0.0015786812019916278
226.0, 0.0016526716491052293
227.0, 0.001539110521917019
228.0, 0.001256569452600384
229.0, 0.00134385312953609
230.0, 0.0014646479636559575
231.0, 0.0014822354198662647
232.0, 0.0011418853618527342
233.0, 0.0010975852682242114
234.0, 0.001192633100270086
235.0, 0.001287748998549395
236.0, 0.001301405357714716
237.0, 0.0014330357364992139
238.0, 0.0016026999722608272
239.0, 0.0015385985361710864
240.0, 0.0016186108384710133
241.0, 0.0017424625868585834
242.0, 0.0018529232937623413
243.0, 0.0016440302491405683
244.0, 0.0015701899636983842
245.0, 0.0015604831648144161
246.0, 0.001569831593801874
247.0, 0.0016334893682860882
248.0, 0.001751273749736544
249.0, 0.0018305833901586855
250.0, 0.0016756469381574211
251.0, 0.0018747229797545697
252.0, 0.001953429067701294
253.0, 0.0018750343096076666
254.0, 0.001914739498657595
255.0, 0.0020989988904567664
256.0, 0.0022074412310451085
257.0, 0.0021321691868783554
258.0, 0.0020995163010657774
259.0, 0.0019228117950958478
260.0, 0.001884615449306377
261.0, 0.002362183938995379
262.0, 0.0022199049266177035
263.0, 0.0022389982119909472
264.0, 0.0024145607414718002
265.0, 0.0025431323900260952
266.0, 0.002419015565781017
267.0, 0.0023618428340741794
268.0, 0.0024589776320495635
269.0, 0.0026753647632658042
270.0, 0.002467726437893889
271.0, 0.0023383475811638355
272.0, 0.0026293417512217843
273.0, 0.0029191586950404595
274.0, 0.0028315158679358436
275.0, 0.0026748734814764606
276.0, 0.002936917073187455
277.0, 0.0029876209638893714
278.0, 0.0030464909994236972
279.0, 0.0031877085597272104
280.0, 0.0035950661300842225
281.0, 0.003766573480234616
282.0, 0.0038435339320247604
283.0, 0.003892361149269857
284.0, 0.004169038948436558
285.0, 0.004477096716858265
286.0, 0.004670921980130976
287.0, 0.004633686942640192
288.0, 0.005168342770862287
289.0, 0.0054880809460175406
290.0, 0.005782394162235653
291.0, 0.006366332491550491
292.0, 0.006897914714096414
293.0, 0.0074911774696437465
294.0, 0.008166592415898424
295.0, 0.008956896992404484
296.0, 0.009412218170511105
297.0, 0.010106408692379812
298.0, 0.011177825079904771
299.0, 0.012275399542486793
300.0, 0.013351554407043097
301.0, 0.014840297986290206
302.0, 0.01704128170443197
303.0, 0.019706999144054146
304.0, 0.022839033868875595
305.0, 0.026331520017467927
306.0, 0.030095809353461043
307.0, 0.03548650540848345
308.0, 0.042226914637117675
309.0, 0.05019898260646227
310.0, 0.059330478170970626
311.0, 0.07211664968266605
312.0, 0.08593416329251044
313.0, 0.10056648681143363
314.0, 0.11777386183393619
315.0, 0.13123940946360685
316.0, 0.14183054401456643
317.0, 0.14935926866874966
318.0, 0.1480547934995632
319.0, 0.13882311994171045
320.0, 0.1257474111581935
321.0, 0.11178519414461109
322.0, 0.0935915174307451
323.0, 0.07737034595424053
324.0, 0.06346397731067459
325.0, 0.05253872263365209
326.0, 0.043457005041430415
327.0, 0.03640459469785626
328.0, 0.030930203313135816
329.0, 0.02586383402380318
330.0, 0.02235966244247023
331.0, 0.019624484260632215
332.0, 0.017395468322039656
333.0, 0.015181561066599965
334.0, 0.01401432229525772
335.0, 0.013045245443668927
336.0, 0.011966498843945829
337.0, 0.01136702974203491
338.0, 0.011267389336804474
339.0, 0.01123270122721375
340.0, 0.010945797234832886
341.0, 0.011360593809652606
342.0, 0.012491993177188984
343.0, 0.014331847549809701
344.0, 0.01693732523990192
345.0, 0.020881617805559496
346.0, 0.02559670829345127
347.0, 0.03048069209703008
348.0, 0.03430894196217055
349.0, 0.035607677048288114
350.0, 0.03423755784585859
351.0, 0.030358783755764698
352.0, 0.02450909994446599
353.0, 0.01969812389492658
354.0, 0.015264101234567538
355.0, 0.011229868877183266
356.0, 0.009021919351260316
357.0, 0.007195412077502842
358.0, 0.0056512227577505255
359.0, 0.00441127604565227
360.0, 0.004298485301809457
361.0, 0.0035623090549009293
362.0, 0.0029157227502915792
363.0, 0.0029018828599001924
364.0, 0.00246686887726835
365.0, 0.0022988497612926114
366.0, 0.0022098958158300558
367.0, 0.001975762066789444
368.0, 0.0018541083603051366
369.0, 0.0018446477870013764
370.0, 0.0018647097251821361
371.0, 0.0017633634070675756
372.0, 0.0016097023526579861
373.0, 0.001514973275944951
374.0, 0.0015057853848297015
375.0, 0.0016265491058316509
376.0, 0.0016006782064584902
377.0, 0.0015616911916828656
378.0, 0.001545886900210243
379.0, 0.0015921211588935833
380.0, 0.0013518302059737572
381.0, 0.0010682750934331467
382.0, 0.0008685780972702789
383.0, 0.0011071370753471218
384.0, 0.0009525828869386097
385.0, 0.0008109902702442121
386.0, 0.0008562270326037974
387.0, 0.0008762486563759443
388.0, 0.0008222905429672176
389.0, 0.00073821184847981
390.0, 0.0006528375460133221
391.0, 0.000610840808015387
392.0, 0.0006310875848277869
393.0, 0.0006751505105784571
394.0, 0.0007085644057156445
395.0, 0.0007047400685129545
396.0, 0.0006478031759473159
397.0, 0.0006314774053577924
398.0, 0.0007815815019971797
399.0, 0.0004814685602525027
400.0, 0.0003642625397083688
401.0, 0.0003409451854860446
402.0, 0.00020345980638995074
403.0, 0.0003429714376320474
404.0, 0.00033909546137735416
405.0, 0.00020498108203554838
406.0, 5.913720840348414e-05
407.0, 7.239674474268862e-05
408.0, 0.00017919512639208223
409.0, 0.00027541215783980584
410.0, 6.98880404198824e-05
411.0, 0.0001760279769535683
412.0, 0.00032560269547345636
413.0, 0.00039233742646088167
414.0, 9.411445612642644e-05
415.0, 3.233089681050934e-05
416.0, 5.667172276290251e-05
417.0, 0.00012157476922703485
418.0, 0.00020445312402857246
419.0, 0.00010710060778225321
420.0, 8.276825601287039e-05
421.0, 0.00018989954244114495
422.0, 0.00017692753633503035
423.0, 0.0001948172833875769
424.0, 0.00015186950461143261
425.0, 2.655441157691071e-05
426.0, 3.8927110677738636e-05
427.0, 0.00012648748425352153
428.0, 0.00029012752518757344
429.0, 0.0004910364344427282
430.0, 0.00011904334716413082
431.0, 9.03200880710045e-05
432.0, 0.00013996558747333916
433.0, 0.00010057311595255978
434.0, 4.82657686284415e-05
435.0, 7.635798022986538e-05
436.0, 0.00010965468034639137
437.0, 9.218805048178362e-05
438.0, 0.00010699285807906175
439.0, 0.00010537030727539103
440.0, 0.00012658422989362094
441.0, 0.0002052908270870376
442.0, 5.4609843249202586e-05
443.0, 3.288388499616512e-05
444.0, 5.627555141019408e-05
445.0, 3.942405232854725e-05
446.0, 4.013677248891083e-05
447.0, 0.00013820782278834465
448.0, 0.00019934516915809706
449.0, 6.508783996898697e-05
450.0, 2.065909233966311e-05
451.0, 9.799301535403978e-05
452.0, 0.0002551023482127007
453.0, 0.00044062237932588185
454.0, 0.00027078354822197246
455.0, 0.00012798023294005307
456.0, 7.00209393116051e-05
457.0, 0.00016060661636699714
458.0, 6.090310925150653e-05
459.0, 0.00017758451314633315
460.0, 0.00035841878000263285
461.0, 0.00035036804504379285
462.0, 0.00019806680620469447
463.0, 0.00017787657592011324
464.0, 0.00019071612670677626
465.0, 5.706333948929847e-05
466.0, 0.0002958125293055256
467.0, 0.0003811818886547929
468.0, 0.0003232100675706118
469.0, 0.00018912460220741418
470.0, 0.0002087280898538501
471.0, 0.00029536881272229415
472.0, 0.0003142830633420712
473.0, 4.7702839381754666e-05
474.0, 0.0002669053510676357
475.0, 0.00034233102373790734
476.0, 0.000265758886503664
477.0, 9.463942000345442e-05
478.0, 0.00010051944767196878
479.0, 0.0002063452424608143
480.0, 0.00030577003589252877
481.0, 0.0002303443825602072
482.0, 0.00011288487622466345
483.0, 0.00023636180649084552
484.0, 0.0003800362515847303
485.0, 0.0001500209067080906
486.0, 0.00011168733356286983
487.0, 0.00013729946707980614
488.0, 0.00017997825817470377
489.0, 0.0001805469195994059
490.0, 0.0001702857234861429
491.0, 0.00042295306841429664
492.0, 0.0005728297129451788
493.0, 4.761102813545358e-05
494.0, 8.961952007822346e-05
495.0, 7.855239009103619e-05
496.0, 4.512285632760648e-05
497.0, 7.639279870808796e-05
498.0, 0.00026308477803368746
499.0, 0.00017858325302505719
500.0, 2.6039430500277885e-05
501.0, 8.84445310268422e-05
502.0, 6.233496122697931e-05
503.0, 0.00016419419119286722
504.0, 0.00025915526399509305
505.0, 0.00018233039142997507
506.0, 9.006833452775345e-05
507.0, 7.962255086432489e-05
508.0, 0.00015461550477662605
509.0, 0.00031668161431178967
510.0, 0.0002604369381853541
511.0, 0.0001399739506817116
512.0, 0.00015827606334832184
513.0, 0.0004892971552841819
514.0, 0.0002762123249566434
515.0, 0.0002907942219780266
516.0, 0.00031917610939958304
517.0, 0.00019632225901837312
518.0, 0.000181642593519615
519.0, 0.00012155398979977431
520.0, 6.1154720963796e-05
521.0, 3.936291118410165e-05
522.0, 0.00017069328545858854
523.0, 0.00010497402199200379
524.0, 6.322209519162574e-05
525.0, 0.00017263956765740666
526.0, 0.00037874548844207893
527.0, 0.00035849926048268086
528.0, 0.00031543752930158965
529.0, 0.00033955546484921263
530.0, 0.0003501083074729969
531.0, 0.0002553448329891745
532.0, 0.0002326556893164958
533.0, 0.00030999442719338295
534.0, 0.00023008144800815185
535.0, 8.957091907314812e-05
536.0, 0.00010029300265731799
537.0, 0.00028616513381993236
538.0, 0.00044666930628055324
539.0, 0.00045663108232602955
540.0, 0.0002972495420335893
541.0, 0.00010525725422642253
542.0, 0.00035803514144280217
543.0, 0.00020598669794247656
544.0, 0.00015220447625928076
545.0, 0.00019763600090596598
546.0, 0.00010148062448727421
547.0, 7.262715623476615e-05
548.0, 0.0001724650635971625
549.0, 0.00030557131493509854
550.0, 0.00026933601561091275
551.0, 0.0001490212166673877
552.0, 0.00012283442493388132
553.0, 0.00012605346969580107
554.0, 4.0153773179626755e-05
555.0, 0.00019475641487404726
556.0, 0.00030685055814655746
557.0, 0.00033702268707582795
558.0, 0.0002552996195522338
559.0, 0.00039929853470307324
560.0, 0.00023690273582940128
561.0, 0.00013115094655573192
562.0, 0.00036258573741128927
563.0, 0.0002648059019111992
564.0, 0.00025413004506196564
565.0, 0.00021613268419473368
566.0, 9.673452092784508e-05
567.0, 7.408313960990507e-05
568.0, 0.00032821840959050606
569.0, 0.000373117977638906
570.0, 9.170819845567776e-05
571.0, 9.664994616957988e-05
572.0, 8.216380848218736e-05
573.0, 0.00014309463714255993
574.0, 0.00025527424463255564
575.0, 0.00021045093050585094
576.0, 7.614550037464779e-05
577.0, 5.324081818223019e-05
578.0, 0.00012913417344714815
579.0, 0.00016561290731886098
580.0, 0.00033826217220615703
581.0, 0.0002732070992358668
582.0, 0.00012181728352606588
583.0, 0.00022751789340558535
584.0, 0.00020935146286060762
585.0, 0.00015749413557828183
586.0, 0.0001240142531497726
587.0, 0.0001637786652133346
588.0, 5.619662961048152e-05
589.0, 1.6383823171783025e-05
590.0, 5.948771967091869e-05
591.0, 0.00018016934383338179
592.0, 0.00011617388044981524
593.0, 0.0001142017447508809
594.0, 9.410501839499818e-05
595.0, 3.338907637344602e-05
596.0, 8.516102757936591e-05
597.0, 5.106507398469137e-05
598.0, 2.372965960825677e-05
599.0, 2.4672147200180447e-05
600.0, 9.635031734582617e-06
601.0, 0.00014623224925761102
602.0, 0.00018844813237462173
603.0, 0.00014980016567825677
604.0, 0.00019015217248670392
605.0, 0.00016303589697012156
606.0, 0.0001012516650718056
607.0, 4.877759684961841e-05
608.0, 6.70118495502792e-05
609.0, 0.0003480492565596938
610.0, 0.0002446116939382256
611.0, 3.844366157995224e-05
612.0, 2.6826481942762977e-05
613.0, 0.00018380308664269184
614.0, 0.0001385538668079282
615.0, 9.661070482893698e-05
616.0, 0.00015518162093884128
617.0, 7.49014395872113e-05
618.0, 7.065631354031195e-05
619.0, 5.6581711867134595e-05
620.0, 3.201950116575654e-05
621.0, 0.00012159784129619003
622.0, 9.01736349952582e-05
623.0, 9.323617766602798e-05
624.0, 0.00012000046760434805
625.0, 7.341336588403409e-05
626.0, 7.092642962235513e-05
627.0, 7.202010136737545e-05
628.0, 7.104140731922497e-05
629.0, 6.53852709484814e-05
630.0, 1.909912863110979e-05
631.0, 6.106031185034458e-05
632.0, 9.34247374518548e-05
633.0, 5.1826036529733734e-05
634.0, 0.00014248465151721777
635.0, 0.00010643137282504372
636.0, 0.0001091970433378817
637.0, 0.0001801529055002934
638.0, 7.387727701027837e-05
639.0, 4.3672720077431945e-05
640.0, 9.244430999534116e-05
641.0, 0.00015927219389546044
642.0, 8.321151282217164e-05
643.0, 2.6576399257369236e-05
644.0, 0.00015643176711888413
645.0, 0.00027112139893771867
646.0, 5.79503296423357e-05
647.0, 0.00011592132252783338
648.0, 0.00012889708431069175
649.0, 0.00010562254391926523
650.0, 7.413818142585631e-05
651.0, 0.00024074268702726758
652.0, 0.00015324835740070602
653.0, 7.844508480999923e-05
654.0, 0.00010518466567317208
655.0, 9.078749858348587e-05
656.0, 0.00011364093336420995
657.0, 8.291361658946105e-05
658.0, 4.450309695794318e-05
659.0, 0.00014861149538858282
660.0, 0.00016220144948309888
661.0, 0.00010293776348079823
662.0, 0.00012059653741412012
663.0, 0.00037812279997054363
664.0, 0.00022607915494317086
665.0, 0.00012245339167742553
666.0, 0.00012124861081459319
667.0, 0.00022779023402289618
668.0, 0.00022823319822882284
669.0, 9.840861729123616e-05
670.0, 9.237775459283977e-05
671.0, 0.0002019313595579407
672.0, 0.00013881401854178471
673.0, 0.00023970356465234056
674.0, 0.00017287785328591853
675.0, 8.731893563331794e-05
676.0, 0.0002803855418416129
677.0, 0.00019103215921100294
678.0, 0.00029029039667404383
679.0, 0.0003042677719571774
680.0, 5.9826673291538326e-05
681.0, 0.00013839766928649893
682.0, 9.388264780908111e-05
683.0, 5.845173596297875e-05
684.0, 0.00012010832872203249
685.0, 0.0004089898853104834
686.0, 0.00029650070238823904
687.0, 0.00019630725355759173
688.0, 0.0002902116763423462
689.0, 0.000761770361194755
690.0, 0.00040063308042000297
691.0, 0.00020036544684225708
692.0, 0.00016231883422767053
693.0, 0.0002574312130017624
694.0, 0.000500125779063542
695.0, 0.00044694271238324525
696.0, 0.000481297642113395
697.0, 0.0006565126505651285
698.0, 0.0005832802290751931
699.0, 0.0005992099367587828
700.0, 0.0006437907080141195
701.0, 0.0006621862772197403
702.0, 0.000582544485507277
703.0, 0.0008913427809705072
704.0, 0.0009248419500557344
705.0, 0.0007158032903912506
706.0, 0.0003736017284610868
707.0, 0.0004937702613865784
708.0, 0.0007209056448650687
709.0, 0.0007883669630823134
710.0, 0.0006810312839923102
711.0, 0.0006546324874893941
712.0, 0.0006908708019098001
713.0, 0.0006976018421531443
714.0, 0.0007875991865662102
715.0, 0.001116226021474702
716.0, 0.0006375611446006544
717.0, 0.0007652513824490303
718.0, 0.0009373419375758725
719.0, 0.0008831694182539941
720.0, 0.0012337958591275044
721.0, 0.0012041743066527077
722.0, 0.001288127391065599
723.0, 0.0013850637024506837
724.0, 0.0009635533304975638
725.0, 0.0014132926696486653
726.0, 0.0015244354128939905
727.0, 0.001480929172926603
728.0, 0.001555693107223005
729.0, 0.001681759072364152
730.0, 0.0019181148399362393
731.0, 0.002017513087329514
732.0, 0.0019910491881000992
733.0, 0.00228979012234425
734.0, 0.002457268164601017
735.0, 0.002453584437926756
736.0, 0.002510925963362488
737.0, 0.002971377594628697
738.0, 0.0036053836612903608
739.0, 0.004072121699090758
740.0, 0.004502298587891439
741.0, 0.004957059546430564
742.0, 0.005267224057591694
743.0, 0.005600989376290294
744.0, 0.005802908492617362
745.0, 0.005868983964253835
746.0, 0.005876019332398949
747.0, 0.006229515801955301
748.0, 0.0061905378199066515
749.0, 0.00633717273753083
750.0, 0.007135190144892119
751.0, 0.007913462317506465
752.0, 0.008500064864358583
753.0, 0.009423181011705523
754.0, 0.010661107462197426
755.0, 0.01164384253384286
756.0, 0.01366451361652067
757.0, 0.015825043678437376
758.0, 0.018676973031005385
759.0, 0.02279094805592789
760.0, 0.026728419631263323
761.0, 0.03249747766456957
762.0, 0.04002660531953502
763.0, 0.049172179486427145
764.0, 0.059615684293890865
765.0, 0.06699645955079256
766.0, 0.07281142321887442
767.0, 0.07466080580918188
768.0, 0.0697262659721856
769.0, 0.06431424514467375
770.0, 0.05561648080449007
771.0, 0.04603044226124204
772.0, 0.03737810215694982
773.0, 0.0318831168335373
774.0, 0.02636941106692099
775.0, 0.022325974149213522
776.0, 0.01949179967881283
777.0, 0.017128451459413472
778.0, 0.01542586278213648
779.0, 0.01442021893529128
780.0, 0.013512971550497027
781.0, 0.012520637604256825
782.0, 0.012087209517122123
783.0, 0.011694533412397453
784.0, 0.011341451189563563
785.0, 0.011200709339709009
786.0, 0.011492848497623139
787.0, 0.0117106612189507
788.0, 0.01167612723829121
789.0, 0.011470788061875866
790.0, 0.011161506289470007
791.0, 0.010817597177023732
792.0, 0.011375874511454867
793.0, 0.011561978112529243
794.0, 0.011432079738978857
795.0, 0.011365827653100433
796.0, 0.01167738171416572
797.0, 0.01152856932233497
798.0, 0.011667542482701057
799.0, 0.012328369792958179
800.0, 0.012950799231943212
801.0, 0.012671655937193965
802.0, 0.01335893608720501
803.0, 0.014298311384320453
804.0, 0.014385948550937208
805.0, 0.0156929155724189
806.0, 0.0169663700859474
807.0, 0.018182916325020674
808.0, 0.019543707089826765
809.0, 0.02170397511421545
810.0, 0.023353906106061372
811.0, 0.025782607866509873
812.0, 0.028150723098569252
813.0, 0.029538586539827008
814.0, 0.03115825112177579
815.0, 0.03331780874895805
816.0, 0.03382010105754233
817.0, 0.03268774971066568
818.0, 0.03192873115789571
819.0, 0.03048665439324888
820.0, 0.02892669943034692
821.0, 0.027950701916227196
822.0, 0.027830198567544002
823.0, 0.026604129684329757
824.0, 0.02638196124422659
825.0, 0.02618225973699523
826.0, 0.025886254313091255
827.0, 0.025749708551438443
828.0, 0.027076434607604973
829.0, 0.027291366905957355
830.0, 0.027684940718554426
831.0, 0.02898329957402267
832.0, 0.030636456332914355
833.0, 0.03006944854797739
834.0, 0.031176152143458164
835.0, 0.03299062311005213
836.0, 0.03345599685867534
837.0, 0.034131216265659126
838.0, 0.03572297205951915
839.0, 0.03659040881636048
840.0, 0.03694004821882465
841.0, 0.03936249337658059
842.0, 0.040593010541083406
843.0, 0.041962138465095326
844.0, 0.043686140092706854
845.0, 0.04573501398775665
846.0, 0.047238784813571126
847.0, 0.05072828876903213
848.0, 0.05428545877456971
849.0, 0.05737176355461534
850.0, 0.05997058542039591
851.0, 0.06643482727375767
852.0, 0.07236457151592307
853.0, 0.07916589198772367
854.0, 0.08758445948156654
855.0, 0.09738548413616802
856.0, 0.10872386137744748
857.0, 0.12460821727560595
858.0, 0.14353739425052267
859.0, 0.1640755196179562
860.0, 0.1950066318777609
861.0, 0.23146054969271568
862.0, 0.2781252006815099
863.0, 0.343672263119218
864.0, 0.4413778853785616
865.0, 0.54360567097429
866.0, 0.6780059359397245
867.0, 0.8279421440351545
868.0, 0.9617314103977695
869.0, 0.9961456096803518
870.0, 0.9863655082308104
871.0, 0.8876712516982727
872.0, 0.7388022479401231
873.0, 0.5947660843205611
874.0, 0.46933047335263994
875.0, 0.36343720112121314
876.0, 0.28185913682711833
877.0, 0.2221624270077769
878.0, 0.1755800216276885
879.0, 0.14406649106525993
880.0, 0.1200756881210201
881.0, 0.10080438880495736
882.0, 0.08463869044663362
883.0, 0.07253964343721907
884.0, 0.06403973913168161
885.0, 0.05540372397085602
886.0, 0.048638522171500755
887.0, 0.04545175490585174
888.0, 0.039480825241446006
889.0, 0.03615570651118231
890.0, 0.03340399129111934
891.0, 0.030599593522879054
892.0, 0.027681340800120264
893.0, 0.026325496372430632
894.0, 0.02461832912655995
895.0, 0.022985394249248017
896.0, 0.021654805119945848
897.0, 0.020659621969446363
898.0, 0.019419219735579623
899.0, 0.01842982092345395
900.0, 0.017763048868077835
901.0, 0.01730458448549771
902.0, 0.01635888245574945
903.0, 0.016582978493142088
904.0, 0.016220215289183496
905.0, 0.015560603106070237
906.0, 0.015304666416046914
907.0, 0.014599341924027018
908.0, 0.013439043449894906
909.0, 0.012548426968519542
910.0, 0.011956556443459325
911.0, 0.011254277704804536
912.0, 0.0112132289248986
913.0, 0.010670192240295476
914.0, 0.009867958140605693
915.0, 0.009271753927999737
916.0, 0.00983982170661043
917.0, 0.009152459484948883
918.0, 0.008769262833761756
919.0, 0.008539508483590115
920.0, 0.008235888212123043
921.0, 0.00782733049199412
922.0, 0.007799786566222306
923.0, 0.007803832316860887
924.0, 0.0076640235946553534
925.0, 0.007306369209593074
926.0, 0.007240863194914324
927.0, 0.007227031863005543
928.0, 0.006971126287529466
929.0, 0.006612804692453078
930.0, 0.006488846740141278
931.0, 0.00596681564697851
932.0, 0.006191593246940738
933.0, 0.006560308726206152
934.0, 0.006707177713152382
935.0, 0.0064227886701726375
936.0, 0.006540151862502161
937.0, 0.00638959137086771
938.0, 0.006327822124694547
939.0, 0.006457094160955595
940.0, 0.00636108632312003
941.0, 0.00639687754612536
942.0, 0.006148786572965198
943.0, 0.005957245188338734
944.0, 0.006071363111894199
945.0, 0.006212622191367429
946.0, 0.005838494794660311
947.0, 0.005709352515607424
948.0, 0.005771854187393066
949.0, 0.005768101618656778
950.0, 0.005167320103755204
951.0, 0.005655569293837997
952.0, 0.0057841957831919226
953.0, 0.0054993406677294404
954.0, 0.005220106287707283
955.0, 0.005030330917675464
956.0, 0.004701289763554553
957.0, 0.00447446543783692
958.0, 0.004261670996075751
959.0, 0.0037935541763413727
960.0, 0.003603872925646532
961.0, 0.003390205449331977
962.0, 0.003193075079406714
963.0, 0.0029217745832178566
964.0, 0.002352803117869371
965.0, 0.002232296605108769
966.0, 0.0019484018266030844
967.0, 0.0016464518599936778
968.0, 0.0013769568397947348
969.0, 0.0010453788137470413
970.0, 0.0011078982550445482
971.0, 0.001066190642044489
972.0, 0.0009371550423350504
973.0, 0.0007994126753617764
974.0, 0.0008165419370361268
975.0, 0.0009446043123706477
976.0, 0.0008301233626463681
977.0, 0.0006400402817105078
978.0, 0.0005637192269537936
979.0, 0.0007443312943568005
980.0, 0.0006912228995250243
981.0, 0.0007888133197522523
982.0, 0.0007877668459824207
983.0, 0.0005493361579854528
984.0, 0.0006940638770230643
985.0, 0.0005865938563874379
986.0, 0.0004656907418191906
987.0, 0.0005519991702351709
988.0, 0.0008356450263033025
989.0, 0.0001395275684366612
990.0, 0.0003349838050170003
991.0, 0.0006223836153695729
992.0, 0.0007318446785731795
993.0, 0.0006078013635082569
994.0, 0.0007690999712898417
995.0, 0.0006070258606133222
996.0, 0.00042493404249362724
997.0, 0.00030117362483957343
998.0, 0.00023883377293419306
999.0, 0.00016205444834845403
1000.0, 0.0003509712594355244
1001.0, 0.00028652301696477963
1002.0, 0.00014497278831246407
1003.0, 0.0002861068213903502
1004.0, 0.00036862699761400805
1005.0, 0.00025408676575036225
1006.0, 0.00017111671377130619
1007.0, 0.00017826445329996945
1008.0, 0.0002542525998505826
1009.0, 0.000241133074301055
1010.0, 0.00021571690722988217
1011.0, 0.000341115625164894
1012.0, 0.0004419791585380859
1013.0, 0.0002667665573967807
1014.0, 0.0004931579818976903
1015.0, 0.00036909748333624514
1016.0, 0.00025555243837061214
1017.0, 0.00021137023582350355
1018.0, 0.00018173415272474308
1019.0, 0.00036071036362411463
1020.0, 0.0002800192926858316
1021.0, 0.0002935225388819215
1022.0, 0.00032923907324597314
1023.0, 0.0001651934751858271
1024.0, 0.00010532750052252913
1025.0, 0.0004103098923753516
1026.0, 0.0003620746799116348
1027.0, 0.00011583351660570045
1028.0, 0.00014782026086913218
1029.0, 0.00012801386642451008
1030.0, 0.00017384358088539496
1031.0, 0.00022006062925987107
1032.0, 0.00027180273600278695
1033.0, 0.00035832708983430945
1034.0, 0.0004743086115337796
1035.0, 0.00021698615191969353
1036.0, 0.00021270160094076032
1037.0, 0.0002860089482283287
1038.0, 9.394805586182005e-05
1039.0, 0.00034185345058109607
1040.0, 0.00016171100384557188
1041.0, 3.3613209204341484e-05
1042.0, 5.464997164510806e-05
1043.0, 0.00019996851937187124
1044.0, 0.00046016687569408693
1045.0, 0.0001587049957251156
1046.0, 0.00013479252113304634
1047.0, 0.0002265359113289054
1048.0, 0.00013807237067689796
1049.0, 0.0002615646814381383
1050.0, 0.0002554885374780699
1051.0, 0.0003267751157220699
1052.0, 0.0003657513795837121
1053.0, 0.00027024585971599676
1054.0, 0.00022057056176113453
1055.0, 0.00010991337627634147
1056.0, 0.00010865619739755372
1057.0, 0.00023446326847496868
1058.0, 0.00036826416424260686
1059.0, 5.994968234000354e-05
1060.0, 0.00016363916015479577
1061.0, 0.0004011196617053406
1062.0, 0.00036734735456074087
1063.0, 3.5652768210336995e-05
1064.0, 0.00022412973070655944
1065.0, 0.00038241176081541884
1066.0, 0.00019420161772934624
1067.0, 1.5180712054960685e-05
1068.0, 7.44161450806619e-05
1069.0, 0.0003345544200868433
1070.0, 0.00011483331936877653
1071.0, 0.00036768727363517464
1072.0, 0.00041144241602390254
1073.0, 0.00022706746911132182
1074.0, 0.0005565215283415959
1075.0, 0.00030177510163027327
1076.0, 0.00024447577368066534
1077.0, 0.000272788868063237
1078.0, 0.0002738481715009106
1079.0, 0.00016368130413382256
1080.0, 0.00039144759328833226
1081.0, 0.0002457680423559328
1082.0, 0.0002154618377236919
1083.0, 0.00023868634945201214
1084.0, 4.726102776938527e-05
1085.0, 1.8187005594850443e-05
1086.0, 7.371419328941291e-05
1087.0, 0.00011973083906365691
1088.0, 0.00026804208768585014
1089.0, 0.00054309522311685
1090.0, 0.00022446969273497288
1091.0, 0.0002468975219703086
1092.0, 0.0004799828683379546
1093.0, 0.0006151013134873062
1094.0, 0.0004974551383519649
1095.0, 0.000500318970666768
1096.0, 0.00039857133644818975
1097.0, 0.0004333445193497323
1098.0, 0.00050359614408269
1099.0, 0.0004487167506793876
1100.0, 6.546197780903822e-05
1101.0, 0.00032326639543120824
1102.0, 0.000586819770797618
1103.0, 0.0005723681499100571
1104.0, 0.00042628850392490575
1105.0, 0.0006592850823535964
1106.0, 0.00048484042946835297
1107.0, 0.0005145386494388103
1108.0, 0.000508449422317772
1109.0, 0.0005026099047375289
1110.0, 0.0006240346605568056
1111.0, 0.0004510887007633246
1112.0, 0.0006178222087693667
1113.0, 0.0004100275718951111
1114.0, 0.00011211043880740797
1115.0, 0.00014108458264156814
1116.0, 0.0002565000656867518
1117.0, 0.0005475983877015402
1118.0, 0.0006842980857832625
1119.0, 0.0006092362117973632
1120.0, 0.00042463122166155106
1121.0, 0.00045987096294576927
1122.0, 0.000526290580731963
1123.0, 0.00023976060865445065
1124.0, 0.00023166822086795558
1125.0, 0.0004929925452193191
1126.0, 0.00034734373694586236
1127.0, 0.00011010188203282535
1128.0, 0.0005002212048383436
1129.0, 0.0005075661590377406
1130.0, 0.00036133075373845374
1131.0, 0.0007087733637706729
1132.0, 0.0005038574804012012
1133.0, 0.0003800785943328392
1134.0, 0.0007687274120092214
1135.0, 0.0010257246046169511
1136.0, 0.000639824617017003
1137.0, 0.0002539111458881518
1138.0, 0.0003734486438516885
1139.0, 0.00035304787061340553
1140.0, 0.00047212699326346303
1141.0, 0.0007435396759553198
1142.0, 0.0007294261465021725
1143.0, 0.0006504494466219855
1144.0, 0.0007726201395085732
1145.0, 0.0006353762394292979
1146.0, 0.00043118705445528065
1147.0, 0.0006700643553393626
1148.0, 0.0010223396934326942
1149.0, 0.0005507308011723734
1150.0, 0.0004731168878615089
1151.0, 0.0007262192206497975
1152.0, 0.0008885588020066284
1153.0, 0.0005342592652711314
1154.0, 0.0007561906550293434
1155.0, 0.0008698251026708134
1156.0, 0.0010282715661735563
1157.0, 0.0012219972722378666
1158.0, 0.0011537212814358051
1159.0, 0.0009460964102893108
1160.0, 0.00110732677313748
1161.0, 0.001191380002132147
1162.0, 0.0010475277432225347
1163.0, 0.0008258519735022797
1164.0, 0.0014966934257421424
1165.0, 0.001186141601146274
1166.0, 0.0012369658101025961
1167.0, 0.0014089998548335982
1168.0, 0.0013070261306769389
1169.0, 0.0009509999772453998
1170.0, 0.0013334714131063618
1171.0, 0.0013104659257656686
1172.0, 0.0012901900317896433
1173.0, 0.00131070693607564
1174.0, 0.001064727785376599
1175.0, 0.0010333652772410102
1176.0, 0.0013123280204123155
1177.0, 0.0013298402997427513
1178.0, 0.0010737571289432337
1179.0, 0.00082916264170858
1180.0, 0.0012041435068534327
1181.0, 0.0013577837899388322
1182.0, 0.0012735652743719446
1183.0, 0.0012421857074808402
1184.0, 0.001266453645682542
1185.0, 0.000987041520543681
1186.0, 0.0011831333267030308
1187.0, 0.0011608406093473844
1188.0, 0.0008748321632081027
1189.0, 0.0008255447956012899
1190.0, 0.0013980046890665746
1191.0, 0.0013115789481783016
1192.0, 0.0010391797236628726
1193.0, 0.0011338286109017527
1194.0, 0.001172837107537127
1195.0, 0.0009394605800118117
1196.0, 0.0007461242520868324
1197.0, 0.00125718756964117
1198.0, 0.0011105824773454758
1199.0, 0.0010872913448107281
1200.0, 0.0011475221760827473
1201.0, 0.0009915297889329286
1202.0, 0.0013723680495349245
1203.0, 0.0012217377395110167
1204.0, 0.0010169225050123951
1205.0, 0.0010522380720489081
1206.0, 0.0012887486395547396
1207.0, 0.0012396945066436885
1208.0, 0.0012785364601498412
1209.0, 0.0014058336142017966
1210.0, 0.0012402915044266065
1211.0, 0.0009348508868532071
1212.0, 0.0008784177205157517
1213.0, 0.0011995891559063985
1214.0, 0.0010378712256223631
1215.0, 0.0011475605588683972
1216.0, 0.0012712723933750725
1217.0, 0.0011135800593785811
1218.0, 0.0005920162113338767
1219.0, 0.0010176597906380203
1220.0, 0.0010959922498681239
1221.0, 0.0009091779307826536
1222.0, 0.0008688144515268753
1223.0, 0.0011912392181892416
1224.0, 0.0008179910699558075
1225.0, 0.0008200115086033078
1226.0, 0.0007257210329701226
1227.0, 0.000618104129504496
1228.0, 0.0006393824692135718
1229.0, 0.0008880146524205599
1230.0, 0.0009193636062487959
1231.0, 0.0005547981349048196
1232.0, 0.0005420510321298822
1233.0, 0.0006230362036528139
1234.0, 0.0004885499459624793
1235.0, 0.000591672795644701
1236.0, 0.0005467830814542815
1237.0, 0.000435617743235149
1238.0, 0.0005626089646126066
1239.0, 0.0007987004068821655
1240.0, 0.0007607840512133696
1241.0, 0.0006931017735094556
1242.0, 0.0010569701177803742
1243.0, 0.0007780095446814965
1244.0, 0.00043238277656201227
1245.0, 0.0004763353017270799
1246.0, 0.0005977008840010874
1247.0, 0.0001963574260384512
1248.0, 0.0005246094017453036
1249.0, 0.0006701768589415183
1250.0, 0.0005047749104008339
1251.0, 0.0003409570568755854
1252.0, 0.0006498107851035537
1253.0, 0.0005443291770188826
1254.0, 0.000472073579295811
1255.0, 0.0007549990558362845
1256.0, 0.0009395798960546872
1257.0, 0.00020824841688554335
1258.0, 0.000533468242563017
1259.0, 0.0005034335960871107
1260.0, 0.0002299304495679622
1261.0, 0.00024119874584093608
1262.0, 0.0005622387698060081
1263.0, 0.00025217819191698446
1264.0, 0.00036462604768552995
1265.0, 0.0005289110677407384
1266.0, 0.00045614935751727613
1267.0, 0.0002990182473374961
1268.0, 0.0003179587096930243
1269.0, 0.00044579261114719007
1270.0, 0.0005508557728717613
1271.0, 0.0006843643315786212
1272.0, 0.0004756092114198342
1273.0, 0.0001652069613441168
1274.0, 0.0003149385892988618
1275.0, 0.00026300687126343443
1276.0, 0.00041577383358006183
1277.0, 0.0002585057294326082
1278.0, 0.0002874722274262803
1279.0, 0.0005257606428612403
1280.0, 0.0002489142094546829
1281.0, 0.00045866347947861507
1282.0, 0.00047628340463952933
1283.0, 0.00024492340942111385
1284.0, 0.0003225983938422312
1285.0, 0.0007439664711759216
1286.0, 9.73355792374424e-05
1287.0, 0.0002540717799636299
1288.0, 0.0005692864659141335
1289.0, 0.0005477974947977094
1290.0, 0.00035485267879982886
1291.0, 0.0003550400309914514
1292.0, 0.0003829484563002312
1293.0, 0.00019234300556806284
1294.0, 0.00038032764363352367
1295.0, 0.00035539051731970717
1296.0, 0.00012703961485658195
1297.0, 0.00014719222902065588
1298.0, 0.0003561345706632258
1299.0, 0.0001765989839172054
1300.0, 0.00022206319860229234
1301.0, 0.0002765915798527587
1302.0, 0.0002443018808607069
1303.0, 0.00026151192401270296
1304.0, 0.00017878656470463598
1305.0, 0.000363509338151805
1306.0, 0.00022357496205057236
1307.0, 0.00032428669241871424
1308.0, 0.0006274447572977296
1309.0, 2.829581238915405e-05
1310.0, 0.00022017695324723984
1311.0, 0.0003015310556109476
1312.0, 0.00015604772592528097
1313.0, 0.0002432866897613707
1314.0, 0.0005735778313972356
1315.0, 6.631333282290666e-05
1316.0, 0.00045593874115335096
1317.0, 0.0007390569162237625
1318.0, 0.000648385559057615
1319.0, 0.00043893656761111513
1320.0, 0.0003924686300986193
1321.0, 0.00031930881649545575
1322.0, 0.00016426707366003912
1323.0, 0.00018972186018672776
1324.0, 0.000294363132761446
1325.0, 0.00026126002030923967
1326.0, 7.691094358940506e-05
1327.0, 0.00044374863929984114
1328.0, 0.000191962715766937
1329.0, 0.00032430200723830257
1330.0, 0.00037748160172133507
1331.0, 0.00022922705110413113
1332.0, 6.5229606799559e-05
1333.0, 0.00022301816250096972
1334.0, 0.00014446681398559404
1335.0, 0.00012489955373084689
1336.0, 0.00019727794818333796
1337.0, 0.0003816090704446862
1338.0, 0.0005870280003027477
1339.0, 0.0002805508536749576
1340.0, 0.0004882104368076372
1341.0, 0.0002876528215004922
1342.0, 0.00014489597510926886
1343.0, 0.0002808765032497571
1344.0, 0.0005527307327976339
1345.0, 0.000494485588241561
1346.0, 0.0005909810677324405
1347.0, 0.0006012587065471691
1348.0, 0.00038194172278067836
1349.0, 0.00021697175740810603
1350.0, 0.00042657889151904977
1351.0, 0.00010251116634402916
1352.0, 0.00021108492542973312
1353.0, 0.000436645440263856
1354.0, 0.0003672063911497909
1355.0, 0.0001750078585261598
1356.0, 0.0003002579033116783
1357.0, 0.0003246447192332089
1358.0, 0.00020956928209303553
1359.0, 0.00029173022583354975
1360.0, 0.0004933919998026678
1361.0, 0.0005772705892245484
1362.0, 0.00041634718743800887
1363.0, 0.000656510809902338
1364.0, 0.00016316372512216812
1365.0, 7.51094479325726e-05
1366.0, 0.00019475463636800929
1367.0, 0.00021583478687085464
1368.0, 3.601647357696603e-05
1369.0, 0.00023119072044354959
1370.0, 0.00012237341857540844
1371.0, 0.0002851187256001673
1372.0, 0.00039413307966328076
1373.0, 0.0003849085298611838
1374.0, 0.0003675808683672422
1375.0, 0.0003083922854344195
1376.0, 0.0004418478837137577
1377.0, 0.0001725344061773221
1378.0, 0.00016169943477810548
1379.0, 0.00034746458183587453
1380.0, 0.0003523685349067771
1381.0, 0.00019498878295221331
1382.0, 0.0003278309498343062
1383.0, 0.0006026503104176377
1384.0, 0.0006468972603382993
1385.0, 0.0005216649230836743
1386.0, 0.0003660700119171173
1387.0, 1.7319551361243162e-05
1388.0, 2.7362017870977677e-05
1389.0, 0.0005278323714339968
1390.0, 0.00036726948191703415
1391.0, 0.00013990834040966387
1392.0, 0.0004156321656256691
1393.0, 0.0005365613453332667
1394.0, 0.0004890514705496723
1395.0, 0.00046170339869531027
1396.0, 0.0003623526622301407
1397.0, 0.00017681856318309779
1398.0, 0.00010448238200987478
1399.0, 0.0004778056011884186
1400.0, 0.0005851096437569545
1401.0, 0.0007385893188961728
1402.0, 0.0006906791730129088
1403.0, 0.0004085007800875988
1404.0, 0.00013141557635023781
1405.0, 0.0002466097866670795
1406.0, 0.0007545551296146643
1407.0, 0.0003771744317507069
1408.0, 0.0004024812786109504
1409.0, 0.0004433262835973929
1410.0, 0.00029524044356160346
1411.0, 0.00019590574539143533
1412.0, 0.0008210101022118243
1413.0, 0.0003067140636149001
1414.0, 0.0004837465341072625
1415.0, 0.0004930198463615169
1416.0, 0.00038649089559842465
1417.0, 0.00044770907029993516
1418.0, 8.269890727858524e-05
1419.0, 3.271950365524363e-05
1420.0, 0.000518507791191059
1421.0, 0.0008135032036182547
1422.0, 0.0006445996415859024
1423.0, 0.0002728564782197918
1424.0, 0.0003666309269435917
1425.0, 0.00027225022225427274
1426.0, 0.0002449313470117969
1427.0, 0.00047030591978231435
1428.0, 0.0007186707923707991
1429.0, 0.0006241195982359609
1430.0, 0.00011875411319759219
1431.0, 0.0008793645414035031
1432.0, 0.0006785948080093572
1433.0, 0.0004974183965632198
1434.0, 0.0004894965700448318
1435.0, 0.0004871057759428237
1436.0, 0.00028394396692135965
1437.0, 3.6586824636466824e-05
1438.0, 0.0007810702730870847
1439.0, 0.0003482424432715499
1440.0, 0.0003945917450144006
1441.0, 0.0006498041252228867
1442.0, 0.0004681309177003223
1443.0, 0.00016649820736469356
1444.0, 0.0006934045553251829
1445.0, 0.0005186798643160309
1446.0, 0.00022456533918114072
1447.0, 0.0003936996065726949
1448.0, 0.000727340085127116
1449.0, 0.0003581449635735643
1450.0, 7.663561001037248e-05
1451.0, 0.0005138721419908475
1452.0, 0.0005755114830962705
1453.0, 0.0005041742092396134
1454.0, 0.0006960305320022811
1455.0, 0.0010298104846301979
1456.0, 0.00023204539681892148
1457.0, 0.00039495372346896786
1458.0, 0.0004899290620922953
1459.0, 0.0007375974603779612
1460.0, 0.0008002332691154454
1461.0, 0.0005873845277921256
1462.0, 0.0005052851061701164
1463.0, 0.0003067942748276923
1464.0, 0.000593041238704087
1465.0, 0.0005649281746687
1466.0, 0.00028839335480266713
1467.0, 0.00011044759569407134
1468.0, 0.00023064821492160912
1469.0, 0.0001297780333478995
1470.0, 0.0005150636723288942
1471.0, 0.0008207193585806293
1472.0, 0.0005038006425916269
1473.0, 0.0005552490921071399
1474.0, 0.0012387322235695762
1475.0, 0.0010824490806404937
1476.0, 0.0002913696460182245
1477.0, 0.0006334523116634717
1478.0, 0.0006351219391881693
1479.0, 0.0004972912843613997
1480.0, 0.0005163151920247375
1481.0, 0.0006732234878876215
1482.0, 0.00046861166163933736
1483.0, 0.0009046236120380753
1484.0, 0.0009035808181111872
1485.0, 0.0007724221225307039
1486.0, 0.0008141298443561821
1487.0, 0.0008961685749309352
1488.0, 0.0004902652839504528
1489.0, 0.0002718243334910509
1490.0, 0.0003753405982833445
1491.0, 0.0005729888638533266
1492.0, 0.0007002559023027101
1493.0, 0.0009226029479198714
1494.0, 0.0012065383751495619
1495.0, 0.0005780393138406624
1496.0, 0.0007097286298799128
1497.0, 0.0007863739800359421
1498.0, 0.0004848564606334996
1499.0, 0.0004812332488497228
1500.0, 0.0008681347125715975
1501.0, 0.0008561266933404746
1502.0, 0.00028208595311054064
1503.0, 0.0006999655972396425
1504.0, 0.0004730454582287661
1505.0, 0.0002848519020151252
1506.0, 0.00046641825980376966
1507.0, 0.0007614972929310155
1508.0, 0.0005154965619651801
1509.0, 8.320409089385925e-05
1510.0, 0.0005994069082509528
1511.0, 0.0003368743615266487
1512.0, 0.00013792823934099144
1513.0, 0.0004074757109584278
1514.0, 0.0006914867695580226
1515.0, 0.00037794758140021845
1516.0, 0.0009967652621605282
1517.0, 0.0006753630388205916
1518.0, 0.00033900434644222485
1519.0, 0.0004366801514633385
1520.0, 0.0006113535410531264
1521.0, 0.00014147819876429035
1522.0, 8.153967585552169e-06
1523.0, 2.605119878900793e-07
1524, 0.0
1525, 0.0
1526, 0.0
1527, 0.0
1528, 0.0
1529, 0.0
1530, 0.0
1531, 0.0
1532, 0.0
1533, 0.0
1534, 0.0
1535, 0.0
1536, 0.0
1537, 0.0
1538, 0.0
1539, 0.0
1540, 0.0
1541, 0.0
1542, 0.0
1543, 0.0
1544, 0.0
1545, 0.0
1546, 0.0
1547, 0.0
1548, 0.0
1549, 0.0
1550, 0.0
1551, 0.0
1552, 0.0
1553, 0.0
1554, 0.0
1555, 0.0
1556, 0.0
1557, 0.0
1558, 0.0
1559, 0.0
1560, 0.0
1561, 0.0
1562, 0.0
1563, 0.0
1564, 0.0
1565, 0.0
1566, 0.0
1567, 0.0
1568, 0.0
1569, 0.0
1570, 0.0
1571, 0.0
1572, 0.0
1573, 0.0
1574, 0.0
1575, 0.0
1576, 0.0
1577, 0.0
1578, 0.0
1579, 0.0
1580, 0.0
1581, 0.0
1582, 0.0
1583, 0.0
1584, 0.0
1585, 0.0
1586, 0.0
1587, 0.0
1588, 0.0
1589, 0.0
1590, 0.0
1591, 0.0
1592, 0.0
1593, 0.0
1594, 0.0
1595, 0.0
1596, 0.0
1597, 0.0
1598, 0.0
1599, 0.0
