30, 0.0
31, 0.0
32, 0.0
33, 0.0
34, 0.0
35, 0.0
36, 0.0
37, 0.0
38, 0.0
39, 0.0
40, 0.0
41, 0.0
42, 0.0
43, 0.0
44, 0.0
45, 0.0
46, 0.0
47, 0.0
48, 0.0
49, 0.0
50, 0.0
51, 0.0
52, 0.0
53, 0.0
54, 0.0
55, 0.0
56, 0.0
57, 0.0
58, 0.0
59, 0.0
60, 0.0
61, 0.0
62, 0.0
63, 0.0
64, 0.0
65, 0.0
66, 0.0
67, 0.0
68, 0.0
69, 0.0
70, 0.0
71, 0.0
72, 0.0
73, 0.0
74, 0.0
75, 0.0
76, 0.0
77, 0.0
78, 0.0
79, 0.0
80, 0.0
81, 0.0
82, 0.0
83, 0.0
84, 0.0
85, 0.0
86, 0.0
87, 0.0
88, 0.0
89, 0.0
90, 0.0
91, 0.0
92, 0.0
93, 0.0
94, 0.0
95, 0.0
96, 0.0
97, 0.0
98, 0.0
99, 0.0
100, 0.0
101, 0.0
102, 0.0
103, 0.0
104, 0.0
105, 0.0
106, 0.0
107, 0.0
108, 0.0
109, 0.0
110, 0.0
111, 0.0
112, 0.0
113, 0.0
114, 0.0
115, 0.0
116, 0.0
117, 0.0
118, 0.0
119, 0.0
120, 0.0
121, 0.0
122, 0.0
123, 0.0
124, 0.0
125, 0.0
126, 0.0
127, 0.0
128, 0.0
129, 0.0
130, 0.0
131, 0.0
132, 0.0
133, 0.0
134, 0.0
135, 0.0
136, 0.0
137, 0.0
138, 0.0
139.0, 0.0013965725585098157
140.0, 0.004606209864691877
141.0, 0.010287288039639776
142.0, 0.014616736233618479
143.0, 0.01968817783736025
144.0, 0.02517918055750729
145.0, 0.029861148902109017
146.0, 0.03469604269811429
147.0, 0.038816434224849546
148.0, 0.041854404037390165
149.0, 0.044775370875481675
150.0, 0.04760809986069305
151.0, 0.05020305687029967
152.0, 0.052245450553975836
153.0, 0.054469397008747845
154.0, 0.055962106180595564
155.0, 0.05673407553118486
156.0, 0.05830713348986609
157.0, 0.05921409697714784
158.0, 0.059229485319698266
159.0, 0.05797641302594028
160.0, 0.05856359205068338
161.0, 0.05891039502506066
162.0, 0.0589849548476992
163.0, 0.05905799663174035
164.0, 0.056211908633648375
165.0, 0.0542770611008676
166.0, 0.05463013052177532
167.0, 0.05139609907549604
168.0, 0.05268946911923704
169.0, 0.05433733399889871
170.0, 0.049964778560649514
171.0, 0.05022495765590278
172.0, 0.047792350029022816
173.0, 0.04317153060181595
174.0, 0.047650881448621056
175.0, 0.04745878549934448
176.0, 0.04588373207228088
177.0, 0.04489527933758385
178.0, 0.04776870828904612
179.0, 0.04940753591767888
180.0, 0.050090594661367456
181.0, 0.05072114583701827
182.0, 0.05171372461840144
183.0, 0.051602001999101386
184.0, 0.05030572393784235
185.0, 0.05283409772725381
186.0, 0.05400635634503181
187.0, 0.05528144091104406
188.0, 0.05818333179771897
189.0, 0.05331767273632542
190.0, 0.04982899303829729
191.0, 0.04811676632634935
192.0, 0.0471107229231206
193.0, 0.046267590657461964
194.0, 0.04535389386002738
195.0, 0.044251546572264204
196.0, 0.04238330712805667
197.0, 0.04031805526808301
198.0, 0.03731383247679426
199.0, 0.032129644534560915
200.0, 0.03176977519404515
201.0, 0.029409625604504233
202.0, 0.02558752970438195
203.0, 0.026969130199774767
204.0, 0.02198417800700899
205.0, 0.01795905187424885
206.0, 0.018425312180069174
207.0, 0.01624086979661348
208.0, 0.014508111022002355
209.0, 0.012711010834087565
210.0, 0.009998196925541717
211.0, 0.0060674735351801835
212.0, 0.002652325502792846
213.0, 0.00035648733603937553
214.0, 0.0010931316382661034
215.0, 0.0025661713531865238
216.0, 0.003320058523130132
217.0, 0.002535230281052823
218.0, 0.002765474609142862
219.0, 0.003240934472823601
220.0, 0.004314119592858857
221.0, 0.006697465271065941
222.0, 0.006062606704309448
223.0, 0.005421183465653809
224.0, 0.005277205948008686
225.0, 0.005916104748621443
226.0, 0.0045201257252784535
227.0, 0.0043299018625773105
228.0, 0.006963107635240057
229.0, 0.005083577789872959
230.0, 0.0067068113229814645
231.0, 0.007899804203548431
232.0, 0.0026714744416354726
233.0, 0.004906606091777911
234.0, 0.005258573832907364
235.0, 0.0039766877099572055
236.0, 0.0073746130157860326
237.0, 0.004925228605954943
238.0, 0.001961732162383548
239.0, 0.0006613506290547867
240.0, 0.00029099730059759275
241.0, 0.000391660575042489
242.0, 0.002114599442968323
243.0, 0.007149986928605701
244.0, 0.005580733233881866
245.0, 0.002983176317845248
246.0, 0.0018900778338526605
247.0, 0.009228310418171563
248.0, 0.00861699076377204
249.0, 0.009736057011430838
250.0, 0.014881410144277319
251.0, 0.01483006378622061
252.0, 0.013926795161869074
253.0, 0.013855022279396051
254.0, 0.016144873487048923
255.0, 0.013694923945177654
256.0, 0.016318865904507242
257.0, 0.02050078506487399
258.0, 0.01801733821825564
259.0, 0.02207042930254867
260.0, 0.024226710196077132
261.0, 0.0240961580947542
262.0, 0.029407785128481172
263.0, 0.032911098589312
264.0, 0.0356607517205374
265.0, 0.03821585184012136
266.0, 0.0439940767496003
267.0, 0.04921235126876196
268.0, 0.05587345929023453
269.0, 0.06683395055817898
270.0, 0.07254277860942947
271.0, 0.07878829700577028
272.0, 0.0864976986017272
273.0, 0.09709733194192254
274.0, 0.10389086840708102
275.0, 0.11246240291969349
276.0, 0.12310054022634342
277.0, 0.12337244714681027
278.0, 0.124420376922484
279.0, 0.12422342697637348
280.0, 0.12129006241944207
281.0, 0.11445225351867101
282.0, 0.11074745023357047
283.0, 0.10698904467270368
284.0, 0.09799546976906807
285.0, 0.09093390984467312
286.0, 0.08811285239007592
287.0, 0.0880086645184495
288.0, 0.08437096827870032
289.0, 0.07726347641055396
290.0, 0.07125745696982101
291.0, 0.06738133523480114
292.0, 0.060891530916633345
293.0, 0.056976480849036004
294.0, 0.05367407830314205
295.0, 0.04968361323656936
296.0, 0.04356505356086858
297.0, 0.039697190093710664
298.0, 0.036268562770849985
299.0, 0.030497922099490572
300.0, 0.02608988323391056
301.0, 0.02456130041213583
302.0, 0.025398792559995827
303.0, 0.026689510309594162
304.0, 0.026938682102240253
305.0, 0.02730277102490457
306.0, 0.028165685832150004
307.0, 0.02999405074937779
308.0, 0.02863317643299621
309.0, 0.02698703969212329
310.0, 0.026734772621929064
311.0, 0.029625588037484107
312.0, 0.028959744207763267
313.0, 0.028313027666597664
314.0, 0.03190762050684157
315.0, 0.033131140806209484
316.0, 0.033996588511584186
317.0, 0.0353492474778102
318.0, 0.03891969167753288
319.0, 0.03627988181708851
320.0, 0.03739554603591541
321.0, 0.042135235148114715
322.0, 0.04137967512263067
323.0, 0.04401151874039633
324.0, 0.04692033186237121
325.0, 0.04895455963419082
326.0, 0.05031261017760439
327.0, 0.054746762704405046
328.0, 0.056520233705560266
329.0, 0.051431648531190116
330.0, 0.05957238172261512
331.0, 0.06376507757267122
332.0, 0.06516935364409299
333.0, 0.06503613721844997
334.0, 0.07258384824419702
335.0, 0.07407307181436924
336.0, 0.07376580733560105
337.0, 0.08436349828465511
338.0, 0.08534231285290503
339.0, 0.0882685822807709
340.0, 0.09409288346320731
341.0, 0.09747531369536666
342.0, 0.10542654012992479
343.0, 0.11388865810821856
344.0, 0.12150618295090349
345.0, 0.12878346269570815
346.0, 0.1402608370092195
347.0, 0.15162353850463683
348.0, 0.16035784878002945
349.0, 0.17117889828231958
350.0, 0.18440904325515214
351.0, 0.1978989627814945
352.0, 0.20941272041315628
353.0, 0.23063532640487686
354.0, 0.24364875886494644
355.0, 0.25574858528962413
356.0, 0.28091592695644996
357.0, 0.297619774158255
358.0, 0.31403550117387313
359.0, 0.33237635113377195
360.0, 0.356468850880693
361.0, 0.37109563020199327
362.0, 0.3881204125341374
363.0, 0.4086327482015822
364.0, 0.4251434100154481
365.0, 0.44022374947435133
366.0, 0.4573140559140651
367.0, 0.47544761047192435
368.0, 0.47355424082074526
369.0, 0.4902939087114973
370.0, 0.5015909493378357
371.0, 0.4944293245607219
372.0, 0.5000812027501709
373.0, 0.5032412201318596
374.0, 0.5017200554571379
375.0, 0.4932228714437431
376.0, 0.49742265846557265
377.0, 0.48726842191913844
378.0, 0.472045221555548
379.0, 0.4646416180961908
380.0, 0.45567848961065716
381.0, 0.44532902721220324
382.0, 0.43477928985368897
383.0, 0.42639927132158284
384.0, 0.4130511210753075
385.0, 0.39915376587432555
386.0, 0.3844463586111272
387.0, 0.36625827492181395
388.0, 0.3590836592187961
389.0, 0.3497782182596069
390.0, 0.336096280168633
391.0, 0.3207359362861182
392.0, 0.3145020935389635
393.0, 0.30572168045981646
394.0, 0.2921978109434225
395.0, 0.2853910034717859
396.0, 0.2770514245859765
397.0, 0.2708750676203774
398.0, 0.26799279310637864
399.0, 0.2605591349060348
400.0, 0.25421646244737917
401.0, 0.2483619077382134
402.0, 0.24261429356475908
403.0, 0.23630170862096728
404.0, 0.2282209101451073
405.0, 0.22013413180533503
406.0, 0.2135442371378638
407.0, 0.20476404053523453
408.0, 0.19500374702778775
409.0, 0.18509406267068657
410.0, 0.17599709568068442
411.0, 0.17421809382673406
412.0, 0.16934637139740208
413.0, 0.16163184099274197
414.0, 0.15182200313140395
415.0, 0.15047602086092568
416.0, 0.1458711722029518
417.0, 0.14012851397619946
418.0, 0.1390090745419439
419.0, 0.13594766650347817
420.0, 0.1322699849241258
421.0, 0.1287516422231559
422.0, 0.12694780018970012
423.0, 0.12355213337380555
424.0, 0.12049805655061267
425.0, 0.1179462465477814
426.0, 0.11544179851805139
427.0, 0.1129110636803721
428.0, 0.11043747693325809
429.0, 0.10806926587120184
430.0, 0.10592909550270295
431.0, 0.103951231635443
432.0, 0.10269925486075177
433.0, 0.10241809018995873
434.0, 0.10354628015789359
435.0, 0.10613632873893128
436.0, 0.11060027958243529
437.0, 0.11649525459360484
438.0, 0.12016739023096627
439.0, 0.12612008641203268
440.0, 0.13334665019620764
441.0, 0.1413054512802529
442.0, 0.1486105503006508
443.0, 0.15759025652701947
444.0, 0.17127669841215296
445.0, 0.18916878196245118
446.0, 0.19248543309476296
447.0, 0.2023490982297995
448.0, 0.2121464477809043
449.0, 0.21886767752314537
450.0, 0.22727939534657654
451.0, 0.23302200493303799
452.0, 0.24055060820468446
453.0, 0.2512325514659567
454.0, 0.24619026012926812
455.0, 0.24904052290888765
456.0, 0.255336296529251
457.0, 0.2618579715255719
458.0, 0.25974618296532775
459.0, 0.2513991816692313
460.0, 0.24039652358720057
461.0, 0.22856182089865906
462.0, 0.20168595727076896
463.0, 0.1812556125685531
464.0, 0.15937520314097303
465.0, 0.13083362557732972
466.0, 0.11852536807395454
467.0, 0.10072965651707558
468.0, 0.08366037764984027
469.0, 0.07218216838117077
470.0, 0.0630510944554232
471.0, 0.05210121123674131
472.0, 0.04134789415980911
473.0, 0.03253917776887897
474.0, 0.02931632526189651
475.0, 0.027517711580421173
476.0, 0.026896341488953004
477.0, 0.027115950201759557
478.0, 0.021029628459813716
479.0, 0.02040883566661904
480.0, 0.02103784622769183
481.0, 0.019413084588318863
482.0, 0.01874632339204281
483.0, 0.017168271880441913
484.0, 0.01756307470363891
485.0, 0.022052668925269282
486.0, 0.01569333923051032
487.0, 0.015932069202079506
488.0, 0.01793301894895227
489.0, 0.01776512062188124
490.0, 0.01710720855378308
491.0, 0.014227418063972404
492.0, 0.012448515024773257
493.0, 0.014247510459632096
494.0, 0.01383471810308454
495.0, 0.014799201011410006
496.0, 0.016485844483774627
497.0, 0.018317181674497494
498.0, 0.018062128963893538
499.0, 0.018563504620411175
500.0, 0.018931798610738168
501.0, 0.01862408873736566
502.0, 0.019384514926375152
503.0, 0.019625387847323573
504.0, 0.020086409675979983
505.0, 0.02116557647827852
506.0, 0.021515078223376366
507.0, 0.02219635291909101
508.0, 0.022687697612056506
509.0, 0.022743505551425517
510.0, 0.023162629449767633
511.0, 0.02313449800608351
512.0, 0.023574011115139504
513.0, 0.024547467708543245
514.0, 0.022011781905466297
515.0, 0.02337385326521823
516.0, 0.023433819633956156
517.0, 0.02050985098857293
518.0, 0.020539032250181756
519.0, 0.02256491002984007
520.0, 0.02218475503017785
521.0, 0.018909570471598
522.0, 0.020772955328777626
523.0, 0.02322319498517806
524.0, 0.02685816762061823
525.0, 0.03117485228323619
526.0, 0.03263208071103984
527.0, 0.02905935701369532
528.0, 0.03120897108670155
529.0, 0.03876724062517615
530.0, 0.03806882024299845
531.0, 0.03922300756927693
532.0, 0.042243489788248864
533.0, 0.04535373893836627
534.0, 0.04282108689556753
535.0, 0.04537877136589715
536.0, 0.049920281005321754
537.0, 0.055552098387956494
538.0, 0.06146915867802947
539.0, 0.061813149651738085
540.0, 0.06483803007009226
541.0, 0.07121235135766579
542.0, 0.08007834991589508
543.0, 0.08318918728590727
544.0, 0.09154144656601455
545.0, 0.10200390974371681
546.0, 0.10794241699041175
547.0, 0.11984028536972377
548.0, 0.1318075665279832
549.0, 0.14307454588555338
550.0, 0.15306434020117735
551.0, 0.17248814591030578
552.0, 0.19083713616850037
553.0, 0.21007928254142363
554.0, 0.23252378289420256
555.0, 0.2686569949619071
556.0, 0.30172639208777474
557.0, 0.3365252035702999
558.0, 0.375671468989138
559.0, 0.40300044055681883
560.0, 0.43655591418000717
561.0, 0.4723679116080939
562.0, 0.5041778055609943
563.0, 0.49725605491023084
564.0, 0.4991779200672575
565.0, 0.48828888253275404
566.0, 0.45997393495447203
567.0, 0.43868104020629317
568.0, 0.4182761191733728
569.0, 0.3889460241634025
570.0, 0.35822283049782544
571.0, 0.3645767528484633
572.0, 0.35228219978552056
573.0, 0.3458052070531235
574.0, 0.34804717728610846
575.0, 0.3540375197187486
576.0, 0.35736757379528744
577.0, 0.3632028748195728
578.0, 0.36634418222876003
579.0, 0.35646354063682373
580.0, 0.36196742808014526
581.0, 0.3487964273338621
582.0, 0.326105326037075
583.0, 0.3077216464938051
584.0, 0.29154306934109353
585.0, 0.2701162821097629
586.0, 0.24698580672476328
587.0, 0.22546054142601007
588.0, 0.20817143804367386
589.0, 0.1860448694673536
590.0, 0.1637815303504699
591.0, 0.14439294676858552
592.0, 0.12969122589730975
593.0, 0.12105220418037811
594.0, 0.11153033932567775
595.0, 0.09909225647375348
596.0, 0.08696859470568173
597.0, 0.08225836661878864
598.0, 0.07439132910843996
599.0, 0.06462240417760913
600.0, 0.06396649319630857
601.0, 0.05737225987704449
602.0, 0.04684717631169089
603.0, 0.03796504304207806
604.0, 0.04026988308974204
605.0, 0.03484497546063598
606.0, 0.033942442674038
607.0, 0.03337272749253091
608.0, 0.027554273173374097
609.0, 0.024672983291854116
610.0, 0.02179153868633463
611.0, 0.017348992579061927
612.0, 0.011247814674619081
613.0, 0.01652107968192404
614.0, 0.012238174607649751
615.0, 0.005565728782376628
616.0, 0.0012053213920741037
617.0, 0.006477622345221054
618.0, 0.009311455464005337
619.0, 0.007076063946987699
620.0, 0.0016741022113357172
621.0, 0.0010883265460437117
622.0, 0.0006962384616589211
623.0, 0.0005861954600532418
624.0, 0.001052805074077392
625.0, 0.0025894921291307643
626.0, 0.00116697018378667
627.0, 0.0029590257968957526
628.0, 0.00498080492541546
629.0, 0.0037849090682006963
630.0, 0.0022291496030448447
631.0, 0.0046594671746925855
632.0, 0.006266558053657112
633.0, 0.004594492190992511
634.0, 0.005275187734774609
635.0, 0.007128145361418422
636.0, 0.007701568401264818
637.0, 0.007097348753702993
638.0, 0.009276972018742283
639.0, 0.00793810614519088
640.0, 0.008294760674116835
641.0, 0.009120803522154972
642.0, 0.005732216988239152
643.0, 0.0033943938404063347
644.0, 0.003233874390852245
645.0, 0.0036001054254630265
646.0, 0.0025199817804293007
647.0, 0.006212625469392993
648.0, 0.004118648011330372
649.0, 0.0016040071256607437
650.0, 0.0022095686002042486
651.0, 0.004317025286278699
652.0, 0.0019701776198369214
653.0, 0.00013624863736509413
654.0, 0.00023895814287698224
655.0, 0.0007301653705359917
656.0, 0.003637413770144044
657.0, 0.004448093060030661
658.0, 0.004170537452080515
659.0, 0.006268910290968472
660.0, 0.003341287048014879
661.0, 0.006571077396328544
662.0, 0.01113130937247754
663.0, 0.011620901211899341
664.0, 0.014620355384267227
665.0, 0.01980906582197202
666.0, 0.021856684087576374
667.0, 0.0202759850167309
668.0, 0.029992533554776886
669.0, 0.03182025120888493
670.0, 0.033231960311144164
671.0, 0.03730002388131387
672.0, 0.04665023029881497
673.0, 0.04886829747317692
674.0, 0.05492236840754643
675.0, 0.06378493583648082
676.0, 0.07238508235023419
677.0, 0.07960787680203084
678.0, 0.09224811083955221
679.0, 0.10475419392161417
680.0, 0.11489107742188702
681.0, 0.1376982717653061
682.0, 0.15707479156202767
683.0, 0.17723301987618773
684.0, 0.20386089143739716
685.0, 0.2505803142451389
686.0, 0.2853644294111049
687.0, 0.32747471997426847
688.0, 0.3856665840594445
689.0, 0.4683435558302436
690.0, 0.5314825186799984
691.0, 0.627726033890033
692.0, 0.7285830345977435
693.0, 0.8127517066772256
694.0, 0.8985258755267116
695.0, 0.9671663321547811
696.0, 0.9916288715340784
697.0, 0.9685278796067813
698.0, 0.9198928720238262
699.0, 0.8483126895610158
700.0, 0.7583289833377619
701.0, 0.6604877368486024
702.0, 0.5698702612985196
703.0, 0.48736278487787044
704.0, 0.4166250705533927
705.0, 0.355500505739797
706.0, 0.30237905780925384
707.0, 0.26041318361896215
708.0, 0.2271422121705652
709.0, 0.19659762877578205
710.0, 0.1702151143179168
711.0, 0.15784713230455702
712.0, 0.13015314429318703
713.0, 0.11305227841489
714.0, 0.10356636928017637
715.0, 0.09375890287764178
716.0, 0.0802539231969724
717.0, 0.07892742428874454
718.0, 0.07545355279462122
719.0, 0.06381218786391425
720.0, 0.05969023743944934
721.0, 0.05306649260715528
722.0, 0.04815706062898666
723.0, 0.0457034943493893
724.0, 0.04495807702314813
725.0, 0.034607150986607216
726.0, 0.034005427641516456
727.0, 0.037687464912431655
728.0, 0.03827294562838864
729.0, 0.025129363259799503
730.0, 0.026125304297620416
731.0, 0.026581036140296575
732.0, 0.023456766377938525
733.0, 0.028347397189593546
734.0, 0.02424063180392619
735.0, 0.020538959448030244
736.0, 0.019146609142638202
737.0, 0.020615366831163134
738.0, 0.015725995226846794
739.0, 0.016471491982228113
740.0, 0.01663288550673411
741.0, 0.01320850731381168
742.0, 0.012079633185528658
743.0, 0.018190360137881716
744.0, 0.019985768000224894
745.0, 0.017732452704829815
746.0, 0.017732038522000323
747.0, 0.01990011092456278
748.0, 0.01838372750829825
749.0, 0.014706989934963078
750.0, 0.011111402115703347
751.0, 0.013370522387526382
752.0, 0.013232818244936728
753.0, 0.014186137456840286
754.0, 0.01537591019552212
755.0, 0.011224832109255548
756.0, 0.017515786291639447
757.0, 0.01584523596757656
758.0, 0.011511267433502673
759.0, 0.012064630003614855
760.0, 0.015834578027547813
761.0, 0.016144656407121122
762.0, 0.017353370829813114
763.0, 0.019348836160639992
764.0, 0.01519227325090982
765.0, 0.015431500759872872
766.0, 0.01709813151529683
767.0, 0.015864430170252287
768.0, 0.00790869049340404
769.0, 0.022998634815246718
770.0, 0.02268317204079639
771.0, 0.016485945132287766
772.0, 0.013193228776578567
773.0, 0.02753865957079698
774.0, 0.019300211463366024
775.0, 0.017342943067312603
776.0, 0.01883908604008251
777.0, 0.013629199078344761
778.0, 0.017760129716045216
779.0, 0.022443934311213658
780.0, 0.02222805882289214
781.0, 0.017728875518113904
782.0, 0.024458669680632074
783.0, 0.023727952532870578
784.0, 0.02283200070878803
785.0, 0.02262219918095392
786.0, 0.022476902956581637
787.0, 0.02207609927269718
788.0, 0.021819912008978162
789.0, 0.019847850518700784
790.0, 0.016913783978749136
791.0, 0.020612633730951176
792.0, 0.016434460252340168
793.0, 0.01393656532825712
794.0, 0.013440356206320775
795.0, 0.013005169620452756
796.0, 0.01150622319266471
797.0, 0.008767656518026915
798.0, 0.008827889628425364
799.0, 0.011637085297608495
800.0, 0.008718984281458056
801.0, 0.008888761036596856
802.0, 0.01114225370202476
803.0, 0.011685824333824014
804.0, 0.006479388806699741
805.0, 0.0075958581988586505
806.0, 0.008784513745020468
807.0, 0.008138113139075571
808.0, 0.0064221471421251775
809.0, 0.009010073421171253
810.0, 0.005012191901364833
811.0, 0.0051624452337486965
812.0, 0.007143884050822222
813.0, 0.0068204835102490214
814.0, 0.0018774867096933174
815.0, 0.007617770893406585
816.0, 0.011204663471394826
817.0, 0.009931148347790353
818.0, 0.009546486281158329
819.0, 0.004522330338259396
820.0, 0.003428968303315709
821.0, 0.004122739556260407
822.0, 0.004037989790681253
823.0, 0.0028747787291773155
824.0, 0.004852925403988318
825.0, 0.004031800729281465
826.0, 0.001017932765004658
827.0, 0.0002673743636557869
828.0, 0.002842776628814777
829.0, 0.0020276072364347262
830.0, 0.0015282319183164536
831.0, 0.0028542813080511854
832.0, 0.0005214016179163866
833.0, 0.0035534129929317296
834.0, 0.0053311667387921395
835.0, 0.005336113307059855
836.0, 0.00468924980698293
837.0, 0.005077021529891583
838.0, 0.0027941616364542893
839.0, 0.0027696370737149392
840.0, 0.004901661244403924
841.0, 0.0018464970206267214
842.0, 0.0010488471199344366
843.0, 0.0017070689528895047
844.0, 0.004244256662882807
845.0, 0.008165106807228716
846.0, 0.005693981122002704
847.0, 0.004755362623459195
848.0, 0.003450903776868089
849.0, 0.0018024627540335334
850.0, 0.0008968386004326596
851.0, 0.007794401097811399
852.0, 0.005106482369314439
853.0, 0.0031018399807375132
854.0, 0.005706149700426922
855.0, 0.0015033737745591912
856.0, 0.00542331016822554
857.0, 0.008511122852184206
858.0, 0.008867413269873973
859.0, 0.006576776846613192
860.0, 0.010009185910822392
861.0, 0.007115570332775403
862.0, 0.00528382556285415
863.0, 0.007154238078684068
864.0, 0.012498110535924497
865.0, 0.007488631149323065
866.0, 0.005589906831207305
867.0, 0.007625719212052481
868.0, 0.011437692517402107
869.0, 0.006469402568101648
870.0, 0.008866303226321481
871.0, 0.007234158171933155
872.0, 0.00530130533822893
873.0, 0.00935141629427685
874.0, 0.01088297606716611
875.0, 0.012414897025953862
876.0, 0.014076772663407403
877.0, 0.015518220002094447
878.0, 0.01589201465845734
879.0, 0.015301199555412854
880.0, 0.015924141134126057
881.0, 0.014608129031542485
882.0, 0.01068941172065124
883.0, 0.010311942654395743
884.0, 0.017417963719631942
885.0, 0.017182803555411994
886.0, 0.014892618238199533
887.0, 0.017659901306738418
888.0, 0.01230459879411468
889.0, 0.014996956504963953
890.0, 0.019191381250049683
891.0, 0.02241493191842489
892.0, 0.023957511137272743
893.0, 0.027034120774903747
894.0, 0.028149695135941018
895.0, 0.0299607375751737
896.0, 0.03371883307639905
897.0, 0.03871807030954386
898.0, 0.03768594961514934
899.0, 0.039184560317440206
900.0, 0.042564674497709114
901.0, 0.0459544613803955
902.0, 0.045968552690373615
903.0, 0.058419035662042915
904.0, 0.061115222383049846
905.0, 0.05866817571413926
906.0, 0.06372261019021219
907.0, 0.07679393202236688
908.0, 0.07541678607124061
909.0, 0.07999027996009393
910.0, 0.09036993243196709
911.0, 0.09038874644256457
912.0, 0.09759246866040461
913.0, 0.10380985766243427
914.0, 0.10976798847324155
915.0, 0.1160811755746448
916.0, 0.12302490740276846
917.0, 0.1294528385948119
918.0, 0.13556042148674952
919.0, 0.1429563989086061
920.0, 0.15273938972685588
921.0, 0.16353997758143582
922.0, 0.17565822395089756
923.0, 0.19418880564785737
924.0, 0.2123220645400138
925.0, 0.22277073786840174
926.0, 0.25474206204574307
927.0, 0.2783591701393414
928.0, 0.3144881854779923
929.0, 0.360895148877989
930.0, 0.4018531344662331
931.0, 0.4503772469463255
932.0, 0.5101821297848842
933.0, 0.5752913732947841
934.0, 0.6408791944882631
935.0, 0.702541119149553
936.0, 0.7675860952347734
937.0, 0.8171177195767635
938.0, 0.850681485410843
939.0, 0.8674116015666234
940.0, 0.8609001397982138
941.0, 0.8353865579923819
942.0, 0.8062982902070102
943.0, 0.7633635949176454
944.0, 0.6996138562987319
945.0, 0.6322353096301173
946.0, 0.5798387457321081
947.0, 0.5248397061905715
948.0, 0.4746276233320865
949.0, 0.4388342829163194
950.0, 0.39530238512522875
951.0, 0.3673323215779178
952.0, 0.34072742816811724
953.0, 0.312837782581843
954.0, 0.2859629673193741
955.0, 0.26947747359672664
956.0, 0.24839630122443587
957.0, 0.2309402444046659
958.0, 0.21973303806666258
959.0, 0.21351379016322122
960.0, 0.19154682122942157
961.0, 0.18764453456466723
962.0, 0.18177060912845702
963.0, 0.1673663938713943
964.0, 0.1523750332884102
965.0, 0.14990720415151823
966.0, 0.13939820695828037
967.0, 0.13338278879304413
968.0, 0.13298784882661127
969.0, 0.11797588655861252
970.0, 0.11975038075636696
971.0, 0.11777217219649025
972.0, 0.11105091699655942
973.0, 0.10246873119623816
974.0, 0.10139127857372947
975.0, 0.09704171206473565
976.0, 0.09219357788504812
977.0, 0.08958011557428137
978.0, 0.08913903045361113
979.0, 0.08108040680564298
980.0, 0.07958281001921405
981.0, 0.08165170862850835
982.0, 0.07745687495684701
983.0, 0.06383720273187264
984.0, 0.07478013438469244
985.0, 0.06705499608301518
986.0, 0.06278523371318326
987.0, 0.06382938681727711
988.0, 0.06617289691552167
989.0, 0.059094856941296736
990.0, 0.05679487801011565
991.0, 0.05695671006283921
992.0, 0.05556255320146367
993.0, 0.05022722402627478
994.0, 0.05694975593084964
995.0, 0.05264343788783911
996.0, 0.04930046892467571
997.0, 0.05008438121317714
998.0, 0.05327295746388381
999.0, 0.039397077452465824
1000.0, 0.046587378823597606
1001.0, 0.04906269372243623
1002.0, 0.046356269805945066
1003.0, 0.047125449214184566
1004.0, 0.040584282283510215
1005.0, 0.03692669070625048
1006.0, 0.0356708611163679
1007.0, 0.03853927361985601
1008.0, 0.04660871348406819
1009.0, 0.038550740636306126
1010.0, 0.040836656970062966
1011.0, 0.03856673226021477
1012.0, 0.03474396103344522
1013.0, 0.039890838668562315
1014.0, 0.03773481347394128
1015.0, 0.039898953141038855
1016.0, 0.03861462629722005
1017.0, 0.03508194373655348
1018.0, 0.034789295161139266
1019.0, 0.034128698911143826
1020.0, 0.0369061896100173
1021.0, 0.03579973865506259
1022.0, 0.0321634429280535
1023.0, 0.03184628739770648
1024.0, 0.0374601256289106
1025.0, 0.03332501060484302
1026.0, 0.03007705523638846
1027.0, 0.029663756038914895
1028.0, 0.029445562430987178
1029.0, 0.023725954609679214
1030.0, 0.03128679092026469
1031.0, 0.03162825544422561
1032.0, 0.02777038425660834
1033.0, 0.03156345706405916
1034.0, 0.02662581751213099
1035.0, 0.02360797207239881
1036.0, 0.026374406557068346
1037.0, 0.029335594199659483
1038.0, 0.024918475225430566
1039.0, 0.026617746438059097
1040.0, 0.03253698552886274
1041.0, 0.02903438574643835
1042.0, 0.02366989276434373
1043.0, 0.02870821750289703
1044.0, 0.032010713994208996
1045.0, 0.028337535639019616
1046.0, 0.03372923488128298
1047.0, 0.04029201683515637
1048.0, 0.036786233080659196
1049.0, 0.035367440800821305
1050.0, 0.03834324331509503
1051.0, 0.0359492925553836
1052.0, 0.03321377038719602
1053.0, 0.03447160857686084
1054.0, 0.024866512142054285
1055.0, 0.028056094713391554
1056.0, 0.03414805469853279
1057.0, 0.030873119838976656
1058.0, 0.016483844388880144
1059.0, 0.025243122937371743
1060.0, 0.020117725372164393
1061.0, 0.018057812254032808
1062.0, 0.019045092323442304
1063.0, 0.019743646049861917
1064.0, 0.014024004547902775
1065.0, 0.017472787480169755
1066.0, 0.014476301334997483
1067.0, 0.010837383167459394
1068.0, 0.010452340965647273
1069.0, 0.010997022369807983
1070.0, 0.011163282314456643
1071.0, 0.009619146177273906
1072.0, 0.011021780501505785
1073.0, 0.013529205364971373
1074.0, 0.00741171362584358
1075.0, 0.011878595493838044
1076.0, 0.016048184597713365
1077.0, 0.01443791754951219
1078.0, 0.010034905780971286
1079.0, 0.011826090907011214
1080.0, 0.004920595373552642
1081.0, 0.00644596988514703
1082.0, 0.00926228399410921
1083.0, 0.009651248092884207
1084.0, 0.0062780037971496465
1085.0, 0.002902822358251782
1086.0, 0.006745626310912148
1087.0, 0.00944005812762743
1088.0, 0.010531896836054494
1089.0, 0.010765713192143584
1090.0, 0.0026801115438143666
1091.0, 0.0014891787818077085
1092.0, 0.0008019674847528005
1093.0, 0.0011524939740517079
1094.0, 0.002794979103696788
1095.0, 0.0011515599847080598
1096.0, 0.0007987853945614173
1097.0, 0.0038166140472649774
1098.0, 0.007088067298955018
1099.0, 0.007170301794319848
1100.0, 0.0010428976818315874
1101.0, 0.00640139741551975
1102.0, 0.0033018745846259204
1103.0, 0.0008768933085417494
1104.0, 0.0025946987506831986
1105.0, 0.005021931138683772
1106.0, 0.0016393446907268597
1107.0, 0.001672117113139924
1108.0, 0.001966865821747417
1109.0, 0.002449413571596337
1110.0, 0.004055419110557252
1111.0, 0.0007468274791290054
1112.0, 0.004375014794328095
1113.0, 0.005029027713896603
1114.0, 0.006089130945225538
1115.0, 0.01057872014743164
1116.0, 0.0035328851482560836
1117.0, 0.0014023486861807996
1118.0, 0.005452595330073332
1119.0, 0.006125594431395358
1120.0, 0.0014288024711466623
1121.0, 0.0075942029679114086
1122.0, 0.01176508820404461
1123.0, 0.011829053090939247
1124.0, 0.010800335683806851
1125.0, 0.00996124542044074
1126.0, 0.008667749112521309
1127.0, 0.01159169812836944
1128.0, 0.006979130343983056
1129.0, 0.003379559999055307
1130.0, 0.002129045370327965
1131.0, 0.001131494962284191
1132.0, 0.001287459426244677
1133.0, 0.0008050422600449715
1134.0, 0.003439841321455164
1135.0, 0.004460028471830281
1136.0, 0.0015933345635289681
1137.0, 0.005389747092682311
1138.0, 0.001420803440362483
1139.0, 0.0010331948831647925
1140.0, 0.005016784310018777
1141.0, 0.008584922825428803
1142.0, 0.0016308384106665085
1143.0, 0.00035370900522717775
1144.0, 0.0012885852368418984
1145.0, 0.0016466056884119455
1146.0, 0.002650619980262602
1147.0, 0.006319278583241408
1148.0, 0.0011653538479880978
1149.0, 0.000698046362541086
1150.0, 0.00506172364814097
1151.0, 0.008415866108678225
1152.0, 0.005986002230258152
1153.0, 0.0005169378234600643
1154.0, 0.0030381601149347933
1155.0, 0.00545557012301287
1156.0, 0.0064782823925001514
1157.0, 0.008066275634841767
1158.0, 0.014642445373783432
1159.0, 0.004821680016453002
1160.0, 0.01226008068467346
1161.0, 0.009998886259613995
1162.0, 0.002911948538956451
1163.0, 0.007011198148223713
1164.0, 0.0053308518112478494
1165.0, 0.006315175335600411
1166.0, 0.005650334012100051
1167.0, 0.005976755896437474
1168.0, 0.007529531032740431
1169.0, 0.0029329024340444152
1170.0, 0.010531985549099284
1171.0, 0.0050134162612911785
1172.0, 0.002491506828464066
1173.0, 0.007264797546083364
1174.0, 0.012238696660094549
1175.0, 0.010863547259264464
1176.0, 0.009444200709062605
1177.0, 0.009904510067641292
1178.0, 0.009887814067467634
1179.0, 0.008543553441881457
1180.0, 0.013859599456349634
1181.0, 0.013421722841347785
1182.0, 0.009885553400966123
1183.0, 0.010628508980866274
1184.0, 0.013836598580695343
1185.0, 0.008519377823286045
1186.0, 0.015407012236946164
1187.0, 0.018988931442074617
1188.0, 0.014387374146348157
1189.0, 0.01200687800750551
1190.0, 0.018822872072235906
1191.0, 0.0032257738031700317
1192.0, 0.011167689079727514
1193.0, 0.01849973140915125
1194.0, 0.01806271989664544
1195.0, 0.01221743381691507
1196.0, 0.012483713540076559
1197.0, 0.018250292026762687
1198.0, 0.012788419628758114
1199.0, 0.013769923208102252
1200.0, 0.014225845094087511
1201.0, 0.0050185191016964
1202.0, 0.017475424200444487
1203.0, 0.01976546539089615
1204.0, 0.009907852942784828
1205.0, 0.008970178427560496
1206.0, 0.01909650471681676
1207.0, 0.014766006243958022
1208.0, 0.007361562075993779
1209.0, 0.014664727481853096
1210.0, 0.016699537889799842
1211.0, 0.013605034984543053
1212.0, 0.013910961575813523
1213.0, 0.022382586304998377
1214.0, 0.016963787422583154
1215.0, 0.014790818967138892
1216.0, 0.018153249327470786
1217.0, 0.02043450690686135
1218.0, 0.009397924108540692
1219.0, 0.016680585958941483
1220.0, 0.021006223147630246
1221.0, 0.01939220151396346
1222.0, 0.017834266517126968
1223.0, 0.02073227043785498
1224.0, 0.01766044433182663
1225.0, 0.01420180969858876
1226.0, 0.020890875297563463
1227.0, 0.020237939879130324
1228.0, 0.013274353841852899
1229.0, 0.0171141884960595
1230.0, 0.022825575081644955
1231.0, 0.016624262665741726
1232.0, 0.020083969072070714
1233.0, 0.020249158323849128
1234.0, 0.010934239308850211
1235.0, 0.017826217087828874
1236.0, 0.014054985360268415
1237.0, 0.014181919766278517
1238.0, 0.01504242720672009
1239.0, 0.015116246454402025
1240.0, 0.014721657955642228
1241.0, 0.016754737913633876
1242.0, 0.019188533734685216
1243.0, 0.013673909385163099
1244.0, 0.009639085280685168
1245.0, 0.0136710152516063
1246.0, 0.02365260380547754
1247.0, 0.01253166957148716
1248.0, 0.01760073258164863
1249.0, 0.018249633094323564
1250.0, 0.013739304148433442
1251.0, 0.011726421339196227
1252.0, 0.022213357266645348
1253.0, 0.02068834353164879
1254.0, 0.0292985205364225
1255.0, 0.030175223747610207
1256.0, 0.021505890234342108
1257.0, 0.013859543852005314
1258.0, 0.013116754704202064
1259.0, 0.015252432175925864
1260.0, 0.014902495895161
1261.0, 0.01782202541213012
1262.0, 0.019179599492770538
1263.0, 0.002341543187087335
1264.0, 0.01244665995325602
1265.0, 0.0202029450159019
1266.0, 0.014813313071137675
1267.0, 0.009935534189413729
1268.0, 0.016434894502841642
1269.0, 0.019694608559706697
1270.0, 0.016652561199813374
1271.0, 0.015964233448589344
1272.0, 0.014660877998659705
1273.0, 0.013130951217370863
1274.0, 0.01355178443403327
1275.0, 0.01640058474040581
1276.0, 0.012106236007942929
1277.0, 0.013328312627205414
1278.0, 0.010907380086323294
1279.0, 0.006854623626503648
1280.0, 0.012880449802659979
1281.0, 0.014123136082399707
1282.0, 0.007252586821516678
1283.0, 0.0037621785361134424
1284.0, 0.009682115610972934
1285.0, 0.017421515313704557
1286.0, 0.004643394378486442
1287.0, 0.005878899983669604
1288.0, 0.005384868743648837
1289.0, 0.0028802077889585965
1290.0, 0.00565966117384412
1291.0, 0.014627527245350325
1292.0, 0.01140402652765522
1293.0, 0.0027165169238392425
1294.0, 0.006370291709306489
1295.0, 0.008696429356286176
1296.0, 0.009516422244546557
1297.0, 0.012742274287098785
1298.0, 0.009505151331702398
1299.0, 0.009754830958348145
1300.0, 0.008912006328451396
1301.0, 0.00765481587767552
1302.0, 0.006159296167083717
1303.0, 0.004071854067051599
1304.0, 0.0016281859795011133
1305.0, 0.002736759242046776
1306.0, 0.004277485250271058
1307.0, 0.006227930520425461
1308.0, 0.007715506257005219
1309.0, 0.007731545139083692
1310.0, 0.013006508094307555
1311.0, 0.005030649017410575
1312.0, 0.004991021996431114
1313.0, 0.008630117585169338
1314.0, 0.008579190150662209
1315.0, 0.0018396028344806737
1316.0, 0.004225558409612961
1317.0, 0.011751033307248658
1318.0, 0.00751710642901768
1319.0, 0.002339573527296115
1320.0, 0.004984029851332798
1321.0, 0.009610279183442946
1322.0, 0.010324599706661929
1323.0, 0.013779980284689193
1324.0, 0.01214655831830755
1325.0, 0.006360344040586458
1326.0, 0.005034741760918066
1327.0, 0.022412714405786908
1328.0, 0.005676060574528932
1329.0, 0.006261643610978541
1330.0, 0.011150640229690569
1331.0, 0.010168691231078959
1332.0, 0.003532625967502077
1333.0, 0.008615001457031642
1334.0, 0.007709839372299966
1335.0, 0.0025684408219240878
1336.0, 0.007602248888859728
1337.0, 0.012559983637388826
1338.0, 0.007998667605107486
1339.0, 0.009920472798831858
1340.0, 0.012648796098766726
1341.0, 0.006983605949555177
1342.0, 0.011008165364246265
1343.0, 0.018092429632940315
1344.0, 0.01569523346914948
1345.0, 0.005455610740997606
1346.0, 0.014100027729163035
1347.0, 0.01807436540146279
1348.0, 0.009975824223045451
1349.0, 0.006378866485292201
1350.0, 0.016832196761931123
1351.0, 0.009006532123466611
1352.0, 0.005607128341030133
1353.0, 0.01702246988468425
1354.0, 0.016640274829799687
1355.0, 0.009081987317728614
1356.0, 0.00954698311749064
1357.0, 0.02077554375139039
1358.0, 0.006101186178272744
1359.0, 0.014698395188585171
1360.0, 0.015852165426045704
1361.0, 0.010524371357924231
1362.0, 0.014724076555970855
1363.0, 0.04189615065087347
1364.0, 0.020638952323106217
1365.0, 0.01677078857168577
1366.0, 0.01852243591214972
1367.0, 0.016018471429626664
1368.0, 0.0085774508220433
1369.0, 0.010057103661031479
1370.0, 0.011535919248256048
1371.0, 0.004315571796190003
1372.0, 0.0074260672447590695
1373.0, 0.011208853534968515
1374.0, 0.006361207967017008
1375.0, 0.0026884832991359723
1376.0, 0.013505875329129842
1377.0, 0.008928332651500429
1378.0, 0.008778510229754852
1379.0, 0.011938772157812442
1380.0, 0.011727008956222352
1381.0, 0.005701163443803923
1382.0, 0.0231738952240733
1383.0, 0.02341041027575665
1384.0, 0.013295316933906513
1385.0, 0.015233855302105494
1386.0, 0.02618499677239731
1387.0, 0.0164974452016851
1388.0, 0.021324351116981312
1389.0, 0.02253703478517022
1390.0, 0.015348450615535478
1391.0, 0.013530219523586004
1392.0, 0.021037208578660548
1393.0, 0.027321901130105686
1394.0, 0.013714410223881026
1395.0, 0.022025550790784665
1396.0, 0.022912340470565912
1397.0, 0.020173448687264544
1398.0, 0.02007010961127362
1399.0, 0.023442706623021368
1400.0, 0.01643446490202602
1401.0, 0.020776237180700013
1402.0, 0.023978531124744407
1403.0, 0.018707605927955083
1404.0, 0.014736022106147956
1405.0, 0.02090193495530847
1406.0, 0.021098270950482646
1407.0, 0.010470227344780807
1408.0, 0.01694852592644655
1409.0, 0.017687831012184466
1410.0, 0.014240044275330483
1411.0, 0.015114766289762771
1412.0, 0.02123851456694334
1413.0, 0.013296651979577667
1414.0, 0.02057585456787314
1415.0, 0.020696429827223164
1416.0, 0.01658856043624527
1417.0, 0.014923114066049856
1418.0, 0.01755952362656425
1419.0, 0.020718102595023862
1420.0, 0.010832994314439522
1421.0, 0.01768188608924559
1422.0, 0.018761436304694665
1423.0, 0.010153614596799603
1424.0, 0.008126202608337693
1425.0, 0.022318675490114688
1426.0, 0.008102123246073394
1427.0, 0.009796449239530982
1428.0, 0.012912006631740195
1429.0, 0.00995454281946409
1430.0, 0.006234525034242319
1431.0, 0.01966663734726674
1432.0, 0.021067460330564627
1433.0, 0.01456160335598056
1434.0, 0.015472288826404236
1435.0, 0.015181211908868454
1436.0, 0.008645180680770389
1437.0, 0.0056058518572750645
1438.0, 0.010180903655066076
1439.0, 0.006016793732792245
1440.0, 0.008412081791386352
1441.0, 0.018350477350975135
1442.0, 0.021546091376496247
1443.0, 0.007866898371142024
1444.0, 0.01790264295479432
1445.0, 0.019201283177498824
1446.0, 0.013405094546196396
1447.0, 0.015349153848689722
1448.0, 0.018387133869107106
1449.0, 0.013154526307998602
1450.0, 0.007512163440646541
1451.0, 0.02480256669548752
1452.0, 0.009769163955189024
1453.0, 0.011930144285510503
1454.0, 0.020175666767895496
1455.0, 0.01902649195211727
1456.0, 0.010159949137560657
1457.0, 0.013934949718538673
1458.0, 0.02272608546150661
1459.0, 0.017052855895135187
1460.0, 0.020668856478051924
1461.0, 0.025675822604744485
1462.0, 0.017864490179859544
1463.0, 0.019711160057705096
1464.0, 0.02920922389437327
1465.0, 0.019442001454952958
1466.0, 0.015287683429125034
1467.0, 0.01982098234685052
1468.0, 0.021877528665903513
1469.0, 0.010255462485085572
1470.0, 0.02223299280776718
1471.0, 0.017885532761048872
1472.0, 0.016420271894694458
1473.0, 0.02012607929038191
1474.0, 0.022219369233319124
1475.0, 0.01658043480725052
1476.0, 0.009929407689178136
1477.0, 0.019019393154290083
1478.0, 0.019570894864950426
1479.0, 0.014927826193304064
1480.0, 0.01778618228394598
1481.0, 0.024022109328969993
1482.0, 0.01470677116210661
1483.0, 0.01601811407838221
1484.0, 0.018498358626025967
1485.0, 0.007394566255503013
1486.0, 0.013113244961294086
1487.0, 0.02227733671549686
1488.0, 0.012875563635729465
1489.0, 0.005923748568527261
1490.0, 0.02005376764640183
1491.0, 0.014381532286887974
1492.0, 0.010721085915204709
1493.0, 0.016798765116006975
1494.0, 0.019653759468727945
1495.0, 0.004827872916489873
1496.0, 0.016922514387300976
1497.0, 0.023052164301280268
1498.0, 0.012401805711299977
1499.0, 0.012095073270379881
1500.0, 0.018123772559217686
1501.0, 0.01575400908874182
1502.0, 0.0031856719121092928
1503.0, 0.015672496035992335
1504.0, 0.012573889356847088
1505.0, 0.010168663293528975
1506.0, 0.01818500499593736
1507.0, 0.020817948781018843
1508.0, 0.0052323633776706095
1509.0, 0.008607421590424661
1510.0, 0.02663836916079986
1511.0, 0.011634868349722872
1512.0, 0.009264407481106051
1513.0, 0.01638769060080487
1514.0, 0.01561454701590291
1515.0, 0.003162364434442306
1516.0, 0.025282060284122734
1517.0, 0.01036050156043821
1518.0, 0.0036907293999234913
1519.0, 0.01547158773536634
1520.0, 0.01808852841435815
1521.0, 0.0015390203936300234
1522, 0.0
1523, 0.0
1524, 0.0
1525, 0.0
1526, 0.0
1527, 0.0
1528, 0.0
1529, 0.0
1530, 0.0
1531, 0.0
1532, 0.0
1533, 0.0
1534, 0.0
1535, 0.0
1536, 0.0
1537, 0.0
1538, 0.0
1539, 0.0
1540, 0.0
1541, 0.0
1542, 0.0
1543, 0.0
1544, 0.0
1545, 0.0
1546, 0.0
1547, 0.0
1548, 0.0
1549, 0.0
1550, 0.0
1551, 0.0
1552, 0.0
1553, 0.0
1554, 0.0
1555, 0.0
1556, 0.0
1557, 0.0
1558, 0.0
1559, 0.0
1560, 0.0
1561, 0.0
1562, 0.0
1563, 0.0
1564, 0.0
1565, 0.0
1566, 0.0
1567, 0.0
1568, 0.0
1569, 0.0
1570, 0.0
1571, 0.0
1572, 0.0
1573, 0.0
1574, 0.0
1575, 0.0
1576, 0.0
1577, 0.0
1578, 0.0
1579, 0.0
1580, 0.0
1581, 0.0
1582, 0.0
1583, 0.0
1584, 0.0
1585, 0.0
1586, 0.0
1587, 0.0
1588, 0.0
1589, 0.0
1590, 0.0
1591, 0.0
1592, 0.0
1593, 0.0
1594, 0.0
1595, 0.0
1596, 0.0
1597, 0.0
1598, 0.0
1599, 0.0
