30, 0.0
31, 0.0
32, 0.0
33, 0.0
34, 0.0
35, 0.0
36, 0.0
37, 0.0
38, 0.0
39, 0.0
40, 0.0
41, 0.0
42, 0.0
43, 0.0
44, 0.0
45, 0.0
46, 0.0
47, 0.0
48, 0.0
49, 0.0
50, 0.0
51, 0.0
52, 0.0
53, 0.0
54, 0.0
55, 0.0
56, 0.0
57, 0.0
58, 0.0
59, 0.0
60, 0.0
61, 0.0
62, 0.0
63, 0.0
64, 0.0
65, 0.0
66, 0.0
67, 0.0
68, 0.0
69, 0.0
70, 0.0
71, 0.0
72, 0.0
73, 0.0
74, 0.0
75, 0.0
76, 0.0
77, 0.0
78, 0.0
79, 0.0
80, 0.0
81, 0.0
82, 0.0
83, 0.0
84, 0.0
85, 0.0
86, 0.0
87, 0.0
88, 0.0
89, 0.0
90, 0.0
91, 0.0
92.0, 0.0004287242004658281
93.0, 0.0018384884660420716
94.0, 0.0016151710450186428
95.0, 0.002681737081357467
96.0, 0.003324032721247094
97.0, 0.0027711693403660604
98.0, 0.004088454884126351
99.0, 0.005268004175331089
100.0, 0.003907952264183526
101.0, 0.0012257477605562299
102.0, 0.0018986300425341744
103.0, 0.0029157111507366537
104.0, 0.004366717327427622
105.0, 0.005683091813236085
106.0, 0.00648989117042548
107.0, 0.009510808716260684
108.0, 0.011171570311964758
109.0, 0.011857644270615317
110.0, 0.01205662856251738
111.0, 0.012596874049662993
112.0, 0.014117794233321976
113.0, 0.013127102592362085
114.0, 0.00756947963611499
115.0, 0.006070002693969604
116.0, 0.005027811349820842
117.0, 0.006426905273366407
118.0, 0.009479143391333423
119.0, 0.006344781596461963
120.0, 0.004782140799842691
121.0, 0.003327039174694559
122.0, 0.0014928080683707886
123.0, 0.00081873385069868
124.0, 0.00018490927530634193
125.0, 0.00019724410674954208
126.0, 0.0012177982476743853
127.0, 0.004283237193216306
128.0, 0.003265888233153245
129.0, 0.0017918135532636117
130.0, 0.0012401004422637133
131.0, 0.0006261901658546592
132.0, 0.00260461326090771
133.0, 0.0019599904434280183
134.0, 0.0005989289975764018
135.0, 0.0011235492633262802
136.0, 0.0009723730084318376
137.0, 0.004167568355906142
138.0, 0.008050033762393103
139.0, 0.011373204677291884
140.0, 0.016039967444927805
141.0, 0.023651520472789005
142.0, 0.03150322340940261
143.0, 0.03920211234670245
144.0, 0.046600781206172746
145.0, 0.04409093845431508
146.0, 0.032488141982466974
147.0, 0.020219527392206962
148.0, 0.013622653887990709
149.0, 0.012521687939217669
150.0, 0.01823631419694225
151.0, 0.024007425624110446
152.0, 0.026769292407902677
153.0, 0.029250470421829967
154.0, 0.033348202542048545
155.0, 0.03817410051236909
156.0, 0.04120954377228296
157.0, 0.04137659142296336
158.0, 0.04766568677900692
159.0, 0.04900277979970128
160.0, 0.04861530314286231
161.0, 0.05051546675068073
162.0, 0.050380142571312535
163.0, 0.04865202225537725
164.0, 0.0478115393865202
165.0, 0.04926516375422791
166.0, 0.05255721108177151
167.0, 0.05571368666424558
168.0, 0.05624782807030961
169.0, 0.05810197910842044
170.0, 0.0639506266100319
171.0, 0.06663654702156892
172.0, 0.06184042207465382
173.0, 0.055598253572728414
174.0, 0.05426533855487418
175.0, 0.05936673080605157
176.0, 0.05821124115398728
177.0, 0.05195109685006151
178.0, 0.046837506689065854
179.0, 0.04875043281195556
180.0, 0.049529086783799754
181.0, 0.047149102049445946
182.0, 0.043704488148902
183.0, 0.04170274661333773
184.0, 0.04061379600928194
185.0, 0.038534273485611004
186.0, 0.03644331506499502
187.0, 0.03542659744716969
188.0, 0.035772225655311914
189.0, 0.03399818584958957
190.0, 0.033293159640938014
191.0, 0.034499562793520795
192.0, 0.03572259586208454
193.0, 0.03525394666075176
194.0, 0.03515257621002121
195.0, 0.03346725441602893
196.0, 0.030153645343436813
197.0, 0.031828313856162374
198.0, 0.032637909426886436
199.0, 0.03272933284535914
200.0, 0.033361838778824426
201.0, 0.03494687353267154
202.0, 0.03498252450490945
203.0, 0.036768565215865766
204.0, 0.03862131547004228
205.0, 0.038790352913792216
206.0, 0.04301201304059901
207.0, 0.047170208786624854
208.0, 0.052307560583612564
209.0, 0.05931268346815341
210.0, 0.06664801790991703
211.0, 0.06727192864057051
212.0, 0.061095832849118764
213.0, 0.05262151929289434
214.0, 0.04650604297280944
215.0, 0.05291170835504944
216.0, 0.06686580287851206
217.0, 0.08790880367591881
218.0, 0.11230463700366956
219.0, 0.12699946879336527
220.0, 0.133545464784811
221.0, 0.13228761179835236
222.0, 0.13371824608596372
223.0, 0.1487030321627847
224.0, 0.16352419525360035
225.0, 0.17958740107794616
226.0, 0.20063603350490614
227.0, 0.22629483268551973
228.0, 0.24977951697002024
229.0, 0.2761497720101056
230.0, 0.3115265637712251
231.0, 0.3611120270697869
232.0, 0.4290351561087901
233.0, 0.5176794931495833
234.0, 0.6208804868546839
235.0, 0.7377542082372277
236.0, 0.8047668211896604
237.0, 0.6898571397198953
238.0, 0.44089945926457563
239.0, 0.23599474665886244
240.0, 0.12387442917270611
241.0, 0.07630783969242295
242.0, 0.04839010775397041
243.0, 0.03422763378118809
244.0, 0.02564133458803911
245.0, 0.01903802671950757
246.0, 0.01684316628239422
247.0, 0.014594081057449696
248.0, 0.01255211455859547
249.0, 0.01085455821411471
250.0, 0.009518826193018875
251.0, 0.00948564005689277
252.0, 0.01063563366345531
253.0, 0.01055288252195211
254.0, 0.010436336572327273
255.0, 0.015093747835057552
256.0, 0.017466979876628673
257.0, 0.018279120051420933
258.0, 0.01843120207549294
259.0, 0.016614093883734832
260.0, 0.007260453430098022
261.0, 0.003787243901392702
262.0, 0.001889873829400274
263.0, 0.00057351192683001
264.0, 0.000909404209679683
265.0, 0.00012002250548017761
266.0, 0.0005978796709941676
267.0, 0.000256593491024552
268.0, 0.000618140966984151
269.0, 0.00018964930639529115
270.0, 0.0034973927908545483
271.0, 0.004613486570587555
272.0, 0.003716962738880133
273.0, 0.004045387853554108
274.0, 0.00269207946554525
275.0, 0.0015143595388823793
276.0, 0.0012180972294094825
277.0, 0.0012333383305903394
278.0, 0.000386131117820928
279.0, 0.0020720721461986017
280.0, 0.0023909354418313973
281.0, 0.0021908571009595316
282.0, 0.004159166899487076
283.0, 0.008022158279478156
284.0, 0.011107207253677047
285.0, 0.014934331576901126
286.0, 0.019938038578132658
287.0, 0.0256541846444059
288.0, 0.033579790482826985
289.0, 0.04371555446578223
290.0, 0.0568276578036657
291.0, 0.07386200312895613
292.0, 0.09555178845644831
293.0, 0.12403558207721355
294.0, 0.1537336811617584
295.0, 0.18219869334164998
296.0, 0.20979504599509205
297.0, 0.23721512741646023
298.0, 0.2659157500064449
299.0, 0.2997083502244615
300.0, 0.33915720066241795
301.0, 0.3822720693398761
302.0, 0.42841758621502396
303.0, 0.4791139891488795
304.0, 0.5371758248451234
305.0, 0.6042964093461398
306.0, 0.6786089282861659
307.0, 0.7492594722512377
308.0, 0.8365104921889572
309.0, 0.9244526486160152
310.0, 0.9842174265686262
311.0, 0.9932230500038244
312.0, 0.893793772268632
313.0, 0.7272139526352907
314.0, 0.5533217478864951
315.0, 0.4123295014144239
316.0, 0.31272545414669495
317.0, 0.24519811062796998
318.0, 0.19648740429046607
319.0, 0.16174439623256903
320.0, 0.13985949054222732
321.0, 0.12142712978625773
322.0, 0.10632050720181978
323.0, 0.09325368473479806
324.0, 0.08120159241306224
325.0, 0.07028033426065228
326.0, 0.06281485550930803
327.0, 0.05658578515671606
328.0, 0.049624110655230425
329.0, 0.04247843160330727
330.0, 0.038404200836070074
331.0, 0.03429015790456369
332.0, 0.029662650936703214
333.0, 0.026042266978026217
334.0, 0.024319856919243123
335.0, 0.02171577911538326
336.0, 0.020012616530116697
337.0, 0.018552712041779666
338.0, 0.016449438912099185
339.0, 0.013981548322297086
340.0, 0.014493206732817046
341.0, 0.014685186293756917
342.0, 0.014759517492524335
343.0, 0.01458282835771355
344.0, 0.013301302337525786
345.0, 0.013276459865955832
346.0, 0.018048564356180373
347.0, 0.02135455391042242
348.0, 0.021381405669189557
349.0, 0.024198382373982672
350.0, 0.027279157013233423
351.0, 0.026861269724438867
352.0, 0.02424202200820398
353.0, 0.020144960418851752
354.0, 0.012478146362530924
355.0, 0.006618730480666838
356.0, 0.002357680253869813
357.0, 0.00035147272937947427
358.0, 0.0007069452003844583
359.0, 0.001406147008438246
360.0, 0.004382834039451202
361.0, 0.007392368418495507
362.0, 0.00781224196412596
363.0, 0.006191407062601092
364.0, 0.00967033533659989
365.0, 0.005519223108424617
366.0, 0.0010693933036104264
367.0, 0.005042626825794738
368.0, 0.005041982827527271
369.0, 0.004011510067344792
370.0, 0.0043639779294848274
371.0, 0.004235860323582488
372.0, 0.004139510395007527
373.0, 0.004656854752061174
374.0, 0.0017430213002174592
375.0, 0.0041227179813775605
376.0, 0.00674096009553868
377.0, 0.009285850923270915
378.0, 0.009009241944386556
379.0, 0.014257352886061841
380.0, 0.01560829059269679
381.0, 0.019315395127175772
382.0, 0.02591315810209222
383.0, 0.029561529445184594
384.0, 0.03812240858743416
385.0, 0.04451122452037388
386.0, 0.051416243100437346
387.0, 0.060552553243778444
388.0, 0.06971073708406243
389.0, 0.08077286971807167
390.0, 0.0866050584371637
391.0, 0.08859951188546436
392.0, 0.08440031156116838
393.0, 0.06821812373651595
394.0, 0.04731809669467478
395.0, 0.031447199753207394
396.0, 0.021147600813212514
397.0, 0.01551429765048325
398.0, 0.014299318216992487
399.0, 0.012483358376573581
400.0, 0.015207103612593338
401.0, 0.017656816752726096
402.0, 0.019173071800668632
403.0, 0.02491964253251438
404.0, 0.03274756167596623
405.0, 0.042913623593947126
406.0, 0.053975834629967225
407.0, 0.06466534178163005
408.0, 0.07465003107649874
409.0, 0.08390530487963697
410.0, 0.08464276061970258
411.0, 0.08083621956237014
412.0, 0.07837274553785575
413.0, 0.07913680994607142
414.0, 0.08357539225438074
415.0, 0.09185248704768866
416.0, 0.10221176654396238
417.0, 0.11436192287354605
418.0, 0.12925580636018488
419.0, 0.14548749121782253
420.0, 0.16361301012523038
421.0, 0.1788286272153243
422.0, 0.18248188156209952
423.0, 0.1688373437644502
424.0, 0.1453039861167725
425.0, 0.11185620114034059
426.0, 0.08138480560352185
427.0, 0.05896059350205493
428.0, 0.04296203305918275
429.0, 0.03697981335722047
430.0, 0.030736872082690953
431.0, 0.02783572029023077
432.0, 0.027248231587014938
433.0, 0.024944323541573495
434.0, 0.026856904875720372
435.0, 0.02868817528072602
436.0, 0.031419972780625804
437.0, 0.03310706959481771
438.0, 0.03302425477873322
439.0, 0.03672935637549932
440.0, 0.03800734759001047
441.0, 0.039165247146526104
442.0, 0.04261186266793425
443.0, 0.04797703436266748
444.0, 0.0522893089095365
445.0, 0.05845905035117885
446.0, 0.06416893540192278
447.0, 0.07122150636450877
448.0, 0.08202418381581682
449.0, 0.09603462942492526
450.0, 0.10766284527718316
451.0, 0.12464053300341084
452.0, 0.1495535741959418
453.0, 0.17824206860876515
454.0, 0.20537425131258832
455.0, 0.23907743058904743
456.0, 0.26439163636072127
457.0, 0.26997236606618236
458.0, 0.24802263078254336
459.0, 0.19775350765543578
460.0, 0.1398860082231101
461.0, 0.09549797055649074
462.0, 0.06795023923939413
463.0, 0.0515614355450765
464.0, 0.04053420411226635
465.0, 0.03516760799268189
466.0, 0.033246945897848365
467.0, 0.032784516621758214
468.0, 0.03301757093396738
469.0, 0.03355479534668867
470.0, 0.0337423695325255
471.0, 0.0401488210612839
472.0, 0.043349340349337545
473.0, 0.04635029738533883
474.0, 0.05203579650931716
475.0, 0.05529797712784231
476.0, 0.05948622131716255
477.0, 0.06547804750296567
478.0, 0.07365559165727414
479.0, 0.08404284733447577
480.0, 0.09581087390516287
481.0, 0.10678997611094307
482.0, 0.11971727454771869
483.0, 0.1266471210606183
484.0, 0.12288043776043935
485.0, 0.10844371476897983
486.0, 0.08462569200973574
487.0, 0.05801444458043316
488.0, 0.03717959049651591
489.0, 0.025129585123030814
490.0, 0.01945603535461609
491.0, 0.014648178677689241
492.0, 0.012423211510864937
493.0, 0.01071098219928807
494.0, 0.009281267328761167
495.0, 0.00775082483062857
496.0, 0.0051273694656680125
497.0, 0.0046679274460150405
498.0, 0.003608133157945446
499.0, 0.003992207420439963
500.0, 0.0039327253698419355
501.0, 0.0016228297448669326
502.0, 0.0034173376761745702
503.0, 0.0030539070503659933
504.0, 0.0024402142430053606
505.0, 0.0016287785320848952
506.0, 0.0009229919907970454
507.0, 0.002526110958163786
508.0, 0.00023725177571632728
509.0, 0.0013936284356537807
510.0, 0.0012388457928759365
511.0, 0.0009794158963679538
512.0, 0.0022599299877344857
513.0, 0.0027424187195715863
514.0, 0.002248916963973696
515.0, 0.0009739909214414981
516.0, 0.0007987300983807736
517.0, 0.0021782367464515708
518.0, 0.0015596924652412987
519.0, 0.0004542731942316704
520.0, 0.001271491984581636
521.0, 0.001693268425763533
522.0, 0.0008235680739582125
523.0, 0.00047882730768904577
524.0, 0.0024315802454305253
525.0, 0.002892431465006143
526.0, 0.0031306032737700063
527.0, 0.004320801845485011
528.0, 0.006100068731958544
529.0, 0.00919383916270738
530.0, 0.011785987175063468
531.0, 0.011019645510077615
532.0, 0.011250220453155045
533.0, 0.012720391547236021
534.0, 0.009396678662931793
535.0, 0.0062833218548429
536.0, 0.006033405449263668
537.0, 0.005094164034041976
538.0, 0.0030636937785567934
539.0, 0.00196413208099147
540.0, 0.0023583495484025773
541.0, 0.00226381664984738
542.0, 0.0011270813432310177
543.0, 0.001034522048027213
544.0, 0.0019175795802521582
545.0, 0.0013609133117561344
546.0, 0.0019291153454020378
547.0, 0.001511317651831177
548.0, 0.0026782402886458374
549.0, 0.0025789206755372236
550.0, 0.00043617139329576207
551.0, 0.004045761586985924
552.0, 0.0022629155518143185
553.0, 0.0001484071412857769
554.0, 0.0007799588440834444
555.0, 0.00032945285087175293
556.0, 9.954228497261807e-05
557.0, 0.0003145584048816875
558.0, 0.00013565114937660948
559.0, 0.0008654384489563987
560.0, 0.0017002961754430364
561.0, 0.001222732536020867
562.0, 0.002030645870708463
563.0, 0.0034115434095842914
564.0, 0.0039017288822815457
565.0, 0.0052879314325359516
566.0, 0.0060180094240072255
567.0, 0.004576299982507958
568.0, 0.008950897574371872
569.0, 0.008365453349206154
570.0, 0.007952425381558124
571.0, 0.00875038240379843
572.0, 0.010434183880685295
573.0, 0.014148932466307863
574.0, 0.014236725745873782
575.0, 0.018985743247111116
576.0, 0.02176739954901174
577.0, 0.024559818153670636
578.0, 0.031531011724460704
579.0, 0.03808599725647487
580.0, 0.047011083087991984
581.0, 0.05663011544501069
582.0, 0.0665114637285532
583.0, 0.07686336593831544
584.0, 0.088052591079791
585.0, 0.1001889813573243
586.0, 0.1159439423437252
587.0, 0.13177066668888415
588.0, 0.14741549218201705
589.0, 0.16549196490836537
590.0, 0.18790210780344535
591.0, 0.2065249011590926
592.0, 0.22631825793638985
593.0, 0.24129742033610285
594.0, 0.24880564535177577
595.0, 0.24908928907302588
596.0, 0.24185640394779997
597.0, 0.22288940205133592
598.0, 0.19456998152507807
599.0, 0.16898163541312405
600.0, 0.1463642255406704
601.0, 0.12343994222426884
602.0, 0.10750397190650872
603.0, 0.09192965111057008
604.0, 0.07870104401485825
605.0, 0.06768653302032257
606.0, 0.05738652298329805
607.0, 0.048406609440179486
608.0, 0.04587846455764479
609.0, 0.041507958353618576
610.0, 0.03770270550381907
611.0, 0.03272052142627937
612.0, 0.028928198578764372
613.0, 0.030109966192753346
614.0, 0.026258172798178464
615.0, 0.023330049861270293
616.0, 0.02204355368839238
617.0, 0.020242896246010538
618.0, 0.017660816713337225
619.0, 0.01651715093106959
620.0, 0.015761050507681673
621.0, 0.0132942719506643
622.0, 0.010572531881886033
623.0, 0.010633831919299267
624.0, 0.01169351092875058
625.0, 0.008371167920229542
626.0, 0.008959793940456694
627.0, 0.008840628653166455
628.0, 0.006091010929406655
629.0, 0.004747895362281374
630.0, 0.0041129052970208585
631.0, 0.002051968789967269
632.0, 0.0016452131263453207
633.0, 0.0006534785848288889
634.0, 0.0010859604084471502
635.0, 0.002446373940585285
636.0, 0.001231294800744587
637.0, 0.0003653595965557786
638.0, 4.596346552385774e-05
639.0, 0.0010459260710955628
640.0, 0.0006831195132802971
641.0, 0.0004673780282568367
642.0, 0.0017108160518776194
643.0, 0.0010814523722022513
644.0, 0.00011132424348366644
645.0, 0.0005247811272420237
646.0, 0.00022173899301574732
647.0, 0.0005775772348268799
648.0, 0.0006492513842028966
649.0, 0.000899968323757318
650.0, 0.0005002305938521449
651.0, 0.0010541458825569896
652.0, 0.0008366168260620883
653.0, 0.0010616689824412076
654.0, 0.0013641327930801052
655.0, 0.0005109151906221247
656.0, 0.001228916238023325
657.0, 0.0013804731450599793
658.0, 0.002531110633911844
659.0, 0.0028628554602160294
660.0, 0.0023724900114563243
661.0, 0.004677317246559806
662.0, 0.002212368099043958
663.0, 0.0012725553212958318
664.0, 0.00044223123725152503
665.0, 0.0009635405748972741
666.0, 0.00269642347687713
667.0, 0.0014226845040235024
668.0, 0.0024274597017409113
669.0, 0.0005344603535790107
670.0, 0.0013200447687951792
671.0, 0.0020260059381200374
672.0, 0.0013475380562140698
673.0, 0.0034391423708014252
674.0, 0.00488617004362685
675.0, 0.0014610428887222445
676.0, 0.0026808153956047434
677.0, 0.004306000080433045
678.0, 0.003897159555587873
679.0, 0.00588294598671249
680.0, 0.008086934463010119
681.0, 0.00836855496964664
682.0, 0.010564875456400539
683.0, 0.012454262120231928
684.0, 0.012999440694604052
685.0, 0.014098083399667751
686.0, 0.016855510633845733
687.0, 0.017466854548167893
688.0, 0.022745205698475525
689.0, 0.02839167676963275
690.0, 0.03300552546129501
691.0, 0.03857662496604699
692.0, 0.04527645032118767
693.0, 0.051761829130909605
694.0, 0.061160970773108794
695.0, 0.07070787614411209
696.0, 0.08009191891118289
697.0, 0.091266802761357
698.0, 0.10519818128294897
699.0, 0.1168892563627631
700.0, 0.1308408995597337
701.0, 0.14594954144572714
702.0, 0.16482477273236915
703.0, 0.18492080182145615
704.0, 0.19918822353176394
705.0, 0.20679924864456165
706.0, 0.20972808882931518
707.0, 0.20659498110842328
708.0, 0.2052811980959049
709.0, 0.2049467158024547
710.0, 0.1970104542506067
711.0, 0.17810358149490557
712.0, 0.15363115221072945
713.0, 0.12406089676738816
714.0, 0.09543294071784225
715.0, 0.07195852464741642
716.0, 0.0554088633224654
717.0, 0.04565867862660982
718.0, 0.03770073108128279
719.0, 0.030801032861793042
720.0, 0.02538091114229015
721.0, 0.02186376677727435
722.0, 0.019890808614914737
723.0, 0.018677782058715564
724.0, 0.017856396662437737
725.0, 0.014019582940878926
726.0, 0.011873744219229801
727.0, 0.01196507208364724
728.0, 0.012040979113675245
729.0, 0.010910314603233332
730.0, 0.010524003819579129
731.0, 0.011798436280115104
732.0, 0.008878396362311348
733.0, 0.008933530909664707
734.0, 0.008792952070294385
735.0, 0.008360714477706052
736.0, 0.010422123200062222
737.0, 0.007632009890355934
738.0, 0.007539555258021652
739.0, 0.0074816780791102456
740.0, 0.007758968605638343
741.0, 0.008049207148496954
742.0, 0.007450858433431792
743.0, 0.006401919314452528
744.0, 0.006507127848991615
745.0, 0.004160100139446753
746.0, 0.003008872052071172
747.0, 0.003611491751587932
748.0, 0.003612143721755471
749.0, 0.0024910987312218584
750.0, 0.002557329526335831
751.0, 0.0005919496996718049
752.0, 0.0014524178945036531
753.0, 0.0023611320425081118
754.0, 0.0013482652878663787
755.0, 0.0008018289928714121
756.0, 0.0015239883539444829
757.0, 0.0015036757769723483
758.0, 0.0010703860504198994
759.0, 0.0009076536144538655
760.0, 0.0007902963879746569
761.0, 0.0008583841071497887
762.0, 0.001652742387601783
763.0, 0.0014626016037020922
764.0, 0.0010059801793845247
765.0, 7.314233565235969e-05
766.0, 0.0016063190649408653
767.0, 0.0017897599201813048
768.0, 0.0012186816057478914
769.0, 0.0016321868152000978
770.0, 0.0028493425603417404
771.0, 0.0016503150097035566
772.0, 0.0016969290333920981
773.0, 0.0035856832291502284
774.0, 0.005547881075866515
775.0, 0.006703734733054181
776.0, 0.007943874721241657
777.0, 0.009908906350177073
778.0, 0.010858649996487418
779.0, 0.014660962607139616
780.0, 0.0172817917576606
781.0, 0.01851599464226841
782.0, 0.019605560337498003
783.0, 0.019172926259222105
784.0, 0.021563262544114364
785.0, 0.022754749727018554
786.0, 0.02571867130297648
787.0, 0.02609271190786835
788.0, 0.02478199493886998
789.0, 0.024009660635295995
790.0, 0.020057185591672685
791.0, 0.01781472591985223
792.0, 0.01693056673208635
793.0, 0.014179311372849791
794.0, 0.012602075813932252
795.0, 0.011782692647253741
796.0, 0.009709714369559546
797.0, 0.009051151396599382
798.0, 0.007201277923024484
799.0, 0.008278832884891289
800.0, 0.009474392870752328
801.0, 0.008350277560531808
802.0, 0.007607174059884661
803.0, 0.009575806429788107
804.0, 0.010487824666340356
805.0, 0.008785492157867593
806.0, 0.008702555452985612
807.0, 0.00942742563048929
808.0, 0.010994845491285318
809.0, 0.011982438013450251
810.0, 0.011665809448669663
811.0, 0.013157958075212948
812.0, 0.015478962982342696
813.0, 0.014002082778719767
814.0, 0.01178379418743294
815.0, 0.010369126342364294
816.0, 0.008735899802022117
817.0, 0.006573231308778128
818.0, 0.004895971582639209
819.0, 0.001501472339034207
820.0, 0.0058933985167957705
821.0, 0.004308830621538478
822.0, 0.0006945518815141582
823.0, 0.001291809231414226
824.0, 0.0036583134404692213
825.0, 0.0011513211656453645
826.0, 0.0009490911631062993
827.0, 0.0021812604057873113
828.0, 0.0014212909097522921
829.0, 0.00023373788904689814
830.0, 0.000681822834480331
831.0, 0.0014012638253716766
832.0, 0.0009090720514956179
833.0, 0.00032968902546587684
834.0, 0.002436629733452545
835.0, 0.0011436577623296145
836.0, 0.00014186740746970918
837.0, 0.0009169882226147529
838.0, 0.0027234299228038653
839.0, 0.0024293775416029556
840.0, 0.0005949004160497362
841.0, 0.0012807767481892798
842.0, 0.001967708130617399
843.0, 0.0011782103705978825
844.0, 0.0019852232281869437
845.0, 0.003607208898049522
846.0, 0.003657372271173568
847.0, 0.007423093050802435
848.0, 0.005489614786281434
849.0, 0.00924041508702858
850.0, 0.010033462684358006
851.0, 0.012976386760189364
852.0, 0.01900159638748718
853.0, 0.022654735087752544
854.0, 0.028471286611002643
855.0, 0.034851754033823505
856.0, 0.04514140813568325
857.0, 0.05764220713741802
858.0, 0.072094562759472
859.0, 0.08973533212962763
860.0, 0.10984678730551684
861.0, 0.13016586470431435
862.0, 0.15382562002741637
863.0, 0.17653759512650782
864.0, 0.20498571819837605
865.0, 0.23737125201348408
866.0, 0.27313630011218315
867.0, 0.3104100329398656
868.0, 0.34701253343165306
869.0, 0.38487499672876485
870.0, 0.41849648151380675
871.0, 0.4342525906351802
872.0, 0.4311519955575563
873.0, 0.4096957617003015
874.0, 0.3650006469037073
875.0, 0.30265444816781323
876.0, 0.24132403439636432
877.0, 0.18210884273346523
878.0, 0.14153991129169755
879.0, 0.11234630717344213
880.0, 0.08978557262300206
881.0, 0.0727299325800239
882.0, 0.0591495722208817
883.0, 0.047937638887440764
884.0, 0.04144261449374631
885.0, 0.03633592685691464
886.0, 0.03300607082368511
887.0, 0.029149041628104333
888.0, 0.02810359214707285
889.0, 0.02926955913392273
890.0, 0.028598650352597853
891.0, 0.026757041352789508
892.0, 0.03413275467769262
893.0, 0.03995086875868016
894.0, 0.04705160924830181
895.0, 0.0560179456351658
896.0, 0.06449352295557652
897.0, 0.07234996273229549
898.0, 0.0807345486439831
899.0, 0.08864807455788264
900.0, 0.09487308702136392
901.0, 0.10684947497386894
902.0, 0.11439326693290058
903.0, 0.12766143755792977
904.0, 0.1446609485546406
905.0, 0.15972910583808494
906.0, 0.17086112792405472
907.0, 0.174314139140648
908.0, 0.16300679366718746
909.0, 0.13753122046953878
910.0, 0.10573546581586082
911.0, 0.07626403833158703
912.0, 0.05220972022797657
913.0, 0.03625019118812049
914.0, 0.027454819980762192
915.0, 0.013495382988477559
916.0, 0.014126591508200736
917.0, 0.007821792806345026
918.0, 0.004105399476693316
919.0, 0.0012091632769521935
920.0, 0.0010765368497314713
921.0, 0.00042882470398772116
922.0, 0.0009413115871509892
923.0, 0.00015089602850682085
924.0, 0.0003286183574998111
925.0, 0.00022641383651286523
926.0, 0.00011468250450959004
927.0, 0.000538423479574317
928.0, 0.0013015364566989968
929.0, 0.002811160857400994
930.0, 0.0060462883926320436
931.0, 0.007567496950543191
932.0, 0.008133021661600964
933.0, 0.0104474695147768
934.0, 0.011400408694891473
935.0, 0.012760158446017644
936.0, 0.015542423071444333
937.0, 0.018719132799168245
938.0, 0.021536799147472818
939.0, 0.024063843927724055
940.0, 0.029320339438794314
941.0, 0.03385735053048031
942.0, 0.04036424176819275
943.0, 0.044244463524357944
944.0, 0.05100659507101387
945.0, 0.06295557153152917
946.0, 0.073273526897506
947.0, 0.08240097973931422
948.0, 0.09545009601779653
949.0, 0.10969553915655847
950.0, 0.12630608629385037
951.0, 0.14329179646672402
952.0, 0.16458039963699422
953.0, 0.18758801214191104
954.0, 0.20837570629200944
955.0, 0.23179897289958476
956.0, 0.25049732640386274
957.0, 0.2758154580458536
958.0, 0.3003711348849371
959.0, 0.31987894183015964
960.0, 0.3349364181693466
961.0, 0.3442664526472982
962.0, 0.3469577407189354
963.0, 0.34357323966911346
964.0, 0.3287079739984342
965.0, 0.311023051251015
966.0, 0.28882825191164146
967.0, 0.2644553589942186
968.0, 0.2367507549010167
969.0, 0.20781265687927447
970.0, 0.18242009627626424
971.0, 0.16113966345090505
972.0, 0.13870170178073055
973.0, 0.12072787989404611
974.0, 0.1008670378186398
975.0, 0.08963093344953119
976.0, 0.07799489337157017
977.0, 0.06737261719917738
978.0, 0.05879435335309074
979.0, 0.04972310346613415
980.0, 0.042858468607545004
981.0, 0.03759205243697115
982.0, 0.03232558699551688
983.0, 0.0294834297540418
984.0, 0.025718468590825667
985.0, 0.022105259590279484
986.0, 0.01986367271763603
987.0, 0.017299303109364565
988.0, 0.014214732518327394
989.0, 0.013795823617294771
990.0, 0.011226239284930762
991.0, 0.009235864043622215
992.0, 0.008312283435778032
993.0, 0.0068104701702054755
994.0, 0.005338879103074615
995.0, 0.0056216086060410005
996.0, 0.006317737186780707
997.0, 0.004387785272961443
998.0, 0.0017649766478508013
999.0, 0.004725004764227073
1000.0, 0.00238450647042087
1001.0, 0.0029140599306780816
1002.0, 0.001316808202899465
1003.0, 0.00032722854779242106
1004.0, 0.0003886831266216032
1005.0, 0.000627109376520004
1006.0, 6.401826108805609e-05
1007.0, 0.0005841198235081769
1008.0, 0.0019619857113123635
1009.0, 0.00135381951434519
1010.0, 0.00041218068037603936
1011.0, 0.0003444965410345477
1012.0, 0.000433650009648562
1013.0, 0.0007222090043281756
1014.0, 0.001041009565585305
1015.0, 0.00021811932557007425
1016.0, 0.0011422338292490096
1017.0, 0.00046668332526114903
1018.0, 0.0018026596076560696
1019.0, 0.0018941963086241775
1020.0, 0.002825666822902692
1021.0, 0.004328880284565536
1022.0, 0.004221909107802254
1023.0, 0.003912367120984406
1024.0, 0.006573868316019181
1025.0, 0.005487254892943269
1026.0, 0.0056063911043017665
1027.0, 0.008026420351584743
1028.0, 0.011898905538193102
1029.0, 0.013260841395528175
1030.0, 0.014388018526774404
1031.0, 0.016072875813380957
1032.0, 0.01694082800241745
1033.0, 0.01888292163414029
1034.0, 0.021865716673798052
1035.0, 0.01979013680202987
1036.0, 0.01917125634389035
1037.0, 0.016391236057206545
1038.0, 0.015107907797867597
1039.0, 0.014247617929279617
1040.0, 0.01272476783444481
1041.0, 0.010754024088675583
1042.0, 0.006770436710369574
1043.0, 0.0052418531368691006
1044.0, 0.005298311467099727
1045.0, 0.005537249890265225
1046.0, 0.004309265178446348
1047.0, 0.0021022968531706305
1048.0, 0.0006441188525069203
1049.0, 0.0010650559805564913
1050.0, 0.0020456022346985493
1051.0, 0.0018640889075410899
1052.0, 0.0015355338163115216
1053.0, 0.0017920952318974568
1054.0, 0.0007250378535851417
1055.0, 0.0015575975606867227
1056.0, 0.0007873930685589109
1057.0, 0.001585536687013295
1058.0, 0.0017556399586444917
1059.0, 0.0007770586667804351
1060.0, 0.00182908644714671
1061.0, 0.002024946622538546
1062.0, 0.0009049273291623234
1063.0, 0.003305832264806211
1064.0, 0.0010160949018320228
1065.0, 0.00272746989330147
1066.0, 0.000993232158591847
1067.0, 0.0006643414216523431
1068.0, 0.0005691522678685586
1069.0, 0.001353480619640608
1070.0, 0.003970222490231847
1071.0, 0.003123261981201194
1072.0, 0.002051312193225556
1073.0, 0.000903963553720932
1074.0, 0.0014668247599277822
1075.0, 0.001985236326743052
1076.0, 0.0032269574864463987
1077.0, 0.00545822219537274
1078.0, 0.0036190734348275303
1079.0, 9.170430244363794e-05
1080.0, 0.001219110794491581
1081.0, 0.0022041785920152335
1082.0, 0.0022005503837408975
1083.0, 0.0013879725889416872
1084.0, 0.0026382883494241627
1085.0, 0.0029196553685879104
1086.0, 0.003481496645571444
1087.0, 0.0024012133942362735
1088.0, 0.003195881397599058
1089.0, 0.004623785757247332
1090.0, 0.0037911709334216698
1091.0, 0.0067263987797716186
1092.0, 0.008628308252698945
1093.0, 0.006065526941486038
1094.0, 0.00559160366369868
1095.0, 0.006064192148610457
1096.0, 0.008551640631754249
1097.0, 0.008198224607136269
1098.0, 0.008366212705902579
1099.0, 0.01009492804976369
1100.0, 0.009613067001717993
1101.0, 0.009558339692176034
1102.0, 0.010139964167903276
1103.0, 0.009571520229059131
1104.0, 0.010435707810855217
1105.0, 0.010256214566786739
1106.0, 0.009208171433902209
1107.0, 0.009481368763684675
1108.0, 0.012547969034694347
1109.0, 0.01471831303142957
1110.0, 0.014209252262581358
1111.0, 0.014150806101837086
1112.0, 0.014103347305084906
1113.0, 0.018007348192068857
1114.0, 0.02283311753876427
1115.0, 0.02702932747052984
1116.0, 0.030373628233699327
1117.0, 0.03602671219862558
1118.0, 0.04515085617814812
1119.0, 0.05277169703083019
1120.0, 0.05971817388980189
1121.0, 0.07006633069396716
1122.0, 0.0792851579734055
1123.0, 0.09232799263436053
1124.0, 0.10669649156285711
1125.0, 0.1208998225133121
1126.0, 0.13741143910594866
1127.0, 0.1486514265083953
1128.0, 0.1513885637308148
1129.0, 0.1449017873089626
1130.0, 0.13062178300568167
1131.0, 0.11379555278117749
1132.0, 0.09791687758806736
1133.0, 0.08207513894421227
1134.0, 0.07275899922458959
1135.0, 0.061744701210754635
1136.0, 0.05057048208393138
1137.0, 0.043053230420798644
1138.0, 0.035622042522700986
1139.0, 0.02855777672716977
1140.0, 0.024091765878805137
1141.0, 0.02240221351159968
1142.0, 0.020190449849961784
1143.0, 0.01625238970012105
1144.0, 0.015672125730494913
1145.0, 0.01536917117628117
1146.0, 0.013014528943074399
1147.0, 0.01020461912706452
1148.0, 0.010980264081893037
1149.0, 0.012016568944606558
1150.0, 0.009989706528056948
1151.0, 0.007242224423752015
1152.0, 0.006494985638437803
1153.0, 0.007530097069565223
1154.0, 0.008227988059868912
1155.0, 0.006936002886309144
1156.0, 0.0066506632198041265
1157.0, 0.0035498954298850667
1158.0, 0.0025307811584119877
1159.0, 0.003935706599944412
1160.0, 0.00509515601639723
1161.0, 0.005586129644973545
1162.0, 0.005808643955566098
1163.0, 0.00650211881788028
1164.0, 0.006213561863088532
1165.0, 0.005118061415672359
1166.0, 0.005335173259539347
1167.0, 0.003223234985340835
1168.0, 0.0022241983847236637
1169.0, 0.0034766429141667083
1170.0, 0.0020823342117604867
1171.0, 0.0031041486434538195
1172.0, 0.0035722654815202293
1173.0, 0.004059569610604269
1174.0, 0.002750756916142708
1175.0, 0.0022380759560365238
1176.0, 0.004270189076796352
1177.0, 0.00351282597980244
1178.0, 0.0017183906150399148
1179.0, 0.000515994707019478
1180.0, 0.00130338595215351
1181.0, 0.0015229885357095046
1182.0, 0.0017488867193108546
1183.0, 0.0014904657780160156
1184.0, 0.002138222866848073
1185.0, 0.0030543221221527696
1186.0, 0.0034456469841867713
1187.0, 0.0033852112926236375
1188.0, 0.001989225844640543
1189.0, 0.00038022188483277734
1190.0, 0.0005262746298520258
1191.0, 0.0014281884540508975
1192.0, 0.0030124091401046806
1193.0, 0.0014036500200314043
1194.0, 0.00030396119134011666
1195.0, 0.001062703987373945
1196.0, 0.000269198228815329
1197.0, 0.0004432889527737789
1198.0, 0.001449638543806113
1199.0, 0.0005326253692384609
1200.0, 0.0013829365297239739
1201.0, 0.00023804468448329594
1202.0, 0.00045070180780387514
1203.0, 0.001671449039192292
1204.0, 0.0016612499953267271
1205.0, 0.0005066263828939976
1206.0, 0.002142202728297784
1207.0, 0.0004293322672998816
1208.0, 0.000547151474447602
1209.0, 6.0883803883812524e-05
1210.0, 0.0013074386295261883
1211.0, 0.0015719077562169452
1212.0, 0.0004835165857608808
1213.0, 0.00047774865625965784
1214.0, 0.001083204656831921
1215.0, 0.0005192440062950561
1216.0, 0.002159266773117674
1217.0, 0.0030680153826324412
1218.0, 0.0012348322317577395
1219.0, 0.0016089001456615257
1220.0, 0.0009107036401808667
1221.0, 0.0007150741995794794
1222.0, 0.00239846551128122
1223.0, 0.002810249725155386
1224.0, 0.001792268952174437
1225.0, 0.0009885881338898364
1226.0, 0.0013218958463303203
1227.0, 0.00020259855766504938
1228.0, 0.00026153669275143243
1229.0, 0.0008686606978349778
1230.0, 0.002484831337472458
1231.0, 0.0029923518662924383
1232.0, 0.0035363040128476206
1233.0, 0.0011832982473245568
1234.0, 0.0013701690462722186
1235.0, 0.0022334058714009748
1236.0, 0.002850440517255155
1237.0, 0.002871130671759906
1238.0, 0.002351667234600555
1239.0, 0.0029202374703827614
1240.0, 0.0031984883130336647
1241.0, 0.0022795814613250577
1242.0, 0.0026768073316914753
1243.0, 0.0043829980473833715
1244.0, 0.00428866324036884
1245.0, 0.004899131584176785
1246.0, 0.004623026346644156
1247.0, 0.0017629921618670628
1248.0, 0.0017474478609723885
1249.0, 0.004903514031792293
1250.0, 0.00417850652704142
1251.0, 0.003911042802712446
1252.0, 0.007199853672170882
1253.0, 0.003689615291874209
1254.0, 0.000822438098770112
1255.0, 0.003021583282321193
1256.0, 0.0034818989478860502
1257.0, 0.0022222085603957136
1258.0, 0.004083706390349532
1259.0, 0.004077320829784772
1260.0, 0.002990748292517628
1261.0, 0.004293865994074282
1262.0, 0.0049394575573662135
1263.0, 0.004588720926182688
1264.0, 0.004676027958804851
1265.0, 0.004778671574142625
1266.0, 0.0038797628422043147
1267.0, 0.002416188700349125
1268.0, 0.001658692122783576
1269.0, 0.002307872883482076
1270.0, 0.0026786219586414756
1271.0, 0.002213660023516438
1272.0, 0.003668418527932512
1273.0, 0.0023962510508269644
1274.0, 0.003298776559682949
1275.0, 0.0036354757084932706
1276.0, 0.004014124335365936
1277.0, 0.004917161514034163
1278.0, 0.0033916582259277753
1279.0, 0.0012639775175600472
1280.0, 0.000284198275905249
1281.0, 0.00200997429254197
1282.0, 0.0037393922982003687
1283.0, 0.0014203738952166798
1284.0, 0.00028668567876334746
1285.0, 0.0018057323918509024
1286.0, 0.003513023133490686
1287.0, 0.0032490921150994984
1288.0, 0.003808482059650876
1289.0, 0.004565004170708358
1290.0, 0.0027568712539253314
1291.0, 0.0026038177468703625
1292.0, 0.002425538685663124
1293.0, 0.0014482971267985693
1294.0, 0.0009263785159075855
1295.0, 0.0009266710270124344
1296.0, 0.0010441868057188234
1297.0, 0.0012855124442676638
1298.0, 0.0014068497399680987
1299.0, 0.0008277043296079222
1300.0, 0.0006568327375399316
1301.0, 5.867982022944019e-05
1302.0, 0.00028201628709846854
1303, 0.0
1304, 0.0
1305, 0.0
1306, 0.0
1307, 0.0
1308, 0.0
1309, 0.0
1310, 0.0
1311, 0.0
1312, 0.0
1313, 0.0
1314, 0.0
1315, 0.0
1316, 0.0
1317, 0.0
1318, 0.0
1319, 0.0
1320, 0.0
1321, 0.0
1322, 0.0
1323, 0.0
1324, 0.0
1325, 0.0
1326, 0.0
1327, 0.0
1328, 0.0
1329, 0.0
1330, 0.0
1331, 0.0
1332, 0.0
1333, 0.0
1334, 0.0
1335, 0.0
1336, 0.0
1337, 0.0
1338, 0.0
1339, 0.0
1340, 0.0
1341, 0.0
1342, 0.0
1343, 0.0
1344, 0.0
1345, 0.0
1346, 0.0
1347, 0.0
1348, 0.0
1349, 0.0
1350, 0.0
1351, 0.0
1352, 0.0
1353, 0.0
1354, 0.0
1355, 0.0
1356, 0.0
1357, 0.0
1358, 0.0
1359, 0.0
1360, 0.0
1361, 0.0
1362, 0.0
1363, 0.0
1364, 0.0
1365, 0.0
1366, 0.0
1367, 0.0
1368, 0.0
1369, 0.0
1370, 0.0
1371, 0.0
1372, 0.0
1373, 0.0
1374, 0.0
1375, 0.0
1376, 0.0
1377, 0.0
1378, 0.0
1379, 0.0
1380, 0.0
1381, 0.0
1382, 0.0
1383, 0.0
1384, 0.0
1385, 0.0
1386, 0.0
1387, 0.0
1388, 0.0
1389, 0.0
1390, 0.0
1391, 0.0
1392, 0.0
1393, 0.0
1394, 0.0
1395, 0.0
1396, 0.0
1397, 0.0
1398, 0.0
1399, 0.0
1400, 0.0
1401, 0.0
1402, 0.0
1403, 0.0
1404, 0.0
1405, 0.0
1406, 0.0
1407, 0.0
1408, 0.0
1409, 0.0
1410, 0.0
1411, 0.0
1412, 0.0
1413, 0.0
1414, 0.0
1415, 0.0
1416, 0.0
1417, 0.0
1418, 0.0
1419, 0.0
1420, 0.0
1421, 0.0
1422, 0.0
1423, 0.0
1424, 0.0
1425, 0.0
1426, 0.0
1427, 0.0
1428, 0.0
1429, 0.0
1430, 0.0
1431, 0.0
1432, 0.0
1433, 0.0
1434, 0.0
1435, 0.0
1436, 0.0
1437, 0.0
1438, 0.0
1439, 0.0
1440, 0.0
1441, 0.0
1442, 0.0
1443, 0.0
1444, 0.0
1445, 0.0
1446, 0.0
1447, 0.0
1448, 0.0
1449, 0.0
1450, 0.0
1451, 0.0
1452, 0.0
1453, 0.0
1454, 0.0
1455, 0.0
1456, 0.0
1457, 0.0
1458, 0.0
1459, 0.0
1460, 0.0
1461, 0.0
1462, 0.0
1463, 0.0
1464, 0.0
1465, 0.0
1466, 0.0
1467, 0.0
1468, 0.0
1469, 0.0
1470, 0.0
1471, 0.0
1472, 0.0
1473, 0.0
1474, 0.0
1475, 0.0
1476, 0.0
1477, 0.0
1478, 0.0
1479, 0.0
1480, 0.0
1481, 0.0
1482, 0.0
1483, 0.0
1484, 0.0
1485, 0.0
1486, 0.0
1487, 0.0
1488, 0.0
1489, 0.0
1490, 0.0
1491, 0.0
1492, 0.0
1493, 0.0
1494, 0.0
1495, 0.0
1496, 0.0
1497, 0.0
1498, 0.0
1499, 0.0
1500, 0.0
1501, 0.0
1502, 0.0
1503, 0.0
1504, 0.0
1505, 0.0
1506, 0.0
1507, 0.0
1508, 0.0
1509, 0.0
1510, 0.0
1511, 0.0
1512, 0.0
1513, 0.0
1514, 0.0
1515, 0.0
1516, 0.0
1517, 0.0
1518, 0.0
1519, 0.0
1520, 0.0
1521, 0.0
1522, 0.0
1523, 0.0
1524, 0.0
1525, 0.0
1526, 0.0
1527, 0.0
1528, 0.0
1529, 0.0
1530, 0.0
1531, 0.0
1532, 0.0
1533, 0.0
1534, 0.0
1535, 0.0
1536, 0.0
1537, 0.0
1538, 0.0
1539, 0.0
1540, 0.0
1541, 0.0
1542, 0.0
1543, 0.0
1544, 0.0
1545, 0.0
1546, 0.0
1547, 0.0
1548, 0.0
1549, 0.0
1550, 0.0
1551, 0.0
1552, 0.0
1553, 0.0
1554, 0.0
1555, 0.0
1556, 0.0
1557, 0.0
1558, 0.0
1559, 0.0
1560, 0.0
1561, 0.0
1562, 0.0
1563, 0.0
1564, 0.0
1565, 0.0
1566, 0.0
1567, 0.0
1568, 0.0
1569, 0.0
1570, 0.0
1571, 0.0
1572, 0.0
1573, 0.0
1574, 0.0
1575, 0.0
1576, 0.0
1577, 0.0
1578, 0.0
1579, 0.0
1580, 0.0
1581, 0.0
1582, 0.0
1583, 0.0
1584, 0.0
1585, 0.0
1586, 0.0
1587, 0.0
1588, 0.0
1589, 0.0
1590, 0.0
1591, 0.0
1592, 0.0
1593, 0.0
1594, 0.0
1595, 0.0
1596, 0.0
1597, 0.0
1598, 0.0
1599, 0.0
