30, 0.0
31, 0.0
32, 0.0
33, 0.0
34, 0.0
35, 0.0
36, 0.0
37, 0.0
38, 0.0
39, 0.0
40, 0.0
41, 0.0
42, 0.0
43, 0.0
44, 0.0
45, 0.0
46, 0.0
47, 0.0
48, 0.0
49, 0.0
50, 0.0
51, 0.0
52, 0.0
53, 0.0
54, 0.0
55, 0.0
56, 0.0
57, 0.0
58, 0.0
59, 0.0
60, 0.0
61, 0.0
62, 0.0
63, 0.0
64, 0.0
65, 0.0
66, 0.0
67, 0.0
68, 0.0
69, 0.0
70, 0.0
71, 0.0
72, 0.0
73, 0.0
74, 0.0
75, 0.0
76, 0.0
77, 0.0
78, 0.0
79, 0.0
80, 0.0
81, 0.0
82, 0.0
83, 0.0
84, 0.0
85, 0.0
86, 0.0
87, 0.0
88, 0.0
89, 0.0
90, 0.0
91, 0.0
92, 0.0
93, 0.0
94, 0.0
95, 0.0
96, 0.0
97, 0.0
98, 0.0
99, 0.0
100, 0.0
101.0, 0.0008772515553222245
102.0, 0.001769901806463576
103.0, 0.0026252169282348823
104.0, 0.00345309916541752
105.0, 0.004086285667037674
106.0, 0.0046917184822131966
107.0, 0.005182651337269372
108.0, 0.005620420366227163
109.0, 0.00591193901986404
110.0, 0.006145706210751067
111.0, 0.006266413084589509
112.0, 0.006311105698308834
113.0, 0.006246276179374229
114.0, 0.006078095546584724
115.0, 0.005798488151808682
116.0, 0.005574296567249059
117.0, 0.005394952986868565
118.0, 0.00532976079911466
119.0, 0.0053332642355955915
120.0, 0.00529782008372767
121.0, 0.00524534825670062
122.0, 0.005029038966297798
123.0, 0.004763042490012608
124.0, 0.004430911511234646
125.0, 0.004086080248332729
126.0, 0.0038165899855886628
127.0, 0.0035545146543188317
128.0, 0.003349904292062495
129.0, 0.0031472156608265476
130.0, 0.0029597849979042224
131.0, 0.0027552879702342436
132.0, 0.00243132638933069
133.0, 0.002121906310546327
134.0, 0.0018719472849567317
135.0, 0.0016727220746908572
136.0, 0.0016119977202080137
137.0, 0.001570104569423049
138.0, 0.0015648313447926188
139.0, 0.0015259703965426075
140.0, 0.0014389950954841046
141.0, 0.0013135110220491074
142.0, 0.0011467578623278853
143.0, 0.0009931150688749207
144.0, 0.0008500182900058409
145.0, 0.0007331966971426161
146.0, 0.0006320931834259339
147.0, 0.0005329910417111105
148.0, 0.0004347577015235531
149.0, 0.00031449073124100216
150.0, 0.00018759762245954047
151.0, 0.0001109737393816826
152.0, 4.390358157440035e-05
153.0, 6.80389373012558e-05
154.0, 0.00010098579181345752
155.0, 7.255242176886165e-05
156.0, 4.508550067197158e-05
157.0, 5.209252438728091e-05
158.0, 7.1320516965271e-05
159.0, 0.00017493599018794342
160.0, 0.0002678629424874544
161.0, 0.00031749598680527323
162.0, 0.00033884024249865514
163.0, 0.00028350561103006355
164.0, 0.00022034521560136287
165.0, 0.0001420678577765448
166.0, 7.983205143076129e-05
167.0, 4.043387799526621e-05
168.0, 1.9877194440602213e-05
169.0, 1.9399677648012745e-05
170.0, 6.024336110136342e-05
171.0, 0.00013412467145640762
172.0, 0.0002603112194814423
173.0, 0.0004175873603052229
174.0, 0.0005748836750278309
175.0, 0.000732188689329252
176.0, 0.000887172567095235
177.0, 0.0010414642923723303
178.0, 0.0011959526901566923
179.0, 0.0013504780487282359
180.0, 0.001497914349430913
181.0, 0.0016446776825246655
182.0, 0.0017950015154430193
183.0, 0.00194651278542382
184.0, 0.0021169771855798635
185.0, 0.002290039581451766
186.0, 0.0024808166924433005
187.0, 0.002677581979212801
188.0, 0.002898375008890885
189.0, 0.003129413024348609
190.0, 0.003388010429597323
191.0, 0.003651474641349612
192.0, 0.003924281700623361
193.0, 0.004216457940833847
194.0, 0.004536039163200416
195.0, 0.004846091009426997
196.0, 0.005146048310582716
197.0, 0.005380540909281503
198.0, 0.0055629884232231966
199.0, 0.005668128785171541
200.0, 0.00572761279983958
201.0, 0.005870914006140607
202.0, 0.006050102664671812
203.0, 0.00635657863131022
204.0, 0.006700711320043835
205.0, 0.0070126993386147255
206.0, 0.007318714311040118
207.0, 0.007501211570340605
208.0, 0.00767220499365701
209.0, 0.00783333726170141
210.0, 0.00800091561664038
211.0, 0.008275607996159196
212.0, 0.008557987428927764
213.0, 0.008892085165863527
214.0, 0.00919096776666644
215.0, 0.009349778613941422
216.0, 0.009453573121379106
217.0, 0.009410489143563096
218.0, 0.009386884434147306
219.0, 0.009400426236564497
220.0, 0.009463876025123094
221.0, 0.00959753331765197
222.0, 0.009740159428696415
223.0, 0.009892229405510999
224.0, 0.010042383331868028
225.0, 0.01019102321477364
226.0, 0.01032442753925638
227.0, 0.01044888783412379
228.0, 0.010530715345588323
229.0, 0.010594419215483696
230.0, 0.01060865439092307
231.0, 0.010608379090544259
232.0, 0.010599738862969813
233.0, 0.010589560724665544
234.0, 0.01056133057128481
235.0, 0.010531451445229299
236.0, 0.010517372237765
237.0, 0.01050756115730235
238.0, 0.010562361529521674
239.0, 0.010614369858932372
240.0, 0.010647840645142334
241.0, 0.010660920631705536
242.0, 0.010593646360372223
243.0, 0.010509533160490546
244.0, 0.01038078050818474
245.0, 0.010274583003953834
246.0, 0.010211112979940077
247.0, 0.010178347814111467
248.0, 0.010188510543539312
249.0, 0.010187696659112924
250.0, 0.010175389349944585
251.0, 0.010110742767034556
252.0, 0.010004989155881407
253.0, 0.009905342818110813
254.0, 0.009809258734162465
255.0, 0.0097710751046127
256.0, 0.009757341261595345
257.0, 0.00979087189635623
258.0, 0.009838148093068112
259.0, 0.009857492573977694
260.0, 0.009871760361563718
261.0, 0.009866028012403242
262.0, 0.009858502036508284
263.0, 0.009886739032764127
264.0, 0.009913140972601856
265.0, 0.009905221037765869
266.0, 0.0098938269742512
267.0, 0.009859647563385874
268.0, 0.009832769802227127
269.0, 0.009834400345783484
270.0, 0.009842632593274074
271.0, 0.009868234465567673
272.0, 0.009890956479985901
273.0, 0.009908256657625797
274.0, 0.009916268228972463
275.0, 0.00991137340949592
276.0, 0.009894747222417653
277.0, 0.009865910836406982
278.0, 0.009818351607785119
279.0, 0.009756170889430385
280.0, 0.009708368329392592
281.0, 0.009668898333383366
282.0, 0.00965038155996336
283.0, 0.009640649319544852
284.0, 0.00964539108914744
285.0, 0.00965430852019021
286.0, 0.009674461661474674
287.0, 0.009696633439859303
288.0, 0.009710681042414942
289.0, 0.009724014509410331
290.0, 0.009714245641063844
291.0, 0.009702756986789346
292.0, 0.009668647376148243
293.0, 0.009630998173901867
294.0, 0.009570434216435095
295.0, 0.009503729873951176
296.0, 0.009413256588587935
297.0, 0.009333620542526252
298.0, 0.009282284993896689
299.0, 0.00924735936827268
300.0, 0.009243124631943789
301.0, 0.009253189068739889
302.0, 0.009283008090746298
303.0, 0.0093618906440549
304.0, 0.009491533737886727
305.0, 0.009611832900889955
306.0, 0.009724879314742033
307.0, 0.009739897583366764
308.0, 0.009698447314433426
309.0, 0.00959768046490671
310.0, 0.009472224275291626
311.0, 0.009404744003593932
312.0, 0.00935384532158866
313.0, 0.009391610798619963
314.0, 0.009445133455722659
315.0, 0.009468033712343478
316.0, 0.009488296457985464
317.0, 0.009458503646145554
318.0, 0.009426780834771106
319.0, 0.009372473690350547
320.0, 0.009316483713636855
321.0, 0.009249738784344652
322.0, 0.00917780665764495
323.0, 0.009085978568742006
324.0, 0.00898562213973006
325.0, 0.00886314963793095
326.0, 0.008730834602863757
327.0, 0.008580232540424225
328.0, 0.008414441471555017
329.0, 0.008227795255271926
330.0, 0.008004439074552639
331.0, 0.00774331534876215
332.0, 0.00752764413208394
333.0, 0.007347038580097309
334.0, 0.007269292592395161
335.0, 0.00725041591506966
336.0, 0.007202756223703837
337.0, 0.00714319684102099
338.0, 0.00698645096834367
339.0, 0.006802149588491694
340.0, 0.006582513778534968
341.0, 0.0063566718036856375
342.0, 0.006135967936080411
343.0, 0.00591569814130277
344.0, 0.005704094521456039
345.0, 0.0054943112105638355
346.0, 0.005309838698043944
347.0, 0.005129495775031805
348.0, 0.004975232403022168
349.0, 0.004825295046811346
350.0, 0.004691799873547815
351.0, 0.0045751704924430585
352.0, 0.004501953346909237
353.0, 0.00441113554545894
354.0, 0.004287816902867118
355.0, 0.004108173518170985
356.0, 0.0038516679706269118
357.0, 0.003596796776201189
358.0, 0.003343596959074491
359.0, 0.0031454336295561104
360.0, 0.00298948860587051
361.0, 0.0028799427769221125
362.0, 0.002796780803804675
363.0, 0.0027300244171272105
364.0, 0.00267000149399563
365.0, 0.0026370613665796265
366.0, 0.0026117377332822243
367.0, 0.0025350341969185937
368.0, 0.002449412590300891
369.0, 0.002270086072819686
370.0, 0.002083008304591438
371.0, 0.0019428184009819282
372.0, 0.00181053713294723
373.0, 0.0017856868625758604
374.0, 0.001762859315202474
375.0, 0.001752645245974255
376.0, 0.0017354024785122394
377.0, 0.001691670535016988
378.0, 0.001639404045914484
379.0, 0.0015653216557362589
380.0, 0.0014792709133311119
381.0, 0.001371264622282927
382.0, 0.0012486931676872158
383.0, 0.0011063593641537002
384.0, 0.0009741791043854791
385.0, 0.0008523244129239586
386.0, 0.0007420024739684645
387.0, 0.0006404733949602853
388.0, 0.000557341329785094
389.0, 0.000484607075996806
390.0, 0.00044800151931033834
391.0, 0.0004261241026586223
392.0, 0.00040347229813732054
393.0, 0.0003806046156677199
394.0, 0.0003494621278297977
395.0, 0.0003168993014019995
396.0, 0.0002710359369467433
397.0, 0.00022409415048926104
398.0, 0.0001370783987543429
399.0, 5.93746297003304e-05
400.0, 0.0001109695771887532
401.0, 0.0001622011618816384
402.0, 0.0002111932240152067
403.0, 0.0002480514304292574
404.0, 0.0002395915241939029
405.0, 0.0002274532358037974
406.0, 0.00020598171954102403
407.0, 0.0001765512277935459
408.0, 0.0001326094250126896
409.0, 0.00010569848208328489
410.0, 0.00010175400164026879
411.0, 0.00015901384689784374
412.0, 0.00027814261338945776
413.0, 0.0003861653633052784
414.0, 0.0004857687841995063
415.0, 0.0005060476737310965
416.0, 0.0004817839313482511
417.0, 0.0004112163352810159
418.0, 0.0003219099553305502
419.0, 0.00023929289408554892
420.0, 0.00015852534322043508
421.0, 9.302651154053255e-05
422.0, 3.0117111769232707e-05
423.0, 7.819119485966935e-05
424.0, 0.00013506968808538983
425.0, 0.00034894150798497593
426.0, 0.0005571411978256255
427.0, 0.0006853111688968574
428.0, 0.0007876842378707653
429.0, 0.0007330271210800184
430.0, 0.0006700844943745842
431.0, 0.0005764550825947162
432.0, 0.0004695237714239376
433.0, 0.00032908964679779633
434.0, 0.00019851933555346926
435.0, 8.58159204629305e-05
436.0, 2.039021102550417e-05
437.0, 1.8355582576139053e-05
438.0, 5.230574215527768e-05
439.0, 0.0001224138322875134
440.0, 0.0001899171807822304
441.0, 0.0002554579525951274
442.0, 0.0003164838495465203
443.0, 0.00037498991450135544
444.0, 0.00039999605838948347
445.0, 0.0004115440057851539
446.0, 0.0003639334438060182
447.0, 0.00030011063139176794
448.0, 0.00025324726923746756
449.0, 0.00020922764488948275
450.0, 0.0002243605718718
451.0, 0.00024408292094008917
452.0, 0.0002503178342076172
453.0, 0.00025252549839602326
454.0, 0.0002021268760133083
455.0, 0.00014947424745065298
456.0, 8.326913011744645e-05
457.0, 2.9048344010243865e-05
458.0, 1.8818617737314953e-05
459.0, 1.573526877870649e-05
460.0, 3.052787203771298e-05
461.0, 8.015143456759403e-05
462.0, 0.00019245512201158577
463.0, 0.00034928784820219413
464.0, 0.0005654614650761308
465.0, 0.0007244404919881408
466.0, 0.0008262706663152443
467.0, 0.000798032013509484
468.0, 0.0006723895975377682
469.0, 0.0005889263538725925
470.0, 0.0005288508154176487
471.0, 0.0005705147296658203
472.0, 0.0006527719454122082
473.0, 0.000741915401975284
474.0, 0.0008329292820358732
475.0, 0.0008812338493777167
476.0, 0.0009224641734075949
477.0, 0.0009494609061701172
478.0, 0.0009753770344689084
479.0, 0.001001914183995387
480.0, 0.0010291395509864148
481.0, 0.0010651693551963282
482.0, 0.0011075644141407804
483.0, 0.0011877973762294324
484.0, 0.001278577034574692
485.0, 0.0014077278828257187
486.0, 0.0015217797075218966
487.0, 0.0015983390421719194
488.0, 0.001646238118834441
489.0, 0.001642874815482513
490.0, 0.001630658560399605
491.0, 0.001606716568691146
492.0, 0.001567156448224041
493.0, 0.0015120840424062633
494.0, 0.001457712225247042
495.0, 0.0014038620606340035
496.0, 0.0013436450675393256
497.0, 0.0012799207892761017
498.0, 0.001243889534403261
499.0, 0.0012188264642796205
500.0, 0.0012688279929047924
501.0, 0.001339048749575785
502.0, 0.0014564705461727974
503.0, 0.0015816145515359244
504.0, 0.001706415600718722
505.0, 0.0018311879438211356
506.0, 0.0019546099091328683
507.0, 0.0020720218924805173
508.0, 0.0021142278853046445
509.0, 0.0021354185215727212
510.0, 0.002033189074149104
511.0, 0.001944482071347545
512.0, 0.0019045680369288117
513.0, 0.0018894547851052536
514.0, 0.0019354755483136084
515.0, 0.0019837540402027295
516.0, 0.0020360445303779446
517.0, 0.0020777848264197144
518.0, 0.002105630937231062
519.0, 0.00213787187742715
520.0, 0.002174451750926773
521.0, 0.002240242168737158
522.0, 0.0023276495075417432
523.0, 0.002419084350259972
524.0, 0.002512724285650201
525.0, 0.0025834112005839443
526.0, 0.00264507423369431
527.0, 0.0026813188337436794
528.0, 0.0027107781001481086
529.0, 0.002695662440283292
530.0, 0.002673338567434418
531.0, 0.0025948373178892705
532.0, 0.0025124088401137436
533.0, 0.0024671915500959055
534.0, 0.0024257617090185117
535.0, 0.002430775837308981
536.0, 0.0024340802227402086
537.0, 0.002427463447226315
538.0, 0.002412764088030817
539.0, 0.0023691560828528217
540.0, 0.002329155691496689
541.0, 0.0022979877339802924
542.0, 0.002286708175885923
543.0, 0.0023105413229658482
544.0, 0.0023317264936710603
545.0, 0.002349445633882565
546.0, 0.002332729842291653
547.0, 0.002282206945637486
548.0, 0.0022225188154732164
549.0, 0.002156089578121196
550.0, 0.0021419381307745586
551.0, 0.002156221862397966
552.0, 0.0022127326903029145
553.0, 0.0022857304045202334
554.0, 0.002290124555052818
555.0, 0.002276370165470522
556.0, 0.002186704568164808
557.0, 0.002084916770576693
558.0, 0.0020886327021692698
559.0, 0.0021007218033773393
560.0, 0.002277413625654387
561.0, 0.0024495303915455765
562.0, 0.002566728632732155
563.0, 0.0026602471408690635
564.0, 0.0026178784477587144
565.0, 0.0025777058169656987
566.0, 0.0025453192252977725
567.0, 0.00254292477686848
568.0, 0.0026134271843039126
569.0, 0.002681206706933687
570.0, 0.002744208054298436
571.0, 0.002764009934900187
572.0, 0.0027276107604909056
573.0, 0.002670419210236625
574.0, 0.0025929365032349686
575.0, 0.0025335977598655367
576.0, 0.002487527732282554
577.0, 0.0024622824439115188
578.0, 0.0024482899567043054
579.0, 0.0024698846868935684
580.0, 0.0025052708834611267
581.0, 0.0025748899567303025
582.0, 0.0026534885702400703
583.0, 0.0026798796145967607
584.0, 0.002698038810240033
585.0, 0.002642277944927218
586.0, 0.002581326643071055
587.0, 0.002509133612999567
588.0, 0.0024356208631844426
589.0, 0.0023465946731175825
590.0, 0.0022617666173970503
591.0, 0.0022007466604611276
592.0, 0.002154345473263352
593.0, 0.002159354286599093
594.0, 0.002164670103869278
595.0, 0.0021707267122031203
596.0, 0.002161961024309753
597.0, 0.002127352896766479
598.0, 0.002089616855753608
599.0, 0.002047834614747955
600.0, 0.0020280619416932167
601.0, 0.002029639763632626
602.0, 0.002038635224290672
603.0, 0.0020530219543955725
604.0, 0.0020195999050185076
605.0, 0.0019605024982006264
606.0, 0.0018669714223790187
607.0, 0.0017601951606681379
608.0, 0.0017302208581376865
609.0, 0.001720209065597065
610.0, 0.0018096708148118603
611.0, 0.0019146307533801402
612.0, 0.0020056410939537812
613.0, 0.0020954338296619783
614.0, 0.0021521882251300684
615.0, 0.0022078236522737027
616.0, 0.0022505558882874523
617.0, 0.002290278265245904
618.0, 0.0023131303225588694
619.0, 0.002335051014349087
620.0, 0.002353724670931913
621.0, 0.0023697248144950835
622.0, 0.002379317244788319
623.0, 0.002392225623213302
624.0, 0.0024108780210796176
625.0, 0.002440253182686853
626.0, 0.0024834147548181275
627.0, 0.0025320800707161655
628.0, 0.002586054498970746
629.0, 0.002641344280167986
630.0, 0.002697584214696522
631.0, 0.002747353683107272
632.0, 0.0027936711117045308
633.0, 0.002826855756367123
634.0, 0.0028550239534349924
635.0, 0.0028696746511358445
636.0, 0.002880843980790463
637.0, 0.002846179455572982
638.0, 0.002804465602036073
639.0, 0.0026901105142592926
640.0, 0.0025714264396044764
641.0, 0.0024988119786837253
642.0, 0.0024327803949778736
643.0, 0.002441136133502326
644.0, 0.002445884965893677
645.0, 0.0024306352977878747
646.0, 0.0024086251169051255
647.0, 0.0023632483865134563
648.0, 0.002317719427129773
649.0, 0.00227182823579855
650.0, 0.002224084606382538
651.0, 0.002173151395223363
652.0, 0.0021269584258690596
653.0, 0.002086823032033055
654.0, 0.0020486141872717496
655.0, 0.0020122526407906896
656.0, 0.0019798077278424166
657.0, 0.0019501757922424346
658.0, 0.0019514076926669748
659.0, 0.001968997048414183
660.0, 0.00199915593211045
661.0, 0.0020340801767682348
662.0, 0.0020148088167622623
663.0, 0.0019816994125827925
664.0, 0.0019123581819209701
665.0, 0.0018375166578585786
666.0, 0.001848591123987829
667.0, 0.0018663318964280127
668.0, 0.001985877346359274
669.0, 0.002095661466297677
670.0, 0.0020973164573780197
671.0, 0.0020714684934274048
672.0, 0.0018948800948061807
673.0, 0.0017450613535060261
674.0, 0.0016870276817274226
675.0, 0.0016841672042403534
676.0, 0.001811652006878452
677.0, 0.0019292132686684325
678.0, 0.0020297977166084643
679.0, 0.0020901810092846403
680.0, 0.0020994821800587775
681.0, 0.002101523167171707
682.0, 0.0020966442917325465
683.0, 0.0021148755475157047
684.0, 0.002149602723871437
685.0, 0.0021695557660585466
686.0, 0.002181727012385846
687.0, 0.00212853303372438
688.0, 0.0020507438823242244
689.0, 0.0019724739828331003
690.0, 0.0018940824657006196
691.0, 0.0019017518970259931
692.0, 0.0019223265119747625
693.0, 0.001990635388086105
694.0, 0.0020612863068636142
695.0, 0.002082177247578486
696.0, 0.00210024058476781
697.0, 0.0020875495358681044
698.0, 0.0020843067088701125
699.0, 0.002132258932767029
700.0, 0.0021932619508639307
701.0, 0.00229863077924824
702.0, 0.0023872816342909438
703.0, 0.002436700083352616
704.0, 0.0024624157614682052
705.0, 0.0024478418483644296
706.0, 0.0024698725400881323
707.0, 0.0025381332158675328
708.0, 0.0026706265254695604
709.0, 0.0028639994603502886
710.0, 0.0030142061796129944
711.0, 0.0031337907117278767
712.0, 0.003162479646749358
713.0, 0.0031436093470388108
714.0, 0.0031152678679819707
715.0, 0.0030833877065320095
716.0, 0.0030720149708550076
717.0, 0.0030657819151741284
718.0, 0.00305959885935672
719.0, 0.003053423202210419
720.0, 0.003032500171243377
721.0, 0.003010783557505112
722.0, 0.0029963191267913655
723.0, 0.0029827197209055696
724.0, 0.00297834892879101
725.0, 0.002978685369362723
726.0, 0.003004258805532345
727.0, 0.00304766577353388
728.0, 0.0031511829677101245
729.0, 0.0032633673893964553
730.0, 0.0033957464800431843
731.0, 0.0035084694832992363
732.0, 0.0035879812060312876
733.0, 0.003647800889216588
734.0, 0.00368290115604708
735.0, 0.003694784169620516
736.0, 0.003684793635796405
737.0, 0.0036582756173449017
738.0, 0.0036201004235150063
739.0, 0.0036503786618688337
740.0, 0.003716236039746722
741.0, 0.0038581310628400005
742.0, 0.004028220990704711
743.0, 0.0041292334186192005
744.0, 0.004213084270391255
745.0, 0.004191294470681633
746.0, 0.004154081087429997
747.0, 0.004101648354544851
748.0, 0.004047957866507161
749.0, 0.003971763738516371
750.0, 0.0038991945194445476
751.0, 0.0038645704478638934
752.0, 0.003843740661886218
753.0, 0.0038960371045020556
754.0, 0.003948178541871247
755.0, 0.003999801634154126
756.0, 0.004044624368257736
757.0, 0.0040737147959307085
758.0, 0.004105752212223307
759.0, 0.004142737064272455
760.0, 0.004194646335699786
761.0, 0.0042651842888689505
762.0, 0.004336770399038381
763.0, 0.004409338090782809
764.0, 0.0044848234404956935
765.0, 0.0045623539796094984
766.0, 0.004616763984537972
767.0, 0.004659231535806264
768.0, 0.004593136517676245
769.0, 0.004487091662106902
770.0, 0.004372571338921718
771.0, 0.004255965152989957
772.0, 0.004328412472548749
773.0, 0.0044281146453018245
774.0, 0.004628166343536997
775.0, 0.004831581419034356
776.0, 0.0048964885322842246
777.0, 0.004950779955859744
778.0, 0.004895871158563967
779.0, 0.004844089030493255
780.0, 0.004808697519246569
781.0, 0.004777321393490426
782.0, 0.004759259987943104
783.0, 0.004748970857598687
784.0, 0.004756543605095254
785.0, 0.004779991184284502
786.0, 0.004829919405881066
787.0, 0.004868581380716261
788.0, 0.004893265939392432
789.0, 0.0049098506781352904
790.0, 0.004918892479118697
791.0, 0.004911803653073377
792.0, 0.004893477576505498
793.0, 0.004829544165831191
794.0, 0.004742210169598566
795.0, 0.004707507243026626
796.0, 0.004692034346822245
797.0, 0.0047971829604721685
798.0, 0.004931736817817922
799.0, 0.005043679879304113
800.0, 0.005152407584897081
801.0, 0.005183435115868658
802.0, 0.0052097697713219485
803.0, 0.00521793843314111
804.0, 0.005224111333138173
805.0, 0.005210129475289216
806.0, 0.00520081096570799
807.0, 0.005215686461000935
808.0, 0.005250929303719555
809.0, 0.005353143338573705
810.0, 0.0054558412449876355
811.0, 0.005559643305965121
812.0, 0.005632941634427497
813.0, 0.0056556598769171955
814.0, 0.0056741199269690085
815.0, 0.00568732903047281
816.0, 0.0057375678849664975
817.0, 0.005822084038325649
818.0, 0.005920790897013799
819.0, 0.006029326524524947
820.0, 0.0061021491579282775
821.0, 0.0061567702411945355
822.0, 0.006186746765335265
823.0, 0.006207787580001535
824.0, 0.0062570713857973805
825.0, 0.006313179236879813
826.0, 0.006386121837429483
827.0, 0.006461425525988812
828.0, 0.006473150444758885
829.0, 0.006480438251679276
830.0, 0.006439459950725793
831.0, 0.006407617497641772
832.0, 0.006466375527140978
833.0, 0.006542668022593947
834.0, 0.0067089335073584186
835.0, 0.006851491681676989
836.0, 0.006916702987217673
837.0, 0.006947810736711138
838.0, 0.006901645307936929
839.0, 0.006855232573112159
840.0, 0.006808412375869427
841.0, 0.0067606466018368325
842.0, 0.006711721380573926
843.0, 0.0067248645313242785
844.0, 0.006795118211776538
845.0, 0.006967026524685228
846.0, 0.007208907138205908
847.0, 0.007382525159911223
848.0, 0.007521569690552479
849.0, 0.007516406383057225
850.0, 0.007459356491429639
851.0, 0.007401674487491769
852.0, 0.00734384121216077
853.0, 0.007353345066258322
854.0, 0.007372170635905175
855.0, 0.007353759307546137
856.0, 0.007331345324884032
857.0, 0.007215959389279975
858.0, 0.007099708283760468
859.0, 0.00697501944583975
860.0, 0.006851765113182359
861.0, 0.006735791374066786
862.0, 0.006624218203618519
863.0, 0.006526883044203529
864.0, 0.0064330011607639185
865.0, 0.006346892516223376
866.0, 0.0062734011045633056
867.0, 0.006220565753483926
868.0, 0.006198453331242784
869.0, 0.006213785117590159
870.0, 0.00623046904249212
871.0, 0.006248390140510474
872.0, 0.006241108271546799
873.0, 0.006216578692485772
874.0, 0.00617217420577397
875.0, 0.006117771024351942
876.0, 0.006035548038538588
877.0, 0.005943387250722255
878.0, 0.005848483420659946
879.0, 0.005752929038576662
880.0, 0.005691058349426442
881.0, 0.005633785241275497
882.0, 0.0056012560622938435
883.0, 0.005570616871020115
884.0, 0.00556668805648512
885.0, 0.005562946595669259
886.0, 0.0055610003601727215
887.0, 0.005549238358760504
888.0, 0.005488161003290006
889.0, 0.005419973612152046
890.0, 0.005328959264397487
891.0, 0.005250497117733173
892.0, 0.005200091637950944
893.0, 0.005157229460402599
894.0, 0.005126643482023113
895.0, 0.005073194720136357
896.0, 0.004992038550411438
897.0, 0.004892710765459719
898.0, 0.0047768560751566035
899.0, 0.004690534558461389
900.0, 0.004624298775429614
901.0, 0.004588235563437033
902.0, 0.004567256374134362
903.0, 0.004513400236531644
904.0, 0.004447890438668703
905.0, 0.004345814464509774
906.0, 0.004235150089842699
907.0, 0.004153546246385476
908.0, 0.004075856490134209
909.0, 0.00403297385191294
910.0, 0.003992303764791705
911.0, 0.003971309719301757
912.0, 0.003952669994856281
913.0, 0.003956225699569366
914.0, 0.003955580656331555
915.0, 0.003934057268800496
916.0, 0.0039065039483730715
917.0, 0.0038597507160873473
918.0, 0.0037981926086472777
919.0, 0.0037037586190206734
920.0, 0.0035682202837397006
921.0, 0.0033662114559702945
922.0, 0.0031967726689867294
923.0, 0.0030665672821032068
924.0, 0.0029933922709964233
925.0, 0.0029717954839543485
926.0, 0.0029581674957200985
927.0, 0.002949925491328977
928.0, 0.0029732322468650533
929.0, 0.003012204788907933
930.0, 0.003005218345455041
931.0, 0.0029820589617229128
932.0, 0.002876643497037084
933.0, 0.0027520961175528246
934.0, 0.0026208188219647047
935.0, 0.002488648066739778
936.0, 0.0023390198367323027
937.0, 0.002189861182737885
938.0, 0.002089805757958211
939.0, 0.001996464654164328
940.0, 0.0019653447631196802
941.0, 0.0019428657838883687
942.0, 0.001962905820690588
943.0, 0.002008238367768782
944.0, 0.0021334447674648672
945.0, 0.0022329964712085675
946.0, 0.002275976281313677
947.0, 0.002239113118424856
948.0, 0.0020738974318052577
949.0, 0.001924223294996083
950.0, 0.0017931573552682077
951.0, 0.0017536069945077882
952.0, 0.0017963268105099747
953.0, 0.001828626583884222
954.0, 0.0018539244928007402
955.0, 0.0017901640554275288
956.0, 0.0016824795150537303
957.0, 0.0015787227122680382
958.0, 0.001476337332158819
959.0, 0.0014361917138962536
960.0, 0.0014103902661687959
961.0, 0.0014018975653126362
962.0, 0.001395669505430137
963.0, 0.0013928791293073516
964.0, 0.0013899617765034365
965.0, 0.0013768560548358467
966.0, 0.0013605812690667607
967.0, 0.001315432432116084
968.0, 0.0012709866833360013
969.0, 0.0012299639506728483
970.0, 0.001200989035718918
971.0, 0.0012097712543134055
972.0, 0.001211685285368936
973.0, 0.0011985594097402735
974.0, 0.0011409977129182938
975.0, 0.0010124541199043899
976.0, 0.0008890325085006698
977.0, 0.0007717090285430288
978.0, 0.000725021777904857
979.0, 0.0007414537028316505
980.0, 0.0007737474629142198
981.0, 0.0008166334157859358
982.0, 0.0008195189569739083
983.0, 0.0008028006605776435
984.0, 0.0007755751344671024
985.0, 0.0007447094976719203
986.0, 0.0007380238873906082
987.0, 0.0007368561460926863
988.0, 0.0007406946358328816
989.0, 0.000745179182034245
990.0, 0.0007379129576965296
991.0, 0.0007296296224489064
992.0, 0.0007047221661301245
993.0, 0.0006735487048526567
994.0, 0.000586168616842058
995.0, 0.0005013578936611692
996.0, 0.00042892466329867414
997.0, 0.00038443125441071593
998.0, 0.0004267877589477379
999.0, 0.00048418109571527276
1000.0, 0.0005742887346775552
1001.0, 0.0006765943790114855
1002.0, 0.0007983030681593865
1003.0, 0.0008933958511552013
1004.0, 0.0009569912080933028
1005.0, 0.000895480440408339
1006.0, 0.0007230265056047958
1007.0, 0.0005157518728933836
1008.0, 0.00028536000479887697
1009.0, 0.00016636430898046888
1010.0, 0.00010149424218774267
1011.0, 9.779967481957525e-05
1012.0, 0.00011515474166200559
1013.0, 0.00014589895305118543
1014.0, 0.00017966228526953366
1015.0, 0.00019555142257466715
1016.0, 0.00020916346402276073
1017.0, 0.00012824896349553533
1018.0, 4.750878224167619e-05
1019.0, 0.00010307300112791964
1020.0, 0.00015327716728123566
1021.0, 0.00015629184957013877
1022.0, 0.00015157575790430915
1023.0, 0.0001099038855415786
1024.0, 7.023189728018173e-05
1025.0, 3.672281716779254e-05
1026.0, 1.21489785811487e-05
1027.0, 6.915979246431898e-06
1028.0, 3.002647210314969e-05
1029.0, 9.784371037523813e-05
1030.0, 0.00017453662825821426
1031.0, 0.00026169085914661325
1032.0, 0.00031403392603988206
1033.0, 0.0003356304092914948
1034.0, 0.0003344453906648137
1035.0, 0.00031826160546154854
1036.0, 0.00028778206488180126
1037.0, 0.0002503879601288587
1038.0, 0.00021535794830667158
1039.0, 0.00018113286893007633
1040.0, 0.00016655224146525606
1041.0, 0.00015637177887173887
1042.0, 0.00016836060156777622
1043.0, 0.0001831174677589127
1044.0, 0.0002215796348369363
1045.0, 0.0002616565057988768
1046.0, 0.00032069961292319763
1047.0, 0.00038406373117072837
1048.0, 0.0004850584025980318
1049.0, 0.0005837002808309165
1050.0, 0.0006712504197186807
1051.0, 0.0007354803948506146
1052.0, 0.0007282331200968288
1053.0, 0.0007084501214283141
1054.0, 0.0006617823312194043
1055.0, 0.000620464787105929
1056.0, 0.0005875508429007105
1057.0, 0.0005622036138244969
1058.0, 0.0005457033683806767
1059.0, 0.0005474019660195663
1060.0, 0.0005651100722349797
1061.0, 0.0005862203182548528
1062.0, 0.0006095611062657292
1063.0, 0.0006260679453190188
1064.0, 0.0006392993413808014
1065.0, 0.0006301324555712793
1066.0, 0.0006133795385523355
1067.0, 0.000528882375287008
1068.0, 0.0004294136508854184
1069.0, 0.0003218872308074568
1070.0, 0.00021336491575825927
1071.0, 0.00015399905134571605
1072.0, 9.81248794222499e-05
1073.0, 8.766927896112033e-05
1074.0, 8.755930871110021e-05
1075.0, 0.0001756335197843294
1076.0, 0.0002606046325158572
1077.0, 0.0003310476030112307
1078.0, 0.0003600614952637982
1079.0, 0.0002634517309091792
1080.0, 0.00016802333754351663
1081.0, 7.511693052104988e-05
1082.0, 2.06448607852756e-05
1083.0, 2.603599158041746e-05
1084.0, 4.8205614322430386e-05
1085.0, 8.991382725365767e-05
1086.0, 8.527157033311273e-05
1087.0, 4.018115058313578e-05
1088.0, 4.1074100014827116e-05
1089.0, 7.198924916016738e-05
1090.0, 7.508618895181549e-05
1091.0, 6.491092546244974e-05
1092.0, 6.0763517112530036e-05
1093.0, 5.8636124303332315e-05
1094.0, 0.00013703749260661734
1095.0, 0.00023311590603216232
1096.0, 0.0003021570931234782
1097.0, 0.0003679247146945081
1098.0, 0.0002838339044952181
1099.0, 0.00019450559263913203
1100.0, 0.00011952266586570551
1101.0, 5.946456976763733e-05
1102.0, 0.000125281932384391
1103.0, 0.0001911902063441406
1104.0, 0.0002575183068428935
1105.0, 0.000305880307619982
1106.0, 0.00030005539718836247
1107.0, 0.00029113847345794064
1108.0, 0.00027568112284313373
1109.0, 0.0002399067466054023
1110.0, 0.00017262024899334597
1111.0, 0.00015141433092936686
1112.0, 0.00018343942717093768
1113.0, 0.0003560115078425938
1114.0, 0.0006507412478786764
1115.0, 0.0009007990057439019
1116.0, 0.0011219340469812047
1117.0, 0.0011931711758988185
1118.0, 0.001193217850882929
1119.0, 0.0011746882543150572
1120.0, 0.0011499665672298576
1121.0, 0.001143139155703712
1122.0, 0.0011401866602961965
1123.0, 0.0011355964239916055
1124.0, 0.0011308099522155846
1125.0, 0.0011049506781168376
1126.0, 0.0010798069827841418
1127.0, 0.0010942911128191785
1128.0, 0.001118821059262118
1129.0, 0.00122632200788889
1130.0, 0.001325148908360713
1131.0, 0.0013841914874067876
1132.0, 0.0014173454180398592
1133.0, 0.0013732459715361117
1134.0, 0.0013378551870814434
1135.0, 0.0013208012748916163
1136.0, 0.001313181545625195
1137.0, 0.0013200722601445197
1138.0, 0.0013751872685419375
1139.0, 0.0014857861419389003
1140.0, 0.0016741524603334367
1141.0, 0.0019295696670592044
1142.0, 0.0021652293093614456
1143.0, 0.002388150521969568
1144.0, 0.002578574888118245
1145.0, 0.0027537066206389524
1146.0, 0.002902055560473833
1147.0, 0.003041524453199829
1148.0, 0.0031521910871910234
1149.0, 0.003256663310737434
1150.0, 0.003362703899867886
1151.0, 0.0034689284871953483
1152.0, 0.0035807277838936767
1153.0, 0.0036922808106148747
1154.0, 0.0037926320744045687
1155.0, 0.003891410704966416
1156.0, 0.003977334140977695
1157.0, 0.00406905284293542
1158.0, 0.004186994322849717
1159.0, 0.0043118557562517165
1160.0, 0.004457257369053725
1161.0, 0.004597662151184339
1162.0, 0.004727641447099332
1163.0, 0.004850418454182467
1164.0, 0.004962164107485163
1165.0, 0.005064522703327678
1166.0, 0.005156167591191022
1167.0, 0.00523977674654656
1168.0, 0.0053164853286333125
1169.0, 0.005391116083672758
1170.0, 0.005464418391911463
1171.0, 0.005543452082199067
1172.0, 0.0056251705167944515
1173.0, 0.005744010358780402
1174.0, 0.005875026811158746
1175.0, 0.006024874662803969
1176.0, 0.0061787447550692995
1177.0, 0.00630232288046235
1178.0, 0.006422384973986293
1179.0, 0.00652080048965126
1180.0, 0.006618493062579944
1181.0, 0.006716004440546142
1182.0, 0.006811634246434011
1183.0, 0.0068921945245954425
1184.0, 0.006961187355934525
1185.0, 0.006978190233973159
1186.0, 0.006995896972688055
1187.0, 0.007015670955751346
1188.0, 0.007048187087309466
1189.0, 0.007107167681126072
1190.0, 0.007194425041170425
1191.0, 0.007324631746391943
1192.0, 0.007535470040701808
1193.0, 0.007837966466197542
1194.0, 0.008117429913327897
1195.0, 0.008377272675184035
1196.0, 0.008509833501387945
1197.0, 0.00856135885628466
1198.0, 0.008600040408976014
1199.0, 0.00863276078260573
1200.0, 0.008719707911921589
1201.0, 0.008824347059670867
1202.0, 0.00893320115756106
1203.0, 0.009042943150517256
1204.0, 0.009143823867776691
1205.0, 0.009243687069543632
1206.0, 0.009319434134199169
1207.0, 0.009393404779390789
1208.0, 0.009443870517550489
1209.0, 0.009490726666892204
1210.0, 0.009508963933462782
1211.0, 0.009518381666714997
1212.0, 0.009488686686990114
1213.0, 0.009473794668910306
1214.0, 0.00950215051916608
1215.0, 0.009559450947969112
1216.0, 0.00967632232895044
1217.0, 0.009780074966259149
1218.0, 0.009863984679721327
1219.0, 0.009922945382945542
1220.0, 0.00995377209590142
1221.0, 0.009981520949569247
1222.0, 0.010006658458665512
1223.0, 0.010028969325129087
1224.0, 0.01004949567169242
1225.0, 0.010077983814951038
1226.0, 0.010110150215162449
1227.0, 0.01014868598971918
1228.0, 0.010189277488270958
1229.0, 0.010217414748900653
1230.0, 0.010242946709457164
1231.0, 0.010251808653534205
1232.0, 0.010258797770398313
1233.0, 0.010246549157029203
1234.0, 0.010232455940086604
1235.0, 0.01018985943522543
1236.0, 0.01013714344249623
1237.0, 0.01000577950019627
1238.0, 0.009869506842809548
1239.0, 0.009711609305446003
1240.0, 0.00958882663015041
1241.0, 0.009567562797331385
1242.0, 0.009551454857170832
1243.0, 0.009545910209286171
1244.0, 0.0094536187745279
1245.0, 0.009231207159459263
1246.0, 0.009010181432455036
1247.0, 0.008790712254890453
1248.0, 0.008708723252651087
1249.0, 0.008742440401652332
1250.0, 0.008812776671337532
1251.0, 0.008906134082039028
1252.0, 0.00897817995015869
1253.0, 0.009040470972256928
1254.0, 0.009065830104355804
1255.0, 0.009079333953403372
1256.0, 0.008971171677779824
1257.0, 0.0088379130121457
1258.0, 0.008781494546243085
1259.0, 0.00873361388031063
1260.0, 0.008905653694243672
1261.0, 0.009082517500967086
1262.0, 0.009225749099131972
1263.0, 0.00935715982165415
1264.0, 0.009397601196838962
1265.0, 0.009436723936744188
1266.0, 0.009470113786369706
1267.0, 0.00950229456305782
1268.0, 0.009530998083468589
1269.0, 0.009567566606968596
1270.0, 0.009620103470074038
1271.0, 0.009685483050072448
1272.0, 0.00977004663859676
1273.0, 0.00984264931826782
1274.0, 0.009901925573064331
1275.0, 0.00994811461617801
1276.0, 0.00998333349655756
1277.0, 0.010102897307568231
1278.0, 0.01027503977663467
1279.0, 0.010532409098858723
1280.0, 0.010828608122739758
1281.0, 0.01113209884777882
1282.0, 0.01143790485605778
1283.0, 0.011774146379524095
1284.0, 0.01211662168320951
1285.0, 0.012550586655619811
1286.0, 0.012994491747248555
1287.0, 0.01352439579235196
1288.0, 0.014059812471701651
1289.0, 0.014661574689838804
1290.0, 0.015270852614992537
1291.0, 0.015937405410858828
1292.0, 0.016584477335705436
1293.0, 0.017147408477211763
1294.0, 0.017784692578555687
1295.0, 0.01863359664251432
1296.0, 0.01960268175159275
1297.0, 0.0208146705440101
1298.0, 0.02231909417675533
1299.0, 0.024256727734254236
1300.0, 0.026270265689081557
1301.0, 0.028368035105923135
1302.0, 0.031779044005123394
1303.0, 0.0362820139391052
1304.0, 0.04267101878337961
1305.0, 0.05023077139206598
1306.0, 0.060086114712217684
1307.0, 0.07097763903565743
1308.0, 0.08548842890186725
1309.0, 0.10114214472895187
1310.0, 0.11526157400659166
1311.0, 0.1290711954232861
1312.0, 0.14026016990405257
1313.0, 0.15116763524552226
1314.0, 0.16083400417856675
1315.0, 0.17039742997917587
1316.0, 0.17848588576209043
1317.0, 0.18706231500187762
1318.0, 0.19928613906337597
1319.0, 0.21250779006548134
1320.0, 0.2300111217492368
1321.0, 0.25058796796447463
1322.0, 0.27986721739337495
1323.0, 0.3137280804305889
1324.0, 0.3567659292838513
1325.0, 0.41046906190930393
1326.0, 0.4799061280204633
1327.0, 0.5546995032944915
1328.0, 0.6353893197478098
1329.0, 0.716324191299188
1330.0, 0.7974620061036214
1331.0, 0.8666619245237739
1332.0, 0.9285139616476218
1333.0, 0.966409678074244
1334.0, 0.9935424098397968
1335.0, 0.995448492206194
1336.0, 0.989475384865241
1337.0, 0.9476913299970487
1338.0, 0.8987278894901465
1339.0, 0.8354106614523702
1340.0, 0.7705866822373194
1341.0, 0.6892285748643316
1342.0, 0.6080898614752213
1343.0, 0.5393662377176506
1344.0, 0.4730790227494922
1345.0, 0.4248294224323753
1346.0, 0.37853347913636304
1347.0, 0.34051244961036775
1348.0, 0.30484285498671404
1349.0, 0.27579676783606993
1350.0, 0.24776608975501604
1351.0, 0.22176014951931222
1352.0, 0.1969124518799548
1353.0, 0.1737593259209666
1354.0, 0.15394370818849507
1355.0, 0.13778745482178367
1356.0, 0.12470705906220765
1357.0, 0.11415346071760098
1358.0, 0.10334458506230097
1359.0, 0.09237924911980178
1360.0, 0.08188149925131577
1361.0, 0.07159186572791079
1362.0, 0.06339213226045692
1363.0, 0.05584155516687018
1364.0, 0.050040042368836184
1365.0, 0.04458415305435443
1366.0, 0.0407787379935546
1367.0, 0.03714456419086316
1368.0, 0.03448605033302501
1369.0, 0.03188590998834235
1370.0, 0.029992734357204547
1371.0, 0.028126612814829283
1372.0, 0.026457024694125517
1373.0, 0.02478580256519657
1374.0, 0.023107703984986655
1375.0, 0.021483384424139038
1376.0, 0.02000899425060456
1377.0, 0.018605352261552955
1378.0, 0.01734215069841508
1379.0, 0.01620129752262526
1380.0, 0.015238706247811887
1381.0, 0.014432804121846289
1382.0, 0.013797330068009447
1383.0, 0.013277854349985276
1384.0, 0.012853286361262395
1385.0, 0.012547340278315354
1386.0, 0.012313482749039135
1387.0, 0.012054554611974352
1388.0, 0.01178452015948231
1389.0, 0.011511623957735601
1390.0, 0.01123784865654465
1391.0, 0.011068715669464716
1392.0, 0.010920110600463974
1393.0, 0.010825261305572223
1394.0, 0.010735858630964648
1395.0, 0.010617756062667062
1396.0, 0.010498299501960046
1397.0, 0.01036510353328426
1398.0, 0.010226734142031029
1399.0, 0.010051133070261469
1400.0, 0.009886201744436687
1401.0, 0.009765599363104142
1402.0, 0.00968867914672131
1403.0, 0.009732915123689508
1404.0, 0.009757062346539511
1405.0, 0.009741687777162916
1406.0, 0.009656842344196113
1407.0, 0.009471196050333672
1408.0, 0.00933527539202619
1409.0, 0.009253224172236577
1410.0, 0.009270836699641943
1411.0, 0.009369335746509931
1412.0, 0.009425319256295918
1413.0, 0.009455575065472094
1414.0, 0.009441239684105748
1415.0, 0.009407335506889804
1416.0, 0.009347748970008769
1417.0, 0.009280316908112554
1418.0, 0.009191834893588475
1419.0, 0.009099283556480013
1420.0, 0.008995569470376946
1421.0, 0.008890737881349229
1422.0, 0.008833359662549058
1423.0, 0.00878696543276788
1424.0, 0.008924062300674954
1425.0, 0.009063061809577682
1426.0, 0.009215502556481967
1427.0, 0.009348174615030725
1428.0, 0.009399237472932273
1429.0, 0.009437622435164853
1430.0, 0.009441202537751926
1431.0, 0.00942945237717306
1432.0, 0.009387676671576882
1433.0, 0.009356010899037755
1434.0, 0.009338893566751456
1435.0, 0.009340981859635373
1436.0, 0.009363793062006492
1437.0, 0.009401331972973806
1438.0, 0.009450775559786502
1439.0, 0.009515120885050035
1440.0, 0.00958840725338407
1441.0, 0.009642627461837054
1442.0, 0.009688519922296013
1443.0, 0.009724415374045442
1444.0, 0.009757290896080533
1445.0, 0.00985187471793956
1446.0, 0.009958300060980542
1447.0, 0.010109987261331898
1448.0, 0.010266096311629048
1449.0, 0.010460148205777807
1450.0, 0.010653143666626607
1451.0, 0.010815448026535699
1452.0, 0.010956884891197834
1453.0, 0.010952249289131273
1454.0, 0.010955721010023178
1455.0, 0.010992239331603683
1456.0, 0.011070197662939702
1457.0, 0.011261342886593004
1458.0, 0.011460417570843134
1459.0, 0.011674884737428287
1460.0, 0.011895969363906451
1461.0, 0.012126537406143703
1462.0, 0.012314109512466401
1463.0, 0.012455659053845358
1464.0, 0.012544148602248516
1465.0, 0.012589921983021357
1466.0, 0.012643758083479954
1467.0, 0.012702411208159754
1468.0, 0.012769398775613377
1469.0, 0.012839992362719856
1470.0, 0.012881426260507426
1471.0, 0.012914100875807782
1472.0, 0.012935974319052123
1473.0, 0.012955805685772195
1474.0, 0.013008220817532157
1475.0, 0.013063779996795968
1476.0, 0.013119055694339948
1477.0, 0.013173734411994898
1478.0, 0.0132182351286224
1479.0, 0.013256288947572348
1480.0, 0.013250026690360827
1481.0, 0.013221062179249392
1482.0, 0.013100142074058553
1483.0, 0.012992593218527852
1484.0, 0.012921196260226413
1485.0, 0.012885620534119442
1486.0, 0.01291927117756134
1487.0, 0.012918400316998542
1488.0, 0.012868463783673623
1489.0, 0.012775962392369215
1490.0, 0.012638081937599055
1491.0, 0.012542371008786362
1492.0, 0.012480335025162723
1493.0, 0.012432674819564548
1494.0, 0.012393566711579608
1495.0, 0.012209690658457359
1496.0, 0.011963475332822498
1497.0, 0.011702104482681767
1498.0, 0.01143623218622217
1499.0, 0.011412084978778563
1500.0, 0.01143329711107901
1501.0, 0.011411129005269338
1502.0, 0.011384879170272059
1503.0, 0.011031039291631909
1504.0, 0.010674440982809348
1505.0, 0.01035473962830642
1506.0, 0.010058756638949805
1507.0, 0.009924355012152532
1508.0, 0.009786152582221416
1509.0, 0.00963274693975493
1510.0, 0.009467835148462443
1511.0, 0.009271971392246867
1512.0, 0.009092507446687227
1513.0, 0.008944456549526839
1514.0, 0.008815177464532763
1515.0, 0.008712469108836897
1516.0, 0.008659122343582768
1517.0, 0.008657981046408973
1518.0, 0.008648485130027115
1519.0, 0.008632344516501321
1520.0, 0.008440992631098343
1521.0, 0.008146296736368719
1522.0, 0.007854331664011348
1523.0, 0.007563536944099231
1524.0, 0.007452728728614073
1525.0, 0.0073950771491514055
1526.0, 0.0072844663980033125
1527.0, 0.007164066984790144
1528.0, 0.006850124526816234
1529.0, 0.00651820266031263
1530.0, 0.006329490108827211
1531.0, 0.006155856425210777
1532.0, 0.006196489178462561
1533.0, 0.00622084133085372
1534.0, 0.0061362386928700205
1535.0, 0.006028972100177308
1536.0, 0.005831613468616439
1537.0, 0.005609677695312658
1538.0, 0.005322292903521309
1539.0, 0.0050390639974669145
1540.0, 0.004763760268864383
1541.0, 0.00458411283266141
1542.0, 0.004538752114634773
1543.0, 0.004502365562194241
1544.0, 0.004475432288902928
1545.0, 0.004355415049461586
1546.0, 0.004161963053182736
1547.0, 0.004014497521396301
1548.0, 0.003894039913200637
1549.0, 0.0038764217326187826
1550.0, 0.003902459035553902
1551.0, 0.0039380773662574895
1552.0, 0.003976509271739141
1553.0, 0.004002351705996908
1554.0, 0.004025884828965087
1555.0, 0.003935944597930957
1556.0, 0.003835733605302276
1557.0, 0.0036524256012363545
1558.0, 0.003471827797516986
1559.0, 0.0033495017811603304
1560.0, 0.0032321165144987263
1561.0, 0.0031475061446691564
1562.0, 0.003068948723053102
1563.0, 0.003014155832107847
1564.0, 0.0029595456774510333
1565.0, 0.002905419707266511
1566.0, 0.002849295910171801
1567.0, 0.0027893958737728614
1568.0, 0.0027268901172820457
1569.0, 0.002660741351645992
1570.0, 0.0025924746698863426
1571.0, 0.0025219947874331196
1572.0, 0.002460115207520927
1573.0, 0.002404993008176688
1574.0, 0.002356659953040236
1575.0, 0.0023122800704804694
1576.0, 0.0022358884413834572
1577.0, 0.0021459726462529274
1578.0, 0.002044832828021453
1579.0, 0.0019404344224380934
1580.0, 0.0018571817933447374
1581.0, 0.0017777783954327768
1582.0, 0.0017520469802295767
1583.0, 0.001731109794418669
1584.0, 0.0018949571890216784
1585.0, 0.0020538965287211644
1586.0, 0.0021085519782242986
1587.0, 0.002121840111741546
1588.0, 0.001865463110223067
1589.0, 0.0016245857891796255
1590.0, 0.001444187613519192
1591.0, 0.0012922195649742259
1592.0, 0.0012148290962538666
1593.0, 0.0011505121296422516
1594.0, 0.001110797459506172
1595.0, 0.0010793464374188625
1596.0, 0.0010593540776617052
1597.0, 0.00101831419949029
1598.0, 0.0009553677205203625
1599.0, 0.0008934310770455067
