30, 0.0
31, 0.0
32, 0.0
33, 0.0
34, 0.0
35, 0.0
36, 0.0
37, 0.0
38, 0.0
39, 0.0
40, 0.0
41, 0.0
42, 0.0
43, 0.0
44, 0.0
45, 0.0
46, 0.0
47, 0.0
48, 0.0
49, 0.0
50, 0.0
51, 0.0
52, 0.0
53, 0.0
54, 0.0
55, 0.0
56, 0.0
57, 0.0
58, 0.0
59, 0.0
60, 0.0
61, 0.0
62, 0.0
63, 0.0
64, 0.0
65, 0.0
66, 0.0
67, 0.0
68, 0.0
69, 0.0
70, 0.0
71, 0.0
72, 0.0
73, 0.0
74, 0.0
75, 0.0
76, 0.0
77, 0.0
78, 0.0
79, 0.0
80, 0.0
81, 0.0
82, 0.0
83, 0.0
84, 0.0
85, 0.0
86, 0.0
87, 0.0
88, 0.0
89, 0.0
90, 0.0
91, 0.0
92, 0.0
93, 0.0
94, 0.0
95, 0.0
96, 0.0
97, 0.0
98, 0.0
99, 0.0
100, 0.0
101, 0.0
102, 0.0
103, 0.0
104, 0.0
105, 0.0
106, 0.0
107, 0.0
108, 0.0
109, 0.0
110, 0.0
111, 0.0
112, 0.0
113, 0.0
114, 0.0
115, 0.0
116, 0.0
117, 0.0
118, 0.0
119, 0.0
120, 0.0
121, 0.0
122, 0.0
123, 0.0
124, 0.0
125, 0.0
126, 0.0
127, 0.0
128, 0.0
129, 0.0
130, 0.0
131, 0.0
132, 0.0
133, 0.0
134, 0.0
135, 0.0
136, 0.0
137, 0.0
138, 0.0
139, 0.0
140, 0.0
141, 0.0
142, 0.0
143, 0.0
144, 0.0
145, 0.0
146, 0.0
147, 0.0
148, 0.0
149, 0.0
150, 0.0
151, 0.0
152, 0.0
153, 0.0
154, 0.0
155, 0.0
156, 0.0
157, 0.0
158, 0.0
159, 0.0
160, 0.0
161, 0.0
162, 0.0
163, 0.0
164, 0.0
165, 0.0
166, 0.0
167, 0.0
168, 0.0
169, 0.0
170, 0.0
171.0, 0.000692265180883203
172.0, 0.0025103878195025225
173.0, 0.005240712394670749
174.0, 0.003715616963156494
175.0, 0.0013370837901314223
176.0, 0.0017831814725837467
177.0, 0.0034261672740903545
178.0, 0.001921764221494134
179.0, 0.003125033918974871
180.0, 0.003197871383127415
181.0, 0.002820736084073593
182.0, 0.0024652995702347533
183.0, 0.002361267728249337
184.0, 0.002224308887320841
185.0, 0.0037472424410959857
186.0, 0.00418983240718396
187.0, 0.003649588722180866
188.0, 0.003148093268559654
189.0, 0.004077043169593138
190.0, 0.0030530500820097565
191.0, 0.0028329381010314307
192.0, 0.002560697374087264
193.0, 0.002077416028614932
194.0, 0.00196821368211619
195.0, 0.004536094018965682
196.0, 0.00279811996116405
197.0, 0.002320044973363028
198.0, 0.0035751737228341906
199.0, 0.004896795761833816
200.0, 0.003172394346000602
201.0, 0.004116282416793187
202.0, 0.0032898466927326715
203.0, 0.0019323272894037381
204.0, 0.002158640273091313
205.0, 0.004569387074575826
206.0, 0.0025614285190638988
207.0, 0.005711653895193478
208.0, 0.006144211809027076
209.0, 0.003959428678496433
210.0, 0.0017993592407678095
211.0, 0.0037292079302448816
212.0, 0.004041666753363345
213.0, 0.007406384549363789
214.0, 0.006844277990164648
215.0, 0.004649620226648181
216.0, 0.005168090598105066
217.0, 0.0043623735758514
218.0, 0.002343209359645035
219.0, 0.0037555866019037417
220.0, 0.0037675976054203446
221.0, 0.002092840771912713
222.0, 0.0045974682991505355
223.0, 0.004170263724451234
224.0, 0.004943496110474988
225.0, 0.0045455430900045585
226.0, 0.0036304987143022343
227.0, 0.003823269415684822
228.0, 0.005887790435694808
229.0, 0.0038007375133991966
230.0, 0.004999660769018828
231.0, 0.0066105709446548306
232.0, 0.006177340949250947
233.0, 0.003344210670453492
234.0, 0.005113589472056322
235.0, 0.0029492241260413382
236.0, 0.003539931351927059
237.0, 0.004341194295739685
238.0, 0.002928509512173314
239.0, 0.0045739890035065844
240.0, 0.0037191353888464326
241.0, 0.002640991141481733
242.0, 0.0023753273419586294
243.0, 0.002519934796186472
244.0, 0.0021303762116050883
245.0, 0.004280121291394079
246.0, 0.002823615793992519
247.0, 0.002934835343643446
248.0, 0.003992956018287528
249.0, 0.004252287674173686
250.0, 0.0023663795823802088
251.0, 0.002938475572533609
252.0, 0.004456530586310972
253.0, 0.003860707736035669
254.0, 0.0032205036344195425
255.0, 0.005255308375715463
256.0, 0.004427810986339346
257.0, 0.004569425306729304
258.0, 0.005109972605809178
259.0, 0.005574796580056316
260.0, 0.005232140422432471
261.0, 0.003480910651895815
262.0, 0.004126829162703087
263.0, 0.0034028144586541057
264.0, 0.0036365347005312388
265.0, 0.004180505663271097
266.0, 0.004376003205376227
267.0, 0.005470574091396942
268.0, 0.005976340636786893
269.0, 0.005091698116374236
270.0, 0.004192994686780868
271.0, 0.002961829958677281
272.0, 0.0013363024524457017
273.0, 0.005778223856041919
274.0, 0.002728814225854953
275.0, 0.0034629800178786053
276.0, 0.004284443144287361
277.0, 0.0031959232918474844
278.0, 0.0022458945543511193
279.0, 0.0005875777788030297
280.0, 0.002126933049189295
281.0, 0.003983573778981718
282.0, 0.004097786246024341
283.0, 0.002731725128430341
284.0, 0.004134749393278259
285.0, 0.0036169927248192657
286.0, 0.003399085716817568
287.0, 0.002583959100927309
288.0, 0.0026467700828549353
289.0, 0.004660126855888243
290.0, 0.0033395785759508436
291.0, 0.003887716017980725
292.0, 0.0032844303362137388
293.0, 0.0016003309586926427
294.0, 0.000610704169793935
295.0, 0.0023295726940586385
296.0, 0.0014486119911890426
297.0, 0.0019721626757845914
298.0, 0.002310580429293285
299.0, 0.0020100347038985006
300.0, 0.0017827882393246616
301.0, 0.003311681763992284
302.0, 0.0013034817236604922
303.0, 0.0014829741600540587
304.0, 0.0022993363916951263
305.0, 0.0028357047659072
306.0, 0.0032418100103431984
307.0, 0.005476314641804375
308.0, 0.0033511679823931867
309.0, 0.0023218069327255284
310.0, 0.0022158312204093433
311.0, 0.003144549234986062
312.0, 0.0050617536229107364
313.0, 0.006599918746858841
314.0, 0.003768190565352279
315.0, 0.002919925981530515
316.0, 0.0018480969588684046
317.0, 0.0011381418911800825
318.0, 0.0031433199611605542
319.0, 0.0034583656975572994
320.0, 0.005764435103219675
321.0, 0.005300739519321444
322.0, 0.0031934460489159576
323.0, 0.0016390615994999204
324.0, 0.0023558012905447196
325.0, 0.0026583438992578085
326.0, 0.0016507310352160073
327.0, 0.0012597008947915
328.0, 0.0024198699591617898
329.0, 0.003888728506162187
330.0, 0.0021495633360381836
331.0, 0.005728042197210065
332.0, 0.00611310691965216
333.0, 0.005658229010731197
334.0, 0.003666070508199284
335.0, 0.0009770394569910824
336.0, 0.0033439772732879063
337.0, 0.0030362477376729377
338.0, 0.0036390095143768223
339.0, 0.005418392560551502
340.0, 0.005457852060219327
341.0, 0.002730849274610121
342.0, 0.004695472082178525
343.0, 0.0025465840292297885
344.0, 0.003974412497975282
345.0, 0.005535068288712866
346.0, 0.004425480447873855
347.0, 0.001341420071721929
348.0, 0.0059321424303840666
349.0, 0.003855573258278556
350.0, 0.003517726308276471
351.0, 0.0049281391917193025
352.0, 0.005216832936430836
353.0, 0.002562416543551999
354.0, 0.00556500347465815
355.0, 0.0028732608841671448
356.0, 0.0021729991439064155
357.0, 0.002452847089513967
358.0, 0.003288916609740908
359.0, 0.004631460638539624
360.0, 0.0028071335381690474
361.0, 0.0031735365409238433
362.0, 0.0022784792090965967
363.0, 0.0020538664834803505
364.0, 0.0026873773779187106
365.0, 0.002986219779269772
366.0, 0.005863790133851173
367.0, 0.0014875172728834542
368.0, 0.0012561405664738721
369.0, 0.001583803620580384
370.0, 0.0006618084032145203
371.0, 0.0002598694258860786
372.0, 0.0014431352650803638
373.0, 0.0006351757471895766
374.0, 0.0002324022949895051
375.0, 0.00019124025534018383
376.0, 0.0003174299862937406
377.0, 0.000527350822860178
378.0, 0.00010983732082405395
379.0, 0.001070939643300784
380.0, 0.002376389745608778
381.0, 0.003091180553402236
382.0, 0.0034770531526530733
383.0, 0.004562678402115863
384.0, 0.004918097591534034
385.0, 0.0036402834956574884
386.0, 0.003382834518990157
387.0, 0.0029622965674418974
388.0, 0.0021373002122373934
389.0, 0.0022882790043229104
390.0, 0.005886088417279462
391.0, 0.005383655110879936
392.0, 0.004732824109377136
393.0, 0.00406389864226348
394.0, 0.002825640462914591
395.0, 0.0009551148335246349
396.0, 0.0017271089304637301
397.0, 0.0037236540826456545
398.0, 0.003263785237148052
399.0, 0.003362570960508005
400.0, 0.004483132614395192
401.0, 0.0045434414899276025
402.0, 0.0030091380768965956
403.0, 0.002523334456775291
404.0, 0.0021105797852599153
405.0, 0.0030746526881513677
406.0, 0.0032149960974215573
407.0, 0.00041264746084710194
408.0, 0.003134931457385757
409.0, 0.0011305058314562797
410.0, 0.001040682005363843
411.0, 0.0008275515844755242
412.0, 0.001714341083647524
413.0, 0.004482260512638496
414.0, 0.0009434074296829826
415.0, 0.004501289019453191
416.0, 0.003220735615013042
417.0, 0.0012480685466567068
418.0, 0.0017072114991738907
419.0, 0.003997923776772548
420.0, 0.001364622081884805
421.0, 0.00213119302441854
422.0, 0.003335987272557657
423.0, 0.00376652738878112
424.0, 0.0031859213481249737
425.0, 0.0025619176151827415
426.0, 0.003967661839707102
427.0, 0.0028079675614429127
428.0, 0.0021348987887746247
429.0, 0.002761539272217121
430.0, 0.002297639424408248
431.0, 0.0013527044355635396
432.0, 0.005271219546607771
433.0, 0.0037786677587400316
434.0, 0.007024881590425261
435.0, 0.005442869279872792
436.0, 0.0031395387627651803
437.0, 0.003671232180094194
438.0, 0.005257047472944492
439.0, 0.0009722615196751821
440.0, 0.003982393464939357
441.0, 0.002818884167148538
442.0, 0.0015597906891911375
443.0, 0.0027903846764902466
444.0, 0.004696538036249875
445.0, 0.0016424827956601912
446.0, 0.0013904875095985096
447.0, 0.0033369060915601685
448.0, 0.003921936195519201
449.0, 0.002687101908902283
450.0, 0.0014489927094190186
451.0, 0.00207576639010203
452.0, 0.000652948868900409
453.0, 0.0007830652192513851
454.0, 0.0006096412017964472
455.0, 0.000506812564255683
456.0, 0.0016496388412893248
457.0, 0.00446854272503875
458.0, 0.004371741438947415
459.0, 0.005080173297118605
460.0, 0.004134018757618913
461.0, 0.003445148519095802
462.0, 0.003475547892607468
463.0, 0.0023776458152524383
464.0, 0.004657825791733865
465.0, 0.004760410343544099
466.0, 0.0034426960913635013
467.0, 0.0016221954494050298
468.0, 0.0008579148269995253
469.0, 0.0021366414883446055
470.0, 0.0031057524458762385
471.0, 0.0026748550422856492
472.0, 0.0036975441336643856
473.0, 0.002714088030917854
474.0, 0.002458409250467178
475.0, 0.005237904231124685
476.0, 0.005934473287159663
477.0, 0.0040422399188330665
478.0, 0.002283884058816299
479.0, 0.0025072980860029164
480.0, 0.002159096667023
481.0, 0.0005576729481896108
482.0, 0.0007897272338757235
483.0, 0.004516737807763872
484.0, 0.0028534873105149658
485.0, 0.0034117563828745217
486.0, 0.0059224725599426485
487.0, 0.007179386275198975
488.0, 0.005445302012040742
489.0, 0.007496553694269243
490.0, 0.004950216074554087
491.0, 0.0023085158001253676
492.0, 0.002514371979424334
493.0, 0.00370142275148988
494.0, 0.0037463123589910868
495.0, 0.0036896826092594694
496.0, 0.0022524164275875623
497.0, 0.003408048128354224
498.0, 0.0030072473062541538
499.0, 0.0035432268315040588
500.0, 0.004952851721863436
501.0, 0.004775182007106505
502.0, 0.007086451722561053
503.0, 0.0030648633419986925
504.0, 0.0033390969283036884
505.0, 0.002072403510110703
506.0, 0.0005750606926341091
507.0, 0.002017528258839293
508.0, 0.004021900145110184
509.0, 0.003350118304187128
510.0, 0.004474016566343494
511.0, 0.004303860484399965
512.0, 0.0033603110657239406
513.0, 0.002767586778504193
514.0, 0.002827360184301337
515.0, 0.002102984610667563
516.0, 0.004318950656976238
517.0, 0.0037244570374149934
518.0, 0.0052288628680670106
519.0, 0.0052075542748864796
520.0, 0.0010300114169390464
521.0, 0.002207048370529191
522.0, 0.002604647283290253
523.0, 0.001954507884088868
524.0, 0.0008287662411898552
525.0, 0.00032226660470397573
526.0, 0.002065199733001032
527.0, 0.006152049483721999
528.0, 0.004520630678008698
529.0, 0.007237455239239198
530.0, 0.006583869725139251
531.0, 0.0035335928802321223
532.0, 0.0013812624921150543
533.0, 0.0019957447503109803
534.0, 0.0030447156361416514
535.0, 0.0014618461447680226
536.0, 0.003153867249614076
537.0, 0.002522682602290501
538.0, 0.0027933550974434196
539.0, 0.00390088835379092
540.0, 0.002749310469731048
541.0, 0.0013029162813722947
542.0, 0.003148609015610023
543.0, 0.005180046526742277
544.0, 0.003068042908283229
545.0, 0.0011564306257824603
546.0, 0.002456665314602717
547.0, 0.0031674844613917372
548.0, 0.0009555912809223505
549.0, 0.0003078706080104516
550.0, 0.00027946885312696214
551.0, 0.0016094621949895788
552.0, 0.002028143038139617
553.0, 9.61260863986849e-05
554.0, 0.0004779021469252819
555.0, 0.0012563358699308992
556.0, 0.0025773757079152275
557.0, 0.0022151263001146983
558.0, 0.002334609487465385
559.0, 0.003488540128444253
560.0, 0.0039019055585659827
561.0, 0.003404767812562142
562.0, 0.001480310597857133
563.0, 0.0038446786466660434
564.0, 0.005584142182431489
565.0, 0.0047130637289116775
566.0, 0.002321737701907938
567.0, 0.0015112118316621622
568.0, 0.00491994355616611
569.0, 0.004812062927507874
570.0, 0.004176461685559332
571.0, 0.0023821059417422396
572.0, 0.0011823410346249834
573.0, 0.0022073566941792975
574.0, 0.0037345126900618707
575.0, 0.00456846447313615
576.0, 0.004403326060096618
577.0, 0.0034024861312405338
578.0, 0.003111575786624915
579.0, 0.0037205016179876417
580.0, 0.004358434035354882
581.0, 0.004923391532366627
582.0, 0.004441053027913273
583.0, 0.004799451963908898
584.0, 0.00419078971461369
585.0, 0.004687893241154895
586.0, 0.005148701594656557
587.0, 0.0027125798122948526
588.0, 0.004205280627504278
589.0, 0.003422623869383517
590.0, 0.0058230167935981085
591.0, 0.0039634280124488394
592.0, 0.0013627133988094594
593.0, 0.0015723789620532846
594.0, 0.0026656629448247086
595.0, 0.003777201835724776
596.0, 0.00437728877129578
597.0, 0.004471658127053071
598.0, 0.005269083704292935
599.0, 0.006679069953616539
600.0, 0.007606601803028963
601.0, 0.0070715156518578156
602.0, 0.007581551749738091
603.0, 0.007351730083715
604.0, 0.006571731605286693
605.0, 0.005713971419572346
606.0, 0.005243043640998401
607.0, 0.004193726606142832
608.0, 0.000678665546936328
609.0, 0.0042900553216928755
610.0, 0.004485800477321566
611.0, 0.003596972071675772
612.0, 0.0047201186310622985
613.0, 0.006340914651935768
614.0, 0.006423642248543582
615.0, 0.006880721658498765
616.0, 0.004095757899530847
617.0, 0.006755186438050583
618.0, 0.00656990669006605
619.0, 0.006911629951855656
620.0, 0.0072954930688274135
621.0, 0.006666945116453791
622.0, 0.009275572419360343
623.0, 0.011033356250519577
624.0, 0.01210419514392526
625.0, 0.011858511207284638
626.0, 0.01084582216803764
627.0, 0.009203082652558483
628.0, 0.0070750701364079484
629.0, 0.005283144638935092
630.0, 0.0029569924597962864
631.0, 0.004540562421253224
632.0, 0.006227321775258021
633.0, 0.0075509414503256
634.0, 0.0071223424709192995
635.0, 0.005077159416430864
636.0, 0.0055079471071761655
637.0, 0.006262796625483074
638.0, 0.005500975532584508
639.0, 0.006173127129084456
640.0, 0.0068497431115401896
641.0, 0.007284781379499492
642.0, 0.007080134361742507
643.0, 0.004322426644349406
644.0, 0.004213243263683146
645.0, 0.010098177298399104
646.0, 0.0065224930289731935
647.0, 0.006102457989982321
648.0, 0.009999700808864132
649.0, 0.010893673236412963
650.0, 0.005216584238712812
651.0, 0.009386591571591853
652.0, 0.005921094589221859
653.0, 0.007879263599611164
654.0, 0.00700816015808451
655.0, 0.006177970822736849
656.0, 0.008199954999487573
657.0, 0.007648663552292373
658.0, 0.005838170451868544
659.0, 0.002866593970407927
660.0, 0.006004754627957082
661.0, 0.007270884497564681
662.0, 0.005228455256760579
663.0, 0.003545783298970377
664.0, 0.005566213863269898
665.0, 0.005567365966404295
666.0, 0.005179336064926908
667.0, 0.004857505153329825
668.0, 0.0036640367131865748
669.0, 0.0028640767399202797
670.0, 0.0028019082650269575
671.0, 0.0025077261992898755
672.0, 0.0020392358544379006
673.0, 0.004058639037776309
674.0, 0.004276513395425683
675.0, 0.004272476300358784
676.0, 0.003776498606965278
677.0, 0.0029260640835799562
678.0, 0.0029206451274727545
679.0, 0.005021954722899392
680.0, 0.0015454906853445418
681.0, 0.0013952570776371255
682.0, 0.0011975797324033156
683.0, 0.0025765527772825753
684.0, 0.004346498291764285
685.0, 0.0037435717112288647
686.0, 0.0003214542648952777
687.0, 0.002003735613985912
688.0, 0.0012622192247482016
689.0, 0.002481834973368586
690.0, 0.002488360875337459
691.0, 0.0017593188259149822
692.0, 0.001215654908129138
693.0, 0.0007263973310353714
694.0, 0.0019010376393642256
695.0, 0.0005974107337419055
696.0, 0.0026812266704069367
697.0, 0.0030448812785884975
698.0, 0.0024121348335895175
699.0, 0.0015345033854274018
700.0, 0.0010748201956822063
701.0, 0.0036926806646351553
702.0, 0.0038386523128117445
703.0, 0.0025144957733668535
704.0, 0.0042918064645161725
705.0, 0.0028074223660451525
706.0, 0.0004986931089156429
707.0, 0.0007051407806487988
708.0, 0.0006265299944124146
709.0, 0.002536328510915358
710.0, 0.0004374396136352773
711.0, 0.0005757223561932912
712.0, 0.0011236772410775223
713.0, 0.002282607380157946
714.0, 0.003059850376019533
715.0, 0.002593150869192389
716.0, 0.004492362718391482
717.0, 0.0008992445282069185
718.0, 0.003121972216238555
719.0, 0.00273256231337974
720.0, 0.0018464682276299054
721.0, 0.0032016659591736175
722.0, 0.005344919876643931
723.0, 0.0034870676511700757
724.0, 0.0020004623021154175
725.0, 0.004672344797648944
726.0, 0.004964393050576331
727.0, 0.004652418701106543
728.0, 0.004781334735801899
729.0, 0.004878139573859997
730.0, 0.004470271428270356
731.0, 0.005159618053879744
732.0, 0.001552724097619761
733.0, 0.0028169707223401896
734.0, 0.0011645789634658903
735.0, 0.0002766491150817386
736.0, 0.0006976608649737019
737.0, 0.0013803499462845283
738.0, 0.0025573607138235778
739.0, 0.00312250114018295
740.0, 0.0013059685802320068
741.0, 0.0016422353103547594
742.0, 0.0013532273748326222
743.0, 0.001451802577750756
744.0, 0.0021060304531733067
745.0, 0.00236927085574493
746.0, 0.002169719710294585
747.0, 0.0010131794722175076
748.0, 0.0023872263536448323
749.0, 0.004259590905689128
750.0, 0.0053601036855648685
751.0, 0.00478880388439937
752.0, 0.0030930015799546587
753.0, 0.0019169510928926463
754.0, 0.0019737873126362752
755.0, 0.0013686466391930818
756.0, 0.00783445425907563
757.0, 0.007269199716179642
758.0, 0.004164594363367607
759.0, 0.0030352605685164346
760.0, 0.0030652998363459158
761.0, 0.0008500153995174295
762.0, 0.0010338236036043467
763.0, 0.00027925376347926335
764.0, 0.002165887191044049
765.0, 0.0014804336777476167
766.0, 0.002073422030465272
767.0, 0.003203058295959049
768.0, 0.0022676012584576825
769.0, 0.0013624461100315052
770.0, 0.0008695382004382733
771.0, 0.002154461431721611
772.0, 0.0017300791820649834
773.0, 0.0026992713977256736
774.0, 0.0020988268857289718
775.0, 0.00202016716780342
776.0, 0.004908495827677766
777.0, 0.0038760939925523486
778.0, 0.001362982895725593
779.0, 0.004778640924647163
780.0, 0.0037590079617490207
781.0, 0.0016139450085131267
782.0, 0.001447364367208743
783.0, 0.0030160286506734574
784.0, 0.003846602855898288
785.0, 0.0029459414900574934
786.0, 0.0030231025855629707
787.0, 0.0029238277894046115
788.0, 0.003109122819008508
789.0, 0.003507688751339425
790.0, 0.0021149453774793278
791.0, 0.001742953675509618
792.0, 0.00549794038933554
793.0, 0.005380639190239644
794.0, 0.003649762181098476
795.0, 0.0016538213600465297
796.0, 0.004214251133197842
797.0, 0.005442877313643601
798.0, 0.004970995315720831
799.0, 0.003727828836456645
800.0, 0.001831378396475324
801.0, 0.0011724262443775367
802.0, 0.002473364913808275
803.0, 0.0037490725031910036
804.0, 0.004183506757228435
805.0, 0.004219516189234741
806.0, 0.0027564943882900156
807.0, 0.0025558168887894707
808.0, 0.005526805893206768
809.0, 0.003247655360394605
810.0, 0.004375539016846354
811.0, 0.007012267142720085
812.0, 0.005047355029112951
813.0, 0.007023997979788497
814.0, 0.008373585061320557
815.0, 0.007693784323188037
816.0, 0.0071949154874022606
817.0, 0.001756894810217568
818.0, 0.003973861384898696
819.0, 0.007589120390925746
820.0, 0.007412865082145254
821.0, 0.00924474433645901
822.0, 0.009170612147268617
823.0, 0.007897807852884093
824.0, 0.008740329694947688
825.0, 0.008102158537574589
826.0, 0.007444059985661136
827.0, 0.00480578560290982
828.0, 0.0036591134177510368
829.0, 0.003578983429273913
830.0, 0.003376975814025833
831.0, 0.003935968082603454
832.0, 0.005299970500000826
833.0, 0.0047462691424371515
834.0, 0.003531449815354727
835.0, 0.005994948555092238
836.0, 0.006698809813234156
837.0, 0.006578839208104001
838.0, 0.006929894374821167
839.0, 0.007206402226769092
840.0, 0.0070899339086245225
841.0, 0.007220302713373478
842.0, 0.0063574668231862995
843.0, 0.006753464518349616
844.0, 0.006276242479509578
845.0, 0.006067134885431287
846.0, 0.006182855838344315
847.0, 0.0063273354418129325
848.0, 0.006259833643492763
849.0, 0.006215068078611774
850.0, 0.006826316050927579
851.0, 0.0066725171065167305
852.0, 0.008056193766074084
853.0, 0.008581516765768321
854.0, 0.011884515128177467
855.0, 0.012827214209812803
856.0, 0.010057569511869086
857.0, 0.008704148610585735
858.0, 0.011960484165247923
859.0, 0.006987762415642931
860.0, 0.011118802016980747
861.0, 0.013561388971775296
862.0, 0.010705663608070567
863.0, 0.009598264400836824
864.0, 0.008458815459397275
865.0, 0.006726364692045762
866.0, 0.007952886296919507
867.0, 0.008159819989559008
868.0, 0.0070870688390536245
869.0, 0.010058265055583125
870.0, 0.009483024869446232
871.0, 0.005292476802948397
872.0, 0.005255838353228509
873.0, 0.006906802152635887
874.0, 0.004967352696329402
875.0, 0.004557369688878899
876.0, 0.009958422241236522
877.0, 0.004369419444429908
878.0, 0.007047471121679482
879.0, 0.0048544113407103205
880.0, 0.0037736836504053063
881.0, 0.004949078693694248
882.0, 0.0054088573936943085
883.0, 0.004730278860275612
884.0, 0.006341121123959916
885.0, 0.0003224455285451601
886.0, 0.0046811436110483304
887.0, 0.0022640385700764378
888.0, 0.0025105470261718704
889.0, 0.004080099782986638
890.0, 0.0039629074457914965
891.0, 0.0036312915646478598
892.0, 0.006483035561410215
893.0, 0.008493788206030911
894.0, 0.0055067548913269255
895.0, 0.003544216664121392
896.0, 0.004762450745687016
897.0, 0.006972164146722673
898.0, 0.004310368958116137
899.0, 0.0024167906852342195
900.0, 0.006164696083790043
901.0, 0.006518001065563089
902.0, 0.002433310741745115
903.0, 0.0040155287997537216
904.0, 0.0025629175837330923
905.0, 0.0010856725836456544
906.0, 0.0006770755707358844
907.0, 0.002344697806550071
908.0, 0.004260216172099242
909.0, 0.004347421745176899
910.0, 0.004336909873132831
911.0, 0.005005824539289328
912.0, 0.003591871816670655
913.0, 0.002825328847323209
914.0, 0.0039052157003194544
915.0, 0.0038147789396766464
916.0, 0.0033690820276470845
917.0, 0.0034935398849278657
918.0, 0.0033690669584115446
919.0, 0.0028153777982605154
920.0, 0.003324855631318556
921.0, 0.0016506866743609462
922.0, 0.0030678278081673616
923.0, 0.002557886822579938
924.0, 0.00408097227111509
925.0, 0.003869685646890958
926.0, 0.0028667212523963855
927.0, 0.003948653716265413
928.0, 0.00030830034339762854
929.0, 0.001726049266180208
930.0, 0.00018547814302507723
931.0, 0.0035145800291251604
932.0, 0.002966716204621314
933.0, 0.0020542480919344044
934.0, 0.003255417667921264
935.0, 0.003880730746907863
936.0, 0.0019320184758894949
937.0, 0.001564232990937297
938.0, 0.0013864865398907772
939.0, 0.0026941294558739575
940.0, 0.0009720706854745547
941.0, 0.0015714366857089988
942.0, 0.0016053732506787447
943.0, 0.0012914120578077584
944.0, 0.002028093820674363
945.0, 0.0027833460696625985
946.0, 0.0013654942037247396
947.0, 0.0019790515878386995
948.0, 0.0004112860717844924
949.0, 0.001746828119250507
950.0, 0.002027462531453795
951.0, 0.0021691790584721705
952.0, 0.0034036893777297096
953.0, 0.004732844734522362
954.0, 0.004558224729759948
955.0, 0.003347543929140113
956.0, 0.0029882524801458045
957.0, 0.0004919763717235325
958.0, 0.0010964429831109533
959.0, 0.0044608165859683
960.0, 0.004941785272349138
961.0, 0.0036045047885783846
962.0, 0.003335762976522687
963.0, 0.0032078816985226474
964.0, 0.001272027891816325
965.0, 0.001588233066268282
966.0, 0.00196724374426512
967.0, 0.005006097349295474
968.0, 0.002152112456904171
969.0, 0.003158288187452431
970.0, 0.001746032710080433
971.0, 0.0022390527895218594
972.0, 0.004751518650899881
973.0, 0.0037364183615331593
974.0, 0.0013147605566182943
975.0, 0.004684172360721575
976.0, 0.003333759357989649
977.0, 0.0032701631026497797
978.0, 0.006052984761367845
979.0, 0.004595152103348673
980.0, 0.0018961270709408958
981.0, 0.0010916614332681734
982.0, 0.0017233085265367812
983.0, 0.002466633793682524
984.0, 0.0035918419170529263
985.0, 0.0027169832199116337
986.0, 0.004510591210689064
987.0, 0.0024285915285598703
988.0, 0.0018866151161645956
989.0, 0.0022300448528200633
990.0, 0.0018367268589219695
991.0, 0.001456742572448216
992.0, 0.0032007044361733253
993.0, 0.006117589969082666
994.0, 0.0039156711653247555
995.0, 0.00385477875863145
996.0, 0.0008305934091609936
997.0, 0.0010467188194394367
998.0, 0.0029921443801501166
999.0, 0.004073528374097029
1000.0, 0.0055218776866141185
1001.0, 0.00894768129438053
1002.0, 0.011262023205636995
1003.0, 0.008454887465631193
1004.0, 0.011403349500259577
1005.0, 0.0021628597806646697
1006.0, 0.002072364280107849
1007.0, 0.0026987037505865766
1008.0, 0.002831594371123526
1009.0, 0.0019477824719294
1010.0, 0.0012113973620253456
1011.0, 0.001492138203129991
1012.0, 0.002183468434855792
1013.0, 0.003115504851016268
1014.0, 0.00624194637348033
1015.0, 0.0021572985642938536
1016.0, 0.0010734965418551167
1017.0, 0.004152938517788518
1018.0, 0.0040404534806916855
1019.0, 0.002033454449961436
1020.0, 0.0011647554685044201
1021.0, 0.003968710436138959
1022.0, 0.008003202634722786
1023.0, 0.00442148056320631
1024.0, 0.0041287254203077085
1025.0, 0.007532051440070112
1026.0, 0.005612710332945828
1027.0, 0.0024869025851490655
1028.0, 0.004730369564437744
1029.0, 0.0045084215389363
1030.0, 0.004005055754981037
1031.0, 0.004574368438980063
1032.0, 0.0027866535932341108
1033.0, 0.0037252257277807267
1034.0, 0.00042851473513420173
1035.0, 0.0017474724034985318
1036.0, 0.0035170057186260503
1037.0, 0.005922640836810848
1038.0, 0.005185295325949794
1039.0, 0.0036121841522337994
1040.0, 0.0019818330228130155
1041.0, 0.0011279418504665313
1042.0, 0.0017902864946130043
1043.0, 0.002284921067677831
1044.0, 0.004293076647512229
1045.0, 0.006638725611552129
1046.0, 0.0041959389504297485
1047.0, 0.0035478866567072794
1048.0, 0.004363043259879233
1049.0, 0.0055563969602959165
1050.0, 0.006056433432106688
1051.0, 0.006187584404212855
1052.0, 0.00580445435613451
1053.0, 0.004556206873090468
1054.0, 0.006271678459314601
1055.0, 0.005446345160913021
1056.0, 0.004437030164786013
1057.0, 0.006113481167697196
1058.0, 0.008558167511092165
1059.0, 0.005551517728438005
1060.0, 0.008107325131331437
1061.0, 0.013266629542580899
1062.0, 0.010423553082902708
1063.0, 0.005328844804080234
1064.0, 0.011988538178588363
1065.0, 0.005006682225686959
1066.0, 0.0034069829749948095
1067.0, 0.004473712662234667
1068.0, 0.005847900361628196
1069.0, 0.002304352171828582
1070.0, 0.0019436978905914585
1071.0, 0.004718420681642828
1072.0, 0.005977156436675994
1073.0, 0.0036806920390863897
1074.0, 0.0001886066124565556
1075.0, 0.0009863541441278698
1076.0, 0.003722927347291503
1077.0, 0.006385363850593019
1078.0, 0.006686512526764087
1079.0, 0.007720926911417493
1080.0, 0.005991922838236265
1081.0, 0.0038408786963884316
1082.0, 0.0030420011717731763
1083.0, 0.0025583463877906264
1084.0, 0.0021324812662094814
1085.0, 0.0030894089226006093
1086.0, 0.0022890162395873895
1087.0, 0.003686825261891168
1088.0, 0.005364652957203962
1089.0, 0.004874778178492649
1090.0, 0.0036623688074773077
1091.0, 0.001973910243862513
1092.0, 0.000941887889416785
1093.0, 0.0013988056712832193
1094.0, 0.0018700416786952673
1095.0, 0.0016889899811614898
1096.0, 0.0029768652675346194
1097.0, 0.002189397855442327
1098.0, 0.0042555011970064425
1099.0, 0.0067523062817566315
1100.0, 0.003545224610971353
1101.0, 0.005263449465590663
1102.0, 0.0031486453321135062
1103.0, 0.0020527109583588646
1104.0, 0.0031276130228464734
1105.0, 0.0027503299750112047
1106.0, 0.000939933891987388
1107.0, 0.0006106422925711383
1108.0, 0.001871283429838306
1109.0, 0.00938210463477392
1110.0, 0.007207576716752974
1111.0, 0.007181711955692328
1112.0, 0.006857477871458881
1113.0, 0.004304520497321518
1114.0, 0.0037575207355026266
1115.0, 0.003670680309262249
1116.0, 0.004140880678814182
1117.0, 0.0061668584817226755
1118.0, 0.005457486078996224
1119.0, 0.004085426949697693
1120.0, 0.007745783380728044
1121.0, 0.009391966498572634
1122.0, 0.011420276138447635
1123.0, 0.007222730668327617
1124.0, 0.00445276627840154
1125.0, 0.007460101142327907
1126.0, 0.008154497966871569
1127.0, 0.008700750428110617
1128.0, 0.011645465304565204
1129.0, 0.01121989680504133
1130.0, 0.012641115699428534
1131.0, 0.008134894085036825
1132.0, 0.0062774016446612065
1133.0, 0.008594310957480944
1134.0, 0.0054122367206559
1135.0, 0.00249691515765522
1136.0, 0.0034173137472333056
1137.0, 0.005266693551438002
1138.0, 0.0064125561088139715
1139.0, 0.004624930498220479
1140.0, 0.0005625035913289574
1141.0, 0.0003465776304293532
1142.0, 0.0019133838453162392
1143.0, 0.005017359544388554
1144.0, 0.00506755400108475
1145.0, 0.002287037832787977
1146.0, 0.004849636899497136
1147.0, 0.001762730722353846
1148.0, 0.0013222407279849277
1149.0, 0.004648812683218394
1150.0, 0.004404411020775247
1151.0, 0.0019547109387527957
1152.0, 0.0032674635323796533
1153.0, 0.0031118025709555423
1154.0, 0.0029645536485430825
1155.0, 0.0038696590395008797
1156.0, 0.004258779422727895
1157.0, 0.0029855250243489262
1158.0, 0.007081350855553401
1159.0, 0.007118180505065015
1160.0, 0.005289713543573239
1161.0, 0.0038121531747487033
1162.0, 0.005819982564118228
1163.0, 0.006970302445166247
1164.0, 0.003495850211434617
1165.0, 0.004871431351397834
1166.0, 0.003907689971648033
1167.0, 0.0016503887996691632
1168.0, 0.005352607183620007
1169.0, 0.005340445372198381
1170.0, 0.004534658589504083
1171.0, 0.002633758669472857
1172.0, 0.0059739851621882535
1173.0, 0.008634371743531866
1174.0, 0.009305130563249163
1175.0, 0.007516816852021271
1176.0, 0.003573273398570995
1177.0, 0.00359394236095881
1178.0, 0.001092006546179235
1179.0, 0.002380721564954297
1180.0, 0.0029538206713083897
1181.0, 0.005409442835839858
1182.0, 0.004317404962128283
1183.0, 0.0045365451722970416
1184.0, 0.002526597018073356
1185.0, 0.0028132894576396437
1186.0, 0.0037412198414085514
1187.0, 0.0023438251441861707
1188.0, 0.0015429122666425006
1189.0, 0.0027580966450235153
1190.0, 0.0008775013011707299
1191.0, 0.0006206828351858382
1192.0, 0.0007938580540682511
1193.0, 0.002102505588803971
1194.0, 0.0020016006554636617
1195.0, 0.004736459310588555
1196.0, 0.004745282161377055
1197.0, 0.005150748076758584
1198.0, 0.00557832902901411
1199.0, 0.005597403300151515
1200.0, 0.0046953908888971
1201.0, 0.0029393883568319713
1202.0, 0.002239603759433057
1203.0, 0.001380016734905816
1204.0, 0.003578960831304506
1205.0, 0.0014460191408838695
1206.0, 0.005844058154329212
1207.0, 0.005025654154770378
1208.0, 0.005725810425465013
1209.0, 0.007706531250778782
1210.0, 0.0054242422774445674
1211.0, 0.004890262187916135
1212.0, 0.00756707675766382
1213.0, 0.00714587980774862
1214.0, 0.0026810925295723273
1215.0, 0.00027916294250704524
1216.0, 0.0008762655208153479
1217.0, 0.005395687600299941
1218.0, 0.005870135390997585
1219.0, 0.002914063722919752
1220.0, 0.006306614164864651
1221.0, 0.003911095473477593
1222.0, 0.0009526169540144743
1223.0, 0.004229511048907935
1224.0, 0.003687905785714219
1225.0, 0.0030981327776135365
1226.0, 0.006400887452467006
1227.0, 0.0057064928071001155
1228.0, 0.0016419946180272953
1229.0, 0.003678615293168349
1230.0, 0.005085085778080232
1231.0, 0.0014370188863773565
1232.0, 0.004102011256246882
1233.0, 0.008112589088939342
1234.0, 0.007096139575130908
1235.0, 0.008004870387698265
1236.0, 0.006637273291054505
1237.0, 0.0036213979489970642
1238.0, 0.0024069458712657438
1239.0, 0.00316943329497752
1240.0, 0.005928676147573081
1241.0, 0.007517431172819694
1242.0, 0.0019821175237211305
1243.0, 0.0023182697441393564
1244.0, 0.0053618137854751745
1245.0, 0.005266308178657317
1246.0, 0.0029814972538203584
1247.0, 0.0009176146763516778
1248.0, 0.003913759201102244
1249.0, 0.004407513756115259
1250.0, 0.0030722053800205456
1251.0, 0.003785419476528836
1252.0, 0.004049982538059902
1253.0, 0.0037770925942360546
1254.0, 0.0046013030356486465
1255.0, 0.0035000365837442415
1256.0, 0.0008999571999461155
1257.0, 0.0030016191649144936
1258.0, 0.004985434935753003
1259.0, 0.007145047768987818
1260.0, 0.0022631699253246548
1261.0, 0.004999508245743042
1262.0, 0.004508258903634825
1263.0, 0.004834356050823769
1264.0, 0.005988180948901469
1265.0, 0.005519489750887139
1266.0, 0.0026427941409129236
1267.0, 0.003050137652470771
1268.0, 0.005085041224505819
1269.0, 0.004643907873266003
1270.0, 0.0075095773663983924
1271.0, 0.0028774166428399764
1272.0, 0.006293873030269465
1273.0, 0.009783959759315765
1274.0, 0.004501223177668831
1275.0, 0.0032834767354748178
1276.0, 0.006149138149371982
1277.0, 0.0067655343966182314
1278.0, 0.004171692618329091
1279.0, 0.006399797563655397
1280.0, 0.007743933677196935
1281.0, 0.006713692963520224
1282.0, 0.007149248531614226
1283.0, 0.006719505917591267
1284.0, 0.003603281383298347
1285.0, 0.0038767856724942974
1286.0, 0.006101942523955218
1287.0, 0.004232063113198648
1288.0, 0.007447224303852924
1289.0, 0.012159144158260271
1290.0, 0.01354880243396865
1291.0, 0.012977253372557871
1292.0, 0.013141087435527317
1293.0, 0.013596694306703919
1294.0, 0.01471980425493338
1295.0, 0.01530309902675199
1296.0, 0.014232634851067797
1297.0, 0.013338982811713179
1298.0, 0.014299892602293281
1299.0, 0.014389800723207374
1300.0, 0.01151639390809083
1301.0, 0.010567001231658385
1302.0, 0.007905221684067334
1303.0, 0.005375759316992747
1304.0, 0.006001577807077844
1305.0, 0.010093735577347036
1306.0, 0.013666717218024753
1307.0, 0.013973714017743534
1308.0, 0.015149311840132643
1309.0, 0.01395005511861673
1310.0, 0.015046114294973658
1311.0, 0.015161953791167243
1312.0, 0.015018627166156828
1313.0, 0.01714894667337237
1314.0, 0.017698392789707404
1315.0, 0.018216928999125432
1316.0, 0.01985854046256796
1317.0, 0.019780529051197697
1318.0, 0.01929114763695373
1319.0, 0.019274175595568745
1320.0, 0.025768863561151274
1321.0, 0.028949789384112246
1322.0, 0.03395616831077251
1323.0, 0.04093328679527083
1324.0, 0.0595104359367194
1325.0, 0.09079620793905559
1326.0, 0.1572873954823501
1327.0, 0.29799777277400247
1328.0, 0.4999170436221798
1329.0, 0.6971302460883215
1330.0, 0.8565662202921035
1331.0, 0.9729317063136883
1332.0, 0.9790511362834724
1333.0, 0.8633788334866218
1334.0, 0.666957856620375
1335.0, 0.4356115185775443
1336.0, 0.24326436365644433
1337.0, 0.12791074712744113
1338.0, 0.07779187544308969
1339.0, 0.049150061249222464
1340.0, 0.03643569451557741
1341.0, 0.027269920918111003
1342.0, 0.021506058352845348
1343.0, 0.01954630169346933
1344.0, 0.020800150175186907
1345.0, 0.018696678077989783
1346.0, 0.01356309212010041
1347.0, 0.013261701637425608
1348.0, 0.009400267667973111
1349.0, 0.007153426004395824
1350.0, 0.005258330997843322
1351.0, 0.003787426063319699
1352.0, 0.008101591660088
1353.0, 0.007759035921399446
1354.0, 0.00429936269730543
1355.0, 0.012118342243490485
1356.0, 0.012894684388367026
1357.0, 0.003874702810433271
1358.0, 0.007698319455715437
1359.0, 0.007401351384650498
1360.0, 0.003923222057682926
1361.0, 0.0038566493799007924
1362.0, 0.006084426470430822
1363.0, 0.009045479498590265
1364.0, 0.009392599467984906
1365.0, 0.008797420497923607
1366.0, 0.009170390296650158
1367.0, 0.004296799612313645
1368.0, 0.009627675856002382
1369.0, 0.0042861810267897016
1370.0, 0.008944482908675487
1371.0, 0.010403047161092454
1372.0, 0.004734765226380112
1373.0, 0.004828819788238205
1374.0, 0.0058276731767889865
1375.0, 0.0028992797124229937
1376.0, 0.003239022612280172
1377.0, 0.003436239411948006
1378.0, 0.002454486408199713
1379.0, 0.0045776519285123255
1380.0, 0.005621864803143746
1381.0, 0.003828896376047216
1382.0, 0.004397475198244249
1383.0, 0.004026673182959835
1384.0, 0.006406141722329026
1385.0, 0.007242100976776936
1386.0, 0.0047643551903424515
1387.0, 0.003338344628778985
1388.0, 0.003807948388865764
1389.0, 0.0038003305049163763
1390.0, 0.0037044677484799095
1391.0, 0.0036519106933753155
1392.0, 0.0036339381861917016
1393.0, 0.0029179304058618927
1394.0, 0.0014950724019361416
1395.0, 0.0007613308848840803
1396.0, 0.001756927952246126
1397.0, 0.002835172945554797
1398.0, 0.0017804794110615918
1399.0, 0.0016815040118085965
1400.0, 0.002991868610340964
1401.0, 0.001702101837832318
1402.0, 0.0017227657302937244
1403.0, 0.001442105474429489
1404.0, 0.0010935515446390048
1405.0, 0.004562085356006692
1406.0, 0.0028326875114072095
1407.0, 0.0075811355867018235
1408.0, 0.005922434646573054
1409.0, 0.007253024530296891
1410.0, 0.0030345948287126773
1411.0, 0.0037119565252130542
1412.0, 0.00267239906947793
1413.0, 0.0051881245658390975
1414.0, 0.006495375323953633
1415.0, 0.006147220187094785
1416.0, 0.0060184818178410865
1417.0, 0.007311916560994962
1418.0, 0.00538738368572374
1419.0, 0.00276905204668072
1420.0, 0.0032824405325749565
1421.0, 0.002177018888859002
1422.0, 0.004661821303648095
1423.0, 0.0027381646847866605
1424.0, 0.01084082600051233
1425.0, 0.006659647237212169
1426.0, 0.0031945285027212963
1427.0, 0.005804753534680263
1428.0, 0.00577404682908678
1429.0, 0.0022493925969859093
1430.0, 0.007192267496807025
1431.0, 0.009555176623343431
1432.0, 0.006296217316618871
1433.0, 0.009762390262597223
1434.0, 0.009206458408264957
1435.0, 0.007216969887174179
1436.0, 0.012506543565382102
1437.0, 0.017105539902801333
1438.0, 0.016690913774266455
1439.0, 0.016834615883444662
1440.0, 0.018641940044172158
1441.0, 0.018097441354782404
1442.0, 0.01422124092980671
1443.0, 0.011039592131845395
1444.0, 0.010613764985395083
1445.0, 0.01464430246579558
1446.0, 0.015263317499858044
1447.0, 0.012978764548250511
1448.0, 0.010498850533158029
1449.0, 0.016206129286914527
1450.0, 0.010399848791508676
1451.0, 0.014935801984261952
1452.0, 0.017156683467333556
1453.0, 0.017976274791452338
1454.0, 0.014207115200734236
1455.0, 0.014044363801511979
1456.0, 0.009441888143801895
1457.0, 0.014759587915072007
1458.0, 0.014466201562920666
1459.0, 0.012498994620664238
1460.0, 0.013877196700251369
1461.0, 0.013741142937683954
1462.0, 0.013590270917395916
1463.0, 0.013531679628346642
1464.0, 0.012659260289135757
1465.0, 0.01163593321065269
1466.0, 0.010478095133102711
1467.0, 0.008625620184415116
1468.0, 0.006436466604244293
1469.0, 0.005267284863271641
1470.0, 0.005867964316080721
1471.0, 0.00551295383771148
1472.0, 0.0015276253082429254
1473.0, 0.004844800277042186
1474.0, 0.01041367813559409
1475.0, 0.012572057518769482
1476.0, 0.007045129426576523
1477.0, 0.008106152027143291
1478.0, 0.0076701761218397725
1479.0, 0.008170439802089266
1480.0, 0.008240895196043352
1481.0, 0.007154469674417439
1482.0, 0.00784831271070176
1483.0, 0.005976788410656049
1484.0, 0.0028140123385101117
1485.0, 0.002295805728500523
1486.0, 0.004947228455943948
1487.0, 0.007839046981550081
1488.0, 0.0061552945603473245
1489.0, 0.0031232721229289464
1490.0, 0.0011512932793358208
1491.0, 0.003641628943843486
1492.0, 0.005320002951999781
1493.0, 0.0033256131690655904
1494.0, 0.0007998274335363838
1495.0, 0.006601395601011546
1496.0, 0.0072843667746581905
1497.0, 0.0005460884979569002
1498.0, 0.002678627619968307
1499.0, 0.0012003956594026982
1500.0, 0.004670206947169207
1501.0, 0.0010601047040753205
1502.0, 0.0003240451987907832
1503.0, 0.0056646105017790615
1504.0, 0.002350280578534579
1505.0, 0.0037589374598694897
1506.0, 0.005476007939250095
1507.0, 0.005448614280676788
1508.0, 0.0029528892528058862
1509.0, 0.004273008819823977
1510.0, 0.004306876087098213
1511.0, 0.0038280983155063535
1512.0, 0.004607328011996686
1513.0, 0.003034864239559936
1514.0, 0.004980351449256978
1515.0, 0.006260952422811063
1516.0, 0.005350448317405483
1517.0, 0.007229083866350518
1518.0, 0.00858458365002843
1519.0, 0.006326760780951981
1520.0, 0.0004686817159329144
1521.0, 0.0003274766537481105
1522.0, 0.002887217943058654
1523.0, 0.010759386796513299
1524.0, 0.00611590240349114
1525.0, 0.008717256926897378
1526.0, 0.0063731493332266475
1527.0, 0.009773368967905151
1528.0, 0.007803378141100079
1529.0, 0.012099807885229207
1530.0, 0.009211234179243822
1531.0, 0.0045612115972295635
1532.0, 0.0018872410031820915
1533.0, 0.0047055651339265704
1534.0, 0.005448424890411827
1535.0, 0.006330845232769415
1536.0, 0.009578446974779588
1537.0, 0.008270865629385489
1538.0, 0.006957884460903206
1539.0, 0.010682791195588575
1540.0, 0.010961827378941266
1541.0, 0.007067819343145722
1542.0, 0.006763056899318076
1543.0, 0.008232595489043017
1544.0, 0.006309546860610668
1545.0, 0.00213741934517423
1546.0, 0.0013287171445250854
1547.0, 0.003276908082745947
1548.0, 0.006556477082855985
1549.0, 0.01117408263134628
1550.0, 0.010229328306500054
1551.0, 0.0037556700655061873
1552.0, 0.011411712078877012
1553.0, 0.002106547131373228
1554.0, 0.0035682301232315963
1555.0, 0.006327030975527637
1556.0, 0.00030122639535944476
1557.0, 0.0013816550838068524
1558.0, 0.0013305383392120966
1559.0, 0.0027607209468359798
1560.0, 0.0020721206243771704
1561.0, 0.0016454825495230852
1562.0, 0.0006860081768056697
1563.0, 0.005848671470061878
1564.0, 0.0018188560952960787
1565.0, 1.6166140671029194e-06
1566, 0.0
1567, 0.0
1568, 0.0
1569, 0.0
1570, 0.0
1571, 0.0
1572, 0.0
1573, 0.0
1574, 0.0
1575, 0.0
1576, 0.0
1577, 0.0
1578, 0.0
1579, 0.0
1580, 0.0
1581, 0.0
1582, 0.0
1583, 0.0
1584, 0.0
1585, 0.0
1586, 0.0
1587, 0.0
1588, 0.0
1589, 0.0
1590, 0.0
1591, 0.0
1592, 0.0
1593, 0.0
1594, 0.0
1595, 0.0
1596, 0.0
1597, 0.0
1598, 0.0
1599, 0.0
