30, 0.0
31, 0.0
32, 0.0
33, 0.0
34, 0.0
35, 0.0
36, 0.0
37, 0.0
38, 0.0
39, 0.0
40, 0.0
41, 0.0
42, 0.0
43, 0.0
44, 0.0
45, 0.0
46, 0.0
47, 0.0
48, 0.0
49, 0.0
50, 0.0
51, 0.0
52, 0.0
53, 0.0
54, 0.0
55, 0.0
56, 0.0
57, 0.0
58, 0.0
59, 0.0
60, 0.0
61, 0.0
62, 0.0
63, 0.0
64, 0.0
65, 0.0
66, 0.0
67, 0.0
68, 0.0
69, 0.0
70, 0.0
71, 0.0
72, 0.0
73, 0.0
74, 0.0
75, 0.0
76, 0.0
77, 0.0
78, 0.0
79, 0.0
80, 0.0
81, 0.0
82, 0.0
83, 0.0
84, 0.0
85, 0.0
86, 0.0
87, 0.0
88, 0.0
89, 0.0
90, 0.0
91, 0.0
92, 0.0
93, 0.0
94, 0.0
95, 0.0
96, 0.0
97, 0.0
98, 0.0
99, 0.0
100, 0.0
101, 0.0
102, 0.0
103, 0.0
104, 0.0
105, 0.0
106, 0.0
107, 0.0
108, 0.0
109, 0.0
110, 0.0
111, 0.0
112, 0.0
113, 0.0
114, 0.0
115, 0.0
116, 0.0
117, 0.0
118, 0.0
119, 0.0
120, 0.0
121, 0.0
122, 0.0
123, 0.0
124, 0.0
125, 0.0
126, 0.0
127, 0.0
128, 0.0
129, 0.0
130, 0.0
131, 0.0
132, 0.0
133, 0.0
134, 0.0
135, 0.0
136, 0.0
137, 0.0
138, 0.0
139, 0.0
140, 0.0
141, 0.0
142, 0.0
143, 0.0
144, 0.0
145, 0.0
146, 0.0
147, 0.0
148, 0.0
149, 0.0
150, 0.0
151, 0.0
152, 0.0
153, 0.0
154, 0.0
155, 0.0
156, 0.0
157, 0.0
158, 0.0
159, 0.0
160, 0.0
161, 0.0
162, 0.0
163, 0.0
164.0, 0.0013949564952061464
165.0, 0.008340156260890788
166.0, 0.0066676498577322605
167.0, 0.006592122833361138
168.0, 0.009282307399373186
169.0, 0.013798853747001162
170.0, 0.012363980133985588
171.0, 0.011364778845492153
172.0, 0.008224850474505253
173.0, 0.0026678284732582084
174.0, 0.002335168866020916
175.0, 0.0015101883671042142
176.0, 0.010089400432341803
177.0, 0.014505755388088973
178.0, 0.01288397554373553
179.0, 0.022613133634735064
180.0, 0.02532152035667706
181.0, 0.025516017372911405
182.0, 0.030260711619325146
183.0, 0.04041703352543879
184.0, 0.034290258747799576
185.0, 0.0311404821914731
186.0, 0.031702202893712075
187.0, 0.025984920254730287
188.0, 0.014690997238836094
189.0, 0.004127646553075346
190.0, 0.0001717066970202838
191.0, 0.0023084686594149273
192.0, 0.0038528375160709017
193.0, 0.008034138857201362
194.0, 0.009978705145101165
195.0, 0.014943306962655788
196.0, 0.03095650771137247
197.0, 0.03791674440635543
198.0, 0.047631985928092806
199.0, 0.0627819665562215
200.0, 0.08239990275557452
201.0, 0.1070858150835564
202.0, 0.13160552600612488
203.0, 0.15420002657386903
204.0, 0.1760702499298655
205.0, 0.20005100231917136
206.0, 0.2280416122659948
207.0, 0.246924194555238
208.0, 0.2695922770907179
209.0, 0.31034787750856757
210.0, 0.3426130911270066
211.0, 0.37595910439760355
212.0, 0.41593715040014956
213.0, 0.46190315741454385
214.0, 0.5046342222217614
215.0, 0.5474442590024071
216.0, 0.5938796816346262
217.0, 0.6507442958630538
218.0, 0.7169185438294048
219.0, 0.763714431064248
220.0, 0.8007129757408191
221.0, 0.8297322950905327
222.0, 0.8374597172800103
223.0, 0.7961666971480915
224.0, 0.7471038218531086
225.0, 0.6775933006839686
226.0, 0.593730952357048
227.0, 0.5123393296241038
228.0, 0.4389180472052376
229.0, 0.37403640417746514
230.0, 0.3190859257419871
231.0, 0.27304363075453814
232.0, 0.2320076584988273
233.0, 0.1938463479357077
234.0, 0.1715347684146218
235.0, 0.15514603714388775
236.0, 0.1284834233660406
237.0, 0.10696663270676011
238.0, 0.09874605647698875
239.0, 0.09289238352550094
240.0, 0.08185629052696809
241.0, 0.06861444950285477
242.0, 0.055750406169128894
243.0, 0.045781820811497474
244.0, 0.039059360654495785
245.0, 0.03422116780470549
246.0, 0.029394085497883457
247.0, 0.022704040084678596
248.0, 0.01708830738779549
249.0, 0.013810211914274036
250.0, 0.011268120853867985
251.0, 0.005890242209308558
252.0, 0.003924052521420062
253.0, 0.003922241441983784
254.0, 0.002455810482893565
255.0, 0.0011914170700878274
256.0, 0.00047760782473900036
257.0, 0.0018824551035321662
258.0, 0.004720874373536468
259.0, 0.004026470993707433
260.0, 0.0015434819382432296
261.0, 0.003344017976616632
262.0, 0.0008912550275261027
263.0, 0.003110776086193392
264.0, 0.00044276005282770667
265.0, 0.0006589549155718505
266.0, 0.00017764847572396833
267.0, 0.0008848665501660408
268.0, 0.006015661594540419
269.0, 0.01713717948884616
270.0, 0.018880302939267953
271.0, 0.020641393786142246
272.0, 0.029288648569947943
273.0, 0.03657365706752947
274.0, 0.044802417950651346
275.0, 0.056420315343544115
276.0, 0.06864949768476256
277.0, 0.07748482437346503
278.0, 0.07675525590632484
279.0, 0.08725058259555063
280.0, 0.10068393330786841
281.0, 0.11237180400899344
282.0, 0.1260177813128405
283.0, 0.13617504124530025
284.0, 0.15444339652061478
285.0, 0.17343156765920145
286.0, 0.18748892084772775
287.0, 0.2053579775943692
288.0, 0.21593859960937686
289.0, 0.22778065708977357
290.0, 0.24357340550314346
291.0, 0.2605697270226328
292.0, 0.27654098960061707
293.0, 0.27632783931662086
294.0, 0.29090863734205946
295.0, 0.31665000456072684
296.0, 0.31669386538250055
297.0, 0.31687299524709744
298.0, 0.336663271411802
299.0, 0.3576667679551029
300.0, 0.36323755739943214
301.0, 0.36215096795758417
302.0, 0.3786110344222216
303.0, 0.3920134300800459
304.0, 0.39388721473379246
305.0, 0.3872737005731683
306.0, 0.37643031348147843
307.0, 0.35702376415048664
308.0, 0.330655983518321
309.0, 0.2917510057683597
310.0, 0.23759379384114704
311.0, 0.2025931421390717
312.0, 0.17435552055457382
313.0, 0.1495960623283815
314.0, 0.1295463945585979
315.0, 0.11220945034047906
316.0, 0.0855701240514161
317.0, 0.07323833479609541
318.0, 0.06830983738911169
319.0, 0.05863212414416493
320.0, 0.049844886952687364
321.0, 0.04450379409972892
322.0, 0.042102046725517074
323.0, 0.03707987040945772
324.0, 0.02691963929509934
325.0, 0.021584412254129697
326.0, 0.016115326671225273
327.0, 0.013119355420505373
328.0, 0.010163077466559839
329.0, 0.00043745613629718417
330.0, 0.007556815983001119
331.0, 0.002034141195194938
332.0, 0.0035088856747549635
333.0, 0.0018322775460755873
334.0, 0.0022447484039030624
335.0, 0.003452728690995267
336.0, 0.0035375399353815883
337.0, 0.0007411856495910898
338.0, 0.0004170556648920736
339.0, 0.002867310201115509
340.0, 0.0016155496694969173
341.0, 0.0050583740309615675
342.0, 0.004377592875430238
343.0, 0.0015670949772659034
344.0, 0.0076493285595910804
345.0, 0.006725954340386155
346.0, 0.0042031380545977295
347.0, 0.0031099747123945407
348.0, 0.004950066388160026
349.0, 0.014885701673482217
350.0, 0.014062267976353683
351.0, 0.004624095644983837
352.0, 0.0028789538236768325
353.0, 0.016540738980272925
354.0, 0.01860371099000082
355.0, 0.01378803597555404
356.0, 0.01258584770744121
357.0, 0.017508616670470104
358.0, 0.022738229585027053
359.0, 0.022547004218758375
360.0, 0.020309659225803835
361.0, 0.023155168590332207
362.0, 0.02869001755583289
363.0, 0.02482585868169461
364.0, 0.02223295158320538
365.0, 0.020256659294127784
366.0, 0.016031202924677714
367.0, 0.010083371996385603
368.0, 0.007041689282371207
369.0, 0.012418109609100546
370.0, 0.013397127257124988
371.0, 0.01120904750301688
372.0, 0.009567851636572006
373.0, 0.004351195384727258
374.0, 0.011068232961454967
375.0, 0.013890761034153907
376.0, 0.009273079949141129
377.0, 0.003944616056224684
378.0, 0.0030792480453666745
379.0, 0.0018485392150911415
380.0, 0.0021507191908782214
381.0, 0.004780082511253643
382.0, 0.002635688186926109
383.0, 0.008808052626532108
384.0, 0.0028972487384014882
385.0, 0.0018388104165640573
386.0, 0.0032651860217401745
387.0, 0.008331209359901115
388.0, 0.01721156305167536
389.0, 0.014933705623573441
390.0, 0.015197412540034101
391.0, 0.01992867953985505
392.0, 0.01909236244817387
393.0, 0.015454116760895687
394.0, 0.018673868450477887
395.0, 0.027006622043232967
396.0, 0.030336253719334755
397.0, 0.022960442606258263
398.0, 0.022572421446400863
399.0, 0.025308775646752952
400.0, 0.035727042661634345
401.0, 0.044850713630327575
402.0, 0.03962644462346962
403.0, 0.039597635989953466
404.0, 0.04570479748690629
405.0, 0.053487915854867715
406.0, 0.05631199860049325
407.0, 0.05271754221969333
408.0, 0.057015179386010306
409.0, 0.05717269355615996
410.0, 0.06023628418040768
411.0, 0.06773602643702976
412.0, 0.07349256134896377
413.0, 0.07593032503153792
414.0, 0.08075126116737362
415.0, 0.08915446011719322
416.0, 0.10274720091923552
417.0, 0.12100962464103762
418.0, 0.13648062499305594
419.0, 0.15389148921286755
420.0, 0.17668682154742366
421.0, 0.20070933063918747
422.0, 0.22423529401768533
423.0, 0.25955768152622155
424.0, 0.29940766819385467
425.0, 0.3316189600054642
426.0, 0.3626352526121673
427.0, 0.40239610742215537
428.0, 0.43941339509484717
429.0, 0.483242792974727
430.0, 0.5404102856530079
431.0, 0.6044410882031868
432.0, 0.6664176554651973
433.0, 0.7290215664036428
434.0, 0.7902039551123728
435.0, 0.8572853223320903
436.0, 0.9185732346264953
437.0, 0.9631063505981586
438.0, 0.9950663297380081
439.0, 0.9960667186752167
440.0, 0.960281327854581
441.0, 0.9006020086480346
442.0, 0.8307062247654553
443.0, 0.7490821489595042
444.0, 0.6540796495916429
445.0, 0.5759577191009906
446.0, 0.5188065764023625
447.0, 0.4680449583156523
448.0, 0.40941526365968994
449.0, 0.37369022134006585
450.0, 0.33881587940998986
451.0, 0.3040117573642165
452.0, 0.2702172724173601
453.0, 0.23419122784907626
454.0, 0.2030187742637887
455.0, 0.18002605391250015
456.0, 0.15443868098914582
457.0, 0.13389972969233727
458.0, 0.12760394168278413
459.0, 0.10254907880675936
460.0, 0.08581943591515469
461.0, 0.08545525675267598
462.0, 0.08277592750297283
463.0, 0.06672514074052825
464.0, 0.06191815591851044
465.0, 0.05075866162942644
466.0, 0.04128021011148082
467.0, 0.038047112775488307
468.0, 0.036636463599752936
469.0, 0.02614754282598162
470.0, 0.0245177754243379
471.0, 0.0242526650347053
472.0, 0.020415791053484098
473.0, 0.01593605914377767
474.0, 0.017665330104329944
475.0, 0.019840971281473316
476.0, 0.0164045552937023
477.0, 0.01179050827864624
478.0, 0.01074885573442236
479.0, 0.012926897713927287
480.0, 0.010924290727602735
481.0, 0.008135573127984175
482.0, 0.006108121223699864
483.0, 0.0051040043706275075
484.0, 0.005792644983230813
485.0, 0.009729760056151662
486.0, 0.006026047383200045
487.0, 0.0024484273734283824
488.0, 0.004846002253866032
489.0, 0.009257155474936494
490.0, 0.003817345717469593
491.0, 0.007232838350317762
492.0, 0.00790887125576671
493.0, 0.008243628367684457
494.0, 0.010509679667688286
495.0, 0.009888486000232146
496.0, 0.00492956799345457
497.0, 0.010595185871034987
498.0, 0.013382972423022534
499.0, 0.0094382998926381
500.0, 0.007227531394299093
501.0, 0.008161419601913847
502.0, 0.0037789820726126765
503.0, 0.005306348474246435
504.0, 0.006049837179305958
505.0, 0.0015715566262225697
506.0, 0.0059428922973043296
507.0, 0.0029475125628073556
508.0, 0.0005462507539815997
509.0, 0.0012527809576228961
510.0, 0.0033025825971973112
511.0, 0.0031323306840952067
512.0, 0.0003898598926055615
513.0, 0.002675760463801917
514.0, 0.002751638464502445
515.0, 0.0008760910167422482
516.0, 0.0034057330291549916
517.0, 0.0054491126794212206
518.0, 0.00382615576698359
519.0, 0.0014471827897572375
520.0, 0.008590271839665944
521.0, 0.006379150758280992
522.0, 0.002615298686540277
523.0, 0.003718527203639507
524.0, 0.0019573512629322077
525.0, 0.0031421225491342084
526.0, 0.002486197424694712
527.0, 0.0038263352194199602
528.0, 0.002849102350442663
529.0, 0.012288153910635553
530.0, 0.005618914827254049
531.0, 0.004769448134466714
532.0, 0.017685546032227186
533.0, 0.010307931683962518
534.0, 0.01677859273904005
535.0, 0.01625768865494355
536.0, 0.01949729291002773
537.0, 0.025728825181116157
538.0, 0.02634886043959033
539.0, 0.03642735096282035
540.0, 0.042193601395951984
541.0, 0.04387595510321076
542.0, 0.04661378102041762
543.0, 0.053312772101171184
544.0, 0.06141181180789848
545.0, 0.060103449313988366
546.0, 0.06471216758591192
547.0, 0.07813705521128683
548.0, 0.0860415606100328
549.0, 0.07870090761592172
550.0, 0.08731653189568067
551.0, 0.09820200199294593
552.0, 0.10384572242512242
553.0, 0.10487865653818994
554.0, 0.10452702455742946
555.0, 0.10457380410260585
556.0, 0.10462858809257712
557.0, 0.10151313881467089
558.0, 0.09727550198341169
559.0, 0.09300747173490993
560.0, 0.09071652813783065
561.0, 0.09680194082845896
562.0, 0.09034976400303105
563.0, 0.08459078477388658
564.0, 0.08058293446947616
565.0, 0.07784619843409141
566.0, 0.07564203819606952
567.0, 0.05739337852931564
568.0, 0.05834905110789828
569.0, 0.05625894541163217
570.0, 0.04831870941053181
571.0, 0.045019133006386616
572.0, 0.04323684620793496
573.0, 0.03934811884459157
574.0, 0.027709299007788884
575.0, 0.022309889957482756
576.0, 0.026479312866332264
577.0, 0.02884987846402505
578.0, 0.01671960388592741
579.0, 0.015195203607210857
580.0, 0.01482331115860786
581.0, 0.00845764783963596
582.0, 0.0026866075656948466
583.0, 0.006589519636603097
584.0, 0.002432920653325301
585.0, 0.001135723223894985
586.0, 0.0043238528917530555
587.0, 0.008860606021672945
588.0, 0.006317915254441597
589.0, 0.0019076620393468273
590.0, 0.0003764296037086297
591.0, 0.00220657707557759
592.0, 0.0017220521255217943
593.0, 0.0027186950822560593
594.0, 0.0011560255632166747
595.0, 0.0025926362000724735
596.0, 0.010177287898740162
597.0, 0.012582628416352876
598.0, 0.015403374578084965
599.0, 0.024316903052692806
600.0, 0.029428258667422918
601.0, 0.034081311363675655
602.0, 0.046524585123838655
603.0, 0.05479646801521428
604.0, 0.06674489258819524
605.0, 0.0894413625127809
606.0, 0.11301784889452167
607.0, 0.12498081731287546
608.0, 0.1453241056716906
609.0, 0.17367486394130627
610.0, 0.19462976305935473
611.0, 0.21151522837081618
612.0, 0.2482588890036923
613.0, 0.287121811500638
614.0, 0.3448563824760282
615.0, 0.40992869568420104
616.0, 0.474750662727248
617.0, 0.5357346072829059
618.0, 0.5890704875673312
619.0, 0.6396993908546035
620.0, 0.6758859754319949
621.0, 0.658316171693237
622.0, 0.5844461290056755
623.0, 0.4773418576508853
624.0, 0.35084730351949156
625.0, 0.2616213974474043
626.0, 0.19818477644132926
627.0, 0.15276777895020072
628.0, 0.12370496663585581
629.0, 0.10890843606288265
630.0, 0.09894495124452889
631.0, 0.09247472501966511
632.0, 0.08311179061724339
633.0, 0.07481273052906307
634.0, 0.07176937524263928
635.0, 0.072583147630759
636.0, 0.0741285726790281
637.0, 0.07727606794900173
638.0, 0.077123934227398
639.0, 0.07737871398725187
640.0, 0.08185433177478448
641.0, 0.08842684733739516
642.0, 0.08797496476210567
643.0, 0.08875172119525825
644.0, 0.09103476630989771
645.0, 0.09565922350903519
646.0, 0.09995701804588528
647.0, 0.10016444273203862
648.0, 0.100759309907873
649.0, 0.08898358120434524
650.0, 0.0784470180021656
651.0, 0.08083268880970015
652.0, 0.08409727248134702
653.0, 0.07346404264337708
654.0, 0.07478611425318447
655.0, 0.074220225142067
656.0, 0.06879536883173688
657.0, 0.0680127128165919
658.0, 0.06935116886952555
659.0, 0.06603685855948073
660.0, 0.07253480837244064
661.0, 0.059474411385100956
662.0, 0.05638250894756667
663.0, 0.06242317606186878
664.0, 0.061322600991597594
665.0, 0.04919815886763946
666.0, 0.03735794255053376
667.0, 0.037262271554869636
668.0, 0.037574098818439
669.0, 0.031723396877327184
670.0, 0.026539232128618143
671.0, 0.028731022495529845
672.0, 0.02741114852481194
673.0, 0.02772028249499469
674.0, 0.030698265822989398
675.0, 0.024804430043174036
676.0, 0.01914015977106975
677.0, 0.022283103755372756
678.0, 0.020213856369123564
679.0, 0.018751789160503143
680.0, 0.01595298787833695
681.0, 0.01526778964711583
682.0, 0.01418278807187066
683.0, 0.011120622508112398
684.0, 0.010583150101168707
685.0, 0.010781916590492257
686.0, 0.02134001225734719
687.0, 0.015021112430990528
688.0, 0.0052484798568174056
689.0, 0.0073891773990329215
690.0, 0.010000648351521048
691.0, 0.009681815415115843
692.0, 0.009594447755372593
693.0, 0.009371892187677887
694.0, 0.009729188823712862
695.0, 0.00840884352104602
696.0, 0.0028293950550606485
697.0, 0.003282898375603278
698.0, 0.005347086372077275
699.0, 0.006298413258321353
700.0, 0.005627653493417362
701.0, 0.010738655619580158
702.0, 0.017308083869289503
703.0, 0.004876365803912123
704.0, 0.00812129355507399
705.0, 0.014954125729423085
706.0, 0.00452368625755449
707.0, 0.0023623225883463044
708.0, 0.008245922264208439
709.0, 0.00974280442109635
710.0, 0.01085629480293863
711.0, 0.013706090251470737
712.0, 0.016752975636000367
713.0, 0.011065407966509082
714.0, 0.0013555763481119384
715.0, 0.002293870216178056
716.0, 0.010597617674929548
717.0, 0.009735330520798323
718.0, 0.01534937380289993
719.0, 0.012404373256708935
720.0, 0.005741111809447396
721.0, 0.009509139006946287
722.0, 0.011341546366913955
723.0, 0.012521546868376341
724.0, 0.012109905433843745
725.0, 0.009411165451805219
726.0, 0.005281572245355158
727.0, 0.0027250373543576283
728.0, 0.0034807807564961727
729.0, 0.0030370990582749935
730.0, 0.005546896377053822
731.0, 0.0034925128693148824
732.0, 0.0025132405201335234
733.0, 0.0036323642648998073
734.0, 0.0013549241571246906
735.0, 0.004855248129852436
736.0, 0.0017651907436621137
737.0, 0.0012732237870083808
738.0, 0.0024599709247416475
739.0, 0.008035666464430304
740.0, 0.012325921474109557
741.0, 0.0046987988690692616
742.0, 0.011634587999005288
743.0, 0.013573666333707771
744.0, 0.01155302084807625
745.0, 0.005530426469725869
746.0, 0.005369564605893917
747.0, 0.014075563951251167
748.0, 0.009342555122335611
749.0, 0.011750210777207786
750.0, 0.003939096637934735
751.0, 0.003891891528816278
752.0, 0.009440849766696105
753.0, 0.009874747187554196
754.0, 0.004279915471907814
755.0, 0.002030550450263669
756.0, 0.006718494177957133
757.0, 0.008597303442038996
758.0, 0.004835809744766756
759.0, 0.0013361845242044273
760.0, 0.001386739226853426
761.0, 0.001987258974272287
762.0, 0.00424234810833863
763.0, 0.006855735055822066
764.0, 0.0049656322296300365
765.0, 0.0008335506296673257
766.0, 0.002150706759128938
767.0, 0.004141624714078276
768.0, 0.002078331863156718
769.0, 0.0037213101763651853
770.0, 0.014030536945659245
771.0, 0.005457626538048803
772.0, 0.0027067984392432545
773.0, 0.002915717630042146
774.0, 0.0017334766063121564
775.0, 0.0018984868698785284
776.0, 0.007087543970632405
777.0, 0.004545072961600014
778.0, 0.003357820319680288
779.0, 0.005176750328078083
780.0, 0.006830171989845172
781.0, 0.009608474658083182
782.0, 0.0033652973242193004
783.0, 0.01405395256061829
784.0, 0.011322835810289558
785.0, 0.0073151405476961145
786.0, 0.008474786013385685
787.0, 0.009015942451575746
788.0, 0.013175446412022099
789.0, 0.006908007395897177
790.0, 0.010776774308597643
791.0, 0.013368307996361883
792.0, 0.011465672846439061
793.0, 0.012501006789916369
794.0, 0.019469824740881183
795.0, 0.018304277446552605
796.0, 0.013790900847009287
797.0, 0.011743964270394706
798.0, 0.013759391031879849
799.0, 0.012030653649840297
800.0, 0.009910966708490123
801.0, 0.014321692436059208
802.0, 0.012657454893941465
803.0, 0.010899603181733445
804.0, 0.012201829653142602
805.0, 0.015835406119690004
806.0, 0.019394133381600124
807.0, 0.017293706535785883
808.0, 0.010091838955175321
809.0, 0.014506251735330426
810.0, 0.018381085132933243
811.0, 0.012033314464810117
812.0, 0.014690557503890951
813.0, 0.014341000382554321
814.0, 0.00997505456661255
815.0, 0.013284453301218968
816.0, 0.006569983487144449
817.0, 0.016203141850924824
818.0, 0.01647816643520904
819.0, 0.019050413167653213
820.0, 0.0219969067242494
821.0, 0.01683820472080959
822.0, 0.011210267920231172
823.0, 0.016080690123478306
824.0, 0.008953903391792516
825.0, 0.014982694257710726
826.0, 0.016307532335831522
827.0, 0.014189500252756448
828.0, 0.010413708538913921
829.0, 0.003177408131267624
830.0, 0.009009120538866884
831.0, 0.004245798080568648
832.0, 0.004298342909095966
833.0, 0.010294633395890807
834.0, 0.013811053595954964
835.0, 0.014040198163955636
836.0, 0.012825244038515924
837.0, 0.0066190199572140045
838.0, 0.00888415710725857
839.0, 0.01802364567224178
840.0, 0.013831593327189516
841.0, 0.013533521542092338
842.0, 0.01951077799826636
843.0, 0.01805689690195896
844.0, 0.00843566939626511
845.0, 0.006783268387555794
846.0, 0.003779982730916311
847.0, 0.004811610892253136
848.0, 0.005513941966690918
849.0, 0.004182123688465822
850.0, 0.004252910519701806
851.0, 0.006682585918590616
852.0, 0.009787648985771292
853.0, 0.01886114312160323
854.0, 0.017010988177431623
855.0, 0.01588090778358294
856.0, 0.016955396064293294
857.0, 0.014737460353029546
858.0, 0.01158815279814041
859.0, 0.015499323559096568
860.0, 0.010925184923723422
861.0, 0.016899417630882468
862.0, 0.021397317751063287
863.0, 0.012818114297736221
864.0, 0.00781341634787878
865.0, 0.015465561616770686
866.0, 0.01689864539275953
867.0, 0.02287392646053085
868.0, 0.019213774258868027
869.0, 0.015585499079941265
870.0, 0.012316958761388988
871.0, 0.010348927682157163
872.0, 0.012061735071634504
873.0, 0.013016963855878399
874.0, 0.00329711700846507
875.0, 0.005375980557766656
876.0, 0.00934310561877073
877.0, 0.012655657793254121
878.0, 0.012079631700827122
879.0, 0.010185905119470689
880.0, 0.0059896794572199315
881.0, 0.002896962877425684
882.0, 0.015633322812837115
883.0, 0.011828887487832182
884.0, 0.010809030966583144
885.0, 0.010932059722675483
886.0, 0.007387129945969621
887.0, 0.006937192343569145
888.0, 0.013103559776000237
889.0, 0.008939908651973624
890.0, 0.003968042096039632
891.0, 0.01000100668061998
892.0, 0.005821351887058424
893.0, 0.004149274203962768
894.0, 0.00837428319718078
895.0, 0.007403242457922068
896.0, 0.0019983337701295193
897.0, 0.004700537521958557
898.0, 0.010904144303286827
899.0, 0.002941966859625285
900.0, 0.0029339807209813034
901.0, 0.001101321783357618
902.0, 0.0024686842392198246
903.0, 0.0023951306662724514
904.0, 0.005395606287295632
905.0, 0.003576935414739565
906.0, 0.0034465945306248625
907.0, 0.0018831880047603124
908.0, 0.001714133555254496
909.0, 0.00503274839462706
910.0, 0.007890855374625774
911.0, 0.007831358870147648
912.0, 0.010186095648672825
913.0, 0.0030613052320610343
914.0, 0.0011435718748142205
915.0, 0.0048294221379859325
916.0, 0.0033210648601448285
917.0, 0.0023577854140558983
918.0, 0.003255128171892761
919.0, 0.001688250508980384
920.0, 0.0005235412941908687
921.0, 0.007065954716911403
922.0, 0.0022512903865071323
923.0, 0.012704270222008039
924.0, 0.014677456219906924
925.0, 0.008021668583490163
926.0, 0.006524717140826634
927.0, 0.008276934224097325
928.0, 0.011472838570432409
929.0, 0.009137239238866243
930.0, 0.006730079159853325
931.0, 0.005987274363181093
932.0, 0.007141360235966368
933.0, 0.00857521850959462
934.0, 0.006190845731775365
935.0, 0.0012159815610862275
936.0, 0.007279558202761765
937.0, 0.009327670873558402
938.0, 0.0023038134926685024
939.0, 0.0007802851275986684
940.0, 0.006255349890801443
941.0, 0.009621965619970614
942.0, 0.007143616828761944
943.0, 0.009751013886895324
944.0, 0.006168323014709282
945.0, 0.001769115963009969
946.0, 0.0029080246408890536
947.0, 0.006201380498437674
948.0, 0.01272999429886063
949.0, 0.008354043138440237
950.0, 0.0019419173983892704
951.0, 0.005019234032637916
952.0, 0.009967711482802462
953.0, 0.015123755924997116
954.0, 0.009697842572435002
955.0, 0.013732559504721471
956.0, 0.011684828871832949
957.0, 0.011372449974140069
958.0, 0.020060413592429226
959.0, 0.027573816869449225
960.0, 0.027295842878332685
961.0, 0.015146127423960662
962.0, 0.022354411064693217
963.0, 0.021443570750375496
964.0, 0.029349686511564797
965.0, 0.03549531693452257
966.0, 0.03084976531653858
967.0, 0.02664185751535779
968.0, 0.032838425872874895
969.0, 0.032027033726028525
970.0, 0.030691252482505215
971.0, 0.03415180497543408
972.0, 0.026809181894405176
973.0, 0.02718649801238488
974.0, 0.028818738310785137
975.0, 0.02781871583406304
976.0, 0.03610569653589415
977.0, 0.04075858622789921
978.0, 0.03723319769626146
979.0, 0.04312722801706264
980.0, 0.04590555934928034
981.0, 0.03504495597564291
982.0, 0.035696081466384075
983.0, 0.04277979107851903
984.0, 0.04117626400424698
985.0, 0.046706291239736665
986.0, 0.04867505571583035
987.0, 0.03856437158786752
988.0, 0.03576172612618869
989.0, 0.041466814243321416
990.0, 0.04530044619322469
991.0, 0.04235444807422291
992.0, 0.040731295392398136
993.0, 0.048459642937283026
994.0, 0.05824214943538886
995.0, 0.060982236222230396
996.0, 0.07092973292253302
997.0, 0.0933576749903453
998.0, 0.10414258454535869
999.0, 0.1167652856858525
1000.0, 0.13166827959709773
1001.0, 0.14514110857543552
1002.0, 0.16598484855377593
1003.0, 0.18774852757896848
1004.0, 0.22033605681774387
1005.0, 0.24722400424568358
1006.0, 0.2783186640051058
1007.0, 0.33698157009814556
1008.0, 0.4037118044572795
1009.0, 0.4525241277278389
1010.0, 0.47999660154938845
1011.0, 0.47768249742412594
1012.0, 0.4192602592589721
1013.0, 0.3410192210002283
1014.0, 0.2639566784472901
1015.0, 0.2072335834253293
1016.0, 0.16149673471430318
1017.0, 0.12832811130060134
1018.0, 0.11377019539457868
1019.0, 0.10612921740324968
1020.0, 0.08905675539797084
1021.0, 0.0772253596698393
1022.0, 0.06904287198032717
1023.0, 0.06188203942694176
1024.0, 0.054587392113174635
1025.0, 0.04640460360336886
1026.0, 0.03627911333135667
1027.0, 0.02989531087535026
1028.0, 0.02768768401695046
1029.0, 0.02511495682228455
1030.0, 0.029814515523484308
1031.0, 0.026415927995793263
1032.0, 0.019659367741956993
1033.0, 0.01652694815301713
1034.0, 0.015527217019856434
1035.0, 0.014962910950454697
1036.0, 0.011786997837254905
1037.0, 0.008030842241042871
1038.0, 0.007554906155257662
1039.0, 0.004471284285706521
1040.0, 0.007473070532639282
1041.0, 0.0008121550189508693
1042.0, 0.0022587755538355037
1043.0, 0.0042429431825313614
1044.0, 0.0009669197622110745
1045.0, 0.0029347193960434052
1046.0, 0.004832996744105927
1047.0, 0.007506833061521371
1048.0, 0.004909139105409619
1049.0, 0.0012454478065070647
1050.0, 0.001258249245380113
1051.0, 0.0023113982083277796
1052.0, 0.0022548845821858663
1053.0, 0.0024006097673576294
1054.0, 0.0024947825521506478
1055.0, 0.004104854021144651
1056.0, 0.003916584230552238
1057.0, 0.0021060066654309175
1058.0, 0.0017660327147333088
1059.0, 0.006449077593523291
1060.0, 0.001400743190606241
1061.0, 0.003380449095865032
1062.0, 0.005494450381465511
1063.0, 0.0032972540661096806
1064.0, 0.013030692319775808
1065.0, 0.012692169368392825
1066.0, 0.008302982444739938
1067.0, 0.005534900557318695
1068.0, 0.007919221882086097
1069.0, 0.008779025224146662
1070.0, 0.007023690400559421
1071.0, 0.00987393019911752
1072.0, 0.017016669052192013
1073.0, 0.01608536124267029
1074.0, 0.01167397387398944
1075.0, 0.014951985348348042
1076.0, 0.01961329971027472
1077.0, 0.01831622710718224
1078.0, 0.023532730138803408
1079.0, 0.024575737924207402
1080.0, 0.025548419378584396
1081.0, 0.02919795082365175
1082.0, 0.03534416191654057
1083.0, 0.047063806115633156
1084.0, 0.056315783311683645
1085.0, 0.06400512316643747
1086.0, 0.08343739530982308
1087.0, 0.0978277319532968
1088.0, 0.11543054089465767
1089.0, 0.13624975836111808
1090.0, 0.15735875300226015
1091.0, 0.183185436850021
1092.0, 0.21341634604639825
1093.0, 0.242859865775441
1094.0, 0.2694576796206817
1095.0, 0.2980697469925057
1096.0, 0.3326169063469217
1097.0, 0.3661336368105067
1098.0, 0.3856032734618699
1099.0, 0.41121420060792024
1100.0, 0.44145090970105944
1101.0, 0.4548245161427528
1102.0, 0.45249972888282036
1103.0, 0.4382003627048729
1104.0, 0.4120376842156766
1105.0, 0.3733902387012964
1106.0, 0.32458459906876025
1107.0, 0.2797572167166835
1108.0, 0.24502243663686477
1109.0, 0.21607178928428392
1110.0, 0.1823212829558595
1111.0, 0.15692060649325834
1112.0, 0.13694148981878057
1113.0, 0.11540922561667252
1114.0, 0.10244237281433671
1115.0, 0.10011908527113605
1116.0, 0.09332384153737784
1117.0, 0.08132979785881207
1118.0, 0.07143895198075843
1119.0, 0.06734613416060918
1120.0, 0.059211186324729034
1121.0, 0.04986021657129432
1122.0, 0.050638826413852984
1123.0, 0.054884422536182774
1124.0, 0.05389596371145718
1125.0, 0.048939762751162845
1126.0, 0.0485330730662161
1127.0, 0.05463233187296471
1128.0, 0.052720361976298015
1129.0, 0.051196712883800136
1130.0, 0.057886022014762846
1131.0, 0.05294693443193832
1132.0, 0.058783244719578326
1133.0, 0.062205987188268225
1134.0, 0.06221089715071186
1135.0, 0.06436557814871431
1136.0, 0.0668411415681961
1137.0, 0.07052333238524727
1138.0, 0.08048581975980666
1139.0, 0.09429920142459405
1140.0, 0.09545008462467593
1141.0, 0.10571179712818983
1142.0, 0.12080858616951684
1143.0, 0.1353748237958842
1144.0, 0.15021351638878322
1145.0, 0.158717053163407
1146.0, 0.1650478199514895
1147.0, 0.1779023665328401
1148.0, 0.19129126288621934
1149.0, 0.2005941649352556
1150.0, 0.21710449553126807
1151.0, 0.2148047277452856
1152.0, 0.2231550749014189
1153.0, 0.2323506186047357
1154.0, 0.2298223912473369
1155.0, 0.23182896392125632
1156.0, 0.23153575600538975
1157.0, 0.22965655536668228
1158.0, 0.228314918551544
1159.0, 0.2174417852394087
1160.0, 0.20231263780277836
1161.0, 0.1946979999333582
1162.0, 0.18045701370410921
1163.0, 0.160661358344038
1164.0, 0.13697176264884592
1165.0, 0.1286493109044196
1166.0, 0.1151178204860816
1167.0, 0.10929426264228519
1168.0, 0.10396315010115012
1169.0, 0.08878021726014809
1170.0, 0.07655284943671423
1171.0, 0.0721454607077765
1172.0, 0.05946642885039745
1173.0, 0.052581970205582085
1174.0, 0.05157703740651423
1175.0, 0.04393461148803993
1176.0, 0.03470325434800818
1177.0, 0.03706785831218754
1178.0, 0.032735113815621754
1179.0, 0.028316463855656594
1180.0, 0.03012427333834914
1181.0, 0.02964299144263785
1182.0, 0.02677449467831663
1183.0, 0.027814318729155445
1184.0, 0.0220173249908135
1185.0, 0.01633529032778219
1186.0, 0.008210511304760358
1187.0, 0.008944911329414815
1188.0, 0.01096335471841255
1189.0, 0.01405087538935702
1190.0, 0.013403163673680475
1191.0, 0.0043321362550089336
1192.0, 0.0016431099405475682
1193.0, 0.009524272789927355
1194.0, 0.013686614080397041
1195.0, 0.011660891028727418
1196.0, 0.011118005669153554
1197.0, 0.013249650685464473
1198.0, 0.008770622223461933
1199.0, 0.0016077417406581316
1200.0, 0.0013219719081594462
1201.0, 0.0030945891241031067
1202.0, 0.005837526417905211
1203.0, 0.0024630353093706273
1204.0, 0.0007087665427392085
1205.0, 0.0023249822571322154
1206.0, 0.002889078331862233
1207.0, 0.0037315471613381486
1208.0, 0.00980097957632786
1209.0, 0.008389307959525832
1210.0, 0.007526258999091118
1211.0, 0.0012040560657500046
1212.0, 0.001270503575968351
1213.0, 0.006974610485028802
1214.0, 0.003962140876597215
1215.0, 0.0024879508579036492
1216.0, 0.0010555696508482123
1217.0, 0.005501703158462694
1218.0, 0.008615334992599115
1219.0, 0.0006322272695814804
1220.0, 0.00958064215010417
1221.0, 0.007531148899783038
1222.0, 0.001595005855321929
1223.0, 0.00170296074830862
1224.0, 0.005857041171570612
1225.0, 0.004179125541472653
1226.0, 0.0042746099766801
1227.0, 0.008936998889866805
1228.0, 0.005382627111502271
1229.0, 0.0003313608557158012
1230.0, 0.004479773052898383
1231.0, 0.002056146861536823
1232.0, 0.008573810884608766
1233.0, 0.002000700477726132
1234.0, 0.00048409868973853427
1235.0, 0.0017559575695873463
1236.0, 0.0019516924669403075
1237.0, 0.0012969555711056658
1238.0, 0.007053193108882306
1239.0, 0.005142337786165937
1240.0, 0.006104441480474509
1241.0, 0.0029809607861733174
1242.0, 0.0033677862242144554
1243.0, 0.004414122423343991
1244.0, 0.004738272840822778
1245.0, 0.002104088013989148
1246.0, 0.003898342238817925
1247.0, 0.01118224901755322
1248.0, 0.011450222740761946
1249.0, 0.01401116534724221
1250.0, 0.02053621291177897
1251.0, 0.01690865505768895
1252.0, 0.014980438973249775
1253.0, 0.01704963054759942
1254.0, 0.019846103267779747
1255.0, 0.017008937149856906
1256.0, 0.009774663522149308
1257.0, 0.012334234618436813
1258.0, 0.02103881931511858
1259.0, 0.017338447535831816
1260.0, 0.014990946618000411
1261.0, 0.016391092845485764
1262.0, 0.01524186661753523
1263.0, 0.015656138886234815
1264.0, 0.013270794523914933
1265.0, 0.01977864772045615
1266.0, 0.010837891513284703
1267.0, 0.01229899056953701
1268.0, 0.009968163386654136
1269.0, 0.010155265127651464
1270.0, 0.014319006747500423
1271.0, 0.01738315043589829
1272.0, 0.021494917185153097
1273.0, 0.015672103415586044
1274.0, 0.010101772660136673
1275.0, 0.014040154008823516
1276.0, 0.013467528362912727
1277.0, 0.021479987537216406
1278.0, 0.011994563424909429
1279.0, 0.01506697082667756
1280.0, 0.016889086885829775
1281.0, 0.01185914125637765
1282.0, 0.007606638838312338
1283.0, 0.0063689540474972505
1284.0, 0.007872017790720685
1285.0, 0.012518069356140946
1286.0, 0.014877633258930024
1287.0, 0.0097786142632003
1288.0, 0.00325592385147914
1289.0, 0.004239983519724818
1290.0, 0.00871150225824853
1291.0, 0.0030577286550283814
1292.0, 0.0013076664680090728
1293.0, 0.004728096517408789
1294.0, 0.003773920655153068
1295.0, 0.012602969681846276
1296.0, 0.008072617473771786
1297.0, 0.004283969804453057
1298.0, 0.0006453887385362863
1299.0, 4.40404518418495e-06
1300, 0.0
1301, 0.0
1302, 0.0
1303, 0.0
1304, 0.0
1305, 0.0
1306, 0.0
1307, 0.0
1308, 0.0
1309, 0.0
1310, 0.0
1311, 0.0
1312, 0.0
1313, 0.0
1314, 0.0
1315, 0.0
1316, 0.0
1317, 0.0
1318, 0.0
1319, 0.0
1320, 0.0
1321, 0.0
1322, 0.0
1323, 0.0
1324, 0.0
1325, 0.0
1326, 0.0
1327, 0.0
1328, 0.0
1329, 0.0
1330, 0.0
1331, 0.0
1332, 0.0
1333, 0.0
1334, 0.0
1335, 0.0
1336, 0.0
1337, 0.0
1338, 0.0
1339, 0.0
1340, 0.0
1341, 0.0
1342, 0.0
1343, 0.0
1344, 0.0
1345, 0.0
1346, 0.0
1347, 0.0
1348, 0.0
1349, 0.0
1350, 0.0
1351, 0.0
1352, 0.0
1353, 0.0
1354, 0.0
1355, 0.0
1356, 0.0
1357, 0.0
1358, 0.0
1359, 0.0
1360, 0.0
1361, 0.0
1362, 0.0
1363, 0.0
1364, 0.0
1365, 0.0
1366, 0.0
1367, 0.0
1368, 0.0
1369, 0.0
1370, 0.0
1371, 0.0
1372, 0.0
1373, 0.0
1374, 0.0
1375, 0.0
1376, 0.0
1377, 0.0
1378, 0.0
1379, 0.0
1380, 0.0
1381, 0.0
1382, 0.0
1383, 0.0
1384, 0.0
1385, 0.0
1386, 0.0
1387, 0.0
1388, 0.0
1389, 0.0
1390, 0.0
1391, 0.0
1392, 0.0
1393, 0.0
1394, 0.0
1395, 0.0
1396, 0.0
1397, 0.0
1398, 0.0
1399, 0.0
1400, 0.0
1401, 0.0
1402, 0.0
1403, 0.0
1404, 0.0
1405, 0.0
1406, 0.0
1407, 0.0
1408, 0.0
1409, 0.0
1410, 0.0
1411, 0.0
1412, 0.0
1413, 0.0
1414, 0.0
1415, 0.0
1416, 0.0
1417, 0.0
1418, 0.0
1419, 0.0
1420, 0.0
1421, 0.0
1422, 0.0
1423, 0.0
1424, 0.0
1425, 0.0
1426, 0.0
1427, 0.0
1428, 0.0
1429, 0.0
1430, 0.0
1431, 0.0
1432, 0.0
1433, 0.0
1434, 0.0
1435, 0.0
1436, 0.0
1437, 0.0
1438, 0.0
1439, 0.0
1440, 0.0
1441, 0.0
1442, 0.0
1443, 0.0
1444, 0.0
1445, 0.0
1446, 0.0
1447, 0.0
1448, 0.0
1449, 0.0
1450, 0.0
1451, 0.0
1452, 0.0
1453, 0.0
1454, 0.0
1455, 0.0
1456, 0.0
1457, 0.0
1458, 0.0
1459, 0.0
1460, 0.0
1461, 0.0
1462, 0.0
1463, 0.0
1464, 0.0
1465, 0.0
1466, 0.0
1467, 0.0
1468, 0.0
1469, 0.0
1470, 0.0
1471, 0.0
1472, 0.0
1473, 0.0
1474, 0.0
1475, 0.0
1476, 0.0
1477, 0.0
1478, 0.0
1479, 0.0
1480, 0.0
1481, 0.0
1482, 0.0
1483, 0.0
1484, 0.0
1485, 0.0
1486, 0.0
1487, 0.0
1488, 0.0
1489, 0.0
1490, 0.0
1491, 0.0
1492, 0.0
1493, 0.0
1494, 0.0
1495, 0.0
1496, 0.0
1497, 0.0
1498, 0.0
1499, 0.0
1500, 0.0
1501, 0.0
1502, 0.0
1503, 0.0
1504, 0.0
1505, 0.0
1506, 0.0
1507, 0.0
1508, 0.0
1509, 0.0
1510, 0.0
1511, 0.0
1512, 0.0
1513, 0.0
1514, 0.0
1515, 0.0
1516, 0.0
1517, 0.0
1518, 0.0
1519, 0.0
1520, 0.0
1521, 0.0
1522, 0.0
1523, 0.0
1524, 0.0
1525, 0.0
1526, 0.0
1527, 0.0
1528, 0.0
1529, 0.0
1530, 0.0
1531, 0.0
1532, 0.0
1533, 0.0
1534, 0.0
1535, 0.0
1536, 0.0
1537, 0.0
1538, 0.0
1539, 0.0
1540, 0.0
1541, 0.0
1542, 0.0
1543, 0.0
1544, 0.0
1545, 0.0
1546, 0.0
1547, 0.0
1548, 0.0
1549, 0.0
1550, 0.0
1551, 0.0
1552, 0.0
1553, 0.0
1554, 0.0
1555, 0.0
1556, 0.0
1557, 0.0
1558, 0.0
1559, 0.0
1560, 0.0
1561, 0.0
1562, 0.0
1563, 0.0
1564, 0.0
1565, 0.0
1566, 0.0
1567, 0.0
1568, 0.0
1569, 0.0
1570, 0.0
1571, 0.0
1572, 0.0
1573, 0.0
1574, 0.0
1575, 0.0
1576, 0.0
1577, 0.0
1578, 0.0
1579, 0.0
1580, 0.0
1581, 0.0
1582, 0.0
1583, 0.0
1584, 0.0
1585, 0.0
1586, 0.0
1587, 0.0
1588, 0.0
1589, 0.0
1590, 0.0
1591, 0.0
1592, 0.0
1593, 0.0
1594, 0.0
1595, 0.0
1596, 0.0
1597, 0.0
1598, 0.0
1599, 0.0
