30, 0.0
31, 0.0
32, 0.0
33, 0.0
34, 0.0
35, 0.0
36, 0.0
37, 0.0
38, 0.0
39, 0.0
40, 0.0
41, 0.0
42, 0.0
43, 0.0
44, 0.0
45, 0.0
46, 0.0
47, 0.0
48, 0.0
49, 0.0
50, 0.0
51, 0.0
52, 0.0
53, 0.0
54, 0.0
55, 0.0
56, 0.0
57, 0.0
58, 0.0
59, 0.0
60, 0.0
61, 0.0
62, 0.0
63, 0.0
64, 0.0
65, 0.0
66, 0.0
67, 0.0
68, 0.0
69, 0.0
70, 0.0
71, 0.0
72, 0.0
73, 0.0
74, 0.0
75, 0.0
76, 0.0
77, 0.0
78, 0.0
79, 0.0
80, 0.0
81, 0.0
82, 0.0
83, 0.0
84, 0.0
85, 0.0
86, 0.0
87, 0.0
88, 0.0
89, 0.0
90, 0.0
91, 0.0
92, 0.0
93.0, 0.0021987507453504578
94.0, 0.036763390683568174
95.0, 0.04789735833621034
96.0, 0.0577268953707747
97.0, 0.07892090479416983
98.0, 0.1164796949278574
99.0, 0.1590761359624721
100.0, 0.20448539157255236
101.0, 0.2625834869608223
102.0, 0.32930983842861217
103.0, 0.39928355615778177
104.0, 0.47403263443097354
105.0, 0.543091507332859
106.0, 0.6008446621568252
107.0, 0.6427807777429801
108.0, 0.6572124021428716
109.0, 0.658051139801452
110.0, 0.646493179264679
111.0, 0.6237153567855979
112.0, 0.6029949745399935
113.0, 0.5992129394046981
114.0, 0.6029119748233301
115.0, 0.609687959346656
116.0, 0.6311859160623722
117.0, 0.6494153291557719
118.0, 0.6515046911326074
119.0, 0.6397325870330245
120.0, 0.6297219531575105
121.0, 0.5871147170718727
122.0, 0.5142979288717002
123.0, 0.42133880354161807
124.0, 0.3270838147659188
125.0, 0.23327891001428033
126.0, 0.15401190106961535
127.0, 0.0975198131322774
128.0, 0.06079969463982833
129.0, 0.03392976731489056
130.0, 0.01233166969575715
131.0, 0.003447473893200285
132.0, 0.01101420581316741
133.0, 0.020727982969665142
134.0, 0.025830028519698137
135.0, 0.023903739605373068
136.0, 0.018066322806117394
137.0, 0.023423446692366182
138.0, 0.022215866027311182
139.0, 0.02105987387156452
140.0, 0.021343873304625057
141.0, 0.0128930941450184
142.0, 0.00392625764068594
143.0, 0.002723586578205699
144.0, 0.0007295639206479276
145.0, 0.01373624644283208
146.0, 0.02563947327503533
147.0, 0.034803090761306776
148.0, 0.045529015684433044
149.0, 0.059063114911139
150.0, 0.06917085897947613
151.0, 0.08462385168829632
152.0, 0.10145974457661444
153.0, 0.11657440074810703
154.0, 0.12722253345489581
155.0, 0.14132455925279022
156.0, 0.15675635918994346
157.0, 0.16939518539927131
158.0, 0.17728589671375267
159.0, 0.1793142213986241
160.0, 0.18439460102966237
161.0, 0.18901282669816777
162.0, 0.1885731548355125
163.0, 0.19166610367210882
164.0, 0.1961622351907436
165.0, 0.196270481092926
166.0, 0.19037020648018302
167.0, 0.18287352985441235
168.0, 0.1779094898087573
169.0, 0.17247135494970947
170.0, 0.16404810381288693
171.0, 0.15193452948495667
172.0, 0.1472607759904213
173.0, 0.14729123131883914
174.0, 0.14477655076155624
175.0, 0.133977172028941
176.0, 0.12808996713755597
177.0, 0.1264226923466943
178.0, 0.1264376252124272
179.0, 0.12561795804823545
180.0, 0.12265462733920915
181.0, 0.12000651325425668
182.0, 0.12066716027048562
183.0, 0.12416424300093289
184.0, 0.12755925388983289
185.0, 0.1269433394357465
186.0, 0.1288814245111052
187.0, 0.1308762834051868
188.0, 0.12661872070630487
189.0, 0.1233193568931191
190.0, 0.1234631118507786
191.0, 0.11976518727194609
192.0, 0.10821227424838323
193.0, 0.1011689283529778
194.0, 0.10091057266475331
195.0, 0.09866200637377688
196.0, 0.09179215757101859
197.0, 0.08641447646249904
198.0, 0.08971292905277928
199.0, 0.08878991301107096
200.0, 0.08685173312790513
201.0, 0.09029811109060844
202.0, 0.09625690343772182
203.0, 0.10149467816637268
204.0, 0.11168032215760863
205.0, 0.1260422049733498
206.0, 0.1365379419674309
207.0, 0.14956027105218786
208.0, 0.16287712624611017
209.0, 0.17485929963369487
210.0, 0.18848041692017214
211.0, 0.21275772030481954
212.0, 0.2291745426703585
213.0, 0.2501036435957028
214.0, 0.28018099061226026
215.0, 0.3042957438023228
216.0, 0.333442933171294
217.0, 0.363093939880036
218.0, 0.39003267790264423
219.0, 0.41659373169434294
220.0, 0.4540511438260086
221.0, 0.4948058343704084
222.0, 0.5311502974447931
223.0, 0.561719066801418
224.0, 0.590579396452095
225.0, 0.6299354787347837
226.0, 0.6678959652438996
227.0, 0.7019213821366075
228.0, 0.7363799428666671
229.0, 0.7682491792817656
230.0, 0.8020897110609203
231.0, 0.8340358480859357
232.0, 0.8599879199766668
233.0, 0.8845950005300084
234.0, 0.9138078883248417
235.0, 0.9411227019044373
236.0, 0.9621707000973273
237.0, 0.9779506019454729
238.0, 0.9880065871148007
239.0, 0.9944909788145593
240.0, 0.9987135114504546
241.0, 0.9997613788285384
242.0, 0.9942499122214316
243.0, 0.9816461424497948
244.0, 0.9690693394385382
245.0, 0.952536700972027
246.0, 0.9276874733507275
247.0, 0.9086104298062352
248.0, 0.8832871123056957
249.0, 0.848417595376799
250.0, 0.8065294299402266
251.0, 0.7620941385738382
252.0, 0.7154139277109924
253.0, 0.6702540158850938
254.0, 0.6261897864438843
255.0, 0.5811795836747898
256.0, 0.5349869086688026
257.0, 0.490977470660588
258.0, 0.4450364781056261
259.0, 0.399289032175965
260.0, 0.362306405428568
261.0, 0.3315463365655042
262.0, 0.301603219943871
263.0, 0.26954535171857663
264.0, 0.23763545834549232
265.0, 0.21332313750681248
266.0, 0.186965849938566
267.0, 0.1693676894690801
268.0, 0.1577796600380901
269.0, 0.14036884598591365
270.0, 0.12198354525241474
271.0, 0.10574327372907225
272.0, 0.09350995334001058
273.0, 0.08404232760472323
274.0, 0.07333703722358087
275.0, 0.06476578008770682
276.0, 0.05641616030592105
277.0, 0.048084406364748776
278.0, 0.040082236095527475
279.0, 0.031421835392130136
280.0, 0.03181787108386101
281.0, 0.03153632060141451
282.0, 0.02629183724710275
283.0, 0.019663110123505956
284.0, 0.014737936610725514
285.0, 0.0137653999143865
286.0, 0.012855971162352231
287.0, 0.011241988467538615
288.0, 0.011800053910629597
289.0, 0.00993819731578368
290.0, 0.008344372341673999
291.0, 0.005808726142684533
292.0, 0.0018480420395510355
293.0, 0.0022169758122690345
294.0, 0.00112416125398204
295.0, 0.0019382471134792437
296.0, 0.0048693518800417045
297.0, 0.00498668551576848
298.0, 0.006333517263544902
299.0, 0.004404119357998278
300.0, 0.003749740136088437
301.0, 0.007037205104311548
302.0, 0.009035315453146066
303.0, 0.00656234044684838
304.0, 0.007846003567981952
305.0, 0.010389269664271086
306.0, 0.008761661983228197
307.0, 0.004482990913501135
308.0, 0.006806931571549943
309.0, 0.0063127979468443765
310.0, 0.004595911006195264
311.0, 0.005449341935412741
312.0, 0.005937578875165721
313.0, 0.0012695536322626239
314.0, 0.0018205607176420095
315.0, 0.005343443007820022
316.0, 0.0018903926013837458
317.0, 0.0028769572964192774
318.0, 0.0010713141175884237
319.0, 0.0006013480836567987
320.0, 0.002447188419106453
321.0, 7.580140449342385e-05
322.0, 0.005470899706279721
323.0, 0.007246369100952275
324.0, 0.005458813383058595
325.0, 0.0028568197150485863
326.0, 0.001863537023731084
327.0, 0.00436418054517436
328.0, 0.004954028692956816
329.0, 0.003811823233860201
330.0, 0.005221477419311839
331.0, 0.009902208084131706
332.0, 0.007755343092326585
333.0, 0.006449021390997338
334.0, 0.008551533606722691
335.0, 0.010107320102277275
336.0, 0.007728526363939869
337.0, 0.010548240172301111
338.0, 0.013810201201585786
339.0, 0.014794901007164256
340.0, 0.01460729771816114
341.0, 0.016148885539818286
342.0, 0.01644394934924943
343.0, 0.01638302960565168
344.0, 0.018247430996857425
345.0, 0.021984572335937494
346.0, 0.018811125234637748
347.0, 0.018336940142042794
348.0, 0.019064167716465158
349.0, 0.02041903983636493
350.0, 0.023543910258084565
351.0, 0.020952117712245734
352.0, 0.021579181146757734
353.0, 0.023431510064353976
354.0, 0.023902299613759358
355.0, 0.023614411826233077
356.0, 0.023740874786747187
357.0, 0.026081604210344653
358.0, 0.026428173888797972
359.0, 0.022672874767024048
360.0, 0.018832182131857774
361.0, 0.020900499069775008
362.0, 0.023413554826222722
363.0, 0.023522177185993885
364.0, 0.021640167663618474
365.0, 0.019323817006751322
366.0, 0.019074286713419295
367.0, 0.017650138707795558
368.0, 0.014811488521676495
369.0, 0.014054817482395154
370.0, 0.01868645601665194
371.0, 0.01913197397473295
372.0, 0.015511037021310518
373.0, 0.0118465812749676
374.0, 0.010024113407092547
375.0, 0.008708646217999612
376.0, 0.012269053160970801
377.0, 0.012064921759457897
378.0, 0.011148054793982596
379.0, 0.010565602219473775
380.0, 0.008726971331822085
381.0, 0.008641195874678317
382.0, 0.00835660907634954
383.0, 0.007699106372315338
384.0, 0.008490618923305005
385.0, 0.0117893492626315
386.0, 0.009789857686960116
387.0, 0.008371247333336855
388.0, 0.009843110602455074
389.0, 0.012664441830491074
390.0, 0.012740393474367034
391.0, 0.014390980522199084
392.0, 0.013850411752759112
393.0, 0.015417717112808234
394.0, 0.019442292848103927
395.0, 0.02047691864451686
396.0, 0.020647869034219536
397.0, 0.023839804061223793
398.0, 0.023305512650420794
399.0, 0.021669760460067
400.0, 0.02580431349049522
401.0, 0.028874429975644433
402.0, 0.030003419459497662
403.0, 0.02947581176660394
404.0, 0.03076099958184838
405.0, 0.034541974771401
406.0, 0.03462523607137649
407.0, 0.035672420292397505
408.0, 0.03592162481808285
409.0, 0.03503699203697763
410.0, 0.03412214509499018
411.0, 0.03396913052288216
412.0, 0.0374965170692145
413.0, 0.034863713845724606
414.0, 0.029594617247150755
415.0, 0.026990403576402804
416.0, 0.02528708449255983
417.0, 0.02657198516524453
418.0, 0.02518648671328217
419.0, 0.025300461201306267
420.0, 0.027252439217489745
421.0, 0.024541499425161383
422.0, 0.02197370898615797
423.0, 0.020884073036050235
424.0, 0.020065289187040043
425.0, 0.018385136268825604
426.0, 0.016191901482010954
427.0, 0.01786213553975942
428.0, 0.01538514428989858
429.0, 0.012553416581207935
430.0, 0.012719931826637255
431.0, 0.016076976918529898
432.0, 0.014565236852473134
433.0, 0.010244613858251638
434.0, 0.011051955441095447
435.0, 0.013341516152436101
436.0, 0.010298000074883015
437.0, 0.008869934366354595
438.0, 0.007197148710415041
439.0, 0.003124445863740588
440.0, 0.0011384228673155476
441.0, 0.0026525494657510034
442.0, 0.002909467791672899
443.0, 0.003055743444786544
444.0, 0.0033251408123745082
445.0, 0.0023700949351889477
446.0, 0.0018993114976701725
447.0, 0.004334851389763165
448.0, 0.004836448895685248
449.0, 0.002787803304713634
450.0, 0.0038184101509877257
451.0, 0.004112828429761049
452.0, 0.000683625726867165
453.0, 0.0010065508970251403
454.0, 0.0023700304513265768
455.0, 0.000970399576366632
456.0, 0.00036078774898000735
457.0, 0.000754350437920655
458.0, 0.0018674415199811108
459.0, 0.0007889009939662079
460.0, 0.0020393665343498794
461.0, 0.003784551058009486
462.0, 0.0045862730000044375
463.0, 0.005977727695435648
464.0, 0.007191960433874788
465.0, 0.00812911439510258
466.0, 0.007722441527983269
467.0, 0.0074260365473007035
468.0, 0.008817456339511401
469.0, 0.01104165008655301
470.0, 0.00842842788058746
471.0, 0.011989470955002718
472.0, 0.014293912588945438
473.0, 0.014371000432730303
474.0, 0.019172866283372097
475.0, 0.018563911400480214
476.0, 0.019759845222497352
477.0, 0.02073804531381575
478.0, 0.021538918824413337
479.0, 0.023457297857986614
480.0, 0.02496571124454241
481.0, 0.025119609125081568
482.0, 0.025162082570220724
483.0, 0.02702783438816612
484.0, 0.02873797278849921
485.0, 0.024381994404300653
486.0, 0.02476949001418086
487.0, 0.024212708068019815
488.0, 0.02531457690977532
489.0, 0.025493350247885096
490.0, 0.02078082799390409
491.0, 0.017035126401771423
492.0, 0.017212266393768955
493.0, 0.016843777711198
494.0, 0.01688500713707541
495.0, 0.01668457669437723
496.0, 0.013061022223446144
497.0, 0.012768554745424614
498.0, 0.015267304257685039
499.0, 0.01474567769947418
500.0, 0.012637841943597591
501.0, 0.012666344225318302
502.0, 0.01065940061833114
503.0, 0.01005272802128704
504.0, 0.009245845249915391
505.0, 0.008587239375883555
506.0, 0.010008611555349498
507.0, 0.01252643924237218
508.0, 0.011150313949454859
509.0, 0.014442416786368708
510.0, 0.015786835448163575
511.0, 0.01520061558777696
512.0, 0.014645277941689813
513.0, 0.01283381623298823
514.0, 0.014640638614596862
515.0, 0.01693691574335689
516.0, 0.019722157470172235
517.0, 0.02280523411456336
518.0, 0.024183536907752483
519.0, 0.023409692271991682
520.0, 0.0258685093926147
521.0, 0.026546204881646673
522.0, 0.027968837163738162
523.0, 0.03087140721654791
524.0, 0.03155492838346252
525.0, 0.02957871456533371
526.0, 0.030418704763536548
527.0, 0.026020774549594144
528.0, 0.021523041454799326
529.0, 0.020361417574493293
530.0, 0.016077298343486826
531.0, 0.011499992841619582
532.0, 0.008485571863295205
533.0, 0.009014356648896455
534.0, 0.01077139376354681
535.0, 0.009737694610558477
536.0, 0.005952564171357807
537.0, 0.004878696733321493
538.0, 0.0038622160811444734
539.0, 0.004443480901155397
540.0, 0.004115025472782449
541.0, 0.0009109499712139649
542.0, 0.001413868476286739
543.0, 0.0004979093527649204
544.0, 0.001300673091274394
545.0, 0.0023395131312335775
546.0, 0.0016460543821774146
547.0, 0.0007684325433656193
548.0, 0.001908236794144345
549.0, 0.001343409860205949
550.0, 0.00018192327290462735
551.0, 0.0006413729782287578
552.0, 0.00048089744307162246
553.0, 0.00030613139603708476
554.0, 0.0032954675637488894
555.0, 0.0021052243728213686
556.0, 0.001449198661772337
557.0, 0.0011637425743067304
558.0, 0.0010891263412982917
559.0, 0.002656622670329204
560.0, 0.00038950355189265655
561.0, 0.002313131803124986
562.0, 0.003949567611773871
563.0, 0.004169112841263345
564.0, 0.004108175895904003
565.0, 0.0029715626680433586
566.0, 0.0035134866867086293
567.0, 0.008905045256903815
568.0, 0.01026772578059617
569.0, 0.010530981656525723
570.0, 0.013302899903948605
571.0, 0.014948454349241528
572.0, 0.012505986857464159
573.0, 0.013139910807000846
574.0, 0.014107858212686522
575.0, 0.014823905203176219
576.0, 0.017715876910162555
577.0, 0.022339890214132744
578.0, 0.02050124539809937
579.0, 0.021536395425548676
580.0, 0.0243462922312132
581.0, 0.026313121934231607
582.0, 0.027266070691113652
583.0, 0.028172143627066455
584.0, 0.02792340487457366
585.0, 0.02792374536150196
586.0, 0.027289478013735043
587.0, 0.02606042233335068
588.0, 0.027027615264068883
589.0, 0.031835302144955016
590.0, 0.03191816346963146
591.0, 0.032004493951632795
592.0, 0.0320963845417185
593.0, 0.030317753148178077
594.0, 0.029877308320323964
595.0, 0.03366633638740426
596.0, 0.032307094229048657
597.0, 0.03555804365683391
598.0, 0.03612875831555089
599.0, 0.03500451926965391
600.0, 0.03393665455632916
601.0, 0.031799687396056715
602.0, 0.031035268324571173
603.0, 0.028459429732212438
604.0, 0.027415419588817557
605.0, 0.029558668672502106
606.0, 0.0312007018352425
607.0, 0.029405248560795575
608.0, 0.025979654079538353
609.0, 0.024030820864495886
610.0, 0.024703568210640944
611.0, 0.026298404596431946
612.0, 0.025981163138233235
613.0, 0.02315326945257778
614.0, 0.021550740023472355
615.0, 0.02026065971212434
616.0, 0.019579052509430594
617.0, 0.02066801258554009
618.0, 0.02183804169733539
619.0, 0.02171418197807205
620.0, 0.020981385205135088
621.0, 0.01865381156806374
622.0, 0.016680230611763838
623.0, 0.018024718757444477
624.0, 0.021781604504231472
625.0, 0.024125970990091054
626.0, 0.022309372222819444
627.0, 0.018701349913549273
628.0, 0.020538361527302578
629.0, 0.023848812947505696
630.0, 0.025047085224071123
631.0, 0.023282327370867745
632.0, 0.021416019375425956
633.0, 0.024547100657288913
634.0, 0.023982611409649836
635.0, 0.02153802482388628
636.0, 0.02059916349873361
637.0, 0.020532176099867912
638.0, 0.020025516097916626
639.0, 0.020654410773721744
640.0, 0.020544693631512317
641.0, 0.017962647252246725
642.0, 0.01850161345655348
643.0, 0.018346596228696208
644.0, 0.015731875938287957
645.0, 0.014828208654740707
646.0, 0.014832377695133847
647.0, 0.013072031089982766
648.0, 0.013506286484929363
649.0, 0.010970313108981854
650.0, 0.0067393399321559215
651.0, 0.006871892038129661
652.0, 0.007931659316637434
653.0, 0.00541246523979023
654.0, 0.0028578031893521823
655.0, 0.002790787574909256
656.0, 0.0036595814823924783
657.0, 0.0054143570928637365
658.0, 0.008059556093635253
659.0, 0.0025866001490865986
660.0, 0.004080681727882583
661.0, 0.004669467560599114
662.0, 0.002766416942373711
663.0, 0.00048667996026363457
664.0, 0.0013096222243533992
665.0, 0.001699166784435921
666.0, 0.0004889859768121698
667.0, 0.001842094800625048
668.0, 0.000616372244275567
669.0, 0.0012227570862578514
670.0, 0.0006762109806990666
671.0, 0.0007580351221697117
672.0, 0.001393092192636171
673.0, 0.0020120319755052153
674.0, 0.001007038080830079
675.0, 0.0006709038346343607
676.0, 0.0006830961857478489
677.0, 0.00013005594577759715
678.0, 0.00027706660284709735
679.0, 0.000914633325374162
680.0, 0.0006939112620403146
681.0, 0.0045286984566918825
682.0, 0.00337217422453463
683.0, 0.0003366877094987973
684.0, 0.0007767190165079059
685.0, 0.0022392521053211057
686.0, 0.00016853705406238563
687.0, 0.0018879468620181974
688.0, 0.0010355060431153445
689.0, 0.0019409283358812221
690.0, 0.004396473832525542
691.0, 0.005559057727769789
692.0, 0.007834438868343549
693.0, 0.008480888423320308
694.0, 0.006997547061281501
695.0, 0.00858021867881513
696.0, 0.010988267823131333
697.0, 0.013261231728113283
698.0, 0.013977272485727606
699.0, 0.009590674560009059
700.0, 0.014474282119448857
701.0, 0.012815425790979303
702.0, 0.01191350761821059
703.0, 0.013689507142688753
704.0, 0.015188291897309263
705.0, 0.014932779291967995
706.0, 0.013686961556081718
707.0, 0.014317415925501105
708.0, 0.01244697500506982
709.0, 0.012510004427997058
710.0, 0.013220899717909428
711.0, 0.012792042033954603
712.0, 0.013724239889377592
713.0, 0.016103602055576396
714.0, 0.012462430516162578
715.0, 0.014182349676742348
716.0, 0.012770262158511608
717.0, 0.009744129031573817
718.0, 0.01184380771811555
719.0, 0.015598612505855768
720.0, 0.01065466066564198
721.0, 0.008472419385357945
722.0, 0.008052422504380187
723.0, 0.006953167279754197
724.0, 0.006048409910101808
725.0, 0.006545837934745588
726.0, 0.007543589803198111
727.0, 0.00467074114041239
728.0, 0.006536788904189191
729.0, 0.005586583572384637
730.0, 0.007319415970209818
731.0, 0.00811418006908833
732.0, 0.007529530005153721
733.0, 0.008126016803019005
734.0, 0.005546295680392524
735.0, 0.0069511717128870896
736.0, 0.010647839832791387
737.0, 0.010338090003485963
738.0, 0.008722748266257671
739.0, 0.007215029700240949
740.0, 0.007131371982410594
741.0, 0.011157895478881309
742.0, 0.011436924448434914
743.0, 0.011532223654817257
744.0, 0.0130169209643467
745.0, 0.01802405229746604
746.0, 0.018756344523539956
747.0, 0.01633048257448445
748.0, 0.019629483753641964
749.0, 0.020055583257302837
750.0, 0.019238259947277462
751.0, 0.021934068505043636
752.0, 0.022302525852460977
753.0, 0.023108022096157088
754.0, 0.022495980310312774
755.0, 0.018396684828150735
756.0, 0.02190345969761706
757.0, 0.02253306355484596
758.0, 0.021508006828917882
759.0, 0.021344201209565265
760.0, 0.021057649163247222
761.0, 0.020868877110132727
762.0, 0.020247503382099664
763.0, 0.018004165769866815
764.0, 0.021493765729742927
765.0, 0.018277427313696908
766.0, 0.016787596910996547
767.0, 0.018253633790990438
768.0, 0.017909836819061175
769.0, 0.0171535441727898
770.0, 0.02002698774584196
771.0, 0.014664224755604947
772.0, 0.011577144530757687
773.0, 0.0141405275856175
774.0, 0.013040892181386479
775.0, 0.010489505621566666
776.0, 0.006532745918369321
777.0, 0.002738629188371821
778.0, 0.004970913073709494
779.0, 0.004869005982586787
780.0, 0.006489590680252904
781.0, 0.006525492798242491
782.0, 0.006577253413375386
783.0, 0.0040203659080647386
784.0, 0.0005427148197943371
785.0, 0.001517572538904729
786.0, 0.0022762074246581005
787.0, 0.004826477275636972
788.0, 0.0009865260525458084
789.0, 0.0011137873255046664
790.0, 0.001735575273769077
791.0, 0.003148639170286456
792.0, 0.005760728496578446
793.0, 0.004370312454574133
794.0, 0.0006772900127877223
795.0, 0.003719236008678086
796.0, 0.0006293385576230159
797.0, 0.0004605382895063303
798.0, 0.0028748233146561673
799.0, 0.0032907408724989077
800.0, 0.0016618659500692555
801.0, 0.0004737160247216934
802.0, 0.002266572622884514
803.0, 0.0011756610027180805
804.0, 0.00229100294290893
805.0, 0.0009747257204089982
806.0, 0.0011974182723330964
807.0, 0.0007798423654811417
808.0, 0.000280624821934393
809.0, 0.0024996886834340003
810.0, 0.0024705762450268056
811.0, 0.0005291634849952007
812.0, 0.0010933125900862404
813.0, 0.0011675224112119218
814.0, 0.0015612658952864822
815.0, 0.0015222123586047698
816.0, 0.00013410031504472946
817.0, 0.0016664344966235175
818.0, 0.004741871563143916
819.0, 0.001693610757062152
820.0, 4.28871777856877e-05
821.0, 0.0034302149207472103
822.0, 0.002281847206075663
823.0, 0.0004946259800756938
824.0, 0.0017697626120069254
825.0, 0.001154895029232206
826.0, 0.0015441752223026353
827.0, 0.0028416112617789904
828.0, 0.002934377290278107
829.0, 0.002127422700533072
830.0, 0.0013694845493488477
831.0, 0.0015992446406492226
832.0, 0.003051241844636437
833.0, 0.004027787173496166
834.0, 0.0016127375644244407
835.0, 0.0002790472931083334
836.0, 0.0013304149751173233
837.0, 0.0019619697049499066
838.0, 0.0011101735255529747
839.0, 0.0013760122388324233
840.0, 0.0032179101379813946
841.0, 0.0031525506549378714
842.0, 0.00040622212764680976
843.0, 0.00324883408900569
844.0, 0.0046233031007693525
845.0, 0.0038074447326719866
846.0, 0.0031454938879471534
847.0, 0.0025205553985490057
848.0, 0.0028597157077628285
849.0, 0.004679671921526758
850.0, 0.005784953586170075
851.0, 0.004766409669030904
852.0, 0.007374714799727453
853.0, 0.005984873689300628
854.0, 0.005806075222294931
855.0, 0.006264552127837694
856.0, 0.005231060266590575
857.0, 0.0026543348150268884
858.0, 0.0013083763283724612
859.0, 0.005602915393601244
860.0, 0.002695532007001994
861.0, 0.00486814805553115
862.0, 0.0015811034210879596
863.0, 0.0001945855121257117
864.0, 0.001962410673863458
865.0, 0.005177486231230618
866.0, 0.00568906711963188
867.0, 0.003413952619375821
868.0, 0.004285100447278533
869.0, 0.004314921576379228
870.0, 0.0024428306096118866
871.0, 0.002364501556677227
872.0, 0.0028952384967309555
873.0, 0.0029688260804469568
874.0, 0.00222533544844915
875.0, 0.0022323186796115837
876.0, 0.004994059710319315
877.0, 0.0024922267998962336
878.0, 0.002066799260617767
879.0, 0.0025377862397317355
880.0, 0.0029198347507713583
881.0, 0.002201496947791001
882.0, 0.0024791163455258397
883.0, 0.0026148972972159542
884.0, 0.0020933844730124025
885.0, 0.005621115802590022
886.0, 0.011239779719911488
887.0, 0.0057796137536172566
888.0, 0.0011707182906398824
889.0, 0.0008340796388480716
890.0, 0.0020544029454226728
891.0, 0.001594989548894595
892.0, 0.0008912300940605196
893.0, 0.001275109030364664
894.0, 0.0015166686160731867
895.0, 0.004973075077262175
896.0, 0.002910569721102404
897.0, 0.0034647545401226246
898.0, 0.0047074466634355865
899.0, 0.0038843418822056305
900.0, 0.0018276655867119425
901.0, 0.002177459957809497
902.0, 0.005250590423418742
903.0, 0.005205120363687145
904.0, 0.004374081345443438
905.0, 0.0042679628472146805
906.0, 0.004607125848004695
907.0, 0.0025410077917362816
908.0, 0.005338556817472814
909.0, 0.006335013171262797
910.0, 0.003886683118191999
911.0, 0.003395077901303571
912.0, 0.003636261152372905
913.0, 0.0015016709099923162
914.0, 0.004497081675679641
915.0, 0.004478022029479921
916.0, 0.003608929161311066
917.0, 0.005392614908443883
918.0, 0.005692592057594442
919.0, 0.003875238050457988
920.0, 0.0031362906659050025
921.0, 0.0036425932529290115
922.0, 0.002793334061586085
923.0, 0.001130477519712187
924.0, 0.0008068138819605639
925.0, 0.0027546405777752266
926.0, 0.0013973662823775841
927.0, 0.0001568175769480912
928.0, 0.00022156987070926895
929.0, 0.000151118632270629
930.0, 0.0013818876101002317
931.0, 0.0023535958049836683
932.0, 0.0015392139148962228
933.0, 0.0026100402513320586
934.0, 0.003978330228924843
935.0, 0.001793846278372544
936.0, 0.0029135322414800425
937.0, 0.004579240481508242
938.0, 0.0026990102357232846
939.0, 0.0002640244181103307
940.0, 0.00028097162435383185
941.0, 0.0009113554383174914
942.0, 0.0007299002839099404
943.0, 0.003768683369337242
944.0, 0.003749601341912456
945.0, 0.0017545159088018735
946.0, 0.0008980837739784157
947.0, 0.0006653527039830176
948.0, 0.0015364166111165852
949.0, 0.0025112619708413304
950.0, 0.0025949957028529613
951.0, 0.0023486260972130145
952.0, 0.0010404110606389164
953.0, 0.001205628123317301
954.0, 6.014159843945109e-05
955.0, 0.002564739776094859
956.0, 0.0004802441940569038
957.0, 0.0006507784023740807
958.0, 0.002523650180004575
959.0, 0.00459625638115064
960.0, 0.003334761538814644
961.0, 0.003443079634232196
962.0, 0.003915487478796837
963.0, 0.0013487727813462085
964.0, 0.001912898633435316
965.0, 0.0023962194469604827
966.0, 0.0019747479176923798
967.0, 0.005066034753502144
968.0, 0.005516783958589325
969.0, 0.0035162684472390474
970.0, 0.0017562567714979643
971.0, 0.0009065361304925074
972.0, 0.003358336966356406
973.0, 0.004028851597088874
974.0, 0.004120648582753855
975.0, 0.003911953037764716
976.0, 0.002756351904791929
977.0, 0.004112896206729803
978.0, 0.004834644176620238
979.0, 0.005099603202988055
980.0, 0.003295370075451743
981.0, 0.0018664137884598952
982.0, 0.006751488218889256
983.0, 0.007869240312637273
984.0, 0.004123057345205438
985.0, 0.003194408930951351
986.0, 0.0027392855571239283
987.0, 0.0031858076511804235
988.0, 0.00322681011582939
989.0, 0.0028843350650554355
990.0, 0.00509080764501835
991.0, 0.005024665001277171
992.0, 0.001613502209178025
993.0, 0.003629063450316588
994.0, 0.005719523929576986
995.0, 0.004815440900041496
996.0, 0.0008044766446402341
997.0, 0.0010403394692996726
998.0, 0.004380826859296905
999.0, 0.004775710750925549
1000.0, 0.0035362367332297372
1001.0, 0.0038325851554398553
1002.0, 0.004621714029949889
1003.0, 0.004299480629890591
1004.0, 0.004513281309550573
1005.0, 0.005241888453255438
1006.0, 0.0035921970838239314
1007.0, 0.003222273998275392
1008.0, 0.0044073892102890425
1009.0, 0.004525124027024529
1010.0, 0.002954415692875768
1011.0, 0.004322567257373449
1012.0, 0.004837445319950595
1013.0, 0.001635511430349509
1014.0, 0.0010826243049569784
1015.0, 0.004122446021409116
1016.0, 0.0036775736239075194
1017.0, 0.001416556664517762
1018.0, 0.003822922165121147
1019.0, 0.0010877225548492526
1020.0, 0.002778028962650968
1021.0, 0.005065526047159373
1022.0, 0.002932037509346371
1023.0, 0.0007712006969142812
1024.0, 0.002662149666257758
1025.0, 0.00570763513894201
1026.0, 0.006276985278907256
1027.0, 0.004438828507324921
1028.0, 0.0014231029388813933
1029.0, 0.007172781802933699
1030.0, 0.005662975690340717
1031.0, 0.005305550870382352
1032.0, 0.001036042751058738
1033.0, 0.001910002538184832
1034.0, 0.001723338221156947
1035.0, 0.0005788456742771357
1036.0, 0.0015285530377892038
1037.0, 0.0014668180434650431
1038.0, 0.002660107835544133
1039.0, 0.0010983853717037948
1040.0, 0.003298801650650735
1041.0, 0.002591296417480346
1042.0, 0.005891674318121371
1043.0, 0.004404233142242301
1044.0, 0.003853498151210799
1045.0, 0.004071175079930003
1046.0, 0.0022222562132949417
1047.0, 0.0018352735189264304
1048.0, 0.0038824535652888224
1049.0, 0.005601151519075844
1050.0, 0.004521774169010541
1051.0, 0.0040801810413578325
1052.0, 0.008534909157462276
1053.0, 0.0050217004659618425
1054.0, 0.0034947747380771276
1055.0, 0.005859556020091664
1056.0, 0.005883527830398699
1057.0, 0.005206699652573685
1058.0, 0.0022336901252891644
1059.0, 0.003755576468957601
1060.0, 0.005929961754330425
1061.0, 0.005430305506108875
1062.0, 0.003131130813663274
1063.0, 0.00027221411587328374
1064.0, 0.00043236512526291206
1065.0, 0.001500087832491122
1066.0, 0.0012777920695076768
1067.0, 0.0018387770887268384
1068.0, 0.0021623639125602522
1069.0, 0.002487759913884111
1070.0, 0.0019762889392217144
1071.0, 0.0013804269569232062
1072.0, 0.0005935797740640241
1073.0, 0.0032893299723408126
1074.0, 0.004017863582752089
1075.0, 0.0031123277952074427
1076.0, 0.003844253079153731
1077.0, 0.00422171143386067
1078.0, 0.003125751440198804
1079.0, 0.002907047862260259
1080.0, 0.003124303106857263
1081.0, 0.006060103502567514
1082.0, 0.009522783118744731
1083.0, 0.009592715463029169
1084.0, 0.00522243576768087
1085.0, 0.005395967516202687
1086.0, 0.006215190390961839
1087.0, 0.004840801170042278
1088.0, 0.005977290281858763
1089.0, 0.009850865742810702
1090.0, 0.00987326116622694
1091.0, 0.006070469611506569
1092.0, 0.005676861385683536
1093.0, 0.00699968306530139
1094.0, 0.00809347621497818
1095.0, 0.008922061087082008
1096.0, 0.010219094067016371
1097.0, 0.006128031127483878
1098.0, 0.006852449534664335
1099.0, 0.008740746790986638
1100.0, 0.007583012020547123
1101.0, 0.006775360460446005
1102.0, 0.007560855736623908
1103.0, 0.011017507508050332
1104.0, 0.012537181976961406
1105.0, 0.010130128580492155
1106.0, 0.01316524389186241
1107.0, 0.007105606812616658
1108.0, 0.0074635024986817265
1109.0, 0.009178747172430606
1110.0, 0.0073529877623485125
1111.0, 0.008585702079405549
1112.0, 0.011454473889169
1113.0, 0.011074931598085843
1114.0, 0.011116538873656287
1115.0, 0.010738061730385506
1116.0, 0.009124183896882434
1117.0, 0.009656765160664462
1118.0, 0.009280130946164226
1119.0, 0.009719187512210533
1120.0, 0.009642994106572255
1121.0, 0.008212083170044068
1122.0, 0.009803001464240886
1123.0, 0.008644529460694949
1124.0, 0.009444831111221973
1125.0, 0.011246924262493059
1126.0, 0.010415267375494619
1127.0, 0.009933703821375024
1128.0, 0.010630236626423142
1129.0, 0.009041158524504043
1130.0, 0.008430216521409104
1131.0, 0.007718447224503784
1132.0, 0.0074478596426534
1133.0, 0.008212838282315088
1134.0, 0.007320281871066648
1135.0, 0.006701662551277228
1136.0, 0.00565452351523444
1137.0, 0.0018029226262905277
1138.0, 0.004325382001853743
1139.0, 0.003975793907621878
1140.0, 0.005453960021936578
1141.0, 0.004448959247456287
1142.0, 0.0038735191900748306
1143.0, 0.003938927737860335
1144.0, 0.004353238115551579
1145.0, 0.0037977018123424152
1146.0, 0.0030760556747633765
1147.0, 0.0032759983038877474
1148.0, 0.0039466291093488105
1149.0, 0.003439101811297786
1150.0, 0.0019283430222519808
1151.0, 0.0011305264633406271
1152.0, 0.0022489047540938095
1153.0, 0.0035701671227805682
1154.0, 0.002323800104581329
1155.0, 0.0013986399101693849
1156.0, 0.0006152460148375659
1157.0, 0.00677208940628337
1158.0, 0.004585660952887172
1159.0, 0.004863168283671568
1160.0, 0.00524254248173116
1161.0, 0.00558630794936841
1162.0, 0.004895494768954202
1163.0, 0.003913664071212131
1164.0, 0.005307524043006441
1165.0, 0.006534327940265654
1166.0, 0.006248359960328197
1167.0, 0.005881134876291606
1168.0, 0.005965590336444219
1169.0, 0.0060420863555917855
1170.0, 0.0036624680039673433
1171.0, 0.0020511544115072895
1172.0, 0.00227887894244206
1173.0, 0.007346178535851303
1174.0, 0.009530505928280558
1175.0, 0.0030614780859973038
1176.0, 0.0041510633365235165
1177.0, 0.006174769723234411
1178.0, 0.006058134513278442
1179.0, 0.007479684925532881
1180.0, 0.003142178492396403
1181.0, 0.004508351425919707
1182.0, 0.006186535361587158
1183.0, 0.005327116446999571
1184.0, 0.0035733557531360373
1185.0, 0.003310440956240153
1186.0, 0.004575040855331944
1187.0, 0.0032130322105128643
1188.0, 0.0035044501692643197
1189.0, 0.005397423647893183
1190.0, 0.0031442905477888387
1191.0, 0.002684299024080525
1192.0, 0.000958863837682635
1193.0, 0.0010981609665439928
1194.0, 0.004120310279395454
1195.0, 0.0032127446798854015
1196.0, 0.00211043426754944
1197.0, 0.0013221430756049884
1198.0, 0.0018728874464001212
1199.0, 0.004030264473447441
1200.0, 0.0017726664940116235
1201.0, 0.002532804310847579
1202.0, 0.00196076857361418
1203.0, 0.0002947556036856253
1204.0, 0.0028247671443547267
1205.0, 0.005185028766472168
1206.0, 0.003196203410040024
1207.0, 0.0012000605753825578
1208.0, 0.0012345516166182699
1209.0, 0.0003220714780611466
1210.0, 0.0005788535552574908
1211.0, 0.0006412468923535197
1212.0, 0.0018108527048796173
1213.0, 0.00047900780329478414
1214.0, 0.0025284123304637933
1215.0, 0.0011854785567740563
1216.0, 0.0019760672132117358
1217.0, 0.0020879327757108786
1218.0, 0.0010088005619210774
1219.0, 0.0008620258640535461
1220.0, 0.0008168532588680584
1221.0, 0.0008868214394829361
1222.0, 0.00034077426203080614
1223.0, 0.0004303740752444584
1224.0, 0.0009011246868735379
1225.0, 4.203635307048373e-05
1226.0, 0.0009693519749731706
1227.0, 0.00026436136597229106
1228.0, 0.0003191439850439899
1229.0, 0.001400859435018177
1230.0, 0.0013550193840449407
1231.0, 0.002503280714380124
1232.0, 0.0037533074507835073
1233.0, 0.0026300016833749372
1234.0, 0.002464311839338157
1235.0, 0.001394097028268166
1236.0, 0.004414517484649517
1237.0, 0.006581560574416325
1238.0, 0.005200622798805171
1239.0, 0.003163440573018316
1240.0, 0.003000509634972478
1241.0, 0.0036140709493924093
1242.0, 0.0021758437941265907
1243.0, 0.0032163588984797484
1244.0, 0.006221819442480611
1245.0, 0.009004395384400482
1246.0, 0.006683743115937337
1247.0, 0.007117830515033539
1248.0, 0.009008016316075979
1249.0, 0.008157137547353758
1250.0, 0.006968444088979099
1251.0, 0.007311729409584641
1252.0, 0.00860003531683588
1253.0, 0.008043873817998603
1254.0, 0.009082547178392977
1255.0, 0.007274876301316545
1256.0, 0.008556356046112315
1257.0, 0.009544835588016939
1258.0, 0.010064668320167391
1259.0, 0.007708089800988455
1260.0, 0.006927131444285552
1261.0, 0.007773401603575146
1262.0, 0.011660192666041212
1263.0, 0.00981993246375536
1264.0, 0.011166292351750744
1265.0, 0.01214052285392552
1266.0, 0.011253345403491136
1267.0, 0.011475319059563347
1268.0, 0.011216074982229016
1269.0, 0.008952687319725618
1270.0, 0.00957505479401626
1271.0, 0.007369184417308374
1272.0, 0.005559582383809323
1273.0, 0.0049440420035260285
1274.0, 0.005544612077507446
1275.0, 0.007749818461422162
1276.0, 0.006729407461898717
1277.0, 0.003978809761052607
1278.0, 0.002976397573982526
1279.0, 0.0027300201526986815
1280.0, 0.0043703150697218095
1281.0, 0.005704147065318322
1282.0, 0.0014574324358483876
1283.0, 0.0021709141402946864
1284.0, 0.0035570528345479995
1285.0, 0.0003834993704860583
1286, 0.0
1287, 0.0
1288, 0.0
1289, 0.0
1290, 0.0
1291, 0.0
1292, 0.0
1293, 0.0
1294, 0.0
1295, 0.0
1296, 0.0
1297, 0.0
1298, 0.0
1299, 0.0
1300, 0.0
1301, 0.0
1302, 0.0
1303, 0.0
1304, 0.0
1305, 0.0
1306, 0.0
1307, 0.0
1308, 0.0
1309, 0.0
1310, 0.0
1311, 0.0
1312, 0.0
1313, 0.0
1314, 0.0
1315, 0.0
1316, 0.0
1317, 0.0
1318, 0.0
1319, 0.0
1320, 0.0
1321, 0.0
1322, 0.0
1323, 0.0
1324, 0.0
1325, 0.0
1326, 0.0
1327, 0.0
1328, 0.0
1329, 0.0
1330, 0.0
1331, 0.0
1332, 0.0
1333, 0.0
1334, 0.0
1335, 0.0
1336, 0.0
1337, 0.0
1338, 0.0
1339, 0.0
1340, 0.0
1341, 0.0
1342, 0.0
1343, 0.0
1344, 0.0
1345, 0.0
1346, 0.0
1347, 0.0
1348, 0.0
1349, 0.0
1350, 0.0
1351, 0.0
1352, 0.0
1353, 0.0
1354, 0.0
1355, 0.0
1356, 0.0
1357, 0.0
1358, 0.0
1359, 0.0
1360, 0.0
1361, 0.0
1362, 0.0
1363, 0.0
1364, 0.0
1365, 0.0
1366, 0.0
1367, 0.0
1368, 0.0
1369, 0.0
1370, 0.0
1371, 0.0
1372, 0.0
1373, 0.0
1374, 0.0
1375, 0.0
1376, 0.0
1377, 0.0
1378, 0.0
1379, 0.0
1380, 0.0
1381, 0.0
1382, 0.0
1383, 0.0
1384, 0.0
1385, 0.0
1386, 0.0
1387, 0.0
1388, 0.0
1389, 0.0
1390, 0.0
1391, 0.0
1392, 0.0
1393, 0.0
1394, 0.0
1395, 0.0
1396, 0.0
1397, 0.0
1398, 0.0
1399, 0.0
1400, 0.0
1401, 0.0
1402, 0.0
1403, 0.0
1404, 0.0
1405, 0.0
1406, 0.0
1407, 0.0
1408, 0.0
1409, 0.0
1410, 0.0
1411, 0.0
1412, 0.0
1413, 0.0
1414, 0.0
1415, 0.0
1416, 0.0
1417, 0.0
1418, 0.0
1419, 0.0
1420, 0.0
1421, 0.0
1422, 0.0
1423, 0.0
1424, 0.0
1425, 0.0
1426, 0.0
1427, 0.0
1428, 0.0
1429, 0.0
1430, 0.0
1431, 0.0
1432, 0.0
1433, 0.0
1434, 0.0
1435, 0.0
1436, 0.0
1437, 0.0
1438, 0.0
1439, 0.0
1440, 0.0
1441, 0.0
1442, 0.0
1443, 0.0
1444, 0.0
1445, 0.0
1446, 0.0
1447, 0.0
1448, 0.0
1449, 0.0
1450, 0.0
1451, 0.0
1452, 0.0
1453, 0.0
1454, 0.0
1455, 0.0
1456, 0.0
1457, 0.0
1458, 0.0
1459, 0.0
1460, 0.0
1461, 0.0
1462, 0.0
1463, 0.0
1464, 0.0
1465, 0.0
1466, 0.0
1467, 0.0
1468, 0.0
1469, 0.0
1470, 0.0
1471, 0.0
1472, 0.0
1473, 0.0
1474, 0.0
1475, 0.0
1476, 0.0
1477, 0.0
1478, 0.0
1479, 0.0
1480, 0.0
1481, 0.0
1482, 0.0
1483, 0.0
1484, 0.0
1485, 0.0
1486, 0.0
1487, 0.0
1488, 0.0
1489, 0.0
1490, 0.0
1491, 0.0
1492, 0.0
1493, 0.0
1494, 0.0
1495, 0.0
1496, 0.0
1497, 0.0
1498, 0.0
1499, 0.0
1500, 0.0
1501, 0.0
1502, 0.0
1503, 0.0
1504, 0.0
1505, 0.0
1506, 0.0
1507, 0.0
1508, 0.0
1509, 0.0
1510, 0.0
1511, 0.0
1512, 0.0
1513, 0.0
1514, 0.0
1515, 0.0
1516, 0.0
1517, 0.0
1518, 0.0
1519, 0.0
1520, 0.0
1521, 0.0
1522, 0.0
1523, 0.0
1524, 0.0
1525, 0.0
1526, 0.0
1527, 0.0
1528, 0.0
1529, 0.0
1530, 0.0
1531, 0.0
1532, 0.0
1533, 0.0
1534, 0.0
1535, 0.0
1536, 0.0
1537, 0.0
1538, 0.0
1539, 0.0
1540, 0.0
1541, 0.0
1542, 0.0
1543, 0.0
1544, 0.0
1545, 0.0
1546, 0.0
1547, 0.0
1548, 0.0
1549, 0.0
1550, 0.0
1551, 0.0
1552, 0.0
1553, 0.0
1554, 0.0
1555, 0.0
1556, 0.0
1557, 0.0
1558, 0.0
1559, 0.0
1560, 0.0
1561, 0.0
1562, 0.0
1563, 0.0
1564, 0.0
1565, 0.0
1566, 0.0
1567, 0.0
1568, 0.0
1569, 0.0
1570, 0.0
1571, 0.0
1572, 0.0
1573, 0.0
1574, 0.0
1575, 0.0
1576, 0.0
1577, 0.0
1578, 0.0
1579, 0.0
1580, 0.0
1581, 0.0
1582, 0.0
1583, 0.0
1584, 0.0
1585, 0.0
1586, 0.0
1587, 0.0
1588, 0.0
1589, 0.0
1590, 0.0
1591, 0.0
1592, 0.0
1593, 0.0
1594, 0.0
1595, 0.0
1596, 0.0
1597, 0.0
1598, 0.0
1599, 0.0
