30, 0.0
31, 0.0
32, 0.0
33, 0.0
34, 0.0
35, 0.0
36, 0.0
37, 0.0
38, 0.0
39, 0.0
40, 0.0
41, 0.0
42, 0.0
43, 0.0
44, 0.0
45, 0.0
46, 0.0
47, 0.0
48, 0.0
49, 0.0
50, 0.0
51, 0.0
52, 0.0
53, 0.0
54, 0.0
55, 0.0
56, 0.0
57, 0.0
58, 0.0
59, 0.0
60, 0.0
61, 0.0
62, 0.0
63, 0.0
64, 0.0
65, 0.0
66, 0.0
67, 0.0
68, 0.0
69, 0.0
70, 0.0
71, 0.0
72, 0.0
73, 0.0
74, 0.0
75, 0.0
76, 0.0
77, 0.0
78, 0.0
79, 0.0
80, 0.0
81, 0.0
82, 0.0
83, 0.0
84, 0.0
85, 0.0
86, 0.0
87, 0.0
88, 0.0
89, 0.0
90, 0.0
91.0, 0.008700266996827574
92.0, 0.03135531405410345
93.0, 0.038374864419955766
94.0, 0.03341818582513001
95.0, 0.02054072332397509
96.0, 0.015235083685668633
97.0, 0.013846555648964693
98.0, 0.00971123050675885
99.0, 0.00465171511090571
100.0, 0.0013141169771732943
101.0, 0.00024918954531496167
102.0, 8.29487475347723e-05
103.0, 0.00011917244616543338
104.0, 0.0006072014317297762
105.0, 0.004088141476628155
106.0, 0.007016495676022231
107.0, 0.0075443565642426946
108.0, 0.004062995564727157
109.0, 0.001933381102798477
110.0, 0.0039044289015135254
111.0, 0.00979480435583472
112.0, 0.014009564263104337
113.0, 0.018164254398078693
114.0, 0.020146161747411958
115.0, 0.01948203953221488
116.0, 0.017271310128246613
117.0, 0.013963423484121605
118.0, 0.010976925030209167
119.0, 0.010041379910316754
120.0, 0.011678697626118784
121.0, 0.012102551300262712
122.0, 0.010654352977190881
123.0, 0.006793137041419957
124.0, 0.00022951602897116046
125.0, 0.00033442556209581446
126.0, 0.0006980536775886246
127.0, 0.0010499341022821049
128.0, 0.0001983076429427471
129.0, 0.0008461859055112803
130.0, 0.000542078348549824
131.0, 0.0028053100781642694
132.0, 0.007402278694033507
133.0, 0.005051502426943734
134.0, 0.0032531978334395324
135.0, 0.002820993057367941
136.0, 0.001515285662695678
137.0, 0.0019103893850292049
138.0, 9.823151638005238e-05
139.0, 0.0008416623542216348
140.0, 0.00040346251076052014
141.0, 0.00019363278809030534
142.0, 6.908777124476934e-05
143.0, 0.0012475791126890852
144.0, 0.0034756384468986527
145.0, 0.006038381291068476
146.0, 0.00975142136708078
147.0, 0.009818037990121414
148.0, 0.011645837345904332
149.0, 0.0180554699414652
150.0, 0.022005669980853373
151.0, 0.029289721086627737
152.0, 0.03568731443300789
153.0, 0.040684475450007314
154.0, 0.04727661501172637
155.0, 0.052060967355374146
156.0, 0.05538048083787513
157.0, 0.05938998019812908
158.0, 0.0653136981137894
159.0, 0.06890436026917071
160.0, 0.07324835103373763
161.0, 0.080822251583709
162.0, 0.09102043456069155
163.0, 0.09643062276473346
164.0, 0.10396570020640455
165.0, 0.1113675958661552
166.0, 0.11737810492440696
167.0, 0.12465030171350173
168.0, 0.13074115244229542
169.0, 0.13835964276465146
170.0, 0.14727458993111078
171.0, 0.15595452077392993
172.0, 0.1671882808996034
173.0, 0.17293251642615476
174.0, 0.17576786265426955
175.0, 0.17966812103254798
176.0, 0.18355713690565492
177.0, 0.18810586909906807
178.0, 0.19342708075269652
179.0, 0.19872858943515015
180.0, 0.20151334584808553
181.0, 0.20264808482088933
182.0, 0.20516411693093548
183.0, 0.20871984475689936
184.0, 0.2104430258188111
185.0, 0.2119538172435895
186.0, 0.21240129558433787
187.0, 0.21216656816530938
188.0, 0.21227925196926173
189.0, 0.21296420034217645
190.0, 0.21391195438950636
191.0, 0.2115888912991716
192.0, 0.20739354054969833
193.0, 0.20688808511642362
194.0, 0.20342569009449646
195.0, 0.19904065656069897
196.0, 0.19400357810206828
197.0, 0.18807829475565022
198.0, 0.18226393882381425
199.0, 0.17942264006373923
200.0, 0.17535125815560235
201.0, 0.16777930766837282
202.0, 0.1604797691159358
203.0, 0.15513302912583432
204.0, 0.15105038969063303
205.0, 0.14544545580203908
206.0, 0.13736659962375847
207.0, 0.13083385400696815
208.0, 0.12588941648475369
209.0, 0.1219529944339406
210.0, 0.1172955828205868
211.0, 0.10934182014351863
212.0, 0.10634126423999599
213.0, 0.10559836367972816
214.0, 0.10388967536705743
215.0, 0.0993497546101925
216.0, 0.09141840573110366
217.0, 0.0858789370116972
218.0, 0.08386039589009442
219.0, 0.08345196830099132
220.0, 0.0774774111790522
221.0, 0.07767862672523615
222.0, 0.0762066330861391
223.0, 0.07078306284727225
224.0, 0.06778985095146206
225.0, 0.06570273748488589
226.0, 0.06276136439001637
227.0, 0.06023348910299328
228.0, 0.05971867520473832
229.0, 0.060884604645438135
230.0, 0.05977980614334957
231.0, 0.05977946959978398
232.0, 0.06049370434565942
233.0, 0.05846437271682745
234.0, 0.05977924989900592
235.0, 0.06118749817601345
236.0, 0.062423714457267805
237.0, 0.06404345044870244
238.0, 0.06533303102663225
239.0, 0.06597535154456458
240.0, 0.06410581227549811
241.0, 0.06086161103431461
242.0, 0.059008929301498356
243.0, 0.058633312822796636
244.0, 0.05616707037331834
245.0, 0.05313958832073274
246.0, 0.05087608608872027
247.0, 0.048036090529191486
248.0, 0.04483090836455367
249.0, 0.04057794292530256
250.0, 0.03591906103167559
251.0, 0.03165720493788519
252.0, 0.026108305161237997
253.0, 0.020357522425375554
254.0, 0.015996968436937105
255.0, 0.012578178280523447
256.0, 0.007792140557023597
257.0, 0.00275191638697226
258.0, 0.0013403782310241572
259.0, 0.001943922936654901
260.0, 0.0012226491203859006
261.0, 0.0018326429451456783
262.0, 0.0007823126522606235
263.0, 0.002043682054769363
264.0, 0.0036770194230868456
265.0, 0.007337831321147486
266.0, 0.009444650052166543
267.0, 0.010525831603439163
268.0, 0.01288483898460659
269.0, 0.016810916675686512
270.0, 0.02031463324684476
271.0, 0.025697116553522473
272.0, 0.03139283116504557
273.0, 0.03644302663828021
274.0, 0.04192493309544826
275.0, 0.051242872871926415
276.0, 0.06149937857317406
277.0, 0.07087252008829974
278.0, 0.08114448753301468
279.0, 0.09479154279642808
280.0, 0.10716471575141562
281.0, 0.11733012394719987
282.0, 0.12238588287466559
283.0, 0.1199334565815504
284.0, 0.10967464193443655
285.0, 0.09497198805291873
286.0, 0.07870528517273365
287.0, 0.06306901777162532
288.0, 0.04962790202182357
289.0, 0.03926516861901797
290.0, 0.02998915311886588
291.0, 0.02188221239865985
292.0, 0.015554093376285497
293.0, 0.011115056236295242
294.0, 0.007653011550688176
295.0, 0.005563771613737292
296.0, 0.0036845902318392715
297.0, 0.001156481156176246
298.0, 0.001584917297947645
299.0, 0.0025708702183800725
300.0, 0.0026921446128323166
301.0, 0.0031187924562197126
302.0, 0.004246998081561471
303.0, 0.004911098199585026
304.0, 0.0035335006274939667
305.0, 0.003186144847198817
306.0, 0.003058809907432163
307.0, 0.0011056830674460174
308.0, 0.0009254140722833224
309.0, 0.0014433665590526926
310.0, 0.004004791253145654
311.0, 0.005271115809171539
312.0, 0.006120017515784756
313.0, 0.007839921751233065
314.0, 0.008928744014782013
315.0, 0.011314425823812946
316.0, 0.015182387283548305
317.0, 0.016939396842810612
318.0, 0.019635834639068157
319.0, 0.021817879837292508
320.0, 0.024124609938553473
321.0, 0.027268927617826844
322.0, 0.029586101304520215
323.0, 0.029457147793598936
324.0, 0.03133347009014775
325.0, 0.03376583755679288
326.0, 0.03295226372897322
327.0, 0.028068287264725513
328.0, 0.029865830840887325
329.0, 0.03210540147564015
330.0, 0.03152901108847608
331.0, 0.029382942101852022
332.0, 0.028702938493375352
333.0, 0.028726796654538225
334.0, 0.03021048360130649
335.0, 0.03079287801908402
336.0, 0.027899946274457185
337.0, 0.027783533774245864
338.0, 0.024637958687691697
339.0, 0.019984354170286062
340.0, 0.0163589079892541
341.0, 0.014982867530700309
342.0, 0.013900137898761197
343.0, 0.012614871227260833
344.0, 0.011501754040015764
345.0, 0.010709515909838948
346.0, 0.009925476171819467
347.0, 0.010030921999743576
348.0, 0.009278726821768732
349.0, 0.007448143510856063
350.0, 0.005903343386040896
351.0, 0.005933798782753213
352.0, 0.006591452543955677
353.0, 0.005381650624139827
354.0, 0.0038039455056837635
355.0, 0.003737428805858066
356.0, 0.004941677223353458
357.0, 0.002810984823914045
358.0, 0.0013166908022278175
359.0, 0.0013629699719885412
360.0, 0.0015880521584622246
361.0, 0.0003726464954788061
362.0, 0.0023079323729285487
363.0, 0.0039098088252220685
364.0, 0.004781737953699908
365.0, 0.005158319851172381
366.0, 0.0039594772206675575
367.0, 0.0044378862129431495
368.0, 0.004540792735240019
369.0, 0.00422522052651761
370.0, 0.0038107965332289874
371.0, 0.0025045142000494677
372.0, 0.0007405990635769948
373.0, 0.0005071871993984098
374.0, 0.0005134364064065273
375.0, 0.0011097180464795869
376.0, 0.0030701872597692103
377.0, 0.00360101038646438
378.0, 0.004231465164476267
379.0, 0.005774637482796828
380.0, 0.007391990107834728
381.0, 0.007850404736773398
382.0, 0.009142194506159036
383.0, 0.008699570850733187
384.0, 0.008130608161999415
385.0, 0.008490002191691966
386.0, 0.008232236703299313
387.0, 0.008301038035687667
388.0, 0.008626488843151888
389.0, 0.007926481430593128
390.0, 0.007078605021146727
391.0, 0.00848319530881619
392.0, 0.007039893865180971
393.0, 0.007262233700243089
394.0, 0.008095791948585378
395.0, 0.008041352044019918
396.0, 0.007994785494476138
397.0, 0.011107256368204664
398.0, 0.012012875918579
399.0, 0.012760154561377742
400.0, 0.014509626329949548
401.0, 0.015940761398657792
402.0, 0.018748928465944458
403.0, 0.021781193321685165
404.0, 0.024316127123934574
405.0, 0.027106312568157202
406.0, 0.03114337653493
407.0, 0.03307994403642133
408.0, 0.03573062800370971
409.0, 0.04008377207748901
410.0, 0.04458782222933415
411.0, 0.047469900491316476
412.0, 0.05373230171122621
413.0, 0.06026585342493127
414.0, 0.0651662570629429
415.0, 0.07066809606334361
416.0, 0.07859748644599247
417.0, 0.08551834800297438
418.0, 0.0928758451399663
419.0, 0.09869440860791856
420.0, 0.10277897139840436
421.0, 0.10682541073645076
422.0, 0.11182569803020134
423.0, 0.11459282639532133
424.0, 0.11539119224304704
425.0, 0.11612995273187939
426.0, 0.11706099031497268
427.0, 0.11621939474700677
428.0, 0.11204224560968676
429.0, 0.10938409765467251
430.0, 0.10842571332337661
431.0, 0.10764629740026338
432.0, 0.10610746090513797
433.0, 0.1032617040954238
434.0, 0.10403943017396433
435.0, 0.10554207020104948
436.0, 0.1086455499147368
437.0, 0.11304403539028467
438.0, 0.11294455112193019
439.0, 0.1178730775261064
440.0, 0.12347578850731107
441.0, 0.1309668350029654
442.0, 0.14038459704537837
443.0, 0.14738898293291025
444.0, 0.15677163818733947
445.0, 0.16835244567244884
446.0, 0.17820000688448667
447.0, 0.18539745764665946
448.0, 0.1927155896713195
449.0, 0.20091488290764584
450.0, 0.2085754289002444
451.0, 0.21559553561555037
452.0, 0.2202749414335752
453.0, 0.22130086909822375
454.0, 0.22141626153501787
455.0, 0.2161419395496907
456.0, 0.20510594975677165
457.0, 0.19177911687275018
458.0, 0.17985601222746317
459.0, 0.17074034784582234
460.0, 0.16108724942708025
461.0, 0.1559113062412049
462.0, 0.15181276030845797
463.0, 0.14610922114113528
464.0, 0.13974319828721435
465.0, 0.1353895422749782
466.0, 0.12974448004824346
467.0, 0.12621079080810296
468.0, 0.12416691471736652
469.0, 0.12059062132395566
470.0, 0.1175238726993153
471.0, 0.11658425675043245
472.0, 0.11730659275831325
473.0, 0.11908958834971523
474.0, 0.12169916629844692
475.0, 0.12531722981980922
476.0, 0.12995336745905822
477.0, 0.1355092123116745
478.0, 0.14184619087030617
479.0, 0.14990596287435792
480.0, 0.1589424653059484
481.0, 0.16551038140360402
482.0, 0.1749023378446285
483.0, 0.18418282738701627
484.0, 0.19292783996875548
485.0, 0.20053961044898083
486.0, 0.20565083973885415
487.0, 0.21137748053311525
488.0, 0.2172792465816151
489.0, 0.21788479831716648
490.0, 0.21632966781468274
491.0, 0.21445700091548497
492.0, 0.2074338039447811
493.0, 0.20006351441035256
494.0, 0.1912317796634554
495.0, 0.18281088561459496
496.0, 0.1730269122128356
497.0, 0.15869972139948338
498.0, 0.14672061774137243
499.0, 0.1348345106763996
500.0, 0.12257702743920192
501.0, 0.11036724233573109
502.0, 0.09862984745747017
503.0, 0.08780126816718713
504.0, 0.07919463056334544
505.0, 0.06947768566696783
506.0, 0.06094939928407315
507.0, 0.05376781203101033
508.0, 0.046773380052030696
509.0, 0.04230301294890781
510.0, 0.03657848666666621
511.0, 0.03161073378564108
512.0, 0.027368798832393793
513.0, 0.023224089912228067
514.0, 0.019606157120356384
515.0, 0.018255382349797997
516.0, 0.014826048787464456
517.0, 0.011221331093566572
518.0, 0.00919868205629602
519.0, 0.008028746020850115
520.0, 0.005401323912487077
521.0, 0.004159596918750619
522.0, 0.0035667370032482853
523.0, 0.0033302016570362896
524.0, 0.0017747238462330844
525.0, 0.0014147731862503374
526.0, 0.0003930764330096001
527.0, 0.00018766153375432982
528.0, 0.0004787095988791431
529.0, 0.0002709901695283135
530.0, 0.001991614101867321
531.0, 0.0011446957056112236
532.0, 0.0013446741891962766
533.0, 0.0014627053066585646
534.0, 0.00196066023606398
535.0, 0.002567271357262843
536.0, 0.0028073521413024874
537.0, 0.002892584578974999
538.0, 0.0024881760741773916
539.0, 0.0017639070394498398
540.0, 0.0020230414628738674
541.0, 0.003002338676029589
542.0, 0.0034723303014489552
543.0, 0.002346806879697235
544.0, 0.002281178423099573
545.0, 0.001883277793385652
546.0, 0.0011279954870258761
547.0, 0.0005443116630641144
548.0, 0.0002767442778987487
549.0, 0.00013505186072137164
550.0, 6.976583222960361e-05
551.0, 0.0008813695766119879
552.0, 0.00022730647837600394
553.0, 0.0012261016238785923
554.0, 0.0006945410439844841
555.0, 0.002466246700361817
556.0, 0.0012772862080310465
557.0, 0.0007752030799800135
558.0, 0.0012350122832031742
559.0, 0.0016349657327056513
560.0, 0.0021127067826688267
561.0, 0.003807257732577512
562.0, 0.003519886808838735
563.0, 0.002032380732131449
564.0, 0.0009820228239649494
565.0, 0.0012188121160082023
566.0, 0.0023911735899549893
567.0, 0.002740064792637863
568.0, 0.0021524461381052583
569.0, 0.0017465438032990153
570.0, 0.002738312329099824
571.0, 0.004044148434678782
572.0, 0.0024492882070129202
573.0, 0.0021169385336400445
574.0, 0.003835704986783072
575.0, 0.004172153593371712
576.0, 0.00329239607916207
577.0, 0.0034056864516599857
578.0, 0.004718669244246348
579.0, 0.00560414436788587
580.0, 0.006086631377016797
581.0, 0.0065605969329737765
582.0, 0.006585387644545708
583.0, 0.006125871782996731
584.0, 0.006101941633738397
585.0, 0.005929072862195066
586.0, 0.006152844067466278
587.0, 0.006186565661513794
588.0, 0.0073098465087953245
589.0, 0.009056992039228814
590.0, 0.008542380935458673
591.0, 0.007290024062074194
592.0, 0.008909834942331666
593.0, 0.01014029866623788
594.0, 0.010574797481294836
595.0, 0.010705279562522534
596.0, 0.010595224804395339
597.0, 0.011891800138826961
598.0, 0.012747144101629969
599.0, 0.014304287077400186
600.0, 0.014920556674284643
601.0, 0.015144722298732849
602.0, 0.017132034806677753
603.0, 0.018986502360404625
604.0, 0.01988097722014358
605.0, 0.022418924612667254
606.0, 0.02598107105935286
607.0, 0.02963395346293804
608.0, 0.03329177438903913
609.0, 0.037277142058594274
610.0, 0.041539765311693004
611.0, 0.04630242669967855
612.0, 0.05072754672663371
613.0, 0.05440466234801635
614.0, 0.058024235442709356
615.0, 0.06316388567050082
616.0, 0.06828798575077691
617.0, 0.07115130114493673
618.0, 0.07443915182087076
619.0, 0.07883905709238484
620.0, 0.08380605645343712
621.0, 0.08952428632807213
622.0, 0.09815978488849789
623.0, 0.1016415194510963
624.0, 0.10212628650810333
625.0, 0.0997213975589678
626.0, 0.09655232255035491
627.0, 0.09492552005247883
628.0, 0.09157941638176
629.0, 0.08847342087498394
630.0, 0.08334651487035309
631.0, 0.0740425172406684
632.0, 0.06268853238709159
633.0, 0.05212058099878563
634.0, 0.04287793010558669
635.0, 0.03455161474143341
636.0, 0.028411745188649525
637.0, 0.02389249410680608
638.0, 0.020298136132207954
639.0, 0.016859687845960543
640.0, 0.013414896121018394
641.0, 0.011095461779724427
642.0, 0.008273826629101125
643.0, 0.005874391584467772
644.0, 0.004904967758433997
645.0, 0.004436604438266093
646.0, 0.004072253585357365
647.0, 0.004971997787259127
648.0, 0.0033215705047153704
649.0, 0.0030178169750880546
650.0, 0.003039639653813363
651.0, 0.0038167505978046086
652.0, 0.004403867331708833
653.0, 0.003600547624880707
654.0, 0.004065731694446444
655.0, 0.00408034587218525
656.0, 0.0056226840564305896
657.0, 0.00669197153626141
658.0, 0.00675905227685826
659.0, 0.00680389488349063
660.0, 0.007705029818946673
661.0, 0.010003986256154115
662.0, 0.011111013461771575
663.0, 0.011732288963598838
664.0, 0.012198121643254543
665.0, 0.013442933060539567
666.0, 0.015386386864190135
667.0, 0.01562800568456162
668.0, 0.017948053070055987
669.0, 0.018589583651245693
670.0, 0.01953556026626781
671.0, 0.021925514934657265
672.0, 0.02335558595223204
673.0, 0.022634169665469803
674.0, 0.023100795245587426
675.0, 0.022391706133074403
676.0, 0.021522135588602293
677.0, 0.02006045340122797
678.0, 0.01777986680819652
679.0, 0.015859513856617827
680.0, 0.015253667312515783
681.0, 0.012456795659351613
682.0, 0.011697000177491892
683.0, 0.010550649402563228
684.0, 0.009009061643143064
685.0, 0.007748798020542804
686.0, 0.0065320474946033965
687.0, 0.006522442168919162
688.0, 0.005281938639781485
689.0, 0.0049219553419730675
690.0, 0.0040862604241511695
691.0, 0.0035339616063251858
692.0, 0.003585939259831941
693.0, 0.0026994055075264148
694.0, 0.0024262399794039865
695.0, 0.001540170644765293
696.0, 0.0019883420372294285
697.0, 0.0019246010010866702
698.0, 0.0013066898516160223
699.0, 0.0008799026652289595
700.0, 0.0002562517993454941
701.0, 0.0009284591409325518
702.0, 0.0035333608336881486
703.0, 0.0017909057423481623
704.0, 7.40466433757664e-05
705.0, 0.00044136410931291356
706.0, 0.0008139961085201101
707.0, 0.0001761438060119434
708.0, 0.0004010218201853838
709.0, 0.0005011215220600933
710.0, 0.00022936149701945755
711.0, 0.00029991902150899576
712.0, 0.00043017704319209406
713.0, 5.2438773634340626e-05
714.0, 0.00033541337775581394
715.0, 0.0008747863547318821
716.0, 0.0007875328780313096
717.0, 0.0007742250445181561
718.0, 0.0012202699903718403
719.0, 0.0006718188348463653
720.0, 0.0006847597107331702
721.0, 0.001362402297224637
722.0, 0.001075904414152126
723.0, 0.0009860737091591254
724.0, 0.00039801536134727983
725.0, 0.0010574450764264086
726.0, 0.00047385371481685934
727.0, 0.0006682489940382038
728.0, 0.0007253096531147992
729.0, 0.00018579494584980517
730.0, 0.003042461342731942
731.0, 0.0011597162694613004
732.0, 4.691877734028724e-05
733.0, 0.00013604149279267575
734.0, 0.0001168184316569627
735.0, 0.0003094944542729066
736.0, 0.0016322463972330955
737.0, 0.0013126232384891468
738.0, 0.002871035652972143
739.0, 0.003574623493487481
740.0, 0.003919025325533067
741.0, 0.004741625993625568
742.0, 0.005168882630756321
743.0, 0.006419690813895349
744.0, 0.00754381825703265
745.0, 0.007847692373175223
746.0, 0.007673507762788183
747.0, 0.008267022826582145
748.0, 0.009682608909921129
749.0, 0.01150986998328585
750.0, 0.013585025444827103
751.0, 0.012606487786686745
752.0, 0.013077303450838018
753.0, 0.013044558805114622
754.0, 0.013417552192479329
755.0, 0.013786683212983817
756.0, 0.012749067372041826
757.0, 0.0105051825049445
758.0, 0.009706883609405591
759.0, 0.009552542598172621
760.0, 0.00803820426025623
761.0, 0.008969558554007752
762.0, 0.009457560306301226
763.0, 0.00864355708414059
764.0, 0.008302361643631115
765.0, 0.007966253347703931
766.0, 0.008112965977554412
767.0, 0.006995849624127596
768.0, 0.006617830016919972
769.0, 0.0067212395240452945
770.0, 0.006045596182646791
771.0, 0.004975431185241915
772.0, 0.004295073078487033
773.0, 0.002793431921245378
774.0, 0.002293208973311645
775.0, 0.002258988261097832
776.0, 0.0034258857430442807
777.0, 0.003018372946488946
778.0, 0.0013207509325713028
779.0, 0.001529072331566048
780.0, 0.0018870575497700018
781.0, 0.0016579415289604995
782.0, 0.0015334552983268432
783.0, 0.00023988162951877262
784.0, 0.00011257890396143365
785.0, 0.00029215148152148825
786.0, 0.0002386332338110411
787.0, 0.000605765682048231
788.0, 0.0012486039987139078
789.0, 0.0006214466366816265
790.0, 0.0009353487045051968
791.0, 0.001985233351188116
792.0, 0.0008329371736525976
793.0, 0.00012447179818532943
794.0, 0.0002585858241249595
795.0, 0.0008681808309602141
796.0, 0.00197312587515801
797.0, 0.0012460066691870255
798.0, 0.000808139215490693
799.0, 0.0011979101035161554
800.0, 0.00034996349584756636
801.0, 0.0006010644698858981
802.0, 0.0002510220022491966
803.0, 9.555406278032613e-05
804.0, 0.0007992728865653557
805.0, 0.0014337311818691445
806.0, 0.0002847101807223429
807.0, 0.00125444623533257
808.0, 0.0012756937337274426
809.0, 0.0004168299989351263
810.0, 0.0012695434161665415
811.0, 0.0014774860327318134
812.0, 0.0016649365990625059
813.0, 0.002082210736080507
814.0, 0.0005547770108709777
815.0, 0.0014275978072801425
816.0, 0.0022837089911874157
817.0, 0.0013292995630741732
818.0, 0.0007664453731358217
819.0, 0.0011573100272418552
820.0, 0.0020002575824756056
821.0, 0.0032646343343456464
822.0, 0.0012628823849433989
823.0, 0.0008631455580757725
824.0, 0.00230606668023041
825.0, 0.0022663306808892564
826.0, 0.0013213171914626886
827.0, 0.0022496396857020263
828.0, 0.0019371825519278803
829.0, 0.0015784298802440032
830.0, 0.0019937325802567405
831.0, 0.002615035492115619
832.0, 0.0023205057371115975
833.0, 0.002427190978444575
834.0, 0.0025776365199769555
835.0, 0.001466876125455306
836.0, 0.0023353474746875312
837.0, 0.0014569626730144942
838.0, 0.0031506152214763675
839.0, 0.003406018788001758
840.0, 0.0030852842486800342
841.0, 0.003030106294423618
842.0, 0.0031189224537887957
843.0, 0.00315143495108266
844.0, 0.0025749419523945966
845.0, 0.002310017969631916
846.0, 0.0031359899859599843
847.0, 0.0024871826806848424
848.0, 0.002740615962489007
849.0, 0.0032702229641971784
850.0, 0.0033245167653782074
851.0, 0.003360108325258877
852.0, 0.00360357814064052
853.0, 0.003455246054230121
854.0, 0.003528348111768914
855.0, 0.003869046523037206
856.0, 0.0035259080922299003
857.0, 0.002980413877882056
858.0, 0.0031809641409548525
859.0, 0.0032347554976776254
860.0, 0.0028894077781435336
861.0, 0.004427206696861712
862.0, 0.004427240601997809
863.0, 0.003961120913277436
864.0, 0.004422736248563291
865.0, 0.0025324842755015007
866.0, 0.002603339620778261
867.0, 0.004291156402136132
868.0, 0.0038499269774137737
869.0, 0.0033476378495575334
870.0, 0.004385128267469608
871.0, 0.004324740501765754
872.0, 0.002588572183460911
873.0, 0.0033477586526110877
874.0, 0.004507903155583628
875.0, 0.00432783547197991
876.0, 0.00304680453891122
877.0, 0.002027026205820924
878.0, 0.0026384741245908537
879.0, 0.004305191679669439
880.0, 0.0023011034748991457
881.0, 0.0021453368328109893
882.0, 0.0016661260408122368
883.0, 0.0025271525622155367
884.0, 0.003428278922682757
885.0, 0.003228828851570513
886.0, 0.002903874798647896
887.0, 0.0017411241092842185
888.0, 0.0019559609633895345
889.0, 0.0014045998579806907
890.0, 0.0010251235283746
891.0, 0.0017262660650680518
892.0, 0.0016765451807853504
893.0, 0.0012570445929248504
894.0, 0.0014908078160694176
895.0, 0.0020637926595347485
896.0, 0.0024372998164676764
897.0, 0.00257740523727915
898.0, 0.0017936347004189764
899.0, 0.0017530167985601712
900.0, 0.0016632421862933647
901.0, 0.0009132266653970561
902.0, 0.0015344562952824337
903.0, 0.00236816695378932
904.0, 0.0014642059470348667
905.0, 0.0006195564343111718
906.0, 0.0008140723225825205
907.0, 3.878154401461421e-05
908.0, 0.0008318528503210588
909.0, 0.0002284398329434539
910.0, 0.0005008512205416742
911.0, 0.00047506660019849123
912.0, 0.00037956901609840913
913.0, 0.00023051701928967583
914.0, 0.0012456828769926156
915.0, 0.0018577344331717933
916.0, 0.0004020608210884804
917.0, 0.0012248103106231698
918.0, 0.00037436985708739324
919.0, 3.890125981547737e-05
920.0, 1.6000800786114105e-05
921.0, 0.0010074623891771007
922.0, 0.0015172532009275741
923.0, 0.0006067380297622404
924.0, 0.0006589225192279153
925.0, 0.0006707217808504517
926.0, 0.0001430568769073733
927.0, 0.00228709987235548
928.0, 0.0007786332821798352
929.0, 0.00010152065736100687
930.0, 0.0008833468610100707
931.0, 0.0008502963534590023
932.0, 0.0004441422653793549
933.0, 0.0004913299476161794
934.0, 0.0008934512116884824
935.0, 0.00013839199474123683
936.0, 0.00011030161880345207
937.0, 0.0006999407564204364
938.0, 0.000257664242097754
939.0, 0.00021120063379734735
940.0, 0.0004849097810487927
941.0, 0.0017123340251065924
942.0, 0.002913155333890326
943.0, 0.003077071968966667
944.0, 0.004818385566919912
945.0, 0.006760820390659434
946.0, 0.0076988296330741555
947.0, 0.008461629182410085
948.0, 0.009240161766475304
949.0, 0.010759733357203025
950.0, 0.013414932403868589
951.0, 0.01576198741950265
952.0, 0.017587156518746233
953.0, 0.019715971445745124
954.0, 0.02104970217642862
955.0, 0.023262054520574376
956.0, 0.02710090877262606
957.0, 0.029471058823951134
958.0, 0.030557851416886328
959.0, 0.032250024989252155
960.0, 0.0346812443420164
961.0, 0.036453610877401184
962.0, 0.037832050195170566
963.0, 0.039603857428595936
964.0, 0.03980253436657263
965.0, 0.04249793686423776
966.0, 0.04464814175543355
967.0, 0.04636778424566354
968.0, 0.04797275726013227
969.0, 0.05047001702135446
970.0, 0.05226360474363299
971.0, 0.05517060285505072
972.0, 0.059550131198207165
973.0, 0.06372860353446118
974.0, 0.06921347018377706
975.0, 0.07817431780601367
976.0, 0.09144849136278702
977.0, 0.10624886520584928
978.0, 0.12137664450710482
979.0, 0.1443890894303178
980.0, 0.1709431708651049
981.0, 0.20417742286232088
982.0, 0.24493148881632357
983.0, 0.2887656750616842
984.0, 0.3349452651853239
985.0, 0.3821344581555605
986.0, 0.43189197915202954
987.0, 0.4948833876120099
988.0, 0.5676581440860556
989.0, 0.6381566770332678
990.0, 0.7131589904037554
991.0, 0.792201962309951
992.0, 0.8730767840463473
993.0, 0.9480496464069921
994.0, 0.9946452873107854
995.0, 0.9735748859628363
996.0, 0.8583051591623102
997.0, 0.6685167878040316
998.0, 0.47077200015627463
999.0, 0.3161679403952049
1000.0, 0.2122484869097916
1001.0, 0.14801245174936029
1002.0, 0.11004094674985122
1003.0, 0.0888489022626999
1004.0, 0.07610567639565279
1005.0, 0.06813576863005871
1006.0, 0.06363675454268376
1007.0, 0.06034224604084168
1008.0, 0.05974123767973088
1009.0, 0.057062926328167465
1010.0, 0.05498835164278134
1011.0, 0.05638953838351102
1012.0, 0.05825048423223738
1013.0, 0.059835042965240046
1014.0, 0.06279004165724292
1015.0, 0.06689793938984973
1016.0, 0.07081821490568721
1017.0, 0.07367739504768113
1018.0, 0.07613838210034422
1019.0, 0.07956594094266006
1020.0, 0.08307307066781239
1021.0, 0.08355012882414344
1022.0, 0.08631454117852197
1023.0, 0.08668708166495546
1024.0, 0.08468665065443909
1025.0, 0.08230842824629461
1026.0, 0.08005538882883477
1027.0, 0.07624852368672932
1028.0, 0.07227050124388945
1029.0, 0.06997118758497477
1030.0, 0.06466204575959195
1031.0, 0.05938111258744083
1032.0, 0.05437342038134739
1033.0, 0.05116806871879579
1034.0, 0.04514294745733078
1035.0, 0.039964950265891315
1036.0, 0.037001355218152024
1037.0, 0.033510809740732596
1038.0, 0.029976876973617297
1039.0, 0.02723206266882048
1040.0, 0.024272916889625292
1041.0, 0.02125711588326837
1042.0, 0.01930820142119603
1043.0, 0.016885604846224624
1044.0, 0.01568197217986165
1045.0, 0.01240253568144786
1046.0, 0.011687055220996065
1047.0, 0.01137549966658984
1048.0, 0.008398298555707112
1049.0, 0.00699431006788951
1050.0, 0.0055358372509174665
1051.0, 0.004716844362153475
1052.0, 0.004643637039774011
1053.0, 0.004015820181676753
1054.0, 0.003978225471360799
1055.0, 0.003021276084533413
1056.0, 0.0015601168189441975
1057.0, 0.0010392400151621579
1058.0, 0.0017887568331751526
1059.0, 0.0022572993733764473
1060.0, 0.0017095094570794647
1061.0, 0.0005429577554330607
1062.0, 0.00031853608952179657
1063.0, 0.0005289389943283352
1064.0, 0.0006711569377100614
1065.0, 0.00013020675760582866
1066.0, 0.000879757443087494
1067.0, 0.0016579961677392545
1068.0, 0.0023166918790916533
1069.0, 0.0007137960838984804
1070.0, 0.0012652680197323674
1071.0, 0.0018106274209153705
1072.0, 0.001628171864946048
1073.0, 0.001706895906221844
1074.0, 0.0004375385751480691
1075.0, 0.0002863747835808332
1076.0, 0.00031884788466298293
1077.0, 0.0004225208243834272
1078.0, 0.0007707553230310237
1079.0, 0.0012517727530845628
1080.0, 0.0018539513884401528
1081.0, 0.0015456752741352807
1082.0, 0.0028399970863951306
1083.0, 0.00432511486500479
1084.0, 0.004048841763494235
1085.0, 0.004108310585136634
1086.0, 0.005474535417962043
1087.0, 0.006107563502118408
1088.0, 0.006790853921485812
1089.0, 0.00694243379372122
1090.0, 0.0073542201303855755
1091.0, 0.008275819298596176
1092.0, 0.008892180709416808
1093.0, 0.009926574599205816
1094.0, 0.011274142159077839
1095.0, 0.010727421066293276
1096.0, 0.00928748081082075
1097.0, 0.010006151157591339
1098.0, 0.010524706754215084
1099.0, 0.013045497108986588
1100.0, 0.012811907356327394
1101.0, 0.011902848005553518
1102.0, 0.01174497821390217
1103.0, 0.013048136765574493
1104.0, 0.013486835482486097
1105.0, 0.014033501067665077
1106.0, 0.01587147695167992
1107.0, 0.01597415812507085
1108.0, 0.01559431217385107
1109.0, 0.019587584915045093
1110.0, 0.01830570135076147
1111.0, 0.017527278876539404
1112.0, 0.018612736487029984
1113.0, 0.01932625336298672
1114.0, 0.019522782437655973
1115.0, 0.020432348736919962
1116.0, 0.01966761278253341
1117.0, 0.017966285386805073
1118.0, 0.01578876417127789
1119.0, 0.015037817919638694
1120.0, 0.014746366566492763
1121.0, 0.013368325344901429
1122.0, 0.012588289117811801
1123.0, 0.012733419206398004
1124.0, 0.012479227386868292
1125.0, 0.013303068013494155
1126.0, 0.013710903686363959
1127.0, 0.01404404246001148
1128.0, 0.014531962987763207
1129.0, 0.01325692529223816
1130.0, 0.014271761713407525
1131.0, 0.014671660951729702
1132.0, 0.014078693107464747
1133.0, 0.01453021465769489
1134.0, 0.0151776119218484
1135.0, 0.015364451049582681
1136.0, 0.016085066001857565
1137.0, 0.016687947972307222
1138.0, 0.016453271009893588
1139.0, 0.01710158100004777
1140.0, 0.01824737308484449
1141.0, 0.019604865025104203
1142.0, 0.019637500778505654
1143.0, 0.02080970089351438
1144.0, 0.021185273784148598
1145.0, 0.022296859075915505
1146.0, 0.023876718641828838
1147.0, 0.023124004369891933
1148.0, 0.02191697208302205
1149.0, 0.02303288507228911
1150.0, 0.025811988946542835
1151.0, 0.025179163754400918
1152.0, 0.023303194081945804
1153.0, 0.022979549026721377
1154.0, 0.02212013979873211
1155.0, 0.021989244290005865
1156.0, 0.020955399333131477
1157.0, 0.019718770381636948
1158.0, 0.01885295371275375
1159.0, 0.017429364893366876
1160.0, 0.015897100816981445
1161.0, 0.01645749365674933
1162.0, 0.015009868007734614
1163.0, 0.011213905301844473
1164.0, 0.009979727182251054
1165.0, 0.010230133042140542
1166.0, 0.009037302415621905
1167.0, 0.00797179186890625
1168.0, 0.0077173070883579135
1169.0, 0.007232595404330276
1170.0, 0.00566260867935131
1171.0, 0.004767897529159917
1172.0, 0.004769135425544641
1173.0, 0.002508054442265625
1174.0, 0.00399550469839029
1175.0, 0.0019650420139313775
1176.0, 0.0030970977798505895
1177.0, 0.0010056613014800123
1178.0, 0.0006463404655923496
1179.0, 0.0011184867684447565
1180.0, 0.0010849255745789957
1181.0, 0.0002843031300532299
1182.0, 0.0006513350636234218
1183.0, 0.0005665290085742586
1184.0, 0.0011330837871048043
1185.0, 0.0006341630984285133
1186.0, 0.0013425276453337693
1187.0, 0.0010793875551020926
1188.0, 0.00014272729491491697
1189.0, 0.0005932543984117758
1190.0, 0.00028098612469712843
1191.0, 0.0010432848019689602
1192.0, 0.00011330168844420117
1193.0, 0.0005407628552212838
1194.0, 0.0008454369121434862
1195.0, 0.0006625888730434343
1196.0, 0.0008753200281110554
1197.0, 0.0009450180293328159
1198.0, 8.341329119262186e-05
1199.0, 0.0011301275068681545
1200.0, 0.000292562188038349
1201.0, 0.0006895028344610422
1202.0, 0.001131116359085524
1203.0, 0.0008721005027166944
1204.0, 0.0010180709537987954
1205.0, 0.0006073364146703743
1206.0, 0.0005165183367579944
1207.0, 0.0011530134291776533
1208.0, 0.0011590962948918961
1209.0, 0.0010386172618380915
1210.0, 0.0014430440988947252
1211.0, 0.001524474226537669
1212.0, 0.0013372733470600944
1213.0, 0.0013320965250230264
1214.0, 0.002696707758489446
1215.0, 0.0038748819618907543
1216.0, 0.0025505114327013623
1217.0, 0.0028777801294041956
1218.0, 0.0024302718840612174
1219.0, 0.00324592593607421
1220.0, 0.0027272635526083317
1221.0, 0.003114778529331782
1222.0, 0.0026336184368835214
1223.0, 0.003234021376603908
1224.0, 0.003134283408641578
1225.0, 0.0033616862772763495
1226.0, 0.004093398188454024
1227.0, 0.0032552987690448016
1228.0, 0.002797983939837379
1229.0, 0.0035495594621076767
1230.0, 0.00395612909756994
1231.0, 0.0038672408605941577
1232.0, 0.0035034966187577716
1233.0, 0.003205612907029505
1234.0, 0.002966820276565317
1235.0, 0.004039089040160912
1236.0, 0.0055085144084697085
1237.0, 0.0030589962959440883
1238.0, 0.002496446939023225
1239.0, 0.003176535037325582
1240.0, 0.00318211010546155
1241.0, 0.0025424046805386834
1242.0, 0.0029191524653255645
1243.0, 0.0038494601901489776
1244.0, 0.003016440709084072
1245.0, 0.003171789581390729
1246.0, 0.003814889789592786
1247.0, 0.003211662426094399
1248.0, 0.0023618413116536334
1249.0, 0.001737562833635226
1250.0, 0.002783469606007931
1251.0, 0.0022656246624657324
1252.0, 0.0011401294791294862
1253.0, 0.0021327572146576886
1254.0, 0.0012475253387458504
1255.0, 0.00014081505791755077
1256.0, 0.0021635317253983007
1257.0, 0.0027542638717471383
1258.0, 0.002590908251430007
1259.0, 0.0023939797403062426
1260.0, 0.0013083064061463414
1261.0, 0.0005758217759416237
1262.0, 0.0013810024928638128
1263.0, 0.0023032383622470826
1264.0, 0.003079251072021859
1265.0, 0.0020296548276848834
1266.0, 0.0021153432083254008
1267.0, 0.0024652738194015696
1268.0, 0.0025453124691120674
1269.0, 0.001575675234857308
1270.0, 0.0014409535552348492
1271.0, 0.0006177654361865269
1272.0, 0.0008804131536945986
1273.0, 0.0008816176534142934
1274.0, 0.0010724509236138854
1275.0, 0.0014928216688459466
1276.0, 0.0017892105782684633
1277.0, 0.0018015253153909946
1278.0, 0.0006734896285176132
1279.0, 3.522784214509772e-05
1280.0, 0.00018636145990223835
1281.0, 0.0016122879609628178
1282.0, 0.001718437904410223
1283.0, 2.48100993522615e-06
1284, 0.0
1285, 0.0
1286, 0.0
1287, 0.0
1288, 0.0
1289, 0.0
1290, 0.0
1291, 0.0
1292, 0.0
1293, 0.0
1294, 0.0
1295, 0.0
1296, 0.0
1297, 0.0
1298, 0.0
1299, 0.0
1300, 0.0
1301, 0.0
1302, 0.0
1303, 0.0
1304, 0.0
1305, 0.0
1306, 0.0
1307, 0.0
1308, 0.0
1309, 0.0
1310, 0.0
1311, 0.0
1312, 0.0
1313, 0.0
1314, 0.0
1315, 0.0
1316, 0.0
1317, 0.0
1318, 0.0
1319, 0.0
1320, 0.0
1321, 0.0
1322, 0.0
1323, 0.0
1324, 0.0
1325, 0.0
1326, 0.0
1327, 0.0
1328, 0.0
1329, 0.0
1330, 0.0
1331, 0.0
1332, 0.0
1333, 0.0
1334, 0.0
1335, 0.0
1336, 0.0
1337, 0.0
1338, 0.0
1339, 0.0
1340, 0.0
1341, 0.0
1342, 0.0
1343, 0.0
1344, 0.0
1345, 0.0
1346, 0.0
1347, 0.0
1348, 0.0
1349, 0.0
1350, 0.0
1351, 0.0
1352, 0.0
1353, 0.0
1354, 0.0
1355, 0.0
1356, 0.0
1357, 0.0
1358, 0.0
1359, 0.0
1360, 0.0
1361, 0.0
1362, 0.0
1363, 0.0
1364, 0.0
1365, 0.0
1366, 0.0
1367, 0.0
1368, 0.0
1369, 0.0
1370, 0.0
1371, 0.0
1372, 0.0
1373, 0.0
1374, 0.0
1375, 0.0
1376, 0.0
1377, 0.0
1378, 0.0
1379, 0.0
1380, 0.0
1381, 0.0
1382, 0.0
1383, 0.0
1384, 0.0
1385, 0.0
1386, 0.0
1387, 0.0
1388, 0.0
1389, 0.0
1390, 0.0
1391, 0.0
1392, 0.0
1393, 0.0
1394, 0.0
1395, 0.0
1396, 0.0
1397, 0.0
1398, 0.0
1399, 0.0
1400, 0.0
1401, 0.0
1402, 0.0
1403, 0.0
1404, 0.0
1405, 0.0
1406, 0.0
1407, 0.0
1408, 0.0
1409, 0.0
1410, 0.0
1411, 0.0
1412, 0.0
1413, 0.0
1414, 0.0
1415, 0.0
1416, 0.0
1417, 0.0
1418, 0.0
1419, 0.0
1420, 0.0
1421, 0.0
1422, 0.0
1423, 0.0
1424, 0.0
1425, 0.0
1426, 0.0
1427, 0.0
1428, 0.0
1429, 0.0
1430, 0.0
1431, 0.0
1432, 0.0
1433, 0.0
1434, 0.0
1435, 0.0
1436, 0.0
1437, 0.0
1438, 0.0
1439, 0.0
1440, 0.0
1441, 0.0
1442, 0.0
1443, 0.0
1444, 0.0
1445, 0.0
1446, 0.0
1447, 0.0
1448, 0.0
1449, 0.0
1450, 0.0
1451, 0.0
1452, 0.0
1453, 0.0
1454, 0.0
1455, 0.0
1456, 0.0
1457, 0.0
1458, 0.0
1459, 0.0
1460, 0.0
1461, 0.0
1462, 0.0
1463, 0.0
1464, 0.0
1465, 0.0
1466, 0.0
1467, 0.0
1468, 0.0
1469, 0.0
1470, 0.0
1471, 0.0
1472, 0.0
1473, 0.0
1474, 0.0
1475, 0.0
1476, 0.0
1477, 0.0
1478, 0.0
1479, 0.0
1480, 0.0
1481, 0.0
1482, 0.0
1483, 0.0
1484, 0.0
1485, 0.0
1486, 0.0
1487, 0.0
1488, 0.0
1489, 0.0
1490, 0.0
1491, 0.0
1492, 0.0
1493, 0.0
1494, 0.0
1495, 0.0
1496, 0.0
1497, 0.0
1498, 0.0
1499, 0.0
1500, 0.0
1501, 0.0
1502, 0.0
1503, 0.0
1504, 0.0
1505, 0.0
1506, 0.0
1507, 0.0
1508, 0.0
1509, 0.0
1510, 0.0
1511, 0.0
1512, 0.0
1513, 0.0
1514, 0.0
1515, 0.0
1516, 0.0
1517, 0.0
1518, 0.0
1519, 0.0
1520, 0.0
1521, 0.0
1522, 0.0
1523, 0.0
1524, 0.0
1525, 0.0
1526, 0.0
1527, 0.0
1528, 0.0
1529, 0.0
1530, 0.0
1531, 0.0
1532, 0.0
1533, 0.0
1534, 0.0
1535, 0.0
1536, 0.0
1537, 0.0
1538, 0.0
1539, 0.0
1540, 0.0
1541, 0.0
1542, 0.0
1543, 0.0
1544, 0.0
1545, 0.0
1546, 0.0
1547, 0.0
1548, 0.0
1549, 0.0
1550, 0.0
1551, 0.0
1552, 0.0
1553, 0.0
1554, 0.0
1555, 0.0
1556, 0.0
1557, 0.0
1558, 0.0
1559, 0.0
1560, 0.0
1561, 0.0
1562, 0.0
1563, 0.0
1564, 0.0
1565, 0.0
1566, 0.0
1567, 0.0
1568, 0.0
1569, 0.0
1570, 0.0
1571, 0.0
1572, 0.0
1573, 0.0
1574, 0.0
1575, 0.0
1576, 0.0
1577, 0.0
1578, 0.0
1579, 0.0
1580, 0.0
1581, 0.0
1582, 0.0
1583, 0.0
1584, 0.0
1585, 0.0
1586, 0.0
1587, 0.0
1588, 0.0
1589, 0.0
1590, 0.0
1591, 0.0
1592, 0.0
1593, 0.0
1594, 0.0
1595, 0.0
1596, 0.0
1597, 0.0
1598, 0.0
1599, 0.0
