30, 0.0
31, 0.0
32, 0.0
33, 0.0
34, 0.0
35, 0.0
36, 0.0
37, 0.0
38, 0.0
39, 0.0
40, 0.0
41, 0.0
42, 0.0
43, 0.0
44, 0.0
45, 0.0
46, 0.0
47, 0.0
48, 0.0
49, 0.0
50, 0.0
51, 0.0
52, 0.0
53, 0.0
54, 0.0
55, 0.0
56, 0.0
57, 0.0
58, 0.0
59, 0.0
60, 0.0
61, 0.0
62, 0.0
63, 0.0
64, 0.0
65, 0.0
66, 0.0
67, 0.0
68, 0.0
69, 0.0
70, 0.0
71, 0.0
72, 0.0
73, 0.0
74, 0.0
75, 0.0
76, 0.0
77, 0.0
78, 0.0
79, 0.0
80, 0.0
81, 0.0
82, 0.0
83, 0.0
84, 0.0
85, 0.0
86, 0.0
87, 0.0
88, 0.0
89, 0.0
90, 0.0
91, 0.0
92, 0.0
93, 0.0
94, 0.0
95, 0.0
96, 0.0
97, 0.0
98, 0.0
99, 0.0
100, 0.0
101, 0.0
102, 0.0
103, 0.0
104, 0.0
105, 0.0
106, 0.0
107, 0.0
108, 0.0
109, 0.0
110, 0.0
111, 0.0
112, 0.0
113, 0.0
114, 0.0
115, 0.0
116, 0.0
117, 0.0
118, 0.0
119, 0.0
120, 0.0
121, 0.0
122, 0.0
123, 0.0
124, 0.0
125.0, 0.00687000659825464
126.0, 0.0026875809891379956
127.0, 0.006734720501608189
128.0, 0.030780633955592072
129.0, 0.06531383384898377
130.0, 0.10821674919220857
131.0, 0.15237108181444148
132.0, 0.19535794850111257
133.0, 0.23651428370243766
134.0, 0.2736000428458724
135.0, 0.3015534629221858
136.0, 0.3273552864606306
137.0, 0.34890509462689806
138.0, 0.3651469470199079
139.0, 0.3835608763817927
140.0, 0.4059565833633596
141.0, 0.43271054124329567
142.0, 0.4654063862259507
143.0, 0.506195310277609
144.0, 0.5346182550438209
145.0, 0.5568150102454587
146.0, 0.5837507020121769
147.0, 0.6182877415009557
148.0, 0.6395725780000823
149.0, 0.6544634288915431
150.0, 0.6617088166070976
151.0, 0.6566992994791288
152.0, 0.6346602993723864
153.0, 0.5974893477341979
154.0, 0.5559031130819378
155.0, 0.5158786342325122
156.0, 0.47702033955755596
157.0, 0.44157663902430755
158.0, 0.4141407333743786
159.0, 0.3921066056109232
160.0, 0.37115081603009636
161.0, 0.35896766756141496
162.0, 0.3500770084750025
163.0, 0.3411412730952461
164.0, 0.3313896204304113
165.0, 0.32227670441960427
166.0, 0.31526798115754257
167.0, 0.30819991003210406
168.0, 0.30003254405263796
169.0, 0.2914915948479212
170.0, 0.28266107767564996
171.0, 0.2752462357596548
172.0, 0.26953735957530145
173.0, 0.2640639204827682
174.0, 0.25479250487304356
175.0, 0.24626723303344417
176.0, 0.23869783209640927
177.0, 0.2325749441957359
178.0, 0.2305504928324778
179.0, 0.22614333396895508
180.0, 0.22233213331237855
181.0, 0.21973737656756123
182.0, 0.2145140994947586
183.0, 0.21086810918510485
184.0, 0.2032539146904158
185.0, 0.19391756857150924
186.0, 0.1864377848987561
187.0, 0.17752856716095117
188.0, 0.1688015691012341
189.0, 0.16133877063044463
190.0, 0.155419585421856
191.0, 0.15045987539905814
192.0, 0.14424940450158527
193.0, 0.13996296884214557
194.0, 0.13727490006306647
195.0, 0.13305355626394666
196.0, 0.12242739450982863
197.0, 0.11542514853126865
198.0, 0.11029623843978045
199.0, 0.10400111211988862
200.0, 0.09764094210998862
201.0, 0.09037844956600916
202.0, 0.08266466584455318
203.0, 0.07653310638001151
204.0, 0.07344104817715266
205.0, 0.06818752383192345
206.0, 0.0653565745768629
207.0, 0.06321095267359643
208.0, 0.059885300390882065
209.0, 0.05933938458553928
210.0, 0.0586114060689156
211.0, 0.05597712316601134
212.0, 0.05287489417961703
213.0, 0.05393779218136207
214.0, 0.05370088437209511
215.0, 0.053115698060329876
216.0, 0.052591016046200006
217.0, 0.05143912124017508
218.0, 0.04638905254089112
219.0, 0.040109360383053905
220.0, 0.034680451341509815
221.0, 0.0301137819071429
222.0, 0.02483384660231243
223.0, 0.02006541339856085
224.0, 0.016396375870744963
225.0, 0.0135241886031453
226.0, 0.010904822704130967
227.0, 0.007951751435860256
228.0, 0.009001518298991512
229.0, 0.009667916596112292
230.0, 0.009097172558896695
231.0, 0.011156533919540378
232.0, 0.013343546633690943
233.0, 0.01304593980362555
234.0, 0.012784537246418752
235.0, 0.013962896583739904
236.0, 0.011090394565669228
237.0, 0.013066434784643442
238.0, 0.0111085664252534
239.0, 0.005006895411447898
240.0, 0.002062567060787576
241.0, 0.00031629822372368586
242.0, 0.0031262507703856313
243.0, 0.0025758010252563378
244.0, 0.0017191640667078474
245.0, 0.0010009065309229345
246.0, 0.003753182240216807
247.0, 0.007464521908483566
248.0, 0.010936415457303651
249.0, 0.015276029242724405
250.0, 0.020034806668347352
251.0, 0.023688600566628335
252.0, 0.027167519578186226
253.0, 0.030357683795404385
254.0, 0.02998478891489499
255.0, 0.025935195729395795
256.0, 0.021820438001717683
257.0, 0.01577674751835225
258.0, 0.006342633557954631
259.0, 0.003947572428483375
260.0, 0.0012154748684577615
261.0, 0.0034901953527220458
262.0, 0.0047538681371188905
263.0, 0.007046383493786477
264.0, 0.010663550136400596
265.0, 0.012394946607590537
266.0, 0.011891703095994431
267.0, 0.011164423857022083
268.0, 0.01567767566612685
269.0, 0.012503980642919223
270.0, 0.011804668282736146
271.0, 0.015502424549152481
272.0, 0.014924853460948313
273.0, 0.010473039069082505
274.0, 0.009133773667608295
275.0, 0.006738497892007645
276.0, 0.0007814798649825579
277.0, 0.0074692923506554905
278.0, 0.011804338415987535
279.0, 0.015375868292114557
280.0, 0.019008190906652022
281.0, 0.022291910498492176
282.0, 0.024357912502059705
283.0, 0.022844427444922797
284.0, 0.02145632578024323
285.0, 0.021816897643231213
286.0, 0.021769472450724876
287.0, 0.02018599669969772
288.0, 0.018901462494870763
289.0, 0.0190480088608054
290.0, 0.020258954030459225
291.0, 0.021088683582648367
292.0, 0.02359108088552489
293.0, 0.022836946687318952
294.0, 0.022304348061214736
295.0, 0.02599540974982332
296.0, 0.026015051882756886
297.0, 0.026743668918465247
298.0, 0.02880189659100574
299.0, 0.031030474063877503
300.0, 0.03282059913287904
301.0, 0.03619328863034994
302.0, 0.0386063928369856
303.0, 0.03975746832592036
304.0, 0.040130784837992664
305.0, 0.03970942149494744
306.0, 0.0370392513464274
307.0, 0.0371389174122409
308.0, 0.03744301515072735
309.0, 0.03603376891468908
310.0, 0.03905939834247607
311.0, 0.039427000570397074
312.0, 0.04107110954394455
313.0, 0.044388213468717234
314.0, 0.046950169996242325
315.0, 0.050621891842798285
316.0, 0.056851832987677105
317.0, 0.06457142695667396
318.0, 0.07204043212442524
319.0, 0.07785490253676476
320.0, 0.08366022151457501
321.0, 0.08748470023582292
322.0, 0.09252312178683006
323.0, 0.09880319610173842
324.0, 0.10013012747830599
325.0, 0.10002803598738386
326.0, 0.10026293241197862
327.0, 0.10090855908999188
328.0, 0.09874637894685796
329.0, 0.08566748689232775
330.0, 0.07719252404093384
331.0, 0.0696766120796291
332.0, 0.059811252328589866
333.0, 0.04736002848499744
334.0, 0.04046997869656141
335.0, 0.03334712958527776
336.0, 0.02787878983625299
337.0, 0.025411366774748843
338.0, 0.023462637453055206
339.0, 0.01576443748803386
340.0, 0.013633258352233786
341.0, 0.011464814112157518
342.0, 0.006867710326077245
343.0, 0.0061025030796526
344.0, 0.005052951719591836
345.0, 0.005328893639832177
346.0, 0.00457971404498041
347.0, 0.0028872705966478977
348.0, 0.005235270357242022
349.0, 0.0034923536772020073
350.0, 0.0010180397462771125
351.0, 0.0023096671997138254
352.0, 0.006602246757853722
353.0, 0.007569350632099856
354.0, 0.010928965931823742
355.0, 0.014742317282700234
356.0, 0.01777378914528218
357.0, 0.01945333809837385
358.0, 0.017551866500664422
359.0, 0.020943001505855638
360.0, 0.023125255048052778
361.0, 0.02122453997666648
362.0, 0.017232415999072027
363.0, 0.016366977240786475
364.0, 0.016474409847397023
365.0, 0.013175521943081478
366.0, 0.010221144834904165
367.0, 0.012942682509682363
368.0, 0.014556412550472155
369.0, 0.014374294425655958
370.0, 0.013217896759631295
371.0, 0.013849207519072792
372.0, 0.019089374200462243
373.0, 0.021116993331768898
374.0, 0.02451796033836443
375.0, 0.02871080546579838
376.0, 0.031937834087294
377.0, 0.03384005046297249
378.0, 0.04014599110370345
379.0, 0.048132834416417525
380.0, 0.05424167171279724
381.0, 0.057257204140043684
382.0, 0.05909951565637969
383.0, 0.06408622535956635
384.0, 0.06826241233283432
385.0, 0.07394135225718608
386.0, 0.08198381052338279
387.0, 0.0886034380100471
388.0, 0.09731589424919686
389.0, 0.1071225048023106
390.0, 0.11791832073477572
391.0, 0.12920703013118853
392.0, 0.13992992441056123
393.0, 0.14883152769969074
394.0, 0.15578116914693538
395.0, 0.1609147733664967
396.0, 0.16679940006437743
397.0, 0.17622699465415936
398.0, 0.17679170783894976
399.0, 0.17847740291939726
400.0, 0.1760862207896915
401.0, 0.16864852052650744
402.0, 0.1628602728651267
403.0, 0.15704710561025825
404.0, 0.15153770673255074
405.0, 0.14610623346079726
406.0, 0.13924719992223764
407.0, 0.12956706044071606
408.0, 0.12449031448760091
409.0, 0.11894391164372457
410.0, 0.1136693752669733
411.0, 0.10810346633092018
412.0, 0.100225084355175
413.0, 0.0990709869819258
414.0, 0.0948155853155711
415.0, 0.08942238823087224
416.0, 0.08487978380456279
417.0, 0.07989333058688237
418.0, 0.07598619213886712
419.0, 0.07332872041300438
420.0, 0.06900979080096598
421.0, 0.06329775803998743
422.0, 0.058943783821058846
423.0, 0.05511089624887495
424.0, 0.04886968434344998
425.0, 0.04088227161813455
426.0, 0.033974789336415734
427.0, 0.03106292370287757
428.0, 0.0243918573361395
429.0, 0.019982023360451177
430.0, 0.017173177322968594
431.0, 0.014559526909372117
432.0, 0.011415946444757291
433.0, 0.007318990001338443
434.0, 0.004401796593238745
435.0, 0.003957892491137881
436.0, 0.003446756818594064
437.0, 0.0011546564253688651
438.0, 0.001770341521675753
439.0, 0.0016609948009609016
440.0, 0.0016197243640023434
441.0, 0.0022456016752361724
442.0, 0.0016021995126957599
443.0, 0.0023047968935406343
444.0, 0.0034501826628451464
445.0, 0.004078302464330541
446.0, 0.005884224077636757
447.0, 0.007240933940788016
448.0, 0.003993338563180429
449.0, 0.0010231250775495301
450.0, 0.0024589860977338456
451.0, 0.00271062163588082
452.0, 0.00266867335554311
453.0, 0.0025459838939062753
454.0, 0.0033225229303454167
455.0, 0.0008526947079433481
456.0, 0.0016134476729634686
457.0, 0.000604168994950755
458.0, 0.0008721780479556842
459.0, 0.000305132667571743
460.0, 0.0003374331607428194
461.0, 0.00021612841304441895
462.0, 0.0002498561878905528
463.0, 0.0009842295663447167
464.0, 0.004474740793420035
465.0, 0.007441200591606581
466.0, 0.0064522117491733755
467.0, 0.005822001368273648
468.0, 0.009835976362962049
469.0, 0.013337111387006313
470.0, 0.01345052779808082
471.0, 0.014554998818193924
472.0, 0.018196594475629053
473.0, 0.02276145730208541
474.0, 0.02587888373696893
475.0, 0.03192551501348687
476.0, 0.036556775215067255
477.0, 0.040452910954166796
478.0, 0.04673006414297841
479.0, 0.055876322683802444
480.0, 0.060815094791720835
481.0, 0.06289830928573044
482.0, 0.06791955029759093
483.0, 0.07289008711682828
484.0, 0.07393186439389059
485.0, 0.0843637399900757
486.0, 0.09016944361062434
487.0, 0.09603734842008169
488.0, 0.10312333366551693
489.0, 0.10975897220043607
490.0, 0.11668457887557844
491.0, 0.1255531788679705
492.0, 0.1341829579351439
493.0, 0.14108851997959995
494.0, 0.14749571804255196
495.0, 0.15566493010547564
496.0, 0.15918903406945933
497.0, 0.16181337655464118
498.0, 0.16520767463936797
499.0, 0.16625877914871937
500.0, 0.1627680199999013
501.0, 0.1606903765719126
502.0, 0.156556951548325
503.0, 0.15444738137448175
504.0, 0.15255842224803978
505.0, 0.1495316087332753
506.0, 0.15029129940288008
507.0, 0.1473626500159687
508.0, 0.15092275871869748
509.0, 0.15760969696737295
510.0, 0.1640038773629611
511.0, 0.17164003457433905
512.0, 0.17932199132399415
513.0, 0.18884317044238777
514.0, 0.19717355207612997
515.0, 0.20636768261211777
516.0, 0.21789921829041886
517.0, 0.2250044712442791
518.0, 0.23003031552543515
519.0, 0.23832715100985594
520.0, 0.24326655462125812
521.0, 0.24192752698712577
522.0, 0.23984968196997333
523.0, 0.22905662753694045
524.0, 0.21641263917814724
525.0, 0.20557144805193248
526.0, 0.19446237043813291
527.0, 0.181050010188079
528.0, 0.17074617649472015
529.0, 0.15926350569170517
530.0, 0.14970270136946331
531.0, 0.14136023600689243
532.0, 0.1343911014416875
533.0, 0.13197881184251958
534.0, 0.1276568885485398
535.0, 0.1230966268636143
536.0, 0.11938494824567594
537.0, 0.11308336785327465
538.0, 0.10260004903180055
539.0, 0.09980307536799435
540.0, 0.09283821005153874
541.0, 0.0821931692822726
542.0, 0.07307250180996902
543.0, 0.06647478932111094
544.0, 0.0588447841993508
545.0, 0.053077254851601995
546.0, 0.04769633953315209
547.0, 0.043669407874090384
548.0, 0.04202708366450966
549.0, 0.04238647409969599
550.0, 0.04224575930288996
551.0, 0.03897234144085484
552.0, 0.03783540672934021
553.0, 0.037363911357858375
554.0, 0.03510512880073159
555.0, 0.03180686501671217
556.0, 0.02804961646952784
557.0, 0.024427003090147267
558.0, 0.022546183167101132
559.0, 0.02059980240327032
560.0, 0.017149431504656604
561.0, 0.014512850047897586
562.0, 0.01900069249060154
563.0, 0.016321540483978547
564.0, 0.013527370508351066
565.0, 0.015152737584467016
566.0, 0.01653038679030365
567.0, 0.013860311859879853
568.0, 0.014264146539214047
569.0, 0.015042405581540566
570.0, 0.014868699043756805
571.0, 0.013864515301324614
572.0, 0.011276467038362877
573.0, 0.007147225401775302
574.0, 0.006991289308264971
575.0, 0.006812171912936349
576.0, 0.006415083815392453
577.0, 0.00738424430969896
578.0, 0.0070146401414016785
579.0, 0.002800402931827359
580.0, 0.004531584954430186
581.0, 0.007227409684862191
582.0, 0.0068984543148794125
583.0, 0.007174308698873842
584.0, 0.007589277681377541
585.0, 0.005278183274502496
586.0, 0.005524122276832502
587.0, 0.008019089650064863
588.0, 0.008713297887454372
589.0, 0.003651547078174641
590.0, 0.0039347834520598295
591.0, 0.00402201770317047
592.0, 0.006922260759159006
593.0, 0.010188752683960123
594.0, 0.010296601540928726
595.0, 0.011318814700620853
596.0, 0.011323271942691455
597.0, 0.009708542470111119
598.0, 0.008123372991183537
599.0, 0.007090867704588203
600.0, 0.005589857055326692
601.0, 0.0020984032622732534
602.0, 0.0005428176861974105
603.0, 0.001995926748897992
604.0, 0.0028305084807071007
605.0, 0.0037690690104228786
606.0, 0.004587617408522391
607.0, 0.0031681792129943757
608.0, 0.0007131020602425693
609.0, 0.0013682747683650023
610.0, 0.0028977174932385587
611.0, 0.003531265370639461
612.0, 0.0010721417921455607
613.0, 0.003642923315710588
614.0, 0.002106950458747322
615.0, 0.0015343628293609688
616.0, 0.001657798721240081
617.0, 0.0018095662565179836
618.0, 0.004330400215113955
619.0, 0.003686565510138229
620.0, 0.0008744449936253164
621.0, 0.0011324007745778448
622.0, 0.002083917774137753
623.0, 0.0007715346530920775
624.0, 0.0004357913106957169
625.0, 0.003591297540309647
626.0, 0.0023846285325867904
627.0, 0.002445984664397137
628.0, 0.0028780015071506663
629.0, 0.0005110217641054602
630.0, 0.0007073330324439233
631.0, 0.0020761202227355035
632.0, 0.0006451503208745817
633.0, 0.0004572270694679195
634.0, 0.0013700673064980303
635.0, 0.0008869813028580058
636.0, 0.0015372665502249036
637.0, 0.0004485508056873808
638.0, 0.0002282496936998775
639.0, 0.00041745418773419987
640.0, 0.0007261524398799268
641.0, 0.0010908748404735308
642.0, 0.005125898892325463
643.0, 0.0031792578335980088
644.0, 0.0018255827160344243
645.0, 0.0018414691284273838
646.0, 0.0011737788602978515
647.0, 0.0006179622820811984
648.0, 0.0004055011737915526
649.0, 0.0023812879630755075
650.0, 0.0016335415328149264
651.0, 0.0022673917345371803
652.0, 0.0013193622036598719
653.0, 0.004555421611752449
654.0, 0.006349794304608678
655.0, 0.008568604366092806
656.0, 0.007824593381668365
657.0, 0.00942220826143127
658.0, 0.011076414563734673
659.0, 0.01105039579662208
660.0, 0.016772942376643177
661.0, 0.013489519553643303
662.0, 0.012467356178194224
663.0, 0.013452796661480948
664.0, 0.013375423037182496
665.0, 0.012058157796600208
666.0, 0.010181445549100485
667.0, 0.0065939730312281584
668.0, 0.011986530137367371
669.0, 0.01628664788011031
670.0, 0.01756004242265211
671.0, 0.01899332788821155
672.0, 0.02098266296585228
673.0, 0.01998866704646828
674.0, 0.020787425598945593
675.0, 0.018992789247538295
676.0, 0.015867434881542398
677.0, 0.014816613559632682
678.0, 0.015349463335711308
679.0, 0.01487105345696064
680.0, 0.018469640091066174
681.0, 0.02223300519061076
682.0, 0.024941821049573
683.0, 0.02449345906957071
684.0, 0.02043572458392454
685.0, 0.02293794071053554
686.0, 0.022962570607338244
687.0, 0.023137260345327954
688.0, 0.02332901194519688
689.0, 0.023946493341335764
690.0, 0.024991817766116156
691.0, 0.023071468936502342
692.0, 0.026347861388668913
693.0, 0.027153398714295802
694.0, 0.02298203987326259
695.0, 0.021160751416269843
696.0, 0.025233285690337854
697.0, 0.027916545120243455
698.0, 0.028004356206413356
699.0, 0.0242849057129693
700.0, 0.023121244441187773
701.0, 0.02484792228941079
702.0, 0.024232471631517125
703.0, 0.021047773393811392
704.0, 0.027104425592835654
705.0, 0.025110883722249486
706.0, 0.024763277085118173
707.0, 0.024204568380132577
708.0, 0.022574966424479818
709.0, 0.023619796124636123
710.0, 0.021646914107507156
711.0, 0.017888755865583687
712.0, 0.015952717763689377
713.0, 0.014909989272902286
714.0, 0.015114974520416291
715.0, 0.015752082985451183
716.0, 0.012700643136341994
717.0, 0.015996373507306833
718.0, 0.018466627925280314
719.0, 0.01855149937939856
720.0, 0.017640187006103175
721.0, 0.01721612934674613
722.0, 0.017049432909980306
723.0, 0.013116855608973705
724.0, 0.009020397489927017
725.0, 0.005685429095055797
726.0, 0.0038956958664562945
727.0, 0.002708017161617899
728.0, 0.003061937219145756
729.0, 0.009094152196129685
730.0, 0.007125111722051905
731.0, 0.005340591527380778
732.0, 0.008615898602547249
733.0, 0.011331111960494007
734.0, 0.010735757337828843
735.0, 0.011134203907162608
736.0, 0.009953252308665957
737.0, 0.004554445429920927
738.0, 0.0046111577320487596
739.0, 0.007247509067034032
740.0, 0.00837507530559595
741.0, 0.006606852673489648
742.0, 0.0009843169689250798
743.0, 0.006284024384861192
744.0, 0.004631185123945082
745.0, 0.005443911757559878
746.0, 0.00829740126548167
747.0, 0.007651643111731174
748.0, 0.005792398820131309
749.0, 0.004407936095246702
750.0, 0.00575925513610528
751.0, 0.0019768970900812394
752.0, 0.0017680796631796435
753.0, 0.004657902722524184
754.0, 0.004266322457755313
755.0, 0.004266751819664763
756.0, 0.004655574396811963
757.0, 0.0054176818529246195
758.0, 0.006769487146394479
759.0, 0.006100336388256594
760.0, 0.005012884754068965
761.0, 0.006150981362975918
762.0, 0.004168663703560703
763.0, 0.008101717258091978
764.0, 0.008811321876059843
765.0, 0.007106537822340378
766.0, 0.005691339374172464
767.0, 0.006015148205202617
768.0, 0.008683597564716082
769.0, 0.011720385636011214
770.0, 0.012494612064382984
771.0, 0.011951442213944948
772.0, 0.011310346261663018
773.0, 0.010003685370577085
774.0, 0.008185289448993485
775.0, 0.007476637518938056
776.0, 0.0028857611732158736
777.0, 0.0025128384407027194
778.0, 0.0016984465318213996
779.0, 0.0014127786600320066
780.0, 0.0020040475724428194
781.0, 0.0010780543875379075
782.0, 0.00031056778564141394
783.0, 0.002117966988748585
784.0, 0.001530473150158546
785.0, 0.0006092473761731634
786.0, 0.003593475692385937
787.0, 0.004088232589119761
788.0, 0.002661870128047114
789.0, 0.002494856791348177
790.0, 0.0028013562829657147
791.0, 0.002507884364568757
792.0, 0.0024341873399510295
793.0, 0.008955600606527631
794.0, 0.012298353699393975
795.0, 0.011452108698323677
796.0, 0.007824799403915159
797.0, 0.007694213613452339
798.0, 0.006749113883054062
799.0, 0.004166471420927539
800.0, 0.0021430072483232627
801.0, 0.0034182712563013674
802.0, 0.006593631737956807
803.0, 0.0030098042552667873
804.0, 0.0005294650688214113
805.0, 0.0027329967272223523
806.0, 0.004802830500331553
807.0, 0.006463276716003243
808.0, 0.009339182194198405
809.0, 0.011347408502816549
810.0, 0.009860479396081562
811.0, 0.008546541536672298
812.0, 0.008303575264262413
813.0, 0.008643892889291398
814.0, 0.007736642801158971
815.0, 0.006289553335259541
816.0, 0.0061967180644952905
817.0, 0.0017374100129546874
818.0, 0.0001819042917941116
819.0, 0.00177096819060229
820.0, 0.00058375397668826
821.0, 0.0014139269702366703
822.0, 0.003074979378158911
823.0, 0.00426874076576045
824.0, 0.00662412164883888
825.0, 0.007808227215669084
826.0, 0.006746257548573518
827.0, 0.00900396937792796
828.0, 0.00761201077814428
829.0, 0.00290820245291181
830.0, 0.00409349152186916
831.0, 0.0015969508665464923
832.0, 0.0028721132907484088
833.0, 0.0006596070157920578
834.0, 0.0020521650801920313
835.0, 0.0007530990497233319
836.0, 0.001373899874710257
837.0, 0.001577543313146016
838.0, 0.0005238033387994889
839.0, 0.00045231950688655705
840.0, 0.006788105105047134
841.0, 0.009450721511345394
842.0, 0.009276639922447701
843.0, 0.009332397684972462
844.0, 0.008332237221940209
845.0, 0.005575115357697111
846.0, 0.005657497470041177
847.0, 0.007169236862644374
848.0, 0.0051692030220733595
849.0, 0.00304731004651687
850.0, 0.004249764508254581
851.0, 0.007814636891909848
852.0, 0.012460045880013464
853.0, 0.018349478814136705
854.0, 0.017948405200976406
855.0, 0.02343077141299271
856.0, 0.027355200972850446
857.0, 0.029305875446548172
858.0, 0.029900918245111856
859.0, 0.02597650189166481
860.0, 0.024877859750566708
861.0, 0.02512676877526923
862.0, 0.02821529284459205
863.0, 0.03144682937059708
864.0, 0.035685830279763006
865.0, 0.03899478132336237
866.0, 0.04108694744479559
867.0, 0.04653907401350939
868.0, 0.04395253832258642
869.0, 0.04732080104703031
870.0, 0.051483268912438804
871.0, 0.05463535166470976
872.0, 0.05543090864477088
873.0, 0.05734056398780395
874.0, 0.0661726164526783
875.0, 0.07294419313055123
876.0, 0.07935349405800651
877.0, 0.08975730626613351
878.0, 0.10032375513162013
879.0, 0.10890059575712427
880.0, 0.1179056874143005
881.0, 0.13084424770937955
882.0, 0.14699209271797628
883.0, 0.15501994198137856
884.0, 0.17041714707114491
885.0, 0.17803366013223823
886.0, 0.1850249310952271
887.0, 0.1954982593195253
888.0, 0.20609411461331387
889.0, 0.21557527948308952
890.0, 0.22473951404283052
891.0, 0.22295898630113198
892.0, 0.22598046541914424
893.0, 0.22113035220204028
894.0, 0.2121836350992309
895.0, 0.20376465058484772
896.0, 0.19320500283892622
897.0, 0.180259944627867
898.0, 0.16531972470254191
899.0, 0.15543270306170365
900.0, 0.14042281291408476
901.0, 0.12678551475891378
902.0, 0.1149739843299502
903.0, 0.10396699916757392
904.0, 0.09550148774375694
905.0, 0.08565718960088302
906.0, 0.06998914540038126
907.0, 0.05695804365694008
908.0, 0.049617146987380414
909.0, 0.042296545727782756
910.0, 0.037385503857245525
911.0, 0.032845409343214706
912.0, 0.024159389309985416
913.0, 0.02405928853712554
914.0, 0.023198163718875484
915.0, 0.020714635880934685
916.0, 0.018618898064384506
917.0, 0.017808205854487044
918.0, 0.015049549348854135
919.0, 0.013146252882099425
920.0, 0.011294070868788808
921.0, 0.009867113206286547
922.0, 0.008120052117120292
923.0, 0.00659669844453168
924.0, 0.004737048403961025
925.0, 0.0040586279722144595
926.0, 0.0031937258160172244
927.0, 0.0013626493518507068
928.0, 0.002728716548179449
929.0, 0.0017568180679268198
930.0, 0.0019143569853925268
931.0, 0.003670177756186674
932.0, 0.00211227544047173
933.0, 0.0025161043454888523
934.0, 0.003258447421553894
935.0, 0.0017048595041647767
936.0, 0.0014653188626262735
937.0, 8.883568845412666e-05
938.0, 0.0016019195132737207
939.0, 0.0016155193029145922
940.0, 0.002757915154034166
941.0, 0.0010978355279108254
942.0, 0.0007364957468762677
943.0, 0.00505825018699109
944.0, 0.0073628639618233795
945.0, 0.00938186444021613
946.0, 0.011261007711174638
947.0, 0.013731391325014037
948.0, 0.010184016549260285
949.0, 0.007134157232289071
950.0, 0.008291327977898564
951.0, 0.010222829262830087
952.0, 0.011891144912814375
953.0, 0.018331205364915722
954.0, 0.02089912191450308
955.0, 0.022493882535163424
956.0, 0.02405543534480962
957.0, 0.033237038944452624
958.0, 0.0447143053036265
959.0, 0.05042459668211969
960.0, 0.05639672133467159
961.0, 0.07073317295398104
962.0, 0.07704815065042658
963.0, 0.0866028155139524
964.0, 0.09710430133774564
965.0, 0.11040127922904025
966.0, 0.12319083020558351
967.0, 0.13539235813010653
968.0, 0.15455395748809284
969.0, 0.1853230415604431
970.0, 0.2144233170408859
971.0, 0.2492007443300582
972.0, 0.28954144417981875
973.0, 0.33819020166093605
974.0, 0.3946884395287733
975.0, 0.45237142052308094
976.0, 0.5154000111573116
977.0, 0.5917894174476572
978.0, 0.6733505480789957
979.0, 0.7573814045655074
980.0, 0.8454210506697262
981.0, 0.921436671227291
982.0, 0.9724682039536217
983.0, 0.9970115668286271
984.0, 0.9886073742180835
985.0, 0.9404057927804276
986.0, 0.8591497755745823
987.0, 0.7569605260988846
988.0, 0.6451696963937888
989.0, 0.5405681725705263
990.0, 0.45158570707677076
991.0, 0.37496882115454455
992.0, 0.3086018316443988
993.0, 0.2547363698746145
994.0, 0.2136106048430243
995.0, 0.1797507213416844
996.0, 0.15033225171537637
997.0, 0.12603525978999644
998.0, 0.10865261714678935
999.0, 0.0930733367536762
1000.0, 0.07990661183769729
1001.0, 0.07184900174070076
1002.0, 0.06394080342242818
1003.0, 0.051229786913384104
1004.0, 0.041366763223195054
1005.0, 0.04113283167788581
1006.0, 0.036498616565866525
1007.0, 0.03141401217608339
1008.0, 0.027493078954860462
1009.0, 0.020648743811816028
1010.0, 0.015785407962798814
1011.0, 0.015444490964077504
1012.0, 0.012128245572155402
1013.0, 0.009749689977708748
1014.0, 0.01178442666947134
1015.0, 0.010163248255508218
1016.0, 0.005190329308259575
1017.0, 0.004050896483738422
1018.0, 0.004601033422839791
1019.0, 0.004603295444021416
1020.0, 0.004963420499827022
1021.0, 0.0046719603082955455
1022.0, 0.0025274411834946163
1023.0, 0.0008460210352712666
1024.0, 0.000578872037384777
1025.0, 0.00018804003885092898
1026.0, 0.0009101540554491786
1027.0, 0.0007241047695007355
1028.0, 0.003206802877704623
1029.0, 0.0063503869843292236
1030.0, 0.00922866924574447
1031.0, 0.010082136645663162
1032.0, 0.013307323643280945
1033.0, 0.014500337932226024
1034.0, 0.020712624993318298
1035.0, 0.026185794381475704
1036.0, 0.03149007485056603
1037.0, 0.03515244688805005
1038.0, 0.03651382949137756
1039.0, 0.03997655282559349
1040.0, 0.04542124440094317
1041.0, 0.05189004364954547
1042.0, 0.060109900807181794
1043.0, 0.06615105445711447
1044.0, 0.07805864496130403
1045.0, 0.08780175915799575
1046.0, 0.09906897918226897
1047.0, 0.11186787344676016
1048.0, 0.12174602862758666
1049.0, 0.13968142447559792
1050.0, 0.15493085027332418
1051.0, 0.16953685310452415
1052.0, 0.17869231902678678
1053.0, 0.19017772987675546
1054.0, 0.1981285298803992
1055.0, 0.19357548069475666
1056.0, 0.18318472256481974
1057.0, 0.17379839322642482
1058.0, 0.1590382150590796
1059.0, 0.1368152429977626
1060.0, 0.11859807183896033
1061.0, 0.09967139438176896
1062.0, 0.08771187633099085
1063.0, 0.07856589896304296
1064.0, 0.07011190259041972
1065.0, 0.061352792050655934
1066.0, 0.05097736961531586
1067.0, 0.040045822122538544
1068.0, 0.03176866954404672
1069.0, 0.026208821599055163
1070.0, 0.027981563461731147
1071.0, 0.024361818203961133
1072.0, 0.01904376322090185
1073.0, 0.013910356309308602
1074.0, 0.009813953518030289
1075.0, 0.01224027782547908
1076.0, 0.015034917875665138
1077.0, 0.009197682612194679
1078.0, 0.014649599358942838
1079.0, 0.01067694251614245
1080.0, 0.008699706275624209
1081.0, 0.006179790351406892
1082.0, 0.0028686566478560533
1083.0, 0.004130001188016777
1084.0, 0.007818205802488544
1085.0, 0.006614830938724709
1086.0, 0.004395445147217811
1087.0, 0.005825269386030756
1088.0, 0.004746809152409568
1089.0, 0.0008699586124714996
1090.0, 0.006328259453539214
1091.0, 0.004574939062341661
1092.0, 0.0012108422075775885
1093.0, 0.0010103561957134873
1094.0, 0.0013447163247419533
1095.0, 0.0015600646528669154
1096.0, 0.001720290986780343
1097.0, 0.000449154778609653
1098.0, 0.0013713560441642554
1099.0, 0.00020965610344940547
1100.0, 0.0009216883994229515
1101.0, 0.006616064963863551
1102.0, 0.00338789768441803
1103.0, 0.002252030396278483
1104.0, 0.005038680480493212
1105.0, 0.00403628683066739
1106.0, 0.005269376886836069
1107.0, 0.014278005473661893
1108.0, 0.01363232902035375
1109.0, 0.012106045429295218
1110.0, 0.012911260862720394
1111.0, 0.011914355486121126
1112.0, 0.008030057514207118
1113.0, 0.0029653495559209394
1114.0, 0.0016023324557343705
1115.0, 0.0007843475605315169
1116.0, 0.0005309050315665182
1117.0, 0.0037807760664907986
1118.0, 0.003947374707112719
1119.0, 0.001056608679372587
1120.0, 0.006229613084419251
1121.0, 0.006062533671234833
1122.0, 0.0055590068212652945
1123.0, 0.011060233796340394
1124.0, 0.00740425686795057
1125.0, 0.005850526887666733
1126.0, 0.008857366452731137
1127.0, 0.010644674558761114
1128.0, 0.01497064601630912
1129.0, 0.013470916515801836
1130.0, 0.012726300985861715
1131.0, 0.014816160501642646
1132.0, 0.014815125994990672
1133.0, 0.020307815678210158
1134.0, 0.022055291745776147
1135.0, 0.026055940876466326
1136.0, 0.02770059726309962
1137.0, 0.0249729516765214
1138.0, 0.026279369655778283
1139.0, 0.0296718706569868
1140.0, 0.03065012135083758
1141.0, 0.03156566171434549
1142.0, 0.03803931268163248
1143.0, 0.04480189727506436
1144.0, 0.04844795161307316
1145.0, 0.05487295951372591
1146.0, 0.06506076004487686
1147.0, 0.07646386092191099
1148.0, 0.0825185108310373
1149.0, 0.08942324200846258
1150.0, 0.10487144772999976
1151.0, 0.11097783611461264
1152.0, 0.12060367802454099
1153.0, 0.12880584363868372
1154.0, 0.12688065673945836
1155.0, 0.12302967822751813
1156.0, 0.11536151548193878
1157.0, 0.10365538156853246
1158.0, 0.09040500597367787
1159.0, 0.08143328617286014
1160.0, 0.07570743665808227
1161.0, 0.06677109661147197
1162.0, 0.06543868053391243
1163.0, 0.06765483248699412
1164.0, 0.06748353966585807
1165.0, 0.06898719641223817
1166.0, 0.06272882182188402
1167.0, 0.06017684115484415
1168.0, 0.060259856293525045
1169.0, 0.05656661705186767
1170.0, 0.054388525626543616
1171.0, 0.05652035288038864
1172.0, 0.05487469415886748
1173.0, 0.05133805473526169
1174.0, 0.04834029313376669
1175.0, 0.046970116119221
1176.0, 0.041126478829059225
1177.0, 0.04043618366261861
1178.0, 0.0351266994059053
1179.0, 0.03497059731618071
1180.0, 0.03141844227249017
1181.0, 0.02976211755783146
1182.0, 0.03214230834907588
1183.0, 0.028277601742950385
1184.0, 0.022207366082597477
1185.0, 0.021831017341894986
1186.0, 0.021208962467093584
1187.0, 0.01644171918119826
1188.0, 0.017391522697665425
1189.0, 0.015854455934296668
1190.0, 0.008425233209215085
1191.0, 0.007373673863209079
1192.0, 0.013673004026045342
1193.0, 0.017150090937370084
1194.0, 0.016394335614104017
1195.0, 0.013965640487719916
1196.0, 0.010951343403325358
1197.0, 0.015993889042103786
1198.0, 0.012322405624250935
1199.0, 0.010624521637106725
1200.0, 0.008299634238285128
1201.0, 0.008189381033471315
1202.0, 0.007274660886534599
1203.0, 0.0021468670326122543
1204.0, 0.0015257844553910904
1205.0, 0.002601331814320046
1206.0, 0.003109804944047353
1207.0, 0.004637113258432389
1208.0, 0.0030384587413043312
1209.0, 0.0025324766257649404
1210.0, 0.002909783478407246
1211.0, 0.004042837055950836
1212.0, 0.004277828796607623
1213.0, 0.005207978224098466
1214.0, 0.0094425557423479
1215.0, 0.010583789686154492
1216.0, 0.0090391248319475
1217.0, 0.009847307837708784
1218.0, 0.009329344446523564
1219.0, 0.008460148677848726
1220.0, 0.01014589801408156
1221.0, 0.008673053982473505
1222.0, 0.011202786239367636
1223.0, 0.004397193727808944
1224.0, 0.010259272999505666
1225.0, 0.010325261704648788
1226.0, 0.007758148180378977
1227.0, 0.003981040543974499
1228.0, 0.0014232186212111697
1229.0, 0.0006814495467159234
1230.0, 0.005003487073800239
1231.0, 0.0064676405923715635
1232.0, 0.0005203261708018881
1233.0, 0.001636215955670419
1234.0, 0.0022646137450219534
1235.0, 0.0013793298895321575
1236.0, 0.0032733448513516976
1237.0, 0.0020121714795253987
1238.0, 0.005145837176475921
1239.0, 0.0017525184849448894
1240.0, 0.001236814204385587
1241.0, 0.004584826039236631
1242.0, 0.00573401852777108
1243.0, 0.003225808011346317
1244.0, 0.006505379002513344
1245.0, 0.013254489905822002
1246.0, 0.01206095123273274
1247.0, 0.010375223835173244
1248.0, 0.013459947817532923
1249.0, 0.011131088587025734
1250.0, 0.00753707753895219
1251.0, 0.0021167838603100963
1252.0, 0.005863125765976636
1253.0, 0.0015574569505121246
1254.0, 0.001496739766603856
1255.0, 0.002367996566219796
1256.0, 0.0012860494996251328
1257.0, 0.001432408174900302
1258.0, 0.00044988006424266067
1259.0, 0.0039048048367650084
1260.0, 0.007209556268714869
1261.0, 0.003384235988780983
1262.0, 0.009871509774363121
1263.0, 0.01617857497738438
1264.0, 0.013804591940877534
1265.0, 0.011123175391586632
1266.0, 0.010500475643899436
1267.0, 0.007782758368431033
1268.0, 0.004914615810633697
1269.0, 0.00999213367830159
1270.0, 0.012778969472268272
1271.0, 0.011169179529929697
1272.0, 0.009592647193228604
1273.0, 0.007057654667964476
1274.0, 0.004934981648866935
1275.0, 0.006930280533556349
1276.0, 0.009466319810694103
1277.0, 0.006578949754892378
1278.0, 0.009543900941021668
1279.0, 0.007961286187420522
1280.0, 0.005346287045221793
1281.0, 0.005418146482291157
1282.0, 0.00840460677831711
1283.0, 0.01042172999670159
1284.0, 0.009957099513478732
1285.0, 0.009226513201446582
1286.0, 0.008657258671841753
1287.0, 0.006923014216860665
1288.0, 0.007220530372244033
1289.0, 0.008389312883697589
1290.0, 0.0012828717597907601
1291.0, 0.003794480518996552
1292.0, 0.00403711650538906
1293.0, 0.003512804282422102
1294.0, 0.004762687573140719
1295.0, 0.0016052572251658312
1296.0, 0.0016414255117194495
1297.0, 0.007153191312738164
1298.0, 0.011204130840084474
1299.0, 0.012548438004572473
1300.0, 0.013111541210766214
1301.0, 0.00807963584922134
1302.0, 0.001646381688803985
1303.0, 4.860512529565334e-05
1304, 0.0
1305, 0.0
1306, 0.0
1307, 0.0
1308, 0.0
1309, 0.0
1310, 0.0
1311, 0.0
1312, 0.0
1313, 0.0
1314, 0.0
1315, 0.0
1316, 0.0
1317, 0.0
1318, 0.0
1319, 0.0
1320, 0.0
1321, 0.0
1322, 0.0
1323, 0.0
1324, 0.0
1325, 0.0
1326, 0.0
1327, 0.0
1328, 0.0
1329, 0.0
1330, 0.0
1331, 0.0
1332, 0.0
1333, 0.0
1334, 0.0
1335, 0.0
1336, 0.0
1337, 0.0
1338, 0.0
1339, 0.0
1340, 0.0
1341, 0.0
1342, 0.0
1343, 0.0
1344, 0.0
1345, 0.0
1346, 0.0
1347, 0.0
1348, 0.0
1349, 0.0
1350, 0.0
1351, 0.0
1352, 0.0
1353, 0.0
1354, 0.0
1355, 0.0
1356, 0.0
1357, 0.0
1358, 0.0
1359, 0.0
1360, 0.0
1361, 0.0
1362, 0.0
1363, 0.0
1364, 0.0
1365, 0.0
1366, 0.0
1367, 0.0
1368, 0.0
1369, 0.0
1370, 0.0
1371, 0.0
1372, 0.0
1373, 0.0
1374, 0.0
1375, 0.0
1376, 0.0
1377, 0.0
1378, 0.0
1379, 0.0
1380, 0.0
1381, 0.0
1382, 0.0
1383, 0.0
1384, 0.0
1385, 0.0
1386, 0.0
1387, 0.0
1388, 0.0
1389, 0.0
1390, 0.0
1391, 0.0
1392, 0.0
1393, 0.0
1394, 0.0
1395, 0.0
1396, 0.0
1397, 0.0
1398, 0.0
1399, 0.0
1400, 0.0
1401, 0.0
1402, 0.0
1403, 0.0
1404, 0.0
1405, 0.0
1406, 0.0
1407, 0.0
1408, 0.0
1409, 0.0
1410, 0.0
1411, 0.0
1412, 0.0
1413, 0.0
1414, 0.0
1415, 0.0
1416, 0.0
1417, 0.0
1418, 0.0
1419, 0.0
1420, 0.0
1421, 0.0
1422, 0.0
1423, 0.0
1424, 0.0
1425, 0.0
1426, 0.0
1427, 0.0
1428, 0.0
1429, 0.0
1430, 0.0
1431, 0.0
1432, 0.0
1433, 0.0
1434, 0.0
1435, 0.0
1436, 0.0
1437, 0.0
1438, 0.0
1439, 0.0
1440, 0.0
1441, 0.0
1442, 0.0
1443, 0.0
1444, 0.0
1445, 0.0
1446, 0.0
1447, 0.0
1448, 0.0
1449, 0.0
1450, 0.0
1451, 0.0
1452, 0.0
1453, 0.0
1454, 0.0
1455, 0.0
1456, 0.0
1457, 0.0
1458, 0.0
1459, 0.0
1460, 0.0
1461, 0.0
1462, 0.0
1463, 0.0
1464, 0.0
1465, 0.0
1466, 0.0
1467, 0.0
1468, 0.0
1469, 0.0
1470, 0.0
1471, 0.0
1472, 0.0
1473, 0.0
1474, 0.0
1475, 0.0
1476, 0.0
1477, 0.0
1478, 0.0
1479, 0.0
1480, 0.0
1481, 0.0
1482, 0.0
1483, 0.0
1484, 0.0
1485, 0.0
1486, 0.0
1487, 0.0
1488, 0.0
1489, 0.0
1490, 0.0
1491, 0.0
1492, 0.0
1493, 0.0
1494, 0.0
1495, 0.0
1496, 0.0
1497, 0.0
1498, 0.0
1499, 0.0
1500, 0.0
1501, 0.0
1502, 0.0
1503, 0.0
1504, 0.0
1505, 0.0
1506, 0.0
1507, 0.0
1508, 0.0
1509, 0.0
1510, 0.0
1511, 0.0
1512, 0.0
1513, 0.0
1514, 0.0
1515, 0.0
1516, 0.0
1517, 0.0
1518, 0.0
1519, 0.0
1520, 0.0
1521, 0.0
1522, 0.0
1523, 0.0
1524, 0.0
1525, 0.0
1526, 0.0
1527, 0.0
1528, 0.0
1529, 0.0
1530, 0.0
1531, 0.0
1532, 0.0
1533, 0.0
1534, 0.0
1535, 0.0
1536, 0.0
1537, 0.0
1538, 0.0
1539, 0.0
1540, 0.0
1541, 0.0
1542, 0.0
1543, 0.0
1544, 0.0
1545, 0.0
1546, 0.0
1547, 0.0
1548, 0.0
1549, 0.0
1550, 0.0
1551, 0.0
1552, 0.0
1553, 0.0
1554, 0.0
1555, 0.0
1556, 0.0
1557, 0.0
1558, 0.0
1559, 0.0
1560, 0.0
1561, 0.0
1562, 0.0
1563, 0.0
1564, 0.0
1565, 0.0
1566, 0.0
1567, 0.0
1568, 0.0
1569, 0.0
1570, 0.0
1571, 0.0
1572, 0.0
1573, 0.0
1574, 0.0
1575, 0.0
1576, 0.0
1577, 0.0
1578, 0.0
1579, 0.0
1580, 0.0
1581, 0.0
1582, 0.0
1583, 0.0
1584, 0.0
1585, 0.0
1586, 0.0
1587, 0.0
1588, 0.0
1589, 0.0
1590, 0.0
1591, 0.0
1592, 0.0
1593, 0.0
1594, 0.0
1595, 0.0
1596, 0.0
1597, 0.0
1598, 0.0
1599, 0.0
