30, 0.0
31, 0.0
32, 0.0
33, 0.0
34, 0.0
35, 0.0
36, 0.0
37, 0.0
38, 0.0
39, 0.0
40, 0.0
41, 0.0
42, 0.0
43, 0.0
44, 0.0
45, 0.0
46, 0.0
47, 0.0
48, 0.0
49, 0.0
50, 0.0
51, 0.0
52, 0.0
53, 0.0
54, 0.0
55, 0.0
56, 0.0
57, 0.0
58, 0.0
59, 0.0
60, 0.0
61, 0.0
62, 0.0
63, 0.0
64, 0.0
65, 0.0
66, 0.0
67, 0.0
68, 0.0
69, 0.0
70, 0.0
71, 0.0
72, 0.0
73, 0.0
74, 0.0
75, 0.0
76, 0.0
77, 0.0
78, 0.0
79, 0.0
80, 0.0
81, 0.0
82, 0.0
83, 0.0
84, 0.0
85, 0.0
86, 0.0
87, 0.0
88, 0.0
89, 0.0
90, 0.0
91, 0.0
92, 0.0
93, 0.0
94, 0.0
95, 0.0
96, 0.0
97, 0.0
98, 0.0
99, 0.0
100, 0.0
101, 0.0
102, 0.0
103, 0.0
104, 0.0
105, 0.0
106, 0.0
107, 0.0
108, 0.0
109, 0.0
110, 0.0
111, 0.0
112, 0.0
113, 0.0
114, 0.0
115, 0.0
116, 0.0
117, 0.0
118, 0.0
119, 0.0
120, 0.0
121, 0.0
122, 0.0
123, 0.0
124, 0.0
125, 0.0
126, 0.0
127, 0.0
128, 0.0
129, 0.0
130, 0.0
131, 0.0
132, 0.0
133, 0.0
134, 0.0
135, 0.0
136, 0.0
137.0, 0.0008958248714046489
138.0, 0.005279772043521778
139.0, 0.009982788419887189
140.0, 0.012739424642562362
141.0, 0.013159900626055519
142.0, 0.01366361968582017
143.0, 0.011995264792097554
144.0, 0.0069926297641700885
145.0, 0.003119964727678399
146.0, 0.0006212888943365159
147.0, 0.0015960973550988484
148.0, 0.0017991675016633473
149.0, 0.0019203636430221184
150.0, 0.003780793468019434
151.0, 0.0033188544392224848
152.0, 0.0030262608794245876
153.0, 0.005203754752486088
154.0, 0.00782396538025369
155.0, 0.009734007165499351
156.0, 0.0106573807143812
157.0, 0.011432517947501247
158.0, 0.0119752632657909
159.0, 0.014286508019086345
160.0, 0.01783476523186027
161.0, 0.019385577789765452
162.0, 0.023072317335417744
163.0, 0.026905151568735457
164.0, 0.027790806423926593
165.0, 0.02515083705990103
166.0, 0.02837627766890981
167.0, 0.03145420786074727
168.0, 0.03301450490733288
169.0, 0.0344302041378616
170.0, 0.03715236234169141
171.0, 0.03963145557747422
172.0, 0.04014380088833664
173.0, 0.039251838434972465
174.0, 0.040131298686147225
175.0, 0.03820228806194083
176.0, 0.03856194314139361
177.0, 0.03933999656601981
178.0, 0.03410330368826816
179.0, 0.03254614824182261
180.0, 0.032014116390435374
181.0, 0.031039686209321272
182.0, 0.030199739570764408
183.0, 0.030792572552341187
184.0, 0.03073825938388383
185.0, 0.03214837232529105
186.0, 0.034832184046738456
187.0, 0.03291397152276799
188.0, 0.02893156955442581
189.0, 0.027512647937917186
190.0, 0.029190565043060574
191.0, 0.03063816720399097
192.0, 0.030841336905833187
193.0, 0.03318997368756543
194.0, 0.03644572490516658
195.0, 0.03757577671848188
196.0, 0.039152975733054395
197.0, 0.038728751253630574
198.0, 0.034153554776891616
199.0, 0.0274680335288694
200.0, 0.027776893440071185
201.0, 0.027469471069510278
202.0, 0.027869678745884273
203.0, 0.027366069608497436
204.0, 0.022300908579311895
205.0, 0.022688327202525466
206.0, 0.025926209233252437
207.0, 0.028345474014820394
208.0, 0.028576339534474526
209.0, 0.031350666866025036
210.0, 0.03560556193684112
211.0, 0.03906532595202353
212.0, 0.03964539761059818
213.0, 0.03545361843291979
214.0, 0.03052056926081053
215.0, 0.021706542001302946
216.0, 0.014733465172186573
217.0, 0.017262304051688764
218.0, 0.015263704071098602
219.0, 0.014865855967366006
220.0, 0.015318770074991815
221.0, 0.013845737910482605
222.0, 0.009719192355252546
223.0, 0.007700642556460508
224.0, 0.007660220413186161
225.0, 0.009277832143093283
226.0, 0.01227442948485866
227.0, 0.013000638625158661
228.0, 0.015603460284673465
229.0, 0.019852476206055736
230.0, 0.0234933588360575
231.0, 0.024997036572665648
232.0, 0.028766804387282706
233.0, 0.03293901920360422
234.0, 0.03673311747243731
235.0, 0.041664371200435035
236.0, 0.04762124597494033
237.0, 0.05446206026960474
238.0, 0.060884337017844604
239.0, 0.06618576929569184
240.0, 0.0740479078802417
241.0, 0.08184699923724872
242.0, 0.08972090645914638
243.0, 0.09619287667173627
244.0, 0.09727400649504758
245.0, 0.09725993049267981
246.0, 0.10003989085900594
247.0, 0.10170053221366411
248.0, 0.0970161803784988
249.0, 0.09130859422532543
250.0, 0.08684337070043938
251.0, 0.08326461229699395
252.0, 0.07959080599693583
253.0, 0.07615615469737677
254.0, 0.0743305003428806
255.0, 0.07159198582505587
256.0, 0.06877346175905039
257.0, 0.06770373326484566
258.0, 0.06357220331288128
259.0, 0.056731610059613816
260.0, 0.053704587700293405
261.0, 0.05387388370205264
262.0, 0.04773633790803272
263.0, 0.04390934861566801
264.0, 0.03829215707229757
265.0, 0.032816339884238446
266.0, 0.030858361203177483
267.0, 0.028307352816296646
268.0, 0.02527285628297672
269.0, 0.022806891500165783
270.0, 0.021483541944792055
271.0, 0.020935545864976222
272.0, 0.020032999125422498
273.0, 0.020711416084189336
274.0, 0.02323025237468608
275.0, 0.02616683440691556
276.0, 0.026408027327639562
277.0, 0.028596447566666475
278.0, 0.0319588824750752
279.0, 0.03564201274060975
280.0, 0.03893835027179368
281.0, 0.037577603656970465
282.0, 0.04062327911317371
283.0, 0.04155408230152069
284.0, 0.03549312199234704
285.0, 0.03360396392292135
286.0, 0.0336480423608524
287.0, 0.03649855793454308
288.0, 0.038694689933799244
289.0, 0.036100804901724175
290.0, 0.03568298509390236
291.0, 0.038157122427529076
292.0, 0.03989154249177187
293.0, 0.03892383957653479
294.0, 0.03694846305172786
295.0, 0.03545413344847564
296.0, 0.03374837094114028
297.0, 0.03323399468203829
298.0, 0.03203489275647409
299.0, 0.020414809249804346
300.0, 0.017118136148597134
301.0, 0.013667910861090832
302.0, 0.00627629628020847
303.0, 0.0015279729678912659
304.0, 0.0020504818048429777
305.0, 0.0007720363622775196
306.0, 0.0005122220700561152
307.0, 0.0041909518281911095
308.0, 0.006090721217358304
309.0, 0.002240680746473645
310.0, 0.0024828957482349264
311.0, 0.006713778177265874
312.0, 0.008168243885925817
313.0, 0.0032795971424530047
314.0, 0.0015115615017601233
315.0, 0.0018684594721166325
316.0, 0.0003156938884205431
317.0, 0.0031161162344660936
318.0, 0.004831468365268149
319.0, 0.006111503518427164
320.0, 0.009677678820887827
321.0, 0.015621762947649416
322.0, 0.0192180390142221
323.0, 0.020598966878814323
324.0, 0.02395341723475066
325.0, 0.029847696700278006
326.0, 0.03524174292324915
327.0, 0.03587942513751295
328.0, 0.029906325524017344
329.0, 0.023493737316554967
330.0, 0.019444691590123426
331.0, 0.01666040763284818
332.0, 0.01683951385322005
333.0, 0.01822260520752314
334.0, 0.017361076865015614
335.0, 0.013830162291255386
336.0, 0.013635322895467468
337.0, 0.016457525895319475
338.0, 0.017900512154813086
339.0, 0.016960798844457396
340.0, 0.01638125429108299
341.0, 0.0203376288774138
342.0, 0.019624289245894985
343.0, 0.01848258747071568
344.0, 0.01838488628619119
345.0, 0.01760643681981816
346.0, 0.019174455767938473
347.0, 0.018669602261777784
348.0, 0.016018091818984035
349.0, 0.013419289104674523
350.0, 0.012863246958259938
351.0, 0.01184200553370621
352.0, 0.011064702388792622
353.0, 0.011476708739965652
354.0, 0.012459387317867719
355.0, 0.012369168772130186
356.0, 0.015114359540592155
357.0, 0.01411175870353159
358.0, 0.013137153042371006
359.0, 0.015607311242123533
360.0, 0.014739406785819609
361.0, 0.015892743856398082
362.0, 0.016194151665002737
363.0, 0.016377455400402138
364.0, 0.01758231980095115
365.0, 0.013817821893213738
366.0, 0.011576707432285118
367.0, 0.008703845957599958
368.0, 0.0057742411440930425
369.0, 0.005983844770378349
370.0, 0.006540354068241116
371.0, 0.00195400485324816
372.0, 0.00019773018229615443
373.0, 0.0015436462986516486
374.0, 0.0028912104839788327
375.0, 0.002086171599312193
376.0, 0.0015619774390723444
377.0, 0.002088147553910463
378.0, 0.000612977328123146
379.0, 0.0021053611542627432
380.0, 0.0021379167371767833
381.0, 0.0012987376736619378
382.0, 0.0035591463281891963
383.0, 0.0007289178259834641
384.0, 0.003016391034654789
385.0, 0.0033169692622469814
386.0, 0.0030529249632404065
387.0, 0.004142189446698245
388.0, 0.0055616052731870405
389.0, 0.0036384837675359116
390.0, 0.0035752467089797866
391.0, 0.0056320418550098025
392.0, 0.00824521880603916
393.0, 0.010499715848815034
394.0, 0.013143300597709994
395.0, 0.015556784329904578
396.0, 0.014076281761916668
397.0, 0.011269102007527024
398.0, 0.011636206339246538
399.0, 0.015159011883866466
400.0, 0.01901576413299058
401.0, 0.024951636669681313
402.0, 0.026219708040128888
403.0, 0.01847400659362713
404.0, 0.02765790620122082
405.0, 0.02863937503955541
406.0, 0.02946457422822368
407.0, 0.03325653330009516
408.0, 0.03341785639410594
409.0, 0.03218117175074415
410.0, 0.032122453979292226
411.0, 0.03756714924966731
412.0, 0.04350100969723512
413.0, 0.04145031801933385
414.0, 0.041323502274524436
415.0, 0.04153146946759043
416.0, 0.046697493998016634
417.0, 0.05264469383524396
418.0, 0.05190750411076841
419.0, 0.05657020944925326
420.0, 0.06300183182642807
421.0, 0.06323230093345535
422.0, 0.06196967229058613
423.0, 0.07013169004142605
424.0, 0.0801695318206205
425.0, 0.08769398452829671
426.0, 0.09585729605740749
427.0, 0.10707961151585496
428.0, 0.1209357525279455
429.0, 0.1306930887546509
430.0, 0.15025319288317285
431.0, 0.17138743983368904
432.0, 0.1875170919457407
433.0, 0.2043950127932712
434.0, 0.230355395254548
435.0, 0.263815580953103
436.0, 0.29254029734763853
437.0, 0.31526026932229734
438.0, 0.3382434045595584
439.0, 0.351964863956295
440.0, 0.3625164355695163
441.0, 0.36249417378232396
442.0, 0.34834256156154664
443.0, 0.32359151285477644
444.0, 0.298829298174794
445.0, 0.2822266244560867
446.0, 0.27154945071932163
447.0, 0.2591279517178118
448.0, 0.24516356772594086
449.0, 0.25601294809849756
450.0, 0.2596879040147424
451.0, 0.2704568614616617
452.0, 0.2697611541342827
453.0, 0.23325071752651136
454.0, 0.2062151536576759
455.0, 0.18338156593020932
456.0, 0.16194005061241726
457.0, 0.14467583966975128
458.0, 0.13571878323777375
459.0, 0.13354393326101827
460.0, 0.13391692265084526
461.0, 0.1327786910235577
462.0, 0.12896086912302776
463.0, 0.12435925880370735
464.0, 0.12267648113329976
465.0, 0.11380156486062362
466.0, 0.1045129609073706
467.0, 0.09654669461767554
468.0, 0.08929375170063569
469.0, 0.0824337751277458
470.0, 0.07399580161013639
471.0, 0.06611564887184407
472.0, 0.056144247393035356
473.0, 0.04588339285736985
474.0, 0.041647161402638314
475.0, 0.03387823874610455
476.0, 0.027448110282891805
477.0, 0.020912652227845118
478.0, 0.013821874190804221
479.0, 0.009539651433091448
480.0, 0.011367710626702313
481.0, 0.01061421350451362
482.0, 0.00883569064885213
483.0, 0.008632330274538616
484.0, 0.010343495241992198
485.0, 0.01068731309070318
486.0, 0.010887353533815588
487.0, 0.008870568095105428
488.0, 0.007431944099718419
489.0, 0.009594770780249184
490.0, 0.011636430560381671
491.0, 0.011155226983068095
492.0, 0.013629560348450556
493.0, 0.01418673042998611
494.0, 0.010302396956619326
495.0, 0.009268802472888036
496.0, 0.004471636545577479
497.0, 0.0007332403239488334
498.0, 0.0018323759039312142
499.0, 0.002390815701962451
500.0, 0.001401599839797464
501.0, 0.0016438101018762445
502.0, 0.005090207599474573
503.0, 0.003376957727913999
504.0, 0.0015219046526767687
505.0, 0.0014406386617429893
506.0, 0.0035322994159364745
507.0, 0.005800053682852998
508.0, 0.004228389774488273
509.0, 0.0014333986116854488
510.0, 0.0008618877247528544
511.0, 0.0028889070998936103
512.0, 0.0008508383573492278
513.0, 0.0015604763017065173
514.0, 0.0023724355380815303
515.0, 0.002579251410253494
516.0, 0.002989445277145957
517.0, 0.008708451840349837
518.0, 0.0100723621389861
519.0, 0.010710145997242652
520.0, 0.01380358316568214
521.0, 0.019162714894132418
522.0, 0.025180577933830554
523.0, 0.03216846376843083
524.0, 0.034925626638725456
525.0, 0.04069242449461877
526.0, 0.054828424777758795
527.0, 0.06521859828162342
528.0, 0.0769056211707625
529.0, 0.09525157266701723
530.0, 0.11334830316738621
531.0, 0.1281313506476311
532.0, 0.1447272191314089
533.0, 0.1660100950702081
534.0, 0.18507583561834184
535.0, 0.20413038405899783
536.0, 0.2235338033183939
537.0, 0.2425591721919604
538.0, 0.2639365620838609
539.0, 0.27808318992699843
540.0, 0.2766649681066962
541.0, 0.26016109249938746
542.0, 0.22840879124700383
543.0, 0.1815542665449148
544.0, 0.14761756173699916
545.0, 0.11525178423270178
546.0, 0.09038102682621578
547.0, 0.07574451809824256
548.0, 0.06631837560102243
549.0, 0.05373762257124871
550.0, 0.050601554119759855
551.0, 0.04453703870216732
552.0, 0.037701568140514126
553.0, 0.03686340647634836
554.0, 0.037822878547214604
555.0, 0.038472197517195036
556.0, 0.03671068857231972
557.0, 0.03692289630563373
558.0, 0.03707639394145324
559.0, 0.03219173336632142
560.0, 0.03051062822894806
561.0, 0.03265488832881352
562.0, 0.031157490749901266
563.0, 0.030477974327702984
564.0, 0.0332452779916522
565.0, 0.02771571977746353
566.0, 0.027827071469341456
567.0, 0.0268530750483934
568.0, 0.027463064189674338
569.0, 0.029637485022927606
570.0, 0.02869980389023732
571.0, 0.024226551573054075
572.0, 0.0264466527907752
573.0, 0.025172232823147803
574.0, 0.024096463839030673
575.0, 0.0248562308994695
576.0, 0.016690163807860557
577.0, 0.01903028599611958
578.0, 0.01999269952156003
579.0, 0.01820527927465016
580.0, 0.01403011514773015
581.0, 0.011122831107971822
582.0, 0.01831852794716233
583.0, 0.015925517616123534
584.0, 0.0087599670650705
585.0, 0.0050459441486463506
586.0, 0.006534765474281917
587.0, 0.010049198291632103
588.0, 0.01029364779712858
589.0, 0.006285234874080187
590.0, 0.005010765786324464
591.0, 0.006572118549450323
592.0, 0.005565213431213202
593.0, 0.0006407605517405125
594.0, 0.0009227286792764589
595.0, 0.0011960325169050243
596.0, 0.004287168577640419
597.0, 0.006875383196648061
598.0, 0.0039368266458877305
599.0, 0.010909313383625458
600.0, 0.011420795880397936
601.0, 0.01216309671442965
602.0, 0.013574653969535236
603.0, 0.01499246164662415
604.0, 0.01819082188729515
605.0, 0.021605445999362836
606.0, 0.020929723088814592
607.0, 0.025258217584583954
608.0, 0.03196808790750965
609.0, 0.03599621815005096
610.0, 0.04184585667357946
611.0, 0.04107118596377018
612.0, 0.045786873836837064
613.0, 0.05035042279987102
614.0, 0.052493987080266064
615.0, 0.055501395629130146
616.0, 0.0615847377502412
617.0, 0.06792176092393772
618.0, 0.076800277237969
619.0, 0.08481745431111971
620.0, 0.0944906023827376
621.0, 0.11060829679635133
622.0, 0.12293775877212593
623.0, 0.13603567479693016
624.0, 0.14800829757250925
625.0, 0.1587348242322334
626.0, 0.16862682500028967
627.0, 0.1768830336302194
628.0, 0.18150281459850448
629.0, 0.182707754673288
630.0, 0.18726701778295038
631.0, 0.19020095698423392
632.0, 0.18320948583579294
633.0, 0.16742766751949625
634.0, 0.1555932186370247
635.0, 0.1361920025902507
636.0, 0.12280982193380888
637.0, 0.1127806452806789
638.0, 0.1002924892421964
639.0, 0.09663732057401551
640.0, 0.09334044411395086
641.0, 0.08090936498859978
642.0, 0.06828423168405584
643.0, 0.0639802113588683
644.0, 0.06484689119230187
645.0, 0.054611165558529066
646.0, 0.048346638194743816
647.0, 0.03963065741315114
648.0, 0.030322224594014197
649.0, 0.027328555110186357
650.0, 0.030785550772201336
651.0, 0.026882677568594908
652.0, 0.019513122981874433
653.0, 0.016631208827987184
654.0, 0.015797701487819667
655.0, 0.01493495400772082
656.0, 0.014262357480216838
657.0, 0.013523276310718787
658.0, 0.01402324497569967
659.0, 0.01657824446314768
660.0, 0.01659604701458153
661.0, 0.01287042539504063
662.0, 0.009426812378568905
663.0, 0.009795829479415001
664.0, 0.01095751012292185
665.0, 0.007906415590207695
666.0, 0.008484971064110107
667.0, 0.009969121218935362
668.0, 0.0032745004438749503
669.0, 0.0013359816248491312
670.0, 0.0034133478078821025
671.0, 0.002707330985749171
672.0, 0.0036974055517411727
673.0, 0.005948206396253408
674.0, 0.004203207115073297
675.0, 0.0032970198100627335
676.0, 0.0014429228251019528
677.0, 0.0024119320317059064
678.0, 0.003782999986401125
679.0, 0.0030244125529075737
680.0, 0.0008302156994101483
681.0, 0.0006928944790794787
682.0, 0.0006002819118571801
683.0, 0.0010322522280669822
684.0, 0.005433861640661515
685.0, 0.006585974895809216
686.0, 0.0012927277687915057
687.0, 0.00300046730168937
688.0, 0.00148704800182192
689.0, 0.0006812137897024059
690.0, 0.0002539870108581098
691.0, 0.0012641005408356722
692.0, 0.001243064292214268
693.0, 0.0014457647124293312
694.0, 0.00043859166169831854
695.0, 0.0015339479188692302
696.0, 0.0010363902011778568
697.0, 0.002010898183707071
698.0, 0.002099827969471874
699.0, 0.0037137189552618167
700.0, 0.0025551883862676003
701.0, 0.004475271543023202
702.0, 0.001752092214164149
703.0, 0.00108850933035138
704.0, 0.001167905633623165
705.0, 0.0027693369574649457
706.0, 0.000932967477887137
707.0, 0.0034351729383807856
708.0, 0.0011354906458795474
709.0, 0.002409428692372954
710.0, 0.0023563499333501795
711.0, 0.0018353388116984814
712.0, 0.0013830462477948918
713.0, 0.0021187647386842344
714.0, 0.000602820063328214
715.0, 0.0015883919405754415
716.0, 0.0029672147639710146
717.0, 0.002055720317221636
718.0, 0.005505487076878735
719.0, 0.0008110625980874725
720.0, 0.001317342752212123
721.0, 0.004736810315614421
722.0, 0.005766264950379486
723.0, 0.005679438197111307
724.0, 0.007245800071943189
725.0, 0.0009400224168123941
726.0, 0.004973109829106777
727.0, 0.004924879904446172
728.0, 0.004471369683597246
729.0, 0.007405136229283034
730.0, 0.0035581550946000135
731.0, 0.0014207699535635655
732.0, 0.005953452917580187
733.0, 0.00911727057956277
734.0, 0.008485587797802714
735.0, 0.005380022559670298
736.0, 0.0031260552395322183
737.0, 0.00629081442531955
738.0, 0.009872488056392119
739.0, 0.01409625323047054
740.0, 0.015178344157728408
741.0, 0.01606615708816586
742.0, 0.01624406431217399
743.0, 0.008674772388845023
744.0, 0.010792711639743798
745.0, 0.008872407406722314
746.0, 0.009204282773568282
747.0, 0.010882793811205061
748.0, 0.010946379827954671
749.0, 0.010542512364904074
750.0, 0.010369688574441259
751.0, 0.010198810153642452
752.0, 0.0105856643218162
753.0, 0.01179701537699906
754.0, 0.012334457437341378
755.0, 0.010437703427180135
756.0, 0.008275890762084738
757.0, 0.014878271695255156
758.0, 0.014662413115205955
759.0, 0.01299000925903232
760.0, 0.013336708173736082
761.0, 0.01331654935571953
762.0, 0.010657382830052946
763.0, 0.007427998561719757
764.0, 0.01277441264503827
765.0, 0.013507020582209645
766.0, 0.011758337043313707
767.0, 0.011822609704383428
768.0, 0.012608368667621047
769.0, 0.011219162545645521
770.0, 0.012157513622443824
771.0, 0.008932105812918478
772.0, 0.006210097645833277
773.0, 0.008032364883700162
774.0, 0.00910192825780623
775.0, 0.006620646614089375
776.0, 0.013105652155211124
777.0, 0.008840439405167837
778.0, 0.008328400300722147
779.0, 0.00597825029742217
780.0, 0.004372172961434731
781.0, 0.006885545963771694
782.0, 0.007661245469525055
783.0, 0.006502696187733022
784.0, 0.006359190236544849
785.0, 0.003988207347742847
786.0, 0.0005265073490590558
787.0, 0.003203887915362813
788.0, 0.010374607974359316
789.0, 0.005052654023219598
790.0, 0.006243347429403643
791.0, 0.003433366850846737
792.0, 0.0030955123769454617
793.0, 0.00412778159677367
794.0, 0.0029057098186632308
795.0, 0.00039788118282784926
796.0, 0.00018864836799864886
797.0, 0.002270532015555118
798.0, 0.006793600623228235
799.0, 0.007044763632328804
800.0, 0.0051664986633819954
801.0, 0.00434302870092881
802.0, 0.0038283660945010395
803.0, 0.004149458158537729
804.0, 0.005463568986860959
805.0, 0.006321883828741709
806.0, 0.006511495071058666
807.0, 0.0055990884827279265
808.0, 0.005048311008338332
809.0, 0.006702722424303068
810.0, 0.007248051040102292
811.0, 0.008003839427637011
812.0, 0.00689956150040205
813.0, 0.01194684447831889
814.0, 0.016846408114971335
815.0, 0.014744396926899649
816.0, 0.01263854962113325
817.0, 0.01631670273575859
818.0, 0.020969081751626515
819.0, 0.01978679705139624
820.0, 0.022515493253569142
821.0, 0.030147792027729704
822.0, 0.035257749942144825
823.0, 0.0385022971864505
824.0, 0.050428579420672394
825.0, 0.058352245527025934
826.0, 0.06823072917586746
827.0, 0.07926911107914407
828.0, 0.09022032323806867
829.0, 0.10284572762196584
830.0, 0.1189454253373565
831.0, 0.13878524154149072
832.0, 0.15380231376407838
833.0, 0.1680302455320156
834.0, 0.1745360065439196
835.0, 0.17483759057725146
836.0, 0.17589693264788833
837.0, 0.17430172306012992
838.0, 0.1571169712435054
839.0, 0.13031484157109827
840.0, 0.10470282892194602
841.0, 0.08860223756235472
842.0, 0.07317378576088418
843.0, 0.05505560464700905
844.0, 0.04617707604767756
845.0, 0.03870693363574325
846.0, 0.032010200741327426
847.0, 0.023608504393191856
848.0, 0.019763703453423355
849.0, 0.015860184401036675
850.0, 0.012143718792572193
851.0, 0.015101854006073293
852.0, 0.010841247025802771
853.0, 0.014410980379914236
854.0, 0.01320895881232043
855.0, 0.010594241857619641
856.0, 0.01178739147892431
857.0, 0.011868066419996205
858.0, 0.004626875818384138
859.0, 0.0008281284651290219
860.0, 0.00025252262817266013
861.0, 0.0018643070257323064
862.0, 0.0031450196352309713
863.0, 0.005107897915897199
864.0, 0.005795508637245205
865.0, 0.003883673078033659
866.0, 0.005710804168251822
867.0, 0.00277711686620288
868.0, 0.0017388582987030198
869.0, 0.0010890223605695473
870.0, 0.0017310385422835788
871.0, 0.0017451445108880418
872.0, 0.0002798520423306767
873.0, 0.0015182101423563098
874.0, 0.002568195780605425
875.0, 0.0010929500142111582
876.0, 0.0012883817828218715
877.0, 0.0015926097582653542
878.0, 0.00307238116720667
879.0, 0.0013437026450264398
880.0, 0.0009688822969699518
881.0, 0.00028093958644628684
882.0, 0.0008450570660852583
883.0, 0.0015106091630825678
884.0, 0.0003170524044048508
885.0, 0.0008266834667420192
886.0, 0.0029780747967913935
887.0, 0.0032074001223702077
888.0, 0.000657128740841381
889.0, 0.001659264583317867
890.0, 0.001047438521313152
891.0, 0.002273264883962005
892.0, 0.0032073517897769207
893.0, 0.0019587528661943613
894.0, 0.0007666297534559591
895.0, 0.0016841701732866676
896.0, 0.004568856397844232
897.0, 0.0013912969904897653
898.0, 0.0013892235916987583
899.0, 0.0027460339203272746
900.0, 0.005011452646395181
901.0, 0.0041416114584903
902.0, 0.002473515107916816
903.0, 0.004165184791066548
904.0, 0.0035472392990049256
905.0, 0.005274065359642355
906.0, 0.0043390218312079586
907.0, 0.0026686087898971055
908.0, 0.006270410515269593
909.0, 0.011279913130509665
910.0, 0.010242951467454573
911.0, 0.009258179316234853
912.0, 0.007187497232218577
913.0, 0.01011649368437684
914.0, 0.008915024030391157
915.0, 0.006886422665221792
916.0, 0.005819613041266527
917.0, 0.007005540195819955
918.0, 0.011771482806601214
919.0, 0.007907624544338996
920.0, 0.010109654427839586
921.0, 0.007640608268804954
922.0, 0.005979412808060621
923.0, 0.006111985203485396
924.0, 0.007638356632540925
925.0, 0.009624028686828484
926.0, 0.008111273251091055
927.0, 0.00635704022555628
928.0, 0.007659587477988225
929.0, 0.00624880750480713
930.0, 0.004110522106755898
931.0, 0.004491112866529805
932.0, 0.007481030102386493
933.0, 0.009749322982226555
934.0, 0.007391747026623314
935.0, 0.005165064543923796
936.0, 0.0067497188494044765
937.0, 0.00605554633349185
938.0, 0.002737118724454804
939.0, 0.0035516343555986015
940.0, 0.007400390852366373
941.0, 0.006373480492942695
942.0, 0.0014488313422638885
943.0, 0.005554072762393981
944.0, 0.0015085076875308043
945.0, 0.0010444114116177604
946.0, 0.0018221058234353447
947.0, 0.0023043233454941394
948.0, 0.002467054612370612
949.0, 0.0037119747320745566
950.0, 0.0028118285960878437
951.0, 0.00037647063468679716
952.0, 0.003324048365946702
953.0, 0.002949112824306724
954.0, 0.0038896641778377
955.0, 0.0024112123457314272
956.0, 0.006090760218024026
957.0, 0.0012956663242611993
958.0, 0.0023407783606902237
959.0, 0.00047969862388811215
960.0, 0.0010773723226206477
961.0, 0.0026260048121262555
962.0, 0.005037432537643083
963.0, 0.0017133118994095064
964.0, 3.999336267698013e-05
965.0, 0.0031817203966791846
966.0, 0.002455828425393247
967.0, 0.004682946494544707
968.0, 0.0014205310682803057
969.0, 0.0008858930380125666
970.0, 0.0006060857226618634
971.0, 0.002051482695864758
972.0, 0.004820456893793207
973.0, 0.0072836711629909075
974.0, 0.010411665824576317
975.0, 0.009167105336515543
976.0, 0.005357051013287916
977.0, 0.012735232992246926
978.0, 0.01157700038502321
979.0, 0.012431916256736003
980.0, 0.017375461764767248
981.0, 0.01923343990276716
982.0, 0.019818415626221646
983.0, 0.0207167576370008
984.0, 0.01732492699190492
985.0, 0.019535187777581065
986.0, 0.0197891260853561
987.0, 0.014353837283332409
988.0, 0.016830838455531773
989.0, 0.021532689475587317
990.0, 0.01646158895565513
991.0, 0.015937779981922494
992.0, 0.013544964857945421
993.0, 0.015146145200241837
994.0, 0.014291484905785195
995.0, 0.01165526931750343
996.0, 0.013327211266684935
997.0, 0.01584349701298374
998.0, 0.012898866875933356
999.0, 0.011170554527815289
1000.0, 0.01915998843589451
1001.0, 0.02210924922886015
1002.0, 0.023628833929954126
1003.0, 0.024308449985278178
1004.0, 0.02937047317601358
1005.0, 0.03445075190482589
1006.0, 0.03883647065286669
1007.0, 0.0472416302914057
1008.0, 0.05619503310881115
1009.0, 0.06365856968454815
1010.0, 0.07715453955438045
1011.0, 0.09763475882856801
1012.0, 0.12990566922977909
1013.0, 0.17071267400482898
1014.0, 0.2178870596766439
1015.0, 0.2770457865291645
1016.0, 0.35212207916612526
1017.0, 0.44054990201604965
1018.0, 0.5278789999170866
1019.0, 0.6281326192828856
1020.0, 0.7246314675283883
1021.0, 0.8294983076164189
1022.0, 0.9212567887116123
1023.0, 0.9732854097504063
1024.0, 0.962536211590301
1025.0, 0.8670897718025438
1026.0, 0.7089611958088259
1027.0, 0.5611902632187868
1028.0, 0.43525955258362725
1029.0, 0.35940657285480715
1030.0, 0.3256625541626376
1031.0, 0.3294797014904607
1032.0, 0.3676076105708594
1033.0, 0.42842207557863854
1034.0, 0.5010472456717928
1035.0, 0.5831656033367708
1036.0, 0.6743783067943564
1037.0, 0.7777181352875063
1038.0, 0.8651052076069156
1039.0, 0.9381083595901045
1040.0, 0.9913604430863391
1041.0, 0.9836152117732768
1042.0, 0.873328961393798
1043.0, 0.6846447161243916
1044.0, 0.4952621952704653
1045.0, 0.33604662446277056
1046.0, 0.23494912405161095
1047.0, 0.1548628374884278
1048.0, 0.10554515748321189
1049.0, 0.07620266774543419
1050.0, 0.05601840202609744
1051.0, 0.041015011458586784
1052.0, 0.024572872039189994
1053.0, 0.014641431590093885
1054.0, 0.01604617788483159
1055.0, 0.007777514369199686
1056.0, 0.0015879438683151646
1057.0, 0.000944208074757842
1058.0, 0.0016625834660487125
1059.0, 0.003518098195371014
1060.0, 0.001140033940139016
1061.0, 0.0013418366699445722
1062.0, 0.008099173138347222
1063.0, 0.007208393548640269
1064.0, 0.009966933138235642
1065.0, 0.009689223622605945
1066.0, 0.015759154225799155
1067.0, 0.020043895841621126
1068.0, 0.02452719377393993
1069.0, 0.030526515766776095
1070.0, 0.03493129913607849
1071.0, 0.03974010318115095
1072.0, 0.045197698132740466
1073.0, 0.050111229278599366
1074.0, 0.05695226095399625
1075.0, 0.059934503016949886
1076.0, 0.060099383924859105
1077.0, 0.06223515703802916
1078.0, 0.059712442720357875
1079.0, 0.053263427290786515
1080.0, 0.05008971590196003
1081.0, 0.04345658168703576
1082.0, 0.03743008052269682
1083.0, 0.031939092324711794
1084.0, 0.025798275331273553
1085.0, 0.01736539306395976
1086.0, 0.013262484783711942
1087.0, 0.018878850112906614
1088.0, 0.02376643423837981
1089.0, 0.018445757110609105
1090.0, 0.016043346550426642
1091.0, 0.02885161492026852
1092.0, 0.027682064202893007
1093.0, 0.033735541154972536
1094.0, 0.03954935269353689
1095.0, 0.048725721061536095
1096.0, 0.05127170871801279
1097.0, 0.053888172595473474
1098.0, 0.05632807584464338
1099.0, 0.055655621053106764
1100.0, 0.05673420372545553
1101.0, 0.04798698302620619
1102.0, 0.03951779543348299
1103.0, 0.036069669525957755
1104.0, 0.0310393851954916
1105.0, 0.02268508942167098
1106.0, 0.0138913479969361
1107.0, 0.00997970331343353
1108.0, 0.009530365612841386
1109.0, 0.006013213601876929
1110.0, 0.0006940686330778984
1111.0, 0.003168762656347411
1112.0, 0.009509733975252089
1113.0, 0.0025768888220494487
1114.0, 0.0002629565770382803
1115.0, 0.00032190101909472567
1116.0, 0.0017197509251879474
1117.0, 0.003674549038785675
1118.0, 0.0021667655946115616
1119.0, 0.0012626372144867936
1120.0, 0.004216671692969771
1121.0, 0.001275751228606749
1122.0, 0.00203035279253991
1123.0, 0.00031211534059179025
1124.0, 0.0009307741569627868
1125.0, 0.0001095465816278658
1126.0, 0.0028910991315393235
1127.0, 0.0011496818332786356
1128.0, 0.0019217638688260102
1129.0, 0.00032407251774058
1130.0, 0.000953358664131972
1131.0, 0.002671372529202845
1132.0, 0.0003626984190080822
1133.0, 0.00045894981540484147
1134.0, 0.002892319724507269
1135.0, 0.0038256447928860108
1136.0, 0.0024561457344757396
1137.0, 0.0009612437804304377
1138.0, 0.0019474563286407528
1139.0, 0.0007008509795127861
1140.0, 0.005759969150552847
1141.0, 0.00475493355669431
1142.0, 0.008368282918527195
1143.0, 0.011157471370454307
1144.0, 0.009049136986127125
1145.0, 0.010261722941823082
1146.0, 0.019574615040421274
1147.0, 0.024694945951605984
1148.0, 0.021388082045285556
1149.0, 0.020756613641828913
1150.0, 0.02349143711614949
1151.0, 0.02418909687652205
1152.0, 0.025568188648303503
1153.0, 0.022520113184214468
1154.0, 0.02463546031397054
1155.0, 0.023485015980162303
1156.0, 0.02765380388736301
1157.0, 0.034137313130857265
1158.0, 0.034590068988316555
1159.0, 0.03413975056919439
1160.0, 0.03616879475840843
1161.0, 0.03502345730140898
1162.0, 0.02942444220750572
1163.0, 0.025427889894514888
1164.0, 0.024159645808280228
1165.0, 0.02107684582889179
1166.0, 0.017237772798833265
1167.0, 0.021405339597771394
1168.0, 0.02547027129481942
1169.0, 0.0300692348944256
1170.0, 0.03214972185904052
1171.0, 0.03530779133211958
1172.0, 0.04188483830964921
1173.0, 0.04806473989499065
1174.0, 0.05230948109214943
1175.0, 0.05654622004133733
1176.0, 0.06499471035547418
1177.0, 0.06742609631990588
1178.0, 0.06597064547365387
1179.0, 0.06675412581140311
1180.0, 0.0686464683199064
1181.0, 0.06215828816280997
1182.0, 0.05812729567340347
1183.0, 0.06334929964592707
1184.0, 0.0676129354873138
1185.0, 0.06845229606173646
1186.0, 0.07771066421484328
1187.0, 0.09062051546942472
1188.0, 0.10265008283783982
1189.0, 0.11522095536009921
1190.0, 0.13263247209289533
1191.0, 0.14433853859504925
1192.0, 0.16281163181644764
1193.0, 0.17682536854753228
1194.0, 0.18222694190770172
1195.0, 0.1888917697306368
1196.0, 0.19355815951251668
1197.0, 0.18934940943349957
1198.0, 0.18689334785110004
1199.0, 0.16976539717376413
1200.0, 0.15325971327972285
1201.0, 0.1307183365698042
1202.0, 0.11787855787373762
1203.0, 0.10964177415385842
1204.0, 0.10186141378542987
1205.0, 0.09869429472759447
1206.0, 0.10152317330812832
1207.0, 0.10665020141280679
1208.0, 0.10930754304525961
1209.0, 0.10784355636321835
1210.0, 0.10295240754507513
1211.0, 0.09465042776028566
1212.0, 0.08674808641989631
1213.0, 0.073169395822554
1214.0, 0.060665912247833714
1215.0, 0.04764786743771297
1216.0, 0.03666560094790926
1217.0, 0.030316233260107458
1218.0, 0.02449553295741795
1219.0, 0.018615567563290775
1220.0, 0.017966517322929015
1221.0, 0.018840318589061236
1222.0, 0.00972516670512298
1223.0, 0.009321211484784613
1224.0, 0.009744021558152712
1225.0, 0.007673590436710328
1226.0, 0.0009808670851145479
1227.0, 0.002703794915212483
1228.0, 0.006377963631264311
1229.0, 0.007500497754917228
1230.0, 0.008106378587489882
1231.0, 0.0074364792441432796
1232.0, 0.005549856752083266
1233.0, 0.0040266890419309665
1234.0, 0.0013246154070000523
1235.0, 0.003614573383853149
1236.0, 0.0066844671384922935
1237.0, 0.0009577682937323225
1238.0, 0.00033402105763750246
1239.0, 0.0010823653441086227
1240.0, 0.002508994924854881
1241.0, 0.001012650549966675
1242.0, 0.0005937273921635545
1243.0, 0.0005889909537773635
1244.0, 0.000463470400400564
1245.0, 0.001522079470198911
1246.0, 0.000461366308411014
1247.0, 0.005406674994684027
1248.0, 0.005300924231861562
1249.0, 0.004433769159084629
1250.0, 0.0028687884431537313
1251.0, 0.00284271674881412
1252.0, 0.00051972484536615
1253.0, 0.000506427662899184
1254.0, 0.0016250295450743473
1255.0, 0.004864986703610517
1256.0, 0.005577747212392052
1257.0, 0.006857076621276145
1258.0, 0.008226462242209916
1259.0, 0.005990124941953181
1260.0, 0.006636313942520445
1261.0, 0.009035684843958109
1262.0, 0.009447865511165502
1263.0, 0.007840593914758288
1264.0, 0.011887186552542239
1265.0, 0.008288350606047204
1266.0, 0.014463219107731953
1267.0, 0.015202187744829654
1268.0, 0.012656184317692972
1269.0, 0.007261548547775507
1270.0, 0.009925169043308694
1271.0, 0.013696704248147494
1272.0, 0.014013258490616274
1273.0, 0.014852386549948218
1274.0, 0.008525020884231613
1275.0, 0.016658722861017026
1276.0, 0.013172908011361608
1277.0, 0.015153029803238925
1278.0, 0.012494995356858506
1279.0, 0.01374936119424289
1280.0, 0.01313309942291803
1281.0, 0.01393083309732469
1282.0, 0.010333172027775436
1283.0, 0.01066136456933818
1284.0, 0.01213141490390591
1285.0, 0.014315539421211325
1286.0, 0.017079426953918578
1287.0, 0.01261617656778897
1288.0, 0.007728810341769711
1289.0, 0.01358850497334742
1290.0, 0.012289610938554072
1291.0, 0.013138039133052459
1292.0, 0.0053900972238026335
1293.0, 0.00651560209493169
1294.0, 0.007779328694263895
1295.0, 0.00352326894029484
1296.0, 0.010293624739939191
1297.0, 0.006027059565161198
1298.0, 0.0051805163239134495
1299.0, 0.004829678077360277
1300.0, 0.0018747202732683891
1301.0, 0.003915496955200722
1302.0, 0.005297721866424793
1303.0, 0.007030289504962997
1304.0, 0.001126493697466955
1305.0, 0.0008408501105475214
1306.0, 0.0046903568152967985
1307.0, 0.0005517330896040298
1308, 0.0
1309, 0.0
1310, 0.0
1311, 0.0
1312, 0.0
1313, 0.0
1314, 0.0
1315, 0.0
1316, 0.0
1317, 0.0
1318, 0.0
1319, 0.0
1320, 0.0
1321, 0.0
1322, 0.0
1323, 0.0
1324, 0.0
1325, 0.0
1326, 0.0
1327, 0.0
1328, 0.0
1329, 0.0
1330, 0.0
1331, 0.0
1332, 0.0
1333, 0.0
1334, 0.0
1335, 0.0
1336, 0.0
1337, 0.0
1338, 0.0
1339, 0.0
1340, 0.0
1341, 0.0
1342, 0.0
1343, 0.0
1344, 0.0
1345, 0.0
1346, 0.0
1347, 0.0
1348, 0.0
1349, 0.0
1350, 0.0
1351, 0.0
1352, 0.0
1353, 0.0
1354, 0.0
1355, 0.0
1356, 0.0
1357, 0.0
1358, 0.0
1359, 0.0
1360, 0.0
1361, 0.0
1362, 0.0
1363, 0.0
1364, 0.0
1365, 0.0
1366, 0.0
1367, 0.0
1368, 0.0
1369, 0.0
1370, 0.0
1371, 0.0
1372, 0.0
1373, 0.0
1374, 0.0
1375, 0.0
1376, 0.0
1377, 0.0
1378, 0.0
1379, 0.0
1380, 0.0
1381, 0.0
1382, 0.0
1383, 0.0
1384, 0.0
1385, 0.0
1386, 0.0
1387, 0.0
1388, 0.0
1389, 0.0
1390, 0.0
1391, 0.0
1392, 0.0
1393, 0.0
1394, 0.0
1395, 0.0
1396, 0.0
1397, 0.0
1398, 0.0
1399, 0.0
1400, 0.0
1401, 0.0
1402, 0.0
1403, 0.0
1404, 0.0
1405, 0.0
1406, 0.0
1407, 0.0
1408, 0.0
1409, 0.0
1410, 0.0
1411, 0.0
1412, 0.0
1413, 0.0
1414, 0.0
1415, 0.0
1416, 0.0
1417, 0.0
1418, 0.0
1419, 0.0
1420, 0.0
1421, 0.0
1422, 0.0
1423, 0.0
1424, 0.0
1425, 0.0
1426, 0.0
1427, 0.0
1428, 0.0
1429, 0.0
1430, 0.0
1431, 0.0
1432, 0.0
1433, 0.0
1434, 0.0
1435, 0.0
1436, 0.0
1437, 0.0
1438, 0.0
1439, 0.0
1440, 0.0
1441, 0.0
1442, 0.0
1443, 0.0
1444, 0.0
1445, 0.0
1446, 0.0
1447, 0.0
1448, 0.0
1449, 0.0
1450, 0.0
1451, 0.0
1452, 0.0
1453, 0.0
1454, 0.0
1455, 0.0
1456, 0.0
1457, 0.0
1458, 0.0
1459, 0.0
1460, 0.0
1461, 0.0
1462, 0.0
1463, 0.0
1464, 0.0
1465, 0.0
1466, 0.0
1467, 0.0
1468, 0.0
1469, 0.0
1470, 0.0
1471, 0.0
1472, 0.0
1473, 0.0
1474, 0.0
1475, 0.0
1476, 0.0
1477, 0.0
1478, 0.0
1479, 0.0
1480, 0.0
1481, 0.0
1482, 0.0
1483, 0.0
1484, 0.0
1485, 0.0
1486, 0.0
1487, 0.0
1488, 0.0
1489, 0.0
1490, 0.0
1491, 0.0
1492, 0.0
1493, 0.0
1494, 0.0
1495, 0.0
1496, 0.0
1497, 0.0
1498, 0.0
1499, 0.0
1500, 0.0
1501, 0.0
1502, 0.0
1503, 0.0
1504, 0.0
1505, 0.0
1506, 0.0
1507, 0.0
1508, 0.0
1509, 0.0
1510, 0.0
1511, 0.0
1512, 0.0
1513, 0.0
1514, 0.0
1515, 0.0
1516, 0.0
1517, 0.0
1518, 0.0
1519, 0.0
1520, 0.0
1521, 0.0
1522, 0.0
1523, 0.0
1524, 0.0
1525, 0.0
1526, 0.0
1527, 0.0
1528, 0.0
1529, 0.0
1530, 0.0
1531, 0.0
1532, 0.0
1533, 0.0
1534, 0.0
1535, 0.0
1536, 0.0
1537, 0.0
1538, 0.0
1539, 0.0
1540, 0.0
1541, 0.0
1542, 0.0
1543, 0.0
1544, 0.0
1545, 0.0
1546, 0.0
1547, 0.0
1548, 0.0
1549, 0.0
1550, 0.0
1551, 0.0
1552, 0.0
1553, 0.0
1554, 0.0
1555, 0.0
1556, 0.0
1557, 0.0
1558, 0.0
1559, 0.0
1560, 0.0
1561, 0.0
1562, 0.0
1563, 0.0
1564, 0.0
1565, 0.0
1566, 0.0
1567, 0.0
1568, 0.0
1569, 0.0
1570, 0.0
1571, 0.0
1572, 0.0
1573, 0.0
1574, 0.0
1575, 0.0
1576, 0.0
1577, 0.0
1578, 0.0
1579, 0.0
1580, 0.0
1581, 0.0
1582, 0.0
1583, 0.0
1584, 0.0
1585, 0.0
1586, 0.0
1587, 0.0
1588, 0.0
1589, 0.0
1590, 0.0
1591, 0.0
1592, 0.0
1593, 0.0
1594, 0.0
1595, 0.0
1596, 0.0
1597, 0.0
1598, 0.0
1599, 0.0
