30, 0.0
31, 0.0
32, 0.0
33, 0.0
34, 0.0
35, 0.0
36, 0.0
37, 0.0
38, 0.0
39, 0.0
40, 0.0
41, 0.0
42, 0.0
43, 0.0
44, 0.0
45, 0.0
46, 0.0
47, 0.0
48, 0.0
49, 0.0
50, 0.0
51, 0.0
52, 0.0
53, 0.0
54, 0.0
55, 0.0
56, 0.0
57, 0.0
58, 0.0
59, 0.0
60, 0.0
61, 0.0
62, 0.0
63, 0.0
64, 0.0
65, 0.0
66, 0.0
67, 0.0
68, 0.0
69, 0.0
70, 0.0
71, 0.0
72, 0.0
73, 0.0
74, 0.0
75, 0.0
76, 0.0
77, 0.0
78, 0.0
79, 0.0
80, 0.0
81, 0.0
82, 0.0
83, 0.0
84, 0.0
85, 0.0
86, 0.0
87, 0.0
88, 0.0
89, 0.0
90, 0.0
91, 0.0
92, 0.0
93, 0.0
94, 0.0
95, 0.0
96, 0.0
97, 0.0
98, 0.0
99, 0.0
100, 0.0
101, 0.0
102, 0.0
103, 0.0
104, 0.0
105, 0.0
106, 0.0
107, 0.0
108, 0.0
109, 0.0
110, 0.0
111, 0.0
112, 0.0
113, 0.0
114, 0.0
115, 0.0
116, 0.0
117, 0.0
118, 0.0
119, 0.0
120, 0.0
121, 0.0
122, 0.0
123, 0.0
124, 0.0
125, 0.0
126, 0.0
127, 0.0
128, 0.0
129, 0.0
130, 0.0
131, 0.0
132, 0.0
133, 0.0
134, 0.0
135, 0.0
136, 0.0
137, 0.0
138, 0.0
139, 0.0
140, 0.0
141, 0.0
142, 0.0
143, 0.0
144, 0.0
145, 0.0
146, 0.0
147, 0.0
148, 0.0
149, 0.0
150, 0.0
151, 0.0
152, 0.0
153, 0.0
154, 0.0
155, 0.0
156, 0.0
157, 0.0
158, 0.0
159, 0.0
160, 0.0
161, 0.0
162, 0.0
163, 0.0
164, 0.0
165, 0.0
166, 0.0
167, 0.0
168.0, 0.0017980221358618097
169.0, 0.0065699469699945275
170.0, 0.021938785256184878
171.0, 0.03149049081720329
172.0, 0.02939367153680831
173.0, 0.022173914835705265
174.0, 0.02804044776826989
175.0, 0.021262260088078983
176.0, 0.013994455131890573
177.0, 0.01226164565000549
178.0, 0.010826993544906285
179.0, 0.004939233087618577
180.0, 0.0017136842866228848
181.0, 0.0014973940471161172
182.0, 0.0010389983963430393
183.0, 0.0022329482894200923
184.0, 0.0017725580304154681
185.0, 0.004259384544643637
186.0, 0.005659764339234325
187.0, 0.010300190453762549
188.0, 0.010412502601884213
189.0, 0.005493192775501832
190.0, 0.0020741763506895786
191.0, 0.003935143547510189
192.0, 0.009911650295792836
193.0, 0.018797170134408035
194.0, 0.02953409214385851
195.0, 0.034232293590145124
196.0, 0.02704710777360818
197.0, 0.02240492212674417
198.0, 0.023418881920610903
199.0, 0.0289976508265452
200.0, 0.03152217943612405
201.0, 0.020387116326176163
202.0, 0.02748566722965533
203.0, 0.02414619313369304
204.0, 0.017624393253827402
205.0, 0.019985624231658217
206.0, 0.012903979516247723
207.0, 0.022401153771325445
208.0, 0.024551369764727486
209.0, 0.02029282734827877
210.0, 0.02651035858973584
211.0, 0.027959942842238704
212.0, 0.03621267896408263
213.0, 0.03212547809119531
214.0, 0.017946340533345265
215.0, 0.017700116926857537
216.0, 0.012133376928586839
217.0, 0.003130215137166995
218.0, 0.004727266718321299
219.0, 0.001985179965104473
220.0, 0.0017778109115514306
221.0, 0.007578186125625083
222.0, 0.011152850121901543
223.0, 0.011365526790306123
224.0, 0.0132197827502166
225.0, 0.0074642685225472126
226.0, 0.014962229993302418
227.0, 0.023570262564192195
228.0, 0.024281161055010197
229.0, 0.025866991483520167
230.0, 0.023540857261582126
231.0, 0.025334097991641297
232.0, 0.035495040561151825
233.0, 0.04665165313476822
234.0, 0.04459124390912373
235.0, 0.04678802936145855
236.0, 0.05392092546961727
237.0, 0.060384671275168035
238.0, 0.06486412809232159
239.0, 0.07793161043811024
240.0, 0.08514865765411073
241.0, 0.09370445787973183
242.0, 0.10777618360094275
243.0, 0.12249733340481803
244.0, 0.1284821975384101
245.0, 0.12728193222522655
246.0, 0.1274376088426198
247.0, 0.13112007822757776
248.0, 0.13153680698626724
249.0, 0.12355083835665572
250.0, 0.11603046901705874
251.0, 0.10826656562985512
252.0, 0.10017107364588085
253.0, 0.10562256179671531
254.0, 0.1054142532954581
255.0, 0.10273465557914817
256.0, 0.09869208149029186
257.0, 0.08961730619953161
258.0, 0.07175461087121894
259.0, 0.08041007771448158
260.0, 0.0859526296722222
261.0, 0.07380294220419029
262.0, 0.060240554423464494
263.0, 0.053245725674505244
264.0, 0.05314981395170995
265.0, 0.05371606592978648
266.0, 0.05312346305137129
267.0, 0.05526881549665709
268.0, 0.04483688323763973
269.0, 0.03712458999073942
270.0, 0.03885856425696885
271.0, 0.04408271696489875
272.0, 0.04123626587113217
273.0, 0.0410448120010825
274.0, 0.045766287518902896
275.0, 0.049987231861849085
276.0, 0.05069190354381993
277.0, 0.052187056384887895
278.0, 0.05356266757248361
279.0, 0.05833736489163973
280.0, 0.06683472332402246
281.0, 0.07339876716944162
282.0, 0.06785559202130871
283.0, 0.0779628501029111
284.0, 0.07809559238007424
285.0, 0.07337731103396937
286.0, 0.0782050069922416
287.0, 0.07747574749806854
288.0, 0.08262026301178438
289.0, 0.08221741707088483
290.0, 0.07579240875506821
291.0, 0.0720011005408752
292.0, 0.08722719358216177
293.0, 0.09237102583203911
294.0, 0.09247842442968164
295.0, 0.0908265649007592
296.0, 0.08471049099201222
297.0, 0.07927785836683747
298.0, 0.06911639866018775
299.0, 0.05159708837843116
300.0, 0.03929739737836067
301.0, 0.04167217566022707
302.0, 0.0315454891692981
303.0, 0.021819933305891732
304.0, 0.014433600097694382
305.0, 0.007665509152904913
306.0, 0.0018722002917737992
307.0, 0.00282607506260568
308.0, 0.00433553732164837
309.0, 0.0037090691684318004
310.0, 0.0035859679529320725
311.0, 0.005382483306894588
312.0, 0.004602818515005902
313.0, 0.0014608367656371586
314.0, 0.0015112041430030182
315.0, 0.002412561422445814
316.0, 0.0034990979881172526
317.0, 0.000807716857306426
318.0, 0.0007366101818031114
319.0, 0.0020502705588990194
320.0, 0.003683916260384401
321.0, 0.011033035932136274
322.0, 0.01951773265097201
323.0, 0.02065716020510269
324.0, 0.02744803980604918
325.0, 0.035613001560237195
326.0, 0.035153250488172916
327.0, 0.04608577806261966
328.0, 0.042564672328617575
329.0, 0.04075970238098381
330.0, 0.03853995942414622
331.0, 0.020946006740803366
332.0, 0.018665504768978266
333.0, 0.026511838566947606
334.0, 0.02949382247166685
335.0, 0.026631331039509192
336.0, 0.026161414577904087
337.0, 0.023499031260337106
338.0, 0.030440666962272468
339.0, 0.0290242128736715
340.0, 0.025297335572987013
341.0, 0.03256235883041888
342.0, 0.030417259031063612
343.0, 0.028753330350554905
344.0, 0.027401170125885138
345.0, 0.028676526409083015
346.0, 0.031288974017093255
347.0, 0.02167359271619752
348.0, 0.015196275805584632
349.0, 0.01914452419400155
350.0, 0.023374537822672126
351.0, 0.019760754605777222
352.0, 0.019985752035233475
353.0, 0.0266517144643957
354.0, 0.01804079300842335
355.0, 0.013378911218621373
356.0, 0.02121615990701004
357.0, 0.020321879571787084
358.0, 0.021881225424943248
359.0, 0.01833908251771258
360.0, 0.0177560511420964
361.0, 0.019823183133830392
362.0, 0.018548617107754246
363.0, 0.02187678485437642
364.0, 0.024234707261649654
365.0, 0.02200814318154494
366.0, 0.01669685603636882
367.0, 0.011084323685259044
368.0, 0.006196202666450486
369.0, 0.010633305589574182
370.0, 0.015916043467022585
371.0, 0.011688916884302271
372.0, 0.0011030848447611602
373.0, 0.009649841521059828
374.0, 0.006045235420023783
375.0, 0.007456847621699162
376.0, 0.008412808387150273
377.0, 0.0047027703419282
378.0, 0.006651976119936739
379.0, 0.00886819351820597
380.0, 0.0026316834733353433
381.0, 0.0034679818861209563
382.0, 0.001556342896990961
383.0, 0.004777010338792569
384.0, 0.0003540875532223167
385.0, 0.003434347540894675
386.0, 0.003431433340849957
387.0, 0.008405468761490434
388.0, 0.004227149458180847
389.0, 0.001309748765356015
390.0, 0.0005339689667572181
391.0, 0.0038030085639918962
392.0, 0.005063142404525596
393.0, 0.00542248663895534
394.0, 0.01419251431855352
395.0, 0.0033510692251290334
396.0, 0.008743281837671086
397.0, 0.015791408353676113
398.0, 0.014990589055998864
399.0, 0.019402797954871806
400.0, 0.013135821844369806
401.0, 0.014020595118022198
402.0, 0.012787335514231437
403.0, 0.009088070703188577
404.0, 0.012574582450047198
405.0, 0.021172614658270254
406.0, 0.015144516416370227
407.0, 0.018244499324176017
408.0, 0.028891408292599837
409.0, 0.032017757499475843
410.0, 0.028534635806761643
411.0, 0.02909715226088143
412.0, 0.034048574992784776
413.0, 0.03415625175008638
414.0, 0.031972701592783204
415.0, 0.036803460692545004
416.0, 0.043361783602690634
417.0, 0.04187170112173794
418.0, 0.04339490587217148
419.0, 0.04968207183789382
420.0, 0.05708939131459383
421.0, 0.06391071578708757
422.0, 0.05821378034360686
423.0, 0.0702459659199668
424.0, 0.0789131466545754
425.0, 0.08876631031857968
426.0, 0.11722422964014897
427.0, 0.12851945771521125
428.0, 0.14332843594523537
429.0, 0.15708844383866843
430.0, 0.17386328750387825
431.0, 0.19897186944324327
432.0, 0.22676819699501657
433.0, 0.2457152917308357
434.0, 0.2727479530644834
435.0, 0.3107760096945314
436.0, 0.35347390470010626
437.0, 0.38769026293413583
438.0, 0.4010329442815827
439.0, 0.4374186626191535
440.0, 0.46183135874176706
441.0, 0.4596611265910122
442.0, 0.4354986336970597
443.0, 0.39426241666732986
444.0, 0.35597448153780964
445.0, 0.31535149617378916
446.0, 0.2820728405916795
447.0, 0.26307539187327256
448.0, 0.25318124033809386
449.0, 0.24355945112585475
450.0, 0.24791807317783476
451.0, 0.24665081253491705
452.0, 0.23542155836648512
453.0, 0.21516013907561815
454.0, 0.18902852307553067
455.0, 0.17703634873332438
456.0, 0.15238723407044713
457.0, 0.13687686885917053
458.0, 0.13156436701127922
459.0, 0.12688243195061094
460.0, 0.1215722057862679
461.0, 0.12128164040706842
462.0, 0.12428383381573717
463.0, 0.12626475611528737
464.0, 0.123972548543742
465.0, 0.11663305626292385
466.0, 0.10660801357520099
467.0, 0.09822662993895011
468.0, 0.09317901811445166
469.0, 0.0847087210361345
470.0, 0.07330916963133147
471.0, 0.0630746786300576
472.0, 0.05107643228871418
473.0, 0.05324200960430856
474.0, 0.04761015126208235
475.0, 0.03629248780546478
476.0, 0.027418821239923848
477.0, 0.021034433212583522
478.0, 0.022026082609817196
479.0, 0.014976666885358349
480.0, 0.005587142509963716
481.0, 0.002883469246793807
482.0, 0.004232145161690908
483.0, 0.0012701878350115173
484.0, 0.006439662067148307
485.0, 0.0020928930538977675
486.0, 0.0012604255202674024
487.0, 0.0022134235607608388
488.0, 0.0026784021857510195
489.0, 0.012442631357301927
490.0, 0.007272088473973709
491.0, 0.009257572462352554
492.0, 0.013186646090478376
493.0, 0.015284500062574799
494.0, 0.015934796628613915
495.0, 0.004563996799137492
496.0, 0.010873042605816908
497.0, 0.003255996728932424
498.0, 0.003906619456665967
499.0, 0.0007099049032133696
500.0, 0.00022165180378482175
501.0, 0.0007118368556243374
502.0, 0.000781111461021139
503.0, 0.0009036088575771769
504.0, 0.0013751014752693958
505.0, 0.0013101373531736289
506.0, 0.007072358431103198
507.0, 0.001853461494044575
508.0, 0.0028406751823420433
509.0, 0.001118377628719927
510.0, 0.0038761210753998606
511.0, 0.00964031447658686
512.0, 0.0021948351574761164
513.0, 0.0036493180825448975
514.0, 0.003731419795136133
515.0, 0.0038778488476889435
516.0, 0.0032004278067014314
517.0, 0.00269974195790957
518.0, 0.0050028766175422386
519.0, 0.004307434319715845
520.0, 0.006388869994965043
521.0, 0.007858999089711355
522.0, 0.007321122286799969
523.0, 0.007664814543813526
524.0, 0.010592653369568288
525.0, 0.01197361462388081
526.0, 0.014909922162606165
527.0, 0.01723490313533347
528.0, 0.018424352978474712
529.0, 0.020459552659796994
530.0, 0.02302063975091336
531.0, 0.020334277384704898
532.0, 0.013118510878270324
533.0, 0.011564418577577064
534.0, 0.014946435069280993
535.0, 0.016491664924491556
536.0, 0.015504384768813405
537.0, 0.020528228096785395
538.0, 0.021505824884060463
539.0, 0.021213997530806352
540.0, 0.02333561231450977
541.0, 0.022494917003146098
542.0, 0.015403994569134872
543.0, 0.015283420649952625
544.0, 0.022678130744585162
545.0, 0.028000953931806648
546.0, 0.023368004899909933
547.0, 0.023214385787823855
548.0, 0.0316663730134569
549.0, 0.026064930568721247
550.0, 0.015993525991091034
551.0, 0.02265760147390708
552.0, 0.023176672212160555
553.0, 0.022943025305711066
554.0, 0.03477860463119677
555.0, 0.038737762458396614
556.0, 0.03980069392848318
557.0, 0.040282787848438834
558.0, 0.04152798893926373
559.0, 0.0467701461165097
560.0, 0.04945796151906681
561.0, 0.04051801035737271
562.0, 0.039301293778941274
563.0, 0.039514046095587736
564.0, 0.03927204048301786
565.0, 0.03706015827819472
566.0, 0.033970614918681585
567.0, 0.03360001373189902
568.0, 0.03593719881667717
569.0, 0.03702078285138825
570.0, 0.02431597532226553
571.0, 0.020731731904372597
572.0, 0.02539952367100413
573.0, 0.025805614019205447
574.0, 0.024142422664983135
575.0, 0.02186734084071262
576.0, 0.01255717494463652
577.0, 0.013234230317620981
578.0, 0.015401823977392048
579.0, 0.01249894953457279
580.0, 0.014370592526314431
581.0, 0.01900651084265805
582.0, 0.014791727106040554
583.0, 0.01397365919088862
584.0, 0.013757130293259949
585.0, 0.016428147484329175
586.0, 0.021436395612251843
587.0, 0.014083079362508698
588.0, 0.0011776484824104448
589.0, 0.0051370322825610975
590.0, 0.006303476169697091
591.0, 0.005978178513676722
592.0, 0.005764176526995932
593.0, 0.0010057664265925264
594.0, 0.0008535791969549324
595.0, 0.007804848119660858
596.0, 0.006273942101195823
597.0, 0.007218492261615462
598.0, 0.008916253014106037
599.0, 0.006585232865203724
600.0, 0.012136122681115918
601.0, 0.011894759726102416
602.0, 0.007426201833473317
603.0, 0.02011718535951873
604.0, 0.024874120481938006
605.0, 0.020215371833810634
606.0, 0.025340524363998616
607.0, 0.026274282154649324
608.0, 0.02891424268373468
609.0, 0.03094105306995197
610.0, 0.03303232254736859
611.0, 0.036489274545033666
612.0, 0.03993493846389753
613.0, 0.04373971567469039
614.0, 0.05397062156062802
615.0, 0.05694285763150583
616.0, 0.061029009180205145
617.0, 0.06961361593021785
618.0, 0.07789080608581089
619.0, 0.08241186577112002
620.0, 0.09591528712926893
621.0, 0.11387433393153175
622.0, 0.12317298108168427
623.0, 0.13117552293358611
624.0, 0.1444114131142899
625.0, 0.15555037552075315
626.0, 0.1604742519446406
627.0, 0.1762245940569736
628.0, 0.18730476744293034
629.0, 0.19312491894828648
630.0, 0.20108143308954207
631.0, 0.20308930900582137
632.0, 0.18887673594779755
633.0, 0.16345708054033017
634.0, 0.14076913600068858
635.0, 0.1325436456102552
636.0, 0.11982792729287511
637.0, 0.10774069685611336
638.0, 0.10145078310559091
639.0, 0.09394943024616342
640.0, 0.07736333738297313
641.0, 0.07042392084060524
642.0, 0.06690623878678763
643.0, 0.053809466145965004
644.0, 0.045142256239630515
645.0, 0.04115234000756928
646.0, 0.04095566454260888
647.0, 0.047428255126392614
648.0, 0.03626556279008528
649.0, 0.0319681872546496
650.0, 0.025272954015676852
651.0, 0.0212595802755801
652.0, 0.02013551375697374
653.0, 0.01723149427675257
654.0, 0.015580079220853261
655.0, 0.014873324937420994
656.0, 0.010630998332141421
657.0, 0.008686711819372703
658.0, 0.015485459647920962
659.0, 0.02085843003117815
660.0, 0.014708540175392809
661.0, 0.00862957268132673
662.0, 0.008307649038559595
663.0, 0.0069265681699939505
664.0, 0.003729113142499431
665.0, 0.005282668814871594
666.0, 0.0054674757881253006
667.0, 0.001153310510866921
668.0, 0.003179134529158964
669.0, 0.008596732654533857
670.0, 0.0005828275057452728
671.0, 0.0037102137252113814
672.0, 0.006416143323132304
673.0, 0.009907733770457366
674.0, 0.010671141575211603
675.0, 0.004055973264230176
676.0, 0.0013773238889707102
677.0, 0.0028715948727367144
678.0, 0.006629809750474335
679.0, 0.012679107208774016
680.0, 0.009787040705209296
681.0, 0.00381291573373508
682.0, 0.007803472558560435
683.0, 0.0006785460170820502
684.0, 0.0018626839221410317
685.0, 0.0017352421078062113
686.0, 0.0004442424487488504
687.0, 0.005994561653936119
688.0, 0.007123583813309917
689.0, 0.000616486794841693
690.0, 0.0009360635500572774
691.0, 0.003158555708416087
692.0, 0.0018224891709184782
693.0, 0.0033138473972870587
694.0, 0.0033323719025778646
695.0, 0.004598684622831979
696.0, 0.0080605665008273
697.0, 0.0025447920492940243
698.0, 0.00919584331239101
699.0, 0.011621205686002629
700.0, 0.007901757079370027
701.0, 0.003876061755678878
702.0, 0.0037257493375295434
703.0, 0.005364275245109524
704.0, 0.0060206337455223375
705.0, 0.010653350568752459
706.0, 0.00565838116712042
707.0, 0.004967682922055062
708.0, 0.002270685560886807
709.0, 0.00016261273753055713
710.0, 0.005054568287785638
711.0, 0.013305885077953737
712.0, 0.009123412903123183
713.0, 0.0038482534715711773
714.0, 0.0012110693534510856
715.0, 0.0015300097361036586
716.0, 0.007816505851892065
717.0, 0.005286650875463259
718.0, 0.002866895899589092
719.0, 0.012728016384385903
720.0, 0.01393382731778344
721.0, 0.006591824790354943
722.0, 0.01350552146912648
723.0, 0.012498815036032144
724.0, 0.004667198989577748
725.0, 0.0024995982307467555
726.0, 0.0061942732585331004
727.0, 0.004660095501326884
728.0, 0.0036320052516671574
729.0, 0.011721653613632916
730.0, 0.01585622081606712
731.0, 0.01189939859837174
732.0, 0.017972974105894768
733.0, 0.022319712866678103
734.0, 0.014065313825344091
735.0, 0.016862150213121603
736.0, 0.006218038691249284
737.0, 0.015954107223766084
738.0, 0.017474569816723285
739.0, 0.01164840630625812
740.0, 0.012610257464474358
741.0, 0.019296896300948368
742.0, 0.020975708356757668
743.0, 0.018655147471318016
744.0, 0.01904375885136999
745.0, 0.018636222559229112
746.0, 0.01375604195136201
747.0, 0.018904558000689606
748.0, 0.022004275727376
749.0, 0.020283285387979084
750.0, 0.02061538345396498
751.0, 0.014161213283624631
752.0, 0.022082624046651452
753.0, 0.02092897051256327
754.0, 0.017626918249845986
755.0, 0.022440703799220987
756.0, 0.022945971749714376
757.0, 0.014575357900004105
758.0, 0.015259744210167181
759.0, 0.022937051167994563
760.0, 0.021170322789194135
761.0, 0.016793826863357567
762.0, 0.022758914464506765
763.0, 0.027036434048869747
764.0, 0.025034364206679958
765.0, 0.02216940098842794
766.0, 0.02044017608117337
767.0, 0.016984059754835207
768.0, 0.020301326768632482
769.0, 0.021539505386016625
770.0, 0.01897496666210019
771.0, 0.026743785565376932
772.0, 0.02492931001990944
773.0, 0.019029219285827813
774.0, 0.023844729918117556
775.0, 0.018738267700775423
776.0, 0.009823270658890328
777.0, 0.013345502460818313
778.0, 0.014485716671775369
779.0, 0.012616003574295178
780.0, 0.010800093649518555
781.0, 0.0085458049794263
782.0, 0.010878213083203313
783.0, 0.022171169598914724
784.0, 0.019338560148462743
785.0, 0.005493756426238451
786.0, 0.006650935666403297
787.0, 0.001903223466876916
788.0, 0.0007650000508253892
789.0, 0.005602131232342103
790.0, 0.006573966124583655
791.0, 0.0069352376386895495
792.0, 0.010383727966847806
793.0, 0.00729729170017596
794.0, 0.006557880349990725
795.0, 0.007469673509406551
796.0, 0.003132534806617293
797.0, 0.003169414850226079
798.0, 0.0025483115720538333
799.0, 0.006932549141167505
800.0, 0.012834127544496619
801.0, 0.004171521190236547
802.0, 0.006267977027202456
803.0, 0.005071392780438132
804.0, 0.0032843086339453165
805.0, 0.006380160709177908
806.0, 0.011428262641077554
807.0, 0.0071384502089361515
808.0, 0.0018225965424015613
809.0, 0.007398002370288346
810.0, 0.015576223248293549
811.0, 0.017286026949027068
812.0, 0.02163100898035165
813.0, 0.018883314705346776
814.0, 0.01894532587589178
815.0, 0.020130943691457934
816.0, 0.02170873743928543
817.0, 0.025285865311885668
818.0, 0.018831733714943105
819.0, 0.023188896743089375
820.0, 0.024609697683569215
821.0, 0.03176301957680527
822.0, 0.03978169140497049
823.0, 0.046814306808722665
824.0, 0.05118819223760368
825.0, 0.05506923277845782
826.0, 0.065157306884844
827.0, 0.07808851594974187
828.0, 0.08908262005231943
829.0, 0.10556116626634288
830.0, 0.11643184740240965
831.0, 0.1379649021814825
832.0, 0.1529740337712214
833.0, 0.16762574304172162
834.0, 0.18720796231701595
835.0, 0.19579271595760545
836.0, 0.19501911026881077
837.0, 0.1814155744786309
838.0, 0.16902255261543997
839.0, 0.14730536753608917
840.0, 0.12578245459464907
841.0, 0.1035781481008317
842.0, 0.08146201583887644
843.0, 0.06491959733686946
844.0, 0.05322693764382634
845.0, 0.04409228744097098
846.0, 0.03422904289393429
847.0, 0.027695146239585522
848.0, 0.027023379936124307
849.0, 0.029805398400128167
850.0, 0.02032142237964796
851.0, 0.010212082513829473
852.0, 0.01257037789334385
853.0, 0.016971200123467756
854.0, 0.009737444121045746
855.0, 0.001490092579530596
856.0, 0.009841972703310057
857.0, 0.00485744219726063
858.0, 0.004883509764825791
859.0, 0.00791134593103231
860.0, 0.0135485381319736
861.0, 0.012601837342401558
862.0, 0.0013134694533996896
863.0, 0.0015331662535226927
864.0, 0.0024930950296987355
865.0, 0.006521150059004917
866.0, 0.001186455624248215
867.0, 0.003392690160674812
868.0, 0.008080931312226532
869.0, 0.005676491097223126
870.0, 0.002074163291294058
871.0, 0.007018764114398929
872.0, 0.007005165590342524
873.0, 0.0076401183749095
874.0, 0.009809587844285856
875.0, 0.007010376088003893
876.0, 0.004746354137874574
877.0, 0.0030673101458956777
878.0, 0.0009642592321231398
879.0, 0.0026422984557507227
880.0, 0.0027221877979725835
881.0, 0.001505201034833788
882.0, 0.004244675919512789
883.0, 0.00010660650986007986
884.0, 0.0070869304524339306
885.0, 0.0037634027275823237
886.0, 0.005881087457078605
887.0, 0.004662463480199996
888.0, 0.00902703555674488
889.0, 0.010762202814653272
890.0, 0.006268843559058613
891.0, 0.0033683628434732836
892.0, 0.004793448329761829
893.0, 0.006061294512271788
894.0, 0.0067124987204527165
895.0, 0.005784808460696908
896.0, 0.0007530601651940955
897.0, 0.0021780099648355984
898.0, 0.001758047383449476
899.0, 0.003130096090025835
900.0, 0.007560854305155762
901.0, 0.0048361343929905
902.0, 0.0014905325108451463
903.0, 0.00919414062651549
904.0, 0.008007013388094196
905.0, 0.010915187370762216
906.0, 0.013742759674112206
907.0, 0.011215692412407672
908.0, 0.00937954991061197
909.0, 0.005896752431280698
910.0, 0.007295518010528407
911.0, 0.00769638514647706
912.0, 0.0014081776117949422
913.0, 0.003955006282049827
914.0, 0.0017295812611785066
915.0, 0.01056392992454641
916.0, 0.008537164355901319
917.0, 0.0025628074682325108
918.0, 0.008327114343677423
919.0, 0.008769678900052666
920.0, 0.00996337777421833
921.0, 0.009041767781518318
922.0, 0.002215170755165606
923.0, 0.0033303446490779666
924.0, 0.012612187559325682
925.0, 0.014338609010195964
926.0, 0.016400655758010172
927.0, 0.009773549699058037
928.0, 0.01180219965423246
929.0, 0.00937634110719485
930.0, 0.009758986829208257
931.0, 0.01507023327114307
932.0, 0.01623236105796252
933.0, 0.014288002997723082
934.0, 0.012907360076706892
935.0, 0.008680806259618519
936.0, 0.008940734484198274
937.0, 0.006862808847171794
938.0, 0.0029705754711254733
939.0, 0.0053045437768263655
940.0, 0.006297917339926676
941.0, 0.009265222641351895
942.0, 0.009323854238574614
943.0, 0.009361078083554937
944.0, 0.010696629615699524
945.0, 0.006005648159793327
946.0, 0.004955378271400599
947.0, 0.0014977501236888462
948.0, 0.00647047803467736
949.0, 0.0042774953985839715
950.0, 0.007762600670949929
951.0, 0.0007881039938628632
952.0, 0.00024472589204523
953.0, 0.0021948119771985743
954.0, 0.004801027875617278
955.0, 0.0015038758967981893
956.0, 0.0016623208616165339
957.0, 0.001937393150915113
958.0, 0.0012019060455254096
959.0, 0.006089891513041616
960.0, 0.006018294173291539
961.0, 0.002179197561113757
962.0, 0.001509278079532748
963.0, 0.002911529512274159
964.0, 0.0014688129490600783
965.0, 0.0035098536045390554
966.0, 0.005243821672506439
967.0, 0.007971413969051475
968.0, 0.015405992376904319
969.0, 0.00470825153563321
970.0, 0.006040019874825561
971.0, 0.008482884228015944
972.0, 0.017568478646103655
973.0, 0.0074298502144266535
974.0, 0.005196406588457532
975.0, 0.0077417504903418135
976.0, 0.012655580285221905
977.0, 0.013913877262578379
978.0, 0.015496807401778752
979.0, 0.024331587587153387
980.0, 0.029400547450973806
981.0, 0.021883269255138112
982.0, 0.02284444892748996
983.0, 0.02378714639956212
984.0, 0.024041967764441192
985.0, 0.02985008898250107
986.0, 0.029186652292423496
987.0, 0.027350384650255605
988.0, 0.029292571189295
989.0, 0.029185479118298448
990.0, 0.021415623009277435
991.0, 0.018265202423188943
992.0, 0.024875824333019273
993.0, 0.02505911001543888
994.0, 0.023993301352299577
995.0, 0.024348796149768256
996.0, 0.02416488158295459
997.0, 0.029015766193757828
998.0, 0.025995937160566324
999.0, 0.024002050295675027
1000.0, 0.03098258609212742
1001.0, 0.0329229816467981
1002.0, 0.03544724199872288
1003.0, 0.044044213766536264
1004.0, 0.04478443783601223
1005.0, 0.04057051116636733
1006.0, 0.048161598030147294
1007.0, 0.05304078211871955
1008.0, 0.06578588401897197
1009.0, 0.07437026443079074
1010.0, 0.09474687075573603
1011.0, 0.11445500947132776
1012.0, 0.14051875213179665
1013.0, 0.17289956823652106
1014.0, 0.21870451793314488
1015.0, 0.2660391321633416
1016.0, 0.32253219142740697
1017.0, 0.3909397927639914
1018.0, 0.46828588762108425
1019.0, 0.5736742814656257
1020.0, 0.6776720670023941
1021.0, 0.7891571082362538
1022.0, 0.8968972873540756
1023.0, 0.966410935534567
1024.0, 0.9572627913406296
1025.0, 0.8690882684219227
1026.0, 0.7285254888122672
1027.0, 0.59403134805562
1028.0, 0.479151024760659
1029.0, 0.3886398363065606
1030.0, 0.34587313481718357
1031.0, 0.34079709222834853
1032.0, 0.3522835325209745
1033.0, 0.4007600792801604
1034.0, 0.4526067439814719
1035.0, 0.5249387211738678
1036.0, 0.6207857557358865
1037.0, 0.7066121001575193
1038.0, 0.807076967399711
1039.0, 0.909828334952429
1040.0, 0.9883220984538079
1041.0, 0.9783755299767478
1042.0, 0.8725424284765742
1043.0, 0.7096104202630672
1044.0, 0.5370144070917796
1045.0, 0.386772004204057
1046.0, 0.2719779377511879
1047.0, 0.20327345126562965
1048.0, 0.14625392284734184
1049.0, 0.10821710819917006
1050.0, 0.07482643827565742
1051.0, 0.06879337151288857
1052.0, 0.05413405678422159
1053.0, 0.03952571711300741
1054.0, 0.0322033768740346
1055.0, 0.033402983595137256
1056.0, 0.03400665159827276
1057.0, 0.02439725152906399
1058.0, 0.01637228120453806
1059.0, 0.018146779872089052
1060.0, 0.02002545091392693
1061.0, 0.014424012177507608
1062.0, 0.004545571359448613
1063.0, 0.002707560284610757
1064.0, 0.0017179578303172598
1065.0, 0.009130319521017229
1066.0, 0.01037641376194822
1067.0, 0.0063357780506042944
1068.0, 0.001258129007959506
1069.0, 0.004523778783580132
1070.0, 0.0034081169552044265
1071.0, 0.003701841457621929
1072.0, 0.0005119279502961625
1073.0, 0.0010356363860881822
1074.0, 0.0002649796819792333
1075.0, 0.0041462116629360415
1076.0, 0.0031377197584239007
1077.0, 0.005520016676662957
1078.0, 0.004227871981241074
1079.0, 0.0008360642380300912
1080.0, 0.0038752996303134967
1081.0, 0.004647926427475703
1082.0, 0.002709192343138983
1083.0, 0.013990595664950088
1084.0, 0.006028294317979171
1085.0, 0.006570179395379691
1086.0, 0.012558604256939152
1087.0, 0.011472537135264268
1088.0, 0.014375997244515602
1089.0, 0.014344526912175734
1090.0, 0.01594794895320284
1091.0, 0.029334099271745073
1092.0, 0.030818852685880332
1093.0, 0.02686351013686463
1094.0, 0.033658914753378844
1095.0, 0.04215411943749378
1096.0, 0.045934062192277324
1097.0, 0.0484507553960535
1098.0, 0.059629559297144114
1099.0, 0.06349903251687247
1100.0, 0.051095545347057306
1101.0, 0.050053868519095886
1102.0, 0.05142706442165245
1103.0, 0.03985797294623914
1104.0, 0.03309269544064088
1105.0, 0.03166764637101952
1106.0, 0.024132738272074544
1107.0, 0.017558391955089507
1108.0, 0.0158394181925972
1109.0, 0.014977748348253328
1110.0, 0.012420114245662483
1111.0, 0.008103626566677796
1112.0, 0.009309268577227851
1113.0, 0.007769761374813013
1114.0, 0.010657345386138977
1115.0, 0.011700338010800709
1116.0, 0.013018112541069306
1117.0, 0.008634643300225226
1118.0, 0.00095653928000457
1119.0, 0.004031945435898805
1120.0, 0.013618435826901925
1121.0, 0.00863379671910308
1122.0, 0.00702808429658261
1123.0, 0.00827670002573448
1124.0, 0.008220811311777855
1125.0, 0.006350529593816996
1126.0, 0.00316724172013014
1127.0, 0.005472333419058346
1128.0, 0.0075122546496448886
1129.0, 0.010206895000080313
1130.0, 0.0008028589638894571
1131.0, 0.00043035848829915056
1132.0, 0.001853511047904843
1133.0, 0.0013434985114458074
1134.0, 0.0013579527019165253
1135.0, 0.00880424930816358
1136.0, 0.00928444174400209
1137.0, 0.004163717656074859
1138.0, 0.0008760625745145019
1139.0, 0.0019707721367488245
1140.0, 0.004296404384017051
1141.0, 0.003574073868060828
1142.0, 0.005928743567824596
1143.0, 0.006288126595686543
1144.0, 0.007559227909569124
1145.0, 0.007902365052556676
1146.0, 0.013935426297449944
1147.0, 0.011412729517415742
1148.0, 0.00840351362550012
1149.0, 0.01178591877664945
1150.0, 0.0042538723141442285
1151.0, 0.003935637236869318
1152.0, 0.009151979178518505
1153.0, 0.0027776377695668732
1154.0, 0.012048975859749182
1155.0, 0.012816677108844947
1156.0, 0.003028729795560771
1157.0, 0.01234753698652059
1158.0, 0.014811952759432244
1159.0, 0.01204313590495318
1160.0, 0.014460461658193428
1161.0, 0.01719411898441225
1162.0, 0.01225964385619456
1163.0, 0.00824623960709822
1164.0, 0.009253196428142346
1165.0, 0.010681226311041318
1166.0, 0.0044790227438360405
1167.0, 0.0006171977451640033
1168.0, 0.005597619780739643
1169.0, 0.0077114568544110595
1170.0, 0.007959651216775386
1171.0, 0.010259413956122836
1172.0, 0.022386110683442654
1173.0, 0.02845296785386662
1174.0, 0.03539083613978746
1175.0, 0.03255749875301604
1176.0, 0.043099826523975975
1177.0, 0.04603994961561981
1178.0, 0.04574229130031529
1179.0, 0.04776626071408502
1180.0, 0.04355875831685016
1181.0, 0.042068206998378044
1182.0, 0.038664748425468444
1183.0, 0.04459505709647194
1184.0, 0.046612881522064685
1185.0, 0.049866423181666626
1186.0, 0.05611372269901677
1187.0, 0.061919696875073
1188.0, 0.06252239523137368
1189.0, 0.0742220708296149
1190.0, 0.0957633835079493
1191.0, 0.10605544556222034
1192.0, 0.11701105076035102
1193.0, 0.12902669061162
1194.0, 0.14407634338733727
1195.0, 0.16709891006005537
1196.0, 0.17387475885650716
1197.0, 0.17605497169137996
1198.0, 0.1807939646081613
1199.0, 0.1767809521785403
1200.0, 0.15555816919564966
1201.0, 0.13494224979761457
1202.0, 0.12119137174078719
1203.0, 0.10807725628486138
1204.0, 0.09495371608488405
1205.0, 0.10023719018743768
1206.0, 0.09765213862175204
1207.0, 0.1033140353852796
1208.0, 0.10334215760813385
1209.0, 0.10965958885964144
1210.0, 0.10283910517633103
1211.0, 0.09431453742409071
1212.0, 0.08140886896961666
1213.0, 0.06268119160179182
1214.0, 0.0463683231861539
1215.0, 0.03691696997306121
1216.0, 0.027246264269204762
1217.0, 0.02216764479796451
1218.0, 0.021783355380659376
1219.0, 0.015099978043130955
1220.0, 0.011733063109343373
1221.0, 0.0032971784653002497
1222.0, 0.000923806868358006
1223.0, 0.006236351419792014
1224.0, 0.003076471063341023
1225.0, 0.004827490760815768
1226.0, 0.0011167001357189712
1227.0, 0.004132782406680207
1228.0, 0.0073004674883371855
1229.0, 0.001253695830607796
1230.0, 0.004672364519880546
1231.0, 0.0011081930822315902
1232.0, 0.0071485194838019975
1233.0, 0.0037625171271932984
1234.0, 0.0017854990680978983
1235.0, 8.290974057335081e-05
1236, 0.0
1237, 0.0
1238, 0.0
1239, 0.0
1240, 0.0
1241, 0.0
1242, 0.0
1243, 0.0
1244, 0.0
1245, 0.0
1246, 0.0
1247, 0.0
1248, 0.0
1249, 0.0
1250, 0.0
1251, 0.0
1252, 0.0
1253, 0.0
1254, 0.0
1255, 0.0
1256, 0.0
1257, 0.0
1258, 0.0
1259, 0.0
1260, 0.0
1261, 0.0
1262, 0.0
1263, 0.0
1264, 0.0
1265, 0.0
1266, 0.0
1267, 0.0
1268, 0.0
1269, 0.0
1270, 0.0
1271, 0.0
1272, 0.0
1273, 0.0
1274, 0.0
1275, 0.0
1276, 0.0
1277, 0.0
1278, 0.0
1279, 0.0
1280, 0.0
1281, 0.0
1282, 0.0
1283, 0.0
1284, 0.0
1285, 0.0
1286, 0.0
1287, 0.0
1288, 0.0
1289, 0.0
1290, 0.0
1291, 0.0
1292, 0.0
1293, 0.0
1294, 0.0
1295, 0.0
1296, 0.0
1297, 0.0
1298, 0.0
1299, 0.0
1300, 0.0
1301, 0.0
1302, 0.0
1303, 0.0
1304, 0.0
1305, 0.0
1306, 0.0
1307, 0.0
1308, 0.0
1309, 0.0
1310, 0.0
1311, 0.0
1312, 0.0
1313, 0.0
1314, 0.0
1315, 0.0
1316, 0.0
1317, 0.0
1318, 0.0
1319, 0.0
1320, 0.0
1321, 0.0
1322, 0.0
1323, 0.0
1324, 0.0
1325, 0.0
1326, 0.0
1327, 0.0
1328, 0.0
1329, 0.0
1330, 0.0
1331, 0.0
1332, 0.0
1333, 0.0
1334, 0.0
1335, 0.0
1336, 0.0
1337, 0.0
1338, 0.0
1339, 0.0
1340, 0.0
1341, 0.0
1342, 0.0
1343, 0.0
1344, 0.0
1345, 0.0
1346, 0.0
1347, 0.0
1348, 0.0
1349, 0.0
1350, 0.0
1351, 0.0
1352, 0.0
1353, 0.0
1354, 0.0
1355, 0.0
1356, 0.0
1357, 0.0
1358, 0.0
1359, 0.0
1360, 0.0
1361, 0.0
1362, 0.0
1363, 0.0
1364, 0.0
1365, 0.0
1366, 0.0
1367, 0.0
1368, 0.0
1369, 0.0
1370, 0.0
1371, 0.0
1372, 0.0
1373, 0.0
1374, 0.0
1375, 0.0
1376, 0.0
1377, 0.0
1378, 0.0
1379, 0.0
1380, 0.0
1381, 0.0
1382, 0.0
1383, 0.0
1384, 0.0
1385, 0.0
1386, 0.0
1387, 0.0
1388, 0.0
1389, 0.0
1390, 0.0
1391, 0.0
1392, 0.0
1393, 0.0
1394, 0.0
1395, 0.0
1396, 0.0
1397, 0.0
1398, 0.0
1399, 0.0
1400, 0.0
1401, 0.0
1402, 0.0
1403, 0.0
1404, 0.0
1405, 0.0
1406, 0.0
1407, 0.0
1408, 0.0
1409, 0.0
1410, 0.0
1411, 0.0
1412, 0.0
1413, 0.0
1414, 0.0
1415, 0.0
1416, 0.0
1417, 0.0
1418, 0.0
1419, 0.0
1420, 0.0
1421, 0.0
1422, 0.0
1423, 0.0
1424, 0.0
1425, 0.0
1426, 0.0
1427, 0.0
1428, 0.0
1429, 0.0
1430, 0.0
1431, 0.0
1432, 0.0
1433, 0.0
1434, 0.0
1435, 0.0
1436, 0.0
1437, 0.0
1438, 0.0
1439, 0.0
1440, 0.0
1441, 0.0
1442, 0.0
1443, 0.0
1444, 0.0
1445, 0.0
1446, 0.0
1447, 0.0
1448, 0.0
1449, 0.0
1450, 0.0
1451, 0.0
1452, 0.0
1453, 0.0
1454, 0.0
1455, 0.0
1456, 0.0
1457, 0.0
1458, 0.0
1459, 0.0
1460, 0.0
1461, 0.0
1462, 0.0
1463, 0.0
1464, 0.0
1465, 0.0
1466, 0.0
1467, 0.0
1468, 0.0
1469, 0.0
1470, 0.0
1471, 0.0
1472, 0.0
1473, 0.0
1474, 0.0
1475, 0.0
1476, 0.0
1477, 0.0
1478, 0.0
1479, 0.0
1480, 0.0
1481, 0.0
1482, 0.0
1483, 0.0
1484, 0.0
1485, 0.0
1486, 0.0
1487, 0.0
1488, 0.0
1489, 0.0
1490, 0.0
1491, 0.0
1492, 0.0
1493, 0.0
1494, 0.0
1495, 0.0
1496, 0.0
1497, 0.0
1498, 0.0
1499, 0.0
1500, 0.0
1501, 0.0
1502, 0.0
1503, 0.0
1504, 0.0
1505, 0.0
1506, 0.0
1507, 0.0
1508, 0.0
1509, 0.0
1510, 0.0
1511, 0.0
1512, 0.0
1513, 0.0
1514, 0.0
1515, 0.0
1516, 0.0
1517, 0.0
1518, 0.0
1519, 0.0
1520, 0.0
1521, 0.0
1522, 0.0
1523, 0.0
1524, 0.0
1525, 0.0
1526, 0.0
1527, 0.0
1528, 0.0
1529, 0.0
1530, 0.0
1531, 0.0
1532, 0.0
1533, 0.0
1534, 0.0
1535, 0.0
1536, 0.0
1537, 0.0
1538, 0.0
1539, 0.0
1540, 0.0
1541, 0.0
1542, 0.0
1543, 0.0
1544, 0.0
1545, 0.0
1546, 0.0
1547, 0.0
1548, 0.0
1549, 0.0
1550, 0.0
1551, 0.0
1552, 0.0
1553, 0.0
1554, 0.0
1555, 0.0
1556, 0.0
1557, 0.0
1558, 0.0
1559, 0.0
1560, 0.0
1561, 0.0
1562, 0.0
1563, 0.0
1564, 0.0
1565, 0.0
1566, 0.0
1567, 0.0
1568, 0.0
1569, 0.0
1570, 0.0
1571, 0.0
1572, 0.0
1573, 0.0
1574, 0.0
1575, 0.0
1576, 0.0
1577, 0.0
1578, 0.0
1579, 0.0
1580, 0.0
1581, 0.0
1582, 0.0
1583, 0.0
1584, 0.0
1585, 0.0
1586, 0.0
1587, 0.0
1588, 0.0
1589, 0.0
1590, 0.0
1591, 0.0
1592, 0.0
1593, 0.0
1594, 0.0
1595, 0.0
1596, 0.0
1597, 0.0
1598, 0.0
1599, 0.0
