30, 0.0
31, 0.0
32, 0.0
33, 0.0
34, 0.0
35, 0.0
36, 0.0
37, 0.0
38, 0.0
39, 0.0
40, 0.0
41, 0.0
42, 0.0
43, 0.0
44, 0.0
45, 0.0
46, 0.0
47, 0.0
48, 0.0
49, 0.0
50, 0.0
51, 0.0
52, 0.0
53, 0.0
54, 0.0
55, 0.0
56, 0.0
57, 0.0
58, 0.0
59, 0.0
60, 0.0
61, 0.0
62, 0.0
63, 0.0
64, 0.0
65, 0.0
66, 0.0
67, 0.0
68, 0.0
69, 0.0
70, 0.0
71, 0.0
72, 0.0
73, 0.0
74, 0.0
75, 0.0
76, 0.0
77, 0.0
78, 0.0
79, 0.0
80, 0.0
81, 0.0
82.0, 7.091656909395791e-05
83.0, 0.0023052483847166715
84.0, 0.002955744484868238
85.0, 0.003532129604338711
86.0, 0.00449246454999265
87.0, 0.005102433676541604
88.0, 0.005188651478546427
89.0, 0.004820271124558861
90.0, 0.0058352400606429475
91.0, 0.008081868815429362
92.0, 0.008721110010618168
93.0, 0.007632542388291853
94.0, 0.009137557526207119
95.0, 0.012618381689187802
96.0, 0.015388312477591913
97.0, 0.01502279411051543
98.0, 0.01687138974973536
99.0, 0.01608188460036543
100.0, 0.011552926458866668
101.0, 0.011001101836674168
102.0, 0.008916360443141499
103.0, 0.006944835464886215
104.0, 0.006219163579130014
105.0, 0.004275224270756972
106.0, 0.0012902008367443752
107.0, 0.00013044718405710618
108.0, 0.0003900184167272431
109.0, 0.002491170991063283
110.0, 0.0021250075716618584
111.0, 0.0018151388490405763
112.0, 0.002347285296264465
113.0, 0.0030714891113833255
114.0, 0.003105336360767588
115.0, 0.0025905438744761064
116.0, 0.000986149186848529
117.0, 0.0009646151746499822
118.0, 0.0006398583861817053
119.0, 0.0013531528840638601
120.0, 0.004573254275016733
121.0, 0.008207274613358472
122.0, 0.007993809737868398
123.0, 0.015209194898510945
124.0, 0.023805182365547527
125.0, 0.03221654466128064
126.0, 0.0412749955030929
127.0, 0.051360286070210065
128.0, 0.05929383268996489
129.0, 0.06570338615709338
130.0, 0.07363625009146595
131.0, 0.08590908567932874
132.0, 0.10086098395360052
133.0, 0.11586261348575709
134.0, 0.13040838568875024
135.0, 0.14424586367871114
136.0, 0.1529673287304552
137.0, 0.15579507362324815
138.0, 0.16017370178249937
139.0, 0.1684267027236149
140.0, 0.17317160998039563
141.0, 0.18118390561582798
142.0, 0.19181006988329113
143.0, 0.20741108648924841
144.0, 0.23379107611813127
145.0, 0.2707841973041248
146.0, 0.31487686683237187
147.0, 0.3602510526102595
148.0, 0.40095498674831226
149.0, 0.43466940384539027
150.0, 0.45989015823578
151.0, 0.4809718654143264
152.0, 0.5034514235583277
153.0, 0.5316119631708819
154.0, 0.5532385831372536
155.0, 0.5803930315650155
156.0, 0.6147956930694739
157.0, 0.6493363342942774
158.0, 0.6805594798201599
159.0, 0.7034587174755685
160.0, 0.7112201308230307
161.0, 0.6939033873920808
162.0, 0.6354731812086793
163.0, 0.5492345937328202
164.0, 0.4615474980373626
165.0, 0.3846225200528442
166.0, 0.32569268954131236
167.0, 0.28823316858656023
168.0, 0.2620836252244224
169.0, 0.2455107590905615
170.0, 0.23803243960950954
171.0, 0.2351056214096819
172.0, 0.23199190072054413
173.0, 0.22740072955073687
174.0, 0.21754262325340745
175.0, 0.20119505577056845
176.0, 0.18705069702055263
177.0, 0.16875583853501055
178.0, 0.1503151743981133
179.0, 0.13567403617074833
180.0, 0.12467327657657605
181.0, 0.11854666990784157
182.0, 0.11562649165088153
183.0, 0.11537891977385772
184.0, 0.11794898007661413
185.0, 0.12138393342539108
186.0, 0.12979083447978135
187.0, 0.14038207850405626
188.0, 0.15062721431129578
189.0, 0.15984574369212773
190.0, 0.16856557179549866
191.0, 0.18102464522684636
192.0, 0.19670737915032785
193.0, 0.21380004835971556
194.0, 0.23595789200834943
195.0, 0.26373988616736777
196.0, 0.29458578092653054
197.0, 0.3316242945788961
198.0, 0.3805779554686262
199.0, 0.43299668477803077
200.0, 0.5032682751965929
201.0, 0.5937327261713615
202.0, 0.693368269879906
203.0, 0.7901285014162713
204.0, 0.8796900177466641
205.0, 0.9118309441209641
206.0, 0.8706684424410409
207.0, 0.7635265241708213
208.0, 0.6086482879276377
209.0, 0.4616454507106743
210.0, 0.34007291398010886
211.0, 0.246004405655103
212.0, 0.17725870451682418
213.0, 0.13320670937875348
214.0, 0.10115432136404984
215.0, 0.07633760897801713
216.0, 0.057609790604239805
217.0, 0.04115672452481739
218.0, 0.03349851122488937
219.0, 0.02484315367146451
220.0, 0.014827054377734794
221.0, 0.01442937737778135
222.0, 0.011401316819138975
223.0, 0.009004605131646672
224.0, 0.008257668794407234
225.0, 0.007340230031009929
226.0, 0.004296737933181491
227.0, 0.0013783661597153024
228.0, 0.0007235245783479202
229.0, 0.0017054906364361265
230.0, 0.002708203162415333
231.0, 0.0032506064243546197
232.0, 0.006535906643750826
233.0, 0.008438605544686496
234.0, 0.009116789036877796
235.0, 0.011231089604086522
236.0, 0.014538730998697635
237.0, 0.015059738311525314
238.0, 0.01762440689341158
239.0, 0.02338976206480262
240.0, 0.027786311330689994
241.0, 0.029309028849522554
242.0, 0.0316662379546097
243.0, 0.035369453352290324
244.0, 0.040452352309518096
245.0, 0.050660733119326826
246.0, 0.06132687288166078
247.0, 0.07267218127122844
248.0, 0.08564849708567594
249.0, 0.09775700137491061
250.0, 0.10084662231992016
251.0, 0.09876481069684327
252.0, 0.08997730798347256
253.0, 0.07478076618594444
254.0, 0.05846173312275427
255.0, 0.04591203650408012
256.0, 0.037253316500631045
257.0, 0.031182009216870844
258.0, 0.027023990019493783
259.0, 0.024240377135338984
260.0, 0.01798647595257276
261.0, 0.013727799849042578
262.0, 0.010420567838920283
263.0, 0.005708413332822655
264.0, 0.0009555099926489693
265.0, 0.0010486422119479846
266.0, 0.00042701735161030117
267.0, 0.00025327087298779137
268.0, 0.0008090219397841134
269.0, 0.00035483624197197943
270.0, 0.001839786831505787
271.0, 0.003622250824666223
272.0, 0.00488405728852147
273.0, 0.007180032431260479
274.0, 0.012236077706986315
275.0, 0.014406941091192027
276.0, 0.014925453663657572
277.0, 0.01410265266456438
278.0, 0.010814660794588368
279.0, 0.006409366359432706
280.0, 0.0027958501849785914
281.0, 0.002045838635892786
282.0, 0.0028136582959610436
283.0, 0.00148481483413407
284.0, 0.0033040340048980602
285.0, 0.0032735297626273704
286.0, 0.002543160837429827
287.0, 0.0035809510189648377
288.0, 0.002960965469006283
289.0, 0.003251780440866495
290.0, 0.003431872641955798
291.0, 0.0029069152691572693
292.0, 0.0015991561731598454
293.0, 0.00045559723509500745
294.0, 0.0017220403135691292
295.0, 0.0024453531135167268
296.0, 0.0004873915216200294
297.0, 0.0021295314293782288
298.0, 0.000722076099206173
299.0, 0.0007267126596270988
300.0, 0.0003640396940702827
301.0, 0.0017990602585770854
302.0, 0.003290192822259307
303.0, 0.00217626484817513
304.0, 0.0004912540986168228
305.0, 0.0003332126701333566
306.0, 0.00025456354160489035
307.0, 0.0023848101126213886
308.0, 0.005850150374474153
309.0, 0.00426039878236507
310.0, 0.011265836831652939
311.0, 0.011958363803208876
312.0, 0.01756938027581803
313.0, 0.02409194839542957
314.0, 0.029752842261836703
315.0, 0.0371761814708453
316.0, 0.043981902108739826
317.0, 0.055039171750769056
318.0, 0.0719869877007127
319.0, 0.07677736099789852
320.0, 0.08449127759496415
321.0, 0.09590663940365686
322.0, 0.10126587477868518
323.0, 0.09319189620581855
324.0, 0.07861736621334303
325.0, 0.06977265378966785
326.0, 0.0663330961203002
327.0, 0.06652416041305208
328.0, 0.07273590407857904
329.0, 0.07748174941935171
330.0, 0.08193828732757857
331.0, 0.0892171547992458
332.0, 0.09880846142770679
333.0, 0.10667815636397121
334.0, 0.11664261798500468
335.0, 0.12946523081628675
336.0, 0.14490870915008097
337.0, 0.1606947807164269
338.0, 0.17406528530098672
339.0, 0.18478704345016692
340.0, 0.18961147446269488
341.0, 0.18909228476027382
342.0, 0.18350987968309293
343.0, 0.17248083776110917
344.0, 0.15741175244734215
345.0, 0.14608262223200985
346.0, 0.1395824542847811
347.0, 0.13611703140763343
348.0, 0.1350006271765745
349.0, 0.13860697286192092
350.0, 0.14582717200295
351.0, 0.1552136009359739
352.0, 0.1695004527638234
353.0, 0.18985576807572338
354.0, 0.20691000382887573
355.0, 0.22106203898515112
356.0, 0.2339605611660688
357.0, 0.24139288665430816
358.0, 0.23795281207413416
359.0, 0.22220998653971746
360.0, 0.1932580000957802
361.0, 0.16391545663857732
362.0, 0.13574903957507295
363.0, 0.10829569288959871
364.0, 0.08786404685716803
365.0, 0.07180904563532083
366.0, 0.06284967412031787
367.0, 0.05627978765936306
368.0, 0.04936084934018302
369.0, 0.04592824809838469
370.0, 0.04370154353750689
371.0, 0.04207036138807597
372.0, 0.03919387976433891
373.0, 0.03719818112875858
374.0, 0.038938216127084715
375.0, 0.038268497030131333
376.0, 0.036184999678652977
377.0, 0.03044636984168173
378.0, 0.023309550690936313
379.0, 0.01877122030732231
380.0, 0.014886832230589807
381.0, 0.010331185672951534
382.0, 0.0061314808602195466
383.0, 0.0029741110750438602
384.0, 0.0016602960822487002
385.0, 0.0024202114632152143
386.0, 0.0005702665682441376
387.0, 0.00027526909603808647
388.0, 0.0018965944473173227
389.0, 0.0035291719243552592
390.0, 0.001041230523818027
391.0, 0.0022373692045815838
392.0, 0.0023478023516239413
393.0, 0.003230438064705184
394.0, 0.0033947999203369546
395.0, 0.001212806483312636
396.0, 0.0018564538911206927
397.0, 0.00048445824397095846
398.0, 0.00053643003192917
399.0, 0.0011137473535619102
400.0, 0.00018041633634604618
401.0, 0.00037834798759636294
402.0, 0.0002840378977908691
403.0, 0.0007838590110430025
404.0, 0.0024056752817222375
405.0, 0.003512240553436927
406.0, 0.0047306599036801115
407.0, 0.0075288078681473025
408.0, 0.010687586708742498
409.0, 0.011728929337459663
410.0, 0.012740337205245212
411.0, 0.015491279369353897
412.0, 0.017681980715343364
413.0, 0.017893809346123453
414.0, 0.016229322876823618
415.0, 0.016169329912000496
416.0, 0.017905131227355736
417.0, 0.018556773186601004
418.0, 0.02092382239631548
419.0, 0.022413412689460892
420.0, 0.02670944489571071
421.0, 0.03172577271277099
422.0, 0.03524475754196262
423.0, 0.04132357895019571
424.0, 0.04667806650911052
425.0, 0.05370651542671434
426.0, 0.06332849849714879
427.0, 0.07501355135000529
428.0, 0.08806489124606803
429.0, 0.10312463052620688
430.0, 0.12322856365472652
431.0, 0.14778236690704882
432.0, 0.1718676409342343
433.0, 0.19012169576664303
434.0, 0.20214311672870983
435.0, 0.20348073519348503
436.0, 0.18839948401659917
437.0, 0.16902790366268386
438.0, 0.15100889588742805
439.0, 0.13119414116987047
440.0, 0.12211653384504244
441.0, 0.11494277653560901
442.0, 0.10923155109110941
443.0, 0.10608627322663486
444.0, 0.10615337271506516
445.0, 0.11038182085698323
446.0, 0.10875038966016079
447.0, 0.10728368050969608
448.0, 0.10927560695215122
449.0, 0.11222697997049183
450.0, 0.11446342738916548
451.0, 0.12379336555960307
452.0, 0.1346841616719483
453.0, 0.1508862297482514
454.0, 0.16864745888140412
455.0, 0.1876144795031262
456.0, 0.21388521338489824
457.0, 0.23916046147606781
458.0, 0.26920495962934293
459.0, 0.303975649800818
460.0, 0.34300324695675094
461.0, 0.38690694356963895
462.0, 0.43566529266407444
463.0, 0.4760556308007607
464.0, 0.5004450018765387
465.0, 0.5074889395025546
466.0, 0.49287046894907655
467.0, 0.45389081597631775
468.0, 0.4006809675007241
469.0, 0.334592243664303
470.0, 0.27265707754031654
471.0, 0.221597629941632
472.0, 0.18263191742096285
473.0, 0.1569068091134358
474.0, 0.13113987624832996
475.0, 0.11503560698305414
476.0, 0.10206010570486342
477.0, 0.09215236297628816
478.0, 0.08861792978840047
479.0, 0.08836954342088811
480.0, 0.08910292284903015
481.0, 0.09392163589483302
482.0, 0.10108104387014777
483.0, 0.10901226133331612
484.0, 0.11598048300050942
485.0, 0.11648686565767925
486.0, 0.1066191079830006
487.0, 0.09136908849266091
488.0, 0.07516506058273546
489.0, 0.060833218128854734
490.0, 0.04902030204123016
491.0, 0.03752633845337568
492.0, 0.033506686809345904
493.0, 0.029867348934357215
494.0, 0.025203653660110178
495.0, 0.021406206515090682
496.0, 0.019148140644502328
497.0, 0.01811497224157251
498.0, 0.01863163686261573
499.0, 0.017497284581339187
500.0, 0.014781644928723591
501.0, 0.012548067310564412
502.0, 0.012321807381253491
503.0, 0.010338925892003952
504.0, 0.01088815959690334
505.0, 0.009921249167925798
506.0, 0.009608697305430333
507.0, 0.011010328271174397
508.0, 0.01095741213340697
509.0, 0.011437005245908105
510.0, 0.00992543095361909
511.0, 0.011165023794554257
512.0, 0.012560971024208223
513.0, 0.012275735703952597
514.0, 0.014394521764094365
515.0, 0.016958407230593258
516.0, 0.017433081669498897
517.0, 0.01791147192618881
518.0, 0.020224554329479172
519.0, 0.022821002807149056
520.0, 0.023648223012400455
521.0, 0.028099625772905902
522.0, 0.02953111957123644
523.0, 0.03152894449924937
524.0, 0.0350018597997186
525.0, 0.03902093498381046
526.0, 0.04382011251162281
527.0, 0.052791087943529415
528.0, 0.05523065415833702
529.0, 0.05784160357606038
530.0, 0.05999585297550372
531.0, 0.05702108011866682
532.0, 0.04697783048945891
533.0, 0.032247965747826984
534.0, 0.018010892230342128
535.0, 0.008627610367822697
536.0, 0.0038747921476433964
537.0, 0.001710433177376815
538.0, 0.000274297785768092
539.0, 0.003243758290027794
540.0, 0.00447892763422951
541.0, 0.004647941766889489
542.0, 0.004596186835998917
543.0, 0.004661830750216994
544.0, 0.004794577341025115
545.0, 0.004517455894680085
546.0, 0.003597754593210109
547.0, 0.004725672190400739
548.0, 0.0036755219842650798
549.0, 0.0017626097221277556
550.0, 0.0017048804076994404
551.0, 0.0006764124515315751
552.0, 0.0029923392878973233
553.0, 0.005262693288757621
554.0, 0.006733606521487227
555.0, 0.008648095009679462
556.0, 0.01272712694821064
557.0, 0.01937084837017297
558.0, 0.026781477056098305
559.0, 0.035653595205693486
560.0, 0.048530707407738925
561.0, 0.0640406711113908
562.0, 0.07970813883617989
563.0, 0.09528525782094696
564.0, 0.111988168753884
565.0, 0.1351305629956357
566.0, 0.1613019464881832
567.0, 0.18970369607559598
568.0, 0.2291362898877803
569.0, 0.2841734985314059
570.0, 0.343884070660027
571.0, 0.4062440049026673
572.0, 0.46304424589628057
573.0, 0.4929510191162252
574.0, 0.47194129924168615
575.0, 0.3993389955383651
576.0, 0.30803014293533537
577.0, 0.22028679387462197
578.0, 0.15506589383058902
579.0, 0.11213054983304062
580.0, 0.08480946394023381
581.0, 0.06820071596706304
582.0, 0.05841432649547159
583.0, 0.05009087571271931
584.0, 0.04816258075428009
585.0, 0.04781473356806432
586.0, 0.048931060136033606
587.0, 0.051449076768419665
588.0, 0.056098104474781425
589.0, 0.06654981513869689
590.0, 0.07320828392832598
591.0, 0.08170523638928899
592.0, 0.09500894733820944
593.0, 0.1091222925793941
594.0, 0.12147297929073733
595.0, 0.13501804110889853
596.0, 0.15291885534785638
597.0, 0.17032221458733857
598.0, 0.19095100051623454
599.0, 0.21367093928776862
600.0, 0.24033848629368668
601.0, 0.2713292645191165
602.0, 0.2990734092175936
603.0, 0.32397991450495334
604.0, 0.33562084339243436
605.0, 0.32957313189083465
606.0, 0.3004232643025528
607.0, 0.2509249856461364
608.0, 0.1943460664632482
609.0, 0.14370671781620384
610.0, 0.10503783632988499
611.0, 0.07762429677596647
612.0, 0.0554944915805724
613.0, 0.03876266199227728
614.0, 0.026880782409888653
615.0, 0.015453470734134979
616.0, 0.007164502397668538
617.0, 0.0016557722910196019
618.0, 0.0014195007875961452
619.0, 0.0025354535103845124
620.0, 0.002662101041404277
621.0, 0.00197749106942151
622.0, 0.0009973449902742513
623.0, 0.007458666097142854
624.0, 0.01619081973696064
625.0, 0.0211672932678006
626.0, 0.027729417278295514
627.0, 0.04006770199073332
628.0, 0.05435219570794424
629.0, 0.06807024057412066
630.0, 0.08237684460319694
631.0, 0.09970950248921369
632.0, 0.11438403343923906
633.0, 0.12557710942018047
634.0, 0.1320892152109019
635.0, 0.13013140641312998
636.0, 0.12522616002508163
637.0, 0.11478348408667761
638.0, 0.09880999317126976
639.0, 0.08840066411737674
640.0, 0.08158240104786452
641.0, 0.07392118574471716
642.0, 0.07387309640203292
643.0, 0.0750273180171567
644.0, 0.07698114086850438
645.0, 0.08327130736386143
646.0, 0.0936605008175122
647.0, 0.10262631215561786
648.0, 0.10795668905175142
649.0, 0.11651002754471233
650.0, 0.1289571489803693
651.0, 0.13797479995230413
652.0, 0.14939901304768366
653.0, 0.1610680992132218
654.0, 0.1683262271164056
655.0, 0.16564197938342984
656.0, 0.14938785952019523
657.0, 0.12697570282095758
658.0, 0.1031950358725185
659.0, 0.0868927365283689
660.0, 0.07437689171493884
661.0, 0.06383191320929138
662.0, 0.05641526838460715
663.0, 0.050773088992620896
664.0, 0.04507513228720853
665.0, 0.041839761826629955
666.0, 0.037760251302608294
667.0, 0.03229218567290168
668.0, 0.026439586728002142
669.0, 0.021429477734994318
670.0, 0.018310665450219622
671.0, 0.016201816470848666
672.0, 0.013366885098876728
673.0, 0.008241962836696707
674.0, 0.0033147624381871248
675.0, 0.002089870405204696
676.0, 0.003227406547953182
677.0, 0.0017742744725584942
678.0, 0.0008190012718423087
679.0, 0.00019823434895228098
680.0, 0.001175929363203168
681.0, 0.0012667487640925343
682.0, 0.000598852675846966
683.0, 0.0020452639736900802
684.0, 0.0033667846540825917
685.0, 0.007308833792979188
686.0, 0.012165465058515323
687.0, 0.017574975531671744
688.0, 0.026332245030859524
689.0, 0.03314782168468738
690.0, 0.04013147925925239
691.0, 0.051283628607377514
692.0, 0.06109507625011902
693.0, 0.07369428645973783
694.0, 0.08713367183921947
695.0, 0.09537074400234853
696.0, 0.1052897755724818
697.0, 0.11654568251546489
698.0, 0.1233309531002878
699.0, 0.1234676780270884
700.0, 0.11851982264587128
701.0, 0.1102711029478231
702.0, 0.09792239135157571
703.0, 0.08412283725661109
704.0, 0.07011680558987472
705.0, 0.056300465966594236
706.0, 0.0443628615239894
707.0, 0.03645815885392577
708.0, 0.026972987641949147
709.0, 0.019637583795818526
710.0, 0.013221983762558115
711.0, 0.009974569887994687
712.0, 0.007716488071844176
713.0, 0.0037990221681376795
714.0, 0.000691803543422261
715.0, 0.0006446354527146856
716.0, 0.00029377259659778114
717.0, 0.004049752331428435
718.0, 0.004828440390701042
719.0, 0.0035876520994834456
720.0, 0.003323553062257567
721.0, 0.002884618960281881
722.0, 0.0008631937330031398
723.0, 0.004185499735279066
724.0, 0.009797362158167148
725.0, 0.015896700169605645
726.0, 0.02404572182370379
727.0, 0.03246556061356534
728.0, 0.037031154541014556
729.0, 0.0372243767931933
730.0, 0.03581382156268858
731.0, 0.027267519343006787
732.0, 0.02059389664573669
733.0, 0.014941685376449583
734.0, 0.008585141119245175
735.0, 0.003855245673703968
736.0, 0.001974606322097458
737.0, 0.0013050366036622654
738.0, 0.004723310802689556
739.0, 0.005480788618324787
740.0, 0.011370328142818697
741.0, 0.017691112715818608
742.0, 0.02326352766613423
743.0, 0.030840687657804757
744.0, 0.04203360560972903
745.0, 0.05642671656782927
746.0, 0.07698020169032734
747.0, 0.09947587289130491
748.0, 0.12967392711152922
749.0, 0.17023007793112688
750.0, 0.21110514987930537
751.0, 0.2520408340698956
752.0, 0.3038980318648089
753.0, 0.3712716475257272
754.0, 0.4450825900651911
755.0, 0.5357098321559773
756.0, 0.638742105463378
757.0, 0.7560988638775381
758.0, 0.8743318838954621
759.0, 0.9650093466433616
760.0, 0.9975319783020594
761.0, 0.954750647590068
762.0, 0.8528876977457008
763.0, 0.7155747938016039
764.0, 0.5773226920875968
765.0, 0.4497006720030639
766.0, 0.3423185146576947
767.0, 0.2611289165755141
768.0, 0.20265277375088633
769.0, 0.15979819015893523
770.0, 0.1276642385868656
771.0, 0.10237518907727033
772.0, 0.08313812585975132
773.0, 0.06855951459506408
774.0, 0.05454734876081302
775.0, 0.042255759517529225
776.0, 0.03302130094400489
777.0, 0.02558474592477368
778.0, 0.02148626833568712
779.0, 0.018440655867732542
780.0, 0.013465649893782787
781.0, 0.010386086516084827
782.0, 0.009134454075024792
783.0, 0.005302166952796126
784.0, 0.00163289843846104
785.0, 0.002613575723571382
786.0, 0.0012245922104153011
787.0, 0.002196883628804167
788.0, 0.001218941179794686
789.0, 0.0011539167443752364
790.0, 0.0018020565411760276
791.0, 0.0029322508048690737
792.0, 0.00266502813313017
793.0, 0.0006820947326180194
794.0, 0.00012938071935320912
795.0, 0.000805866989398372
796.0, 0.00072012979837391
797.0, 0.0006848359517084256
798.0, 0.004045849158690286
799.0, 0.005853602240945988
800.0, 0.0068740162154815945
801.0, 0.010549998057023377
802.0, 0.01570599092303527
803.0, 0.018825656282328927
804.0, 0.023547755726857793
805.0, 0.03096878996467682
806.0, 0.040401902589790026
807.0, 0.04649477274778235
808.0, 0.056893935283428614
809.0, 0.07187107743604967
810.0, 0.08528290883583965
811.0, 0.09673331053115478
812.0, 0.10944513753107915
813.0, 0.1202232717313842
814.0, 0.12811892332225777
815.0, 0.13133006331653696
816.0, 0.13126856371236195
817.0, 0.1231081862862878
818.0, 0.10985542148171085
819.0, 0.09571417736234414
820.0, 0.07913215466901333
821.0, 0.06554629137125756
822.0, 0.0546262842041558
823.0, 0.044027602618884686
824.0, 0.03574425304486672
825.0, 0.03257334645774005
826.0, 0.03034636596814092
827.0, 0.026811240207036114
828.0, 0.02553277711153238
829.0, 0.027397133333530617
830.0, 0.026826241186605444
831.0, 0.02965491418087003
832.0, 0.030675161627964073
833.0, 0.035382994783431536
834.0, 0.040617804294069686
835.0, 0.04457428486653628
836.0, 0.04902492527739579
837.0, 0.0556793953879403
838.0, 0.06395323910702923
839.0, 0.07296627638399042
840.0, 0.08082196418165748
841.0, 0.0891592177387423
842.0, 0.09471944503438644
843.0, 0.09625490460844469
844.0, 0.09335842054411982
845.0, 0.08863809596083921
846.0, 0.08356026226397911
847.0, 0.07752411118390116
848.0, 0.07624890843501618
849.0, 0.07952683221198317
850.0, 0.08123021891762044
851.0, 0.0858958801990512
852.0, 0.0944803840227732
853.0, 0.10246577134067189
854.0, 0.11312709912349193
855.0, 0.12471817689154377
856.0, 0.13014378916636446
857.0, 0.13731475702816073
858.0, 0.15228426161477418
859.0, 0.13449194172603215
860.0, 0.11982186303447355
861.0, 0.1063877207255537
862.0, 0.09455200631316019
863.0, 0.08385265682188167
864.0, 0.07232237527267779
865.0, 0.06139643971455891
866.0, 0.052853135742285874
867.0, 0.044521273914118434
868.0, 0.03308182166403268
869.0, 0.030430040900130746
870.0, 0.023407008777666702
871.0, 0.018243508774437058
872.0, 0.01603733677278861
873.0, 0.014272971023552267
874.0, 0.011649217150118678
875.0, 0.009167102431493157
876.0, 0.008540109698887273
877.0, 0.00651601324681924
878.0, 0.005252690748848488
879.0, 0.0036701354156294824
880.0, 0.004191633405871625
881.0, 0.003977188305753616
882.0, 0.001933361049486163
883.0, 0.0008386314178849046
884.0, 0.0009069780656667963
885.0, 0.00017938559793942302
886.0, 0.00039354985006954507
887.0, 0.0002985162315051859
888.0, 0.0005776133435470285
889.0, 0.0002808740838869243
890.0, 0.0027219771018174334
891.0, 0.0014579472486146395
892.0, 0.00011461501585100593
893.0, 0.00037504601941439964
894.0, 0.0017254215442340218
895.0, 0.001689360313016839
896.0, 0.0028763925344654465
897.0, 0.000402634271679801
898.0, 0.0010949393062251354
899.0, 0.0034853159040550826
900.0, 0.0011499527114361761
901.0, 0.0023733279433874035
902.0, 0.005367745482365929
903.0, 0.006506660934747871
904.0, 0.006403173843884172
905.0, 0.007334201252870432
906.0, 0.00935514198470671
907.0, 0.008885247322835247
908.0, 0.011893969843938154
909.0, 0.013567027515147996
910.0, 0.012891031261434401
911.0, 0.015358459216838654
912.0, 0.015946857758084947
913.0, 0.014392087715768961
914.0, 0.015068714054908318
915.0, 0.017449700836971928
916.0, 0.0186568345610162
917.0, 0.01834112843172646
918.0, 0.025002672901526794
919.0, 0.024904658602350332
920.0, 0.027354490476935972
921.0, 0.03384963638745383
922.0, 0.037718270454251565
923.0, 0.04246211160677433
924.0, 0.0487026864138167
925.0, 0.056814357253419455
926.0, 0.06634945821076621
927.0, 0.07351402922516259
928.0, 0.0821324590443789
929.0, 0.09247818936275146
930.0, 0.10138991997358465
931.0, 0.10367595359297062
932.0, 0.10326983462097317
933.0, 0.10083094766189603
934.0, 0.0937392431282956
935.0, 0.08379026427349098
936.0, 0.07337614457282413
937.0, 0.06466683161750084
938.0, 0.06004388369410416
939.0, 0.05508446660543598
940.0, 0.04992885718349038
941.0, 0.04312457707700693
942.0, 0.03997667593340112
943.0, 0.03319714830130754
944.0, 0.027144343394445464
945.0, 0.025645321425120115
946.0, 0.0228322532800972
947.0, 0.01853829733332806
948.0, 0.017087453232455727
949.0, 0.01486344211191796
950.0, 0.01228714664340221
951.0, 0.009648249619113739
952.0, 0.009018479116253737
953.0, 0.006833449680573234
954.0, 0.0040897449800397934
955.0, 0.003146370902647189
956.0, 0.003227978755960157
957.0, 0.0020391742118884833
958.0, 0.00013273125052089643
959.0, 0.0006820047788395692
960.0, 0.0011927085919548766
961.0, 0.0008475232351778206
962.0, 0.0028340591435387086
963.0, 0.0004925327952873914
964.0, 0.001250043557197363
965.0, 0.0016664445344387203
966.0, 0.0031076635390187442
967.0, 0.003632714767719134
968.0, 0.0030258504051537145
969.0, 0.0027277922592010406
970.0, 0.004000421424777707
971.0, 0.005627552805760082
972.0, 0.005661285665819261
973.0, 0.006602079161000366
974.0, 0.010905370785932582
975.0, 0.011311058996036266
976.0, 0.012775114243865788
977.0, 0.014526844543681233
978.0, 0.015295629288661801
979.0, 0.018876238180111356
980.0, 0.021835621093433916
981.0, 0.02690501330690684
982.0, 0.030286600988566507
983.0, 0.029375623941126
984.0, 0.03244698256430839
985.0, 0.038328100279883655
986.0, 0.03815025255026812
987.0, 0.03811536745331749
988.0, 0.03629791992692968
989.0, 0.03706079612369681
990.0, 0.03557819210832128
991.0, 0.031115033051492692
992.0, 0.026934711235929904
993.0, 0.024469965227843622
994.0, 0.021710451193797883
995.0, 0.017644314432971816
996.0, 0.015056972913925814
997.0, 0.014120703273503784
998.0, 0.01109482851994377
999.0, 0.010647631448905641
1000.0, 0.009950452780184423
1001.0, 0.009608786623506848
1002.0, 0.00727265223943814
1003.0, 0.005398900264379929
1004.0, 0.006470204159362754
1005.0, 0.006027158115404293
1006.0, 0.005550330110068952
1007.0, 0.006067260549764291
1008.0, 0.0036665266188194378
1009.0, 0.0003032905925325453
1010.0, 0.0005988652008349793
1011.0, 0.00048641802708410917
1012.0, 0.002512427361280159
1013.0, 0.0014194775604900538
1014.0, 0.0014711245375335438
1015.0, 0.0011361971738881249
1016.0, 0.00276342843604648
1017.0, 0.0010234609337411587
1018.0, 0.0014044639400742703
1019.0, 0.00027168905401268515
1020.0, 0.0003871712750965211
1021.0, 0.0008619601387171789
1022.0, 0.0004921561529892013
1023.0, 0.0004948045443191996
1024.0, 0.0009005029252644064
1025.0, 0.001557043042019872
1026.0, 0.0014697751671209744
1027.0, 0.0015040624614936185
1028.0, 0.00011531479469178953
1029.0, 0.0007492475349391192
1030.0, 0.0005007221758281629
1031.0, 0.0007394126665104465
1032.0, 0.0018507060263568407
1033.0, 0.0012802281719533795
1034.0, 0.0011818090971648485
1035.0, 0.0010613606757244277
1036.0, 0.00018220593500744761
1037.0, 0.0023368749093604355
1038.0, 0.0012014067155318466
1039.0, 0.0030495683883331637
1040.0, 0.002634994632056634
1041.0, 0.0002892734062904535
1042.0, 0.002247222026533484
1043.0, 0.0031420634931293634
1044.0, 0.0023653166895363916
1045.0, 0.0029674040779253566
1046.0, 0.004548342550767357
1047.0, 0.0056967475514945725
1048.0, 0.006032597087796435
1049.0, 0.006982699574063495
1050.0, 0.008212171302435095
1051.0, 0.0077386728226341486
1052.0, 0.008356117476168571
1053.0, 0.01347247361324081
1054.0, 0.013951097513583121
1055.0, 0.01661040984907551
1056.0, 0.01721091750973936
1057.0, 0.019551910886187122
1058.0, 0.02202748591844764
1059.0, 0.02738281241717257
1060.0, 0.03041808771808912
1061.0, 0.03244243745583483
1062.0, 0.03648837023850072
1063.0, 0.04309570056260508
1064.0, 0.04922967482844876
1065.0, 0.05483947579116035
1066.0, 0.06268787551190184
1067.0, 0.06744651124848942
1068.0, 0.0752526896764631
1069.0, 0.08308361563085633
1070.0, 0.09623450951470557
1071.0, 0.10831142635279392
1072.0, 0.12049582098219384
1073.0, 0.13238152259547184
1074.0, 0.14646348042106885
1075.0, 0.1571820268785535
1076.0, 0.16304743551265058
1077.0, 0.16290403556944857
1078.0, 0.16027264883698458
1079.0, 0.1538222157372871
1080.0, 0.14112485077391673
1081.0, 0.12691246933137637
1082.0, 0.1135099665766801
1083.0, 0.09929808341825791
1084.0, 0.08477011581188815
1085.0, 0.07432092474404321
1086.0, 0.06452539231456181
1087.0, 0.055484092655416345
1088.0, 0.05166173206004836
1089.0, 0.048112137966222365
1090.0, 0.04358864322288454
1091.0, 0.038596927268913575
1092.0, 0.037543506234349204
1093.0, 0.03797966767473958
1094.0, 0.03621456751148355
1095.0, 0.03520523070051593
1096.0, 0.03547497751733859
1097.0, 0.03439968474020473
1098.0, 0.03272656378991127
1099.0, 0.03042342953486775
1100.0, 0.03039479761323423
1101.0, 0.030335796401221218
1102.0, 0.02764802255797456
1103.0, 0.024470414104955998
1104.0, 0.027671794945307363
1105.0, 0.02428923370345809
1106.0, 0.021674371899182383
1107.0, 0.020451854147592177
1108.0, 0.019511452958645502
1109.0, 0.019322119504127166
1110.0, 0.017915486123386393
1111.0, 0.014811476926943474
1112.0, 0.015109047923522582
1113.0, 0.015058284521299209
1114.0, 0.011594404017531378
1115.0, 0.0088475555603758
1116.0, 0.005709506881140086
1117.0, 0.005179571217938779
1118.0, 0.006101604970956083
1119.0, 0.005602427638088433
1120.0, 0.004006195619790552
1121.0, 0.004586561750935706
1122.0, 8.360619216715536e-05
1123.0, 0.002282990703125177
1124.0, 0.001797211773778263
1125.0, 0.0006093406560591314
1126.0, 0.0003828740642350105
1127.0, 0.00037725298623731085
1128.0, 0.000246226182205563
1129.0, 0.0028033397578403996
1130.0, 0.0023520735095402825
1131.0, 0.0005734928122525821
1132.0, 0.0016449741006429848
1133.0, 0.0034971005483569774
1134.0, 0.00550754204866157
1135.0, 0.005885588476940614
1136.0, 0.007913054118447694
1137.0, 0.011110657640799606
1138.0, 0.00994365909762118
1139.0, 0.012154762950811237
1140.0, 0.01613347729878843
1141.0, 0.017550779159962462
1142.0, 0.023435843358849826
1143.0, 0.02428748019263734
1144.0, 0.026425693622557794
1145.0, 0.02936203754960986
1146.0, 0.03341427497996135
1147.0, 0.03715635254789411
1148.0, 0.042286929291037834
1149.0, 0.046220962847751686
1150.0, 0.05267048212908027
1151.0, 0.05745796087371135
1152.0, 0.059507213887388936
1153.0, 0.06337040887016665
1154.0, 0.06735484735321763
1155.0, 0.07107559586525374
1156.0, 0.07280342350557084
1157.0, 0.07340031858277125
1158.0, 0.07532416469484156
1159.0, 0.07508435814889056
1160.0, 0.07102357356974477
1161.0, 0.06878281795101834
1162.0, 0.06576884401654493
1163.0, 0.0623478722220517
1164.0, 0.05627782176134553
1165.0, 0.05085902601714618
1166.0, 0.04795157689694417
1167.0, 0.044197046401775894
1168.0, 0.04062354836402485
1169.0, 0.03710559450285141
1170.0, 0.03198248300340339
1171.0, 0.026624578080176736
1172.0, 0.022844333550050628
1173.0, 0.021880556838517713
1174.0, 0.019638159253172437
1175.0, 0.016061557640942577
1176.0, 0.013358682276419056
1177.0, 0.010074337720333481
1178.0, 0.009246889908785002
1179.0, 0.008532616924175472
1180.0, 0.007354552431396691
1181.0, 0.006638428342863367
1182.0, 0.00784256298345323
1183.0, 0.007803756217566822
1184.0, 0.006323519931356433
1185.0, 0.004271353073075028
1186.0, 0.007089251254084506
1187.0, 0.0078757808757651
1188.0, 0.004676520344062621
1189.0, 0.0021995199854591956
1190.0, 0.004049631638289971
1191.0, 0.005072891837137875
1192.0, 0.004193101200397984
1193.0, 0.003522981612453928
1194.0, 0.003830694019031795
1195.0, 0.003645712517167744
1196.0, 0.0020573734744950612
1197.0, 0.00265579940666563
1198.0, 0.0022610942064735847
1199.0, 0.001224500653910695
1200.0, 0.0018836084593091852
1201.0, 0.00214985646168685
1202.0, 0.0009602364340271182
1203.0, 0.0013859851222338359
1204.0, 0.0005953639291368263
1205.0, 0.00041241232656864953
1206.0, 0.001250832667821928
1207.0, 0.00038491436649657076
1208.0, 0.0012100058713932394
1209.0, 0.000784868541563769
1210.0, 0.0006654150079693856
1211.0, 0.0005748597821507996
1212.0, 0.00036689507436496823
1213.0, 0.0006668853966618463
1214.0, 0.0009052798458091425
1215.0, 0.0032458615991624753
1216.0, 0.0019307748010513042
1217.0, 0.0043482751937908085
1218.0, 0.0030736908364789803
1219.0, 0.0011404591753978875
1220.0, 0.0008580862003207441
1221.0, 0.002532231700016187
1222.0, 0.002307509154216947
1223.0, 0.0014321202857632517
1224.0, 0.001216549871383644
1225.0, 0.0013107701694795666
1226.0, 0.0004754017327952561
1227.0, 0.0014144304950004481
1228.0, 0.0020623416831215343
1229.0, 0.0003674334889886572
1230.0, 0.0005225188616673905
1231, 0.0
1232, 0.0
1233, 0.0
1234, 0.0
1235, 0.0
1236, 0.0
1237, 0.0
1238, 0.0
1239, 0.0
1240, 0.0
1241, 0.0
1242, 0.0
1243, 0.0
1244, 0.0
1245, 0.0
1246, 0.0
1247, 0.0
1248, 0.0
1249, 0.0
1250, 0.0
1251, 0.0
1252, 0.0
1253, 0.0
1254, 0.0
1255, 0.0
1256, 0.0
1257, 0.0
1258, 0.0
1259, 0.0
1260, 0.0
1261, 0.0
1262, 0.0
1263, 0.0
1264, 0.0
1265, 0.0
1266, 0.0
1267, 0.0
1268, 0.0
1269, 0.0
1270, 0.0
1271, 0.0
1272, 0.0
1273, 0.0
1274, 0.0
1275, 0.0
1276, 0.0
1277, 0.0
1278, 0.0
1279, 0.0
1280, 0.0
1281, 0.0
1282, 0.0
1283, 0.0
1284, 0.0
1285, 0.0
1286, 0.0
1287, 0.0
1288, 0.0
1289, 0.0
1290, 0.0
1291, 0.0
1292, 0.0
1293, 0.0
1294, 0.0
1295, 0.0
1296, 0.0
1297, 0.0
1298, 0.0
1299, 0.0
1300, 0.0
1301, 0.0
1302, 0.0
1303, 0.0
1304, 0.0
1305, 0.0
1306, 0.0
1307, 0.0
1308, 0.0
1309, 0.0
1310, 0.0
1311, 0.0
1312, 0.0
1313, 0.0
1314, 0.0
1315, 0.0
1316, 0.0
1317, 0.0
1318, 0.0
1319, 0.0
1320, 0.0
1321, 0.0
1322, 0.0
1323, 0.0
1324, 0.0
1325, 0.0
1326, 0.0
1327, 0.0
1328, 0.0
1329, 0.0
1330, 0.0
1331, 0.0
1332, 0.0
1333, 0.0
1334, 0.0
1335, 0.0
1336, 0.0
1337, 0.0
1338, 0.0
1339, 0.0
1340, 0.0
1341, 0.0
1342, 0.0
1343, 0.0
1344, 0.0
1345, 0.0
1346, 0.0
1347, 0.0
1348, 0.0
1349, 0.0
1350, 0.0
1351, 0.0
1352, 0.0
1353, 0.0
1354, 0.0
1355, 0.0
1356, 0.0
1357, 0.0
1358, 0.0
1359, 0.0
1360, 0.0
1361, 0.0
1362, 0.0
1363, 0.0
1364, 0.0
1365, 0.0
1366, 0.0
1367, 0.0
1368, 0.0
1369, 0.0
1370, 0.0
1371, 0.0
1372, 0.0
1373, 0.0
1374, 0.0
1375, 0.0
1376, 0.0
1377, 0.0
1378, 0.0
1379, 0.0
1380, 0.0
1381, 0.0
1382, 0.0
1383, 0.0
1384, 0.0
1385, 0.0
1386, 0.0
1387, 0.0
1388, 0.0
1389, 0.0
1390, 0.0
1391, 0.0
1392, 0.0
1393, 0.0
1394, 0.0
1395, 0.0
1396, 0.0
1397, 0.0
1398, 0.0
1399, 0.0
1400, 0.0
1401, 0.0
1402, 0.0
1403, 0.0
1404, 0.0
1405, 0.0
1406, 0.0
1407, 0.0
1408, 0.0
1409, 0.0
1410, 0.0
1411, 0.0
1412, 0.0
1413, 0.0
1414, 0.0
1415, 0.0
1416, 0.0
1417, 0.0
1418, 0.0
1419, 0.0
1420, 0.0
1421, 0.0
1422, 0.0
1423, 0.0
1424, 0.0
1425, 0.0
1426, 0.0
1427, 0.0
1428, 0.0
1429, 0.0
1430, 0.0
1431, 0.0
1432, 0.0
1433, 0.0
1434, 0.0
1435, 0.0
1436, 0.0
1437, 0.0
1438, 0.0
1439, 0.0
1440, 0.0
1441, 0.0
1442, 0.0
1443, 0.0
1444, 0.0
1445, 0.0
1446, 0.0
1447, 0.0
1448, 0.0
1449, 0.0
1450, 0.0
1451, 0.0
1452, 0.0
1453, 0.0
1454, 0.0
1455, 0.0
1456, 0.0
1457, 0.0
1458, 0.0
1459, 0.0
1460, 0.0
1461, 0.0
1462, 0.0
1463, 0.0
1464, 0.0
1465, 0.0
1466, 0.0
1467, 0.0
1468, 0.0
1469, 0.0
1470, 0.0
1471, 0.0
1472, 0.0
1473, 0.0
1474, 0.0
1475, 0.0
1476, 0.0
1477, 0.0
1478, 0.0
1479, 0.0
1480, 0.0
1481, 0.0
1482, 0.0
1483, 0.0
1484, 0.0
1485, 0.0
1486, 0.0
1487, 0.0
1488, 0.0
1489, 0.0
1490, 0.0
1491, 0.0
1492, 0.0
1493, 0.0
1494, 0.0
1495, 0.0
1496, 0.0
1497, 0.0
1498, 0.0
1499, 0.0
1500, 0.0
1501, 0.0
1502, 0.0
1503, 0.0
1504, 0.0
1505, 0.0
1506, 0.0
1507, 0.0
1508, 0.0
1509, 0.0
1510, 0.0
1511, 0.0
1512, 0.0
1513, 0.0
1514, 0.0
1515, 0.0
1516, 0.0
1517, 0.0
1518, 0.0
1519, 0.0
1520, 0.0
1521, 0.0
1522, 0.0
1523, 0.0
1524, 0.0
1525, 0.0
1526, 0.0
1527, 0.0
1528, 0.0
1529, 0.0
1530, 0.0
1531, 0.0
1532, 0.0
1533, 0.0
1534, 0.0
1535, 0.0
1536, 0.0
1537, 0.0
1538, 0.0
1539, 0.0
1540, 0.0
1541, 0.0
1542, 0.0
1543, 0.0
1544, 0.0
1545, 0.0
1546, 0.0
1547, 0.0
1548, 0.0
1549, 0.0
1550, 0.0
1551, 0.0
1552, 0.0
1553, 0.0
1554, 0.0
1555, 0.0
1556, 0.0
1557, 0.0
1558, 0.0
1559, 0.0
1560, 0.0
1561, 0.0
1562, 0.0
1563, 0.0
1564, 0.0
1565, 0.0
1566, 0.0
1567, 0.0
1568, 0.0
1569, 0.0
1570, 0.0
1571, 0.0
1572, 0.0
1573, 0.0
1574, 0.0
1575, 0.0
1576, 0.0
1577, 0.0
1578, 0.0
1579, 0.0
1580, 0.0
1581, 0.0
1582, 0.0
1583, 0.0
1584, 0.0
1585, 0.0
1586, 0.0
1587, 0.0
1588, 0.0
1589, 0.0
1590, 0.0
1591, 0.0
1592, 0.0
1593, 0.0
1594, 0.0
1595, 0.0
1596, 0.0
1597, 0.0
1598, 0.0
1599, 0.0
