30, 0.0
31, 0.0
32, 0.0
33, 0.0
34, 0.0
35, 0.0
36, 0.0
37, 0.0
38, 0.0
39, 0.0
40, 0.0
41, 0.0
42, 0.0
43, 0.0
44, 0.0
45, 0.0
46, 0.0
47, 0.0
48, 0.0
49, 0.0
50, 0.0
51, 0.0
52, 0.0
53, 0.0
54, 0.0
55, 0.0
56, 0.0
57, 0.0
58, 0.0
59, 0.0
60, 0.0
61, 0.0
62, 0.0
63, 0.0
64, 0.0
65, 0.0
66, 0.0
67, 0.0
68, 0.0
69, 0.0
70, 0.0
71, 0.0
72, 0.0
73, 0.0
74, 0.0
75, 0.0
76, 0.0
77, 0.0
78, 0.0
79, 0.0
80, 0.0
81, 0.0
82, 0.0
83, 0.0
84, 0.0
85, 0.0
86, 0.0
87, 0.0
88, 0.0
89, 0.0
90, 0.0
91, 0.0
92, 0.0
93, 0.0
94, 0.0
95, 0.0
96, 0.0
97, 0.0
98, 0.0
99, 0.0
100, 0.0
101, 0.0
102, 0.0
103, 0.0
104, 0.0
105, 0.0
106, 0.0
107, 0.0
108, 0.0
109, 0.0
110, 0.0
111, 0.0
112, 0.0
113, 0.0
114, 0.0
115, 0.0
116, 0.0
117, 0.0
118, 0.0
119, 0.0
120, 0.0
121, 0.0
122, 0.0
123, 0.0
124, 0.0
125, 0.0
126, 0.0
127, 0.0
128, 0.0
129, 0.0
130, 0.0
131, 0.0
132, 0.0
133, 0.0
134, 0.0
135, 0.0
136, 0.0
137, 0.0
138, 0.0
139, 0.0
140, 0.0
141, 0.0
142, 0.0
143, 0.0
144, 0.0
145, 0.0
146, 0.0
147, 0.0
148, 0.0
149, 0.0
150, 0.0
151, 0.0
152, 0.0
153, 0.0
154.0, 0.003647345534094889
155.0, 0.0039631620662765755
156.0, 0.004543524853015221
157.0, 0.006706806648244521
158.0, 0.0066403292944423025
159.0, 0.008479747703257025
160.0, 0.004834815866995296
161.0, 0.001358953210063429
162.0, 0.004761539264021887
163.0, 0.011092807147470447
164.0, 0.009776808892965543
165.0, 0.00937989726421127
166.0, 0.014215506919835523
167.0, 0.01992685183686787
168.0, 0.021966967846012
169.0, 0.017222176044618193
170.0, 0.013093367242382878
171.0, 0.01696053508895022
172.0, 0.017509833733411632
173.0, 0.021432949753067913
174.0, 0.025700083429116182
175.0, 0.027507843095470216
176.0, 0.024099967286192486
177.0, 0.02177903604792852
178.0, 0.022290237275464485
179.0, 0.022400608142104546
180.0, 0.018978657139874615
181.0, 0.014894516411670677
182.0, 0.012117628461776395
183.0, 0.010912045792960876
184.0, 0.010560116462074571
185.0, 0.009938124683839832
186.0, 0.01085382821964596
187.0, 0.010571808560707685
188.0, 0.007766159391244354
189.0, 0.004545468980482802
190.0, 0.001434233438597833
191.0, 0.005973404226447654
192.0, 0.007521790986284926
193.0, 0.00753225015924558
194.0, 0.006018344124552264
195.0, 0.003516115728769813
196.0, 0.00242382184240453
197.0, 0.003929283914145999
198.0, 0.005303938208629247
199.0, 0.002310734060567177
200.0, 0.0015913893976765405
201.0, 0.0035606839210397035
202.0, 0.0017217582257614845
203.0, 0.0033714372219101037
204.0, 0.0027718190486240146
205.0, 0.0005683904647309033
206.0, 0.0015044366115112273
207.0, 0.00020160216227807764
208.0, 0.0037513246377835464
209.0, 0.007015940374983465
210.0, 0.008426821099819215
211.0, 0.014626239159925808
212.0, 0.018173581580024287
213.0, 0.02218774098112175
214.0, 0.026943640692182705
215.0, 0.030562848656448934
216.0, 0.03279179431989233
217.0, 0.035108557391756265
218.0, 0.0365231648544247
219.0, 0.03768205468442276
220.0, 0.04209670216009625
221.0, 0.04217362160831688
222.0, 0.04536587403473873
223.0, 0.050583430319533954
224.0, 0.052458552624675886
225.0, 0.057881926542678055
226.0, 0.06574386870211194
227.0, 0.07222991185531946
228.0, 0.077279082981383
229.0, 0.0879201213105664
230.0, 0.09831240038361151
231.0, 0.11159976744048407
232.0, 0.12781236808994306
233.0, 0.14477143856457317
234.0, 0.16377063745129442
235.0, 0.18670926694942408
236.0, 0.2140809733687645
237.0, 0.24326739290878766
238.0, 0.2674862965416276
239.0, 0.3029162164361516
240.0, 0.3372071229617047
241.0, 0.37069215324910076
242.0, 0.40874053279907974
243.0, 0.44004891228926274
244.0, 0.4778794438309637
245.0, 0.5179054155720932
246.0, 0.5572046106182263
247.0, 0.6018069657869266
248.0, 0.6453772452624835
249.0, 0.6916447216732493
250.0, 0.7415768748463665
251.0, 0.7924556148405262
252.0, 0.8374233818334126
253.0, 0.8900486847744525
254.0, 0.9397116502139389
255.0, 0.9762982433828361
256.0, 0.9943713840832087
257.0, 0.998625999764055
258.0, 0.9754857686828757
259.0, 0.9310949508844113
260.0, 0.8784891737386141
261.0, 0.8189217758386651
262.0, 0.7455092690993678
263.0, 0.6673969811384884
264.0, 0.5961028079956935
265.0, 0.5389616549500208
266.0, 0.48971369828706013
267.0, 0.4441539962389415
268.0, 0.40203974446542134
269.0, 0.3642234945635075
270.0, 0.33166615608692596
271.0, 0.3100228863400135
272.0, 0.28836458983026936
273.0, 0.26528449160112577
274.0, 0.24763544096056042
275.0, 0.23742823088792103
276.0, 0.2222169832798868
277.0, 0.2121730231093577
278.0, 0.20772605836429636
279.0, 0.19470334794701014
280.0, 0.1906431856813579
281.0, 0.18731265521064563
282.0, 0.1839005553011068
283.0, 0.18247804537288193
284.0, 0.1815276723323402
285.0, 0.17646135116815673
286.0, 0.1779313470157438
287.0, 0.1840431938555377
288.0, 0.18563345784620208
289.0, 0.19136435804264898
290.0, 0.1941546655437673
291.0, 0.19884434608034432
292.0, 0.20728607586200198
293.0, 0.2130498444729438
294.0, 0.2170270015156601
295.0, 0.2211194905155307
296.0, 0.22352783909070323
297.0, 0.22441057230113062
298.0, 0.23058691953003901
299.0, 0.2407109225080544
300.0, 0.24575723283519896
301.0, 0.24938981694945764
302.0, 0.2597791321699688
303.0, 0.2667677852347472
304.0, 0.26727990262596196
305.0, 0.26879517635745914
306.0, 0.2751098652754962
307.0, 0.28189381325749746
308.0, 0.2799329893419646
309.0, 0.2775003820297371
310.0, 0.2763397911014058
311.0, 0.27462894034746915
312.0, 0.270530178522175
313.0, 0.26432543456841917
314.0, 0.2580858226197921
315.0, 0.2543134461259789
316.0, 0.2530135215118219
317.0, 0.24838371183401559
318.0, 0.2415608545479936
319.0, 0.23243080452118
320.0, 0.22205097986423816
321.0, 0.21220004328469605
322.0, 0.2035834539353631
323.0, 0.1914176019976164
324.0, 0.18246822457384945
325.0, 0.17577236921757772
326.0, 0.15966497596685775
327.0, 0.1496842373333736
328.0, 0.1411383677180084
329.0, 0.13312335582345425
330.0, 0.12585553014553577
331.0, 0.11696274461279596
332.0, 0.11047288082493945
333.0, 0.1016921939646629
334.0, 0.090032154938663
335.0, 0.07735734270357977
336.0, 0.06617694346360199
337.0, 0.05698587433580799
338.0, 0.05266277889343519
339.0, 0.05036994249890639
340.0, 0.04376710177871835
341.0, 0.03625388832197042
342.0, 0.031746281589008316
343.0, 0.030103029770444562
344.0, 0.02818983775480183
345.0, 0.022560179407693788
346.0, 0.015400493545241024
347.0, 0.009022832188511529
348.0, 0.006579830616943222
349.0, 0.007240207945969359
350.0, 0.004776077538145993
351.0, 0.003014760514555449
352.0, 0.0009363649083897359
353.0, 0.0042466451337081
354.0, 0.005488191250428312
355.0, 0.005683672297967514
356.0, 0.0009299121754550252
357.0, 0.003381166203348686
358.0, 0.007081131846150878
359.0, 0.005353377814261009
360.0, 0.0062900011596960246
361.0, 0.007880449940577395
362.0, 0.00669258636005227
363.0, 0.005168111873918055
364.0, 0.0052431361892108785
365.0, 0.0006800428883294073
366.0, 0.0026720382551957494
367.0, 0.004603249860705364
368.0, 0.004241152479718833
369.0, 0.005012199723115135
370.0, 0.003523803300373498
371.0, 0.004077268526107264
372.0, 0.0035741550012239704
373.0, 0.00294039706202899
374.0, 0.005802569301643365
375.0, 0.002635424893882203
376.0, 0.0014448615060345712
377.0, 0.004115849874668046
378.0, 0.005576720082016858
379.0, 0.006871191101683413
380.0, 0.005143035358024189
381.0, 0.007249225317316128
382.0, 0.00880036184573827
383.0, 0.008650520539356152
384.0, 0.011102453467378889
385.0, 0.011020747635419216
386.0, 0.011336948941044343
387.0, 0.012821821548878828
388.0, 0.014073269003002322
389.0, 0.013520090085127574
390.0, 0.014958318157822094
391.0, 0.019267484355432324
392.0, 0.02301988671015697
393.0, 0.023331619435570692
394.0, 0.02032350135090697
395.0, 0.01582297789673583
396.0, 0.016356790041082692
397.0, 0.015001949052211317
398.0, 0.009701416454645171
399.0, 0.007281111877316158
400.0, 0.005633463340963562
401.0, 0.0035866288584076524
402.0, 0.004383973228105427
403.0, 0.00622800904611877
404.0, 0.0014520097975562808
405.0, 0.0006905897290580612
406.0, 0.0002576837917171048
407.0, 0.0005599833402711387
408.0, 0.00036235006388662635
409.0, 0.0015565669187621763
410.0, 0.0007968537134087802
411.0, 0.0006547365760434138
412.0, 0.002632022371060845
413.0, 0.0027147841536300423
414.0, 0.0027047606046705103
415.0, 0.003436447969203923
416.0, 0.005749694894536608
417.0, 0.008742746784128437
418.0, 0.010388215087702041
419.0, 0.011774184752833263
420.0, 0.01752767518707721
421.0, 0.020767364680662634
422.0, 0.02605652942946027
423.0, 0.032090167045984434
424.0, 0.03166474411715826
425.0, 0.03773445708218112
426.0, 0.04356776561274382
427.0, 0.055272675928299764
428.0, 0.07018135299064979
429.0, 0.077086702301762
430.0, 0.0791930886105616
431.0, 0.09085031097423422
432.0, 0.1034294865362732
433.0, 0.1157249442743735
434.0, 0.1336304000230716
435.0, 0.14884312227142094
436.0, 0.1647947892545638
437.0, 0.18379177279371264
438.0, 0.2032132852511041
439.0, 0.22116083533176215
440.0, 0.24318620588416623
441.0, 0.26623633377314754
442.0, 0.28243335010161713
443.0, 0.2989662076768598
444.0, 0.32488657322102005
445.0, 0.3533374141238306
446.0, 0.36736083069652636
447.0, 0.3846788973366237
448.0, 0.4073978606911582
449.0, 0.42835086345575957
450.0, 0.445213049733353
451.0, 0.4692093581009141
452.0, 0.4874451200423585
453.0, 0.5031357504785648
454.0, 0.5204875351574686
455.0, 0.5328648501721318
456.0, 0.5376369332381368
457.0, 0.5456514706868186
458.0, 0.5495086341386498
459.0, 0.547758309466283
460.0, 0.5497785648695854
461.0, 0.5466471238103746
462.0, 0.5390510042493538
463.0, 0.5236780968810774
464.0, 0.5025329477088162
465.0, 0.48145818381177985
466.0, 0.459508751452356
467.0, 0.4405701022078715
468.0, 0.4156015206918148
469.0, 0.3899352847908808
470.0, 0.3730172881952851
471.0, 0.35618750655372705
472.0, 0.3340229469179636
473.0, 0.31462424086802454
474.0, 0.29703416171965596
475.0, 0.2788694035564586
476.0, 0.26540884588951785
477.0, 0.24787402507904882
478.0, 0.23396080114687637
479.0, 0.2257847708276943
480.0, 0.2186474868782615
481.0, 0.20774851804658978
482.0, 0.20191654923292154
483.0, 0.19479995707870584
484.0, 0.18863095175512704
485.0, 0.1837383820550576
486.0, 0.1780733280730375
487.0, 0.174187684159071
488.0, 0.17298570045904513
489.0, 0.17128595140230654
490.0, 0.16797412163297812
491.0, 0.16567623535076015
492.0, 0.17116966110366597
493.0, 0.1746351781462065
494.0, 0.18017436963927114
495.0, 0.18147226050697096
496.0, 0.1785174599748777
497.0, 0.186228710331917
498.0, 0.19222476168390995
499.0, 0.1941342282648606
500.0, 0.19455025971475043
501.0, 0.19771373474710835
502.0, 0.20402893789637772
503.0, 0.1982893127594486
504.0, 0.19753664672489668
505.0, 0.1959979112753409
506.0, 0.19054228258901038
507.0, 0.18431071347808983
508.0, 0.17731570458683796
509.0, 0.16566995422967226
510.0, 0.1570178864241681
511.0, 0.15079352523742107
512.0, 0.14340431970517353
513.0, 0.1331065849900077
514.0, 0.12198040630072134
515.0, 0.11331232730313451
516.0, 0.10694214089519594
517.0, 0.10295749427466985
518.0, 0.0998851995543973
519.0, 0.0906196554775003
520.0, 0.08687394121656426
521.0, 0.08228509693956218
522.0, 0.07638690668164293
523.0, 0.07198251191539927
524.0, 0.07006458426263946
525.0, 0.06480007024310344
526.0, 0.05754204263431692
527.0, 0.052099588122096786
528.0, 0.049311222718539265
529.0, 0.046443467209534114
530.0, 0.041807274325101534
531.0, 0.0355524458627695
532.0, 0.03486754814328542
533.0, 0.03419891089635814
534.0, 0.030175412242017398
535.0, 0.03307530371391656
536.0, 0.03151799487740944
537.0, 0.024852673459192072
538.0, 0.018304810201831424
539.0, 0.015352405004385087
540.0, 0.01457791718017218
541.0, 0.0097754277646335
542.0, 0.007612390851140098
543.0, 0.008183037202828643
544.0, 0.0050758774924605345
545.0, 0.000996565153497352
546.0, 0.0005132547812252465
547.0, 0.001796302453140766
548.0, 0.003008211908940063
549.0, 0.006276850245843576
550.0, 0.008604493120925287
551.0, 0.0029521968488271156
552.0, 0.005238873513313754
553.0, 0.012130841776484208
554.0, 0.01275835070323305
555.0, 0.009224962794603614
556.0, 0.01018079337276304
557.0, 0.01644775739672319
558.0, 0.016987318083129324
559.0, 0.016425835781099265
560.0, 0.016156854032982632
561.0, 0.018261213360069323
562.0, 0.02203846774248897
563.0, 0.014341774454592896
564.0, 0.016110768376157113
565.0, 0.017722505344287372
566.0, 0.016362291645743595
567.0, 0.013117072293507896
568.0, 0.010082989022492142
569.0, 0.00843064704773397
570.0, 0.007463737128772654
571.0, 0.0055379885946222115
572.0, 0.0025097626103634313
573.0, 0.0005864684957889563
574.0, 0.0016761688252624357
575.0, 0.006862864533675475
576.0, 0.0056322940213414255
577.0, 0.010456806276833394
578.0, 0.023132241178744233
579.0, 0.030552034238895763
580.0, 0.03516419573484267
581.0, 0.048194468731153975
582.0, 0.06566233928197521
583.0, 0.07617856943268629
584.0, 0.08457865776895798
585.0, 0.10572169560531494
586.0, 0.12182143301601585
587.0, 0.13552424672102473
588.0, 0.1609410696397214
589.0, 0.1890263553587456
590.0, 0.20885411427230838
591.0, 0.2286996088953894
592.0, 0.2515939638343641
593.0, 0.2793965487364455
594.0, 0.3068976274198677
595.0, 0.33427664041987576
596.0, 0.3649225982505181
597.0, 0.3941699925895699
598.0, 0.4257523088769775
599.0, 0.4508322904695691
600.0, 0.47656668169677957
601.0, 0.5027804892057767
602.0, 0.5211066046501972
603.0, 0.5414863196583088
604.0, 0.5556883104548944
605.0, 0.5695575748033522
606.0, 0.5804893658206612
607.0, 0.5858613979690002
608.0, 0.5872560815785935
609.0, 0.5789818431813899
610.0, 0.5815965886410187
611.0, 0.577977273590379
612.0, 0.5662781170457526
613.0, 0.5543049491326312
614.0, 0.5417224795973763
615.0, 0.5313814858408291
616.0, 0.5169700280805297
617.0, 0.5051773775750956
618.0, 0.4960600351647146
619.0, 0.48547038750062926
620.0, 0.4731085544786437
621.0, 0.45933046930757776
622.0, 0.45718156399236065
623.0, 0.45457119055158307
624.0, 0.4489650831133625
625.0, 0.4463178057086965
626.0, 0.4431343254501176
627.0, 0.4435194285882615
628.0, 0.4384427922183235
629.0, 0.4364858383261535
630.0, 0.4385266380935813
631.0, 0.43747907853272533
632.0, 0.4355738301258774
633.0, 0.43666516651832316
634.0, 0.4338367829942755
635.0, 0.43346443488790753
636.0, 0.43764368012447297
637.0, 0.43989109778247487
638.0, 0.43646076059275557
639.0, 0.4428647773133142
640.0, 0.45527613450928267
641.0, 0.4655500444955801
642.0, 0.4717608344861967
643.0, 0.4770002987423433
644.0, 0.48249139872374114
645.0, 0.4946016201606412
646.0, 0.4992944071816445
647.0, 0.5053177471263456
648.0, 0.518552293669723
649.0, 0.5308873792885295
650.0, 0.5312651979890146
651.0, 0.5477121807589965
652.0, 0.5597591416090703
653.0, 0.5726276583436518
654.0, 0.5900801829471797
655.0, 0.6052927584842195
656.0, 0.6225766216914822
657.0, 0.6380214685944519
658.0, 0.6514056014342006
659.0, 0.6645763365116327
660.0, 0.6824347417946452
661.0, 0.7069492855344889
662.0, 0.7274635560250542
663.0, 0.7450035626228471
664.0, 0.7602155451014968
665.0, 0.7756310764048953
666.0, 0.7912566770765892
667.0, 0.8064944549962447
668.0, 0.8240423340368257
669.0, 0.8302833510130483
670.0, 0.844676939803118
671.0, 0.8609525720536697
672.0, 0.8714188827064455
673.0, 0.8766485581014296
674.0, 0.8820736073498608
675.0, 0.888293892272267
676.0, 0.9029554833205488
677.0, 0.9092028714095755
678.0, 0.9062496292526041
679.0, 0.9016067631089923
680.0, 0.8936167625990017
681.0, 0.8942261053543779
682.0, 0.8813063372471681
683.0, 0.8682959286896362
684.0, 0.8605873729348231
685.0, 0.8480101394164287
686.0, 0.8225205098739569
687.0, 0.8126244741426891
688.0, 0.7865928101736066
689.0, 0.7635368508603319
690.0, 0.7493152120183089
691.0, 0.733697805458356
692.0, 0.7095435137028084
693.0, 0.6885010789849503
694.0, 0.6633066421317587
695.0, 0.6379618971137156
696.0, 0.6079037130382545
697.0, 0.574576702923858
698.0, 0.5465370426571452
699.0, 0.5262178490927161
700.0, 0.5016576061206593
701.0, 0.4772886822556643
702.0, 0.4478830220310539
703.0, 0.41979308915792846
704.0, 0.40109809319974016
705.0, 0.38069900774875387
706.0, 0.3488276851754518
707.0, 0.3294238665897241
708.0, 0.30817639810984493
709.0, 0.28373393419710397
710.0, 0.263499790533612
711.0, 0.2470372786373326
712.0, 0.22789305588295042
713.0, 0.21379569299623244
714.0, 0.19778283385761117
715.0, 0.17772478743257097
716.0, 0.15944671270177924
717.0, 0.1471845584009464
718.0, 0.13005490700553135
719.0, 0.12149374244128781
720.0, 0.11160964744039799
721.0, 0.09616634948406053
722.0, 0.08318275957918152
723.0, 0.0759969384486683
724.0, 0.06696707499111094
725.0, 0.06284925946141755
726.0, 0.053201468362773306
727.0, 0.04450218297858561
728.0, 0.03674313326443317
729.0, 0.030880076348727754
730.0, 0.02885775750606521
731.0, 0.02169075884336844
732.0, 0.017398958024608006
733.0, 0.006932973908302129
734.0, 0.0027059610796962576
735.0, 0.002518169759313124
736.0, 0.0011707106165972161
737.0, 0.0004780437047450322
738.0, 0.0004122017875842533
739.0, 0.006882549572543147
740.0, 0.01165472758086851
741.0, 0.01254946979026354
742.0, 0.013469574832907547
743.0, 0.015792239937798772
744.0, 0.015132592036605667
745.0, 0.015595255633182457
746.0, 0.014119280409077445
747.0, 0.014066209744925366
748.0, 0.01620870036942254
749.0, 0.01642238209555355
750.0, 0.012526794674045756
751.0, 0.015267178359494408
752.0, 0.012774246445849626
753.0, 0.01138824335533587
754.0, 0.008413890678334817
755.0, 0.006772294274759229
756.0, 0.01197022966915391
757.0, 0.010867263057268121
758.0, 0.009100955441870477
759.0, 0.008636401536900323
760.0, 0.0038534170127073734
761.0, 0.0017665860905081419
762.0, 0.0037861083669844995
763.0, 0.0018472228864235985
764.0, 0.0046077666770663675
765.0, 0.005201570183591371
766.0, 0.006111723584507772
767.0, 0.007620283847554283
768.0, 0.009721626585591354
769.0, 0.011298832682507028
770.0, 0.01058571623575773
771.0, 0.015000897232219973
772.0, 0.014298716508286085
773.0, 0.014783953930346271
774.0, 0.016631861561674205
775.0, 0.018846211663810668
776.0, 0.022188354384722806
777.0, 0.022283895238632098
778.0, 0.02681404242017526
779.0, 0.02799828729695069
780.0, 0.03153316927140956
781.0, 0.03495549129048031
782.0, 0.03419509522882081
783.0, 0.03281294066512535
784.0, 0.03771146174042233
785.0, 0.04080585850138204
786.0, 0.042041624278679156
787.0, 0.04450454211747828
788.0, 0.04428025506143071
789.0, 0.04129755746952546
790.0, 0.043042161057646786
791.0, 0.04375656901473829
792.0, 0.04706262474639427
793.0, 0.04501267943181979
794.0, 0.047121550670129075
795.0, 0.05296873549252749
796.0, 0.05512806138057102
797.0, 0.05543347851775057
798.0, 0.05436966451775507
799.0, 0.05643317310232388
800.0, 0.05686960902698691
801.0, 0.05300516559100169
802.0, 0.05137638358613466
803.0, 0.05356975174010095
804.0, 0.050490419826762306
805.0, 0.052370171193482744
806.0, 0.054281054402281266
807.0, 0.055504489223177356
808.0, 0.05571777143257048
809.0, 0.05446496324830481
810.0, 0.05352055035461499
811.0, 0.05363887920775378
812.0, 0.052034392521377926
813.0, 0.05257417276633655
814.0, 0.05008339887102082
815.0, 0.04725232893141196
816.0, 0.04845931453867425
817.0, 0.04903292780015167
818.0, 0.040962225797759565
819.0, 0.047816930031533166
820.0, 0.04331728941108491
821.0, 0.04321885760194287
822.0, 0.04269840993895092
823.0, 0.040149715267396816
824.0, 0.04101630975409935
825.0, 0.04206210229941793
826.0, 0.03623064848481848
827.0, 0.03859248916218544
828.0, 0.0399405957051583
829.0, 0.03796809738274165
830.0, 0.0366711822875147
831.0, 0.037074720219061934
832.0, 0.03566960039432373
833.0, 0.03567741091233951
834.0, 0.0371581029073445
835.0, 0.036453501829956325
836.0, 0.03520486726536896
837.0, 0.03399823109074898
838.0, 0.034003417217934415
839.0, 0.036581447565202735
840.0, 0.03647433536742831
841.0, 0.03191304656439925
842.0, 0.03278154733448703
843.0, 0.03215047600127577
844.0, 0.032153840395630545
845.0, 0.032281502416461466
846.0, 0.027657574437466883
847.0, 0.031038443660304664
848.0, 0.029532305338048816
849.0, 0.02683345259752031
850.0, 0.022442821765386152
851.0, 0.022202401582808385
852.0, 0.026287068537938305
853.0, 0.025832555850202797
854.0, 0.020934198658051774
855.0, 0.022820839214579183
856.0, 0.02332504100410629
857.0, 0.023289513734175604
858.0, 0.021248754048909628
859.0, 0.022134272476049134
860.0, 0.026847341564192117
861.0, 0.0232610926654899
862.0, 0.019819217869660802
863.0, 0.01785984593759361
864.0, 0.019283648419735507
865.0, 0.021195211281091406
866.0, 0.021616183226736304
867.0, 0.020176307436817427
868.0, 0.017556275558361648
869.0, 0.016129677878975762
870.0, 0.017575328089411004
871.0, 0.01572450533069822
872.0, 0.017073245895366358
873.0, 0.018117925215779585
874.0, 0.015971849012059256
875.0, 0.013395029320051826
876.0, 0.012423699673175952
877.0, 0.01226269523627646
878.0, 0.01304898829624793
879.0, 0.012088906284615257
880.0, 0.011067661135446823
881.0, 0.008908668647500973
882.0, 0.005879026757078602
883.0, 0.005866573829579576
884.0, 0.00896698282246063
885.0, 0.009599318945899635
886.0, 0.010070524130669018
887.0, 0.007749187834911402
888.0, 0.00540724847679976
889.0, 0.005001911314085707
890.0, 0.005018935785861035
891.0, 0.004636877382941957
892.0, 0.0074813469295864484
893.0, 0.007686400669736132
894.0, 0.0039029251691289567
895.0, 0.0023610823243179367
896.0, 0.0036320746104286745
897.0, 0.0033671718556090935
898.0, 0.0027549413936767816
899.0, 0.009325121676140595
900.0, 0.008831551593922
901.0, 0.00699539501260967
902.0, 0.004017751989986332
903.0, 0.006318317038701701
904.0, 0.008098829671753549
905.0, 0.007017762944973356
906.0, 0.009013971998210834
907.0, 0.003039367383282476
908.0, 0.0027152947935965553
909.0, 0.00751121601943317
910.0, 0.005655295438625001
911.0, 0.0029612066827446803
912.0, 0.00388775340049829
913.0, 0.005831784531436071
914.0, 0.005737247140218927
915.0, 0.0019583345946757222
916.0, 0.002253770452390194
917.0, 0.0005334471733417297
918.0, 0.000266117562371813
919.0, 0.002134225452206493
920.0, 0.004271540592182343
921.0, 0.0041421550110251285
922.0, 0.0018969078902523024
923.0, 0.0041378757383895865
924.0, 0.0021812539889053406
925.0, 0.003840270748873481
926.0, 0.002257152110211566
927.0, 0.001128869127209034
928.0, 0.0009869044652361845
929.0, 0.0014719972895323146
930.0, 0.0004350236974984685
931.0, 0.0007386547984924875
932.0, 0.0034506336657890036
933.0, 0.0046041481967256485
934.0, 0.005714031279298999
935.0, 0.0021386632744846636
936.0, 0.0013214839139554118
937.0, 0.003731985941817006
938.0, 0.0014090321342912155
939.0, 0.002239485547042356
940.0, 0.007511550359289453
941.0, 0.008543589846636996
942.0, 0.008645626451194693
943.0, 0.008266657083810653
944.0, 0.006654948331185542
945.0, 0.006042705501291863
946.0, 0.00844064933332933
947.0, 0.007715538681487339
948.0, 0.010970309859334622
949.0, 0.009988990136889067
950.0, 0.009854290840025662
951.0, 0.005441185210064397
952.0, 0.0014054212905905722
953.0, 0.005543194135898739
954.0, 0.012928384407952475
955.0, 0.013371187212025163
956.0, 0.01194083354755577
957.0, 0.006943913238647812
958.0, 0.00628698142671099
959.0, 0.00508561456610275
960.0, 0.0051784817142726935
961.0, 0.007015067281612471
962.0, 0.006354290106049645
963.0, 0.008860310500981714
964.0, 0.004460850727539061
965.0, 0.008155517253383156
966.0, 0.004566173667448161
967.0, 0.0061427032040012285
968.0, 0.008559523633254499
969.0, 0.006902360755019651
970.0, 0.006787540272080182
971.0, 0.007417097925460451
972.0, 0.004940749017943017
973.0, 0.0005915564894538072
974.0, 0.003392253338979275
975.0, 0.007680494622344189
976.0, 0.004224428204644293
977.0, 0.0018555679635288524
978.0, 0.0021763018423965985
979.0, 0.0021281406284195887
980.0, 0.005939777809260933
981.0, 0.0006030095667742184
982.0, 0.004040251121324123
983.0, 0.001329639805266868
984.0, 0.0005151598552401451
985.0, 0.002796303052046766
986.0, 0.002183695032430566
987.0, 0.0026917209565153768
988.0, 0.0006620825948054477
989.0, 0.002016845330057173
990.0, 0.0008416004192194707
991.0, 0.001239474939194355
992.0, 0.0024460751694580555
993.0, 0.0031181031760290513
994.0, 0.0020513097418447175
995.0, 0.0004251443823052812
996.0, 0.000372804186614799
997.0, 0.0020774284552466924
998.0, 0.0004829646010014206
999.0, 0.0006430095241238535
1000.0, 0.000596882359777908
1001.0, 0.002693266501038955
1002.0, 0.0021953890402710455
1003.0, 0.0006347593622553887
1004.0, 0.0003672069765191522
1005.0, 0.0022381673444440016
1006.0, 0.0007550452762648635
1007.0, 0.0034965427565578906
1008.0, 0.004500375093523681
1009.0, 0.003816488853492531
1010.0, 0.0060058363013992715
1011.0, 0.006659173297827063
1012.0, 0.004079563728245039
1013.0, 0.0026095042625928918
1014.0, 0.00240255597529377
1015.0, 0.002264713643183998
1016.0, 0.0017285535246216413
1017.0, 0.0013671778084739152
1018.0, 0.0018051088022168506
1019.0, 0.005376555186513237
1020.0, 0.007082792291897146
1021.0, 0.00534465480110181
1022.0, 0.004905317360828784
1023.0, 0.006129058200943507
1024.0, 0.00031764558991100457
1025.0, 0.0043816130120229654
1026.0, 0.003972498929106452
1027.0, 0.0035975107243738074
1028.0, 0.0031418266097044943
1029.0, 0.003560955341319736
1030.0, 0.004994346415078083
1031.0, 0.005517924353654719
1032.0, 0.005235815718503474
1033.0, 0.005201866504510008
1034.0, 0.005284522832584542
1035.0, 0.006845527578029016
1036.0, 0.004969136614189553
1037.0, 0.005819787623444756
1038.0, 0.0041436997332916425
1039.0, 0.0015166087446278973
1040.0, 0.002599013640960262
1041.0, 0.0028552364303553973
1042.0, 0.005260706467762555
1043.0, 0.0025530874410105518
1044.0, 0.0031166933035255647
1045.0, 0.003965404357219222
1046.0, 0.00658698366473919
1047.0, 0.0055517976178292
1048.0, 0.0033595714053504433
1049.0, 0.004691051804727884
1050.0, 0.0067862188730682185
1051.0, 0.0074727256292922584
1052.0, 0.006572235705521489
1053.0, 0.008430683655935982
1054.0, 0.002009830215353468
1055.0, 0.002282927537462938
1056.0, 0.003859561018926598
1057.0, 0.0034274609351161705
1058.0, 0.004021394775462539
1059.0, 0.005461054376223828
1060.0, 0.009242843615718255
1061.0, 0.006085512285205534
1062.0, 0.007513724652795546
1063.0, 0.0016122861699543124
1064.0, 0.002291411276674164
1065.0, 0.0007553954812633311
1066.0, 0.0008533361383918827
1067.0, 0.0006562388221606803
1068.0, 0.0016649234334496557
1069.0, 0.0010886671195954887
1070.0, 0.0005091325310257588
1071.0, 0.00021281085887774076
1072.0, 0.005470773693458369
1073.0, 0.0069540817244663445
1074.0, 0.003151244772135987
1075.0, 0.0036094183142011123
1076.0, 0.0065655874544204495
1077.0, 0.006627447399421606
1078.0, 0.005646215234975492
1079.0, 0.006545504293783318
1080.0, 0.004723665755623101
1081.0, 0.004221052806417714
1082.0, 0.005522080712852551
1083.0, 0.0031852705747026965
1084.0, 0.005140172096420341
1085.0, 0.0024594136051920403
1086.0, 0.0009631271534025742
1087.0, 0.004321027922691601
1088.0, 0.006324355853481609
1089.0, 0.003838505602631318
1090.0, 0.0025871452283018964
1091.0, 0.0030374410400228727
1092.0, 0.002034496540589972
1093.0, 0.0035514596693809668
1094.0, 0.0042879484248532
1095.0, 0.005283950247037079
1096.0, 0.004448062450141281
1097.0, 0.0030810209289695617
1098.0, 0.00347753031689753
1099.0, 0.002455535355404498
1100.0, 0.0015526113688856165
1101.0, 0.001901774380024487
1102.0, 0.003785394328883462
1103.0, 0.0039495646433718385
1104.0, 0.003209987668549007
1105.0, 0.001752937355610865
1106.0, 0.0014929113814228653
1107.0, 0.0013088868105420228
1108.0, 0.003289830157644805
1109.0, 0.004408069464219018
1110.0, 0.00366288753639902
1111.0, 0.004262252401154288
1112.0, 0.004071134946672054
1113.0, 0.0031521561149707024
1114.0, 0.0073530471564628875
1115.0, 0.0032436187677750855
1116.0, 0.0001790268583081357
1117.0, 0.0012457270053659775
1118.0, 0.003672317781415653
1119.0, 0.00408071371837656
1120.0, 0.0012864063840865502
1121.0, 0.006884115139877009
1122.0, 0.005688428907010992
1123.0, 0.005296503667771359
1124.0, 0.004139519953775068
1125.0, 0.006071459484178166
1126.0, 0.005292329142204451
1127.0, 0.0038933747350043575
1128.0, 0.005508167778867133
1129.0, 0.008282309748951364
1130.0, 0.01044911290816789
1131.0, 0.010243412679969949
1132.0, 0.00451116546666841
1133.0, 0.009222486585631339
1134.0, 0.007659540147498706
1135.0, 0.007647803913419152
1136.0, 0.008299318784066218
1137.0, 0.007722189467322649
1138.0, 0.011070272866367348
1139.0, 0.014719530142278442
1140.0, 0.013550852175811043
1141.0, 0.013227447392842035
1142.0, 0.012984217953625896
1143.0, 0.009787599696059603
1144.0, 0.010722016078372271
1145.0, 0.008113145416252894
1146.0, 0.01123810385913413
1147.0, 0.01341815729479283
1148.0, 0.016048460971281577
1149.0, 0.016740850516612785
1150.0, 0.013070874212166036
1151.0, 0.012925876175388552
1152.0, 0.017299936797533298
1153.0, 0.016802568175055137
1154.0, 0.014556306463570045
1155.0, 0.01454723471689414
1156.0, 0.011347112479727766
1157.0, 0.013174010132102697
1158.0, 0.014484528151121513
1159.0, 0.01233830426337573
1160.0, 0.0136105732233504
1161.0, 0.01471760100288819
1162.0, 0.010715460838389581
1163.0, 0.012016318834077324
1164.0, 0.01571545588466979
1165.0, 0.01576221423828267
1166.0, 0.012604074415443568
1167.0, 0.014383422110904688
1168.0, 0.014878375316193198
1169.0, 0.014897684106616979
1170.0, 0.014349957959953152
1171.0, 0.009461027433608873
1172.0, 0.0055024660185748865
1173.0, 0.006543284992392725
1174.0, 0.007598644286435547
1175.0, 0.008278052154988875
1176.0, 0.007989923278205715
1177.0, 0.006827992283106505
1178.0, 0.0077656350305107145
1179.0, 0.0044345586593733995
1180.0, 0.009469274420144091
1181.0, 0.008730871842219684
1182.0, 0.007048872222078139
1183.0, 0.009325796074600013
1184.0, 0.011426163938368842
1185.0, 0.007903328587357854
1186.0, 0.0029647756635304756
1187.0, 0.008711532892824572
1188.0, 0.004750300246734346
1189.0, 0.004209405224617772
1190.0, 0.006408866315938669
1191.0, 0.00751854127003679
1192.0, 0.0023335001636529693
1193.0, 0.004296945326489252
1194.0, 0.007203521239749964
1195.0, 0.006752799320696926
1196.0, 0.005930492066732306
1197.0, 0.005987300866391717
1198.0, 0.005885051469716641
1199.0, 0.002770734266239758
1200.0, 0.003915553201817044
1201.0, 0.0074556675189866445
1202.0, 0.005159350492907883
1203.0, 0.005870821491878725
1204.0, 0.004008427817388826
1205.0, 0.004033346871394042
1206.0, 0.004783751015360791
1207.0, 0.0018294682780744644
1208.0, 0.001414586102657867
1209.0, 0.005796120200921807
1210.0, 0.006554565637538645
1211.0, 0.0044366222565143665
1212.0, 0.0069364554477296635
1213.0, 0.0037379394894893176
1214.0, 0.004088053056338728
1215.0, 0.002889298049386058
1216.0, 0.007928273391216765
1217.0, 0.008080882586622543
1218.0, 0.0053631673625653626
1219.0, 0.006559636603918456
1220.0, 0.009450294544688475
1221.0, 0.008439925823546919
1222.0, 0.00616518509964599
1223.0, 0.006895925409157829
1224.0, 0.003820547812159363
1225.0, 0.007901797113480389
1226.0, 0.007398420751871149
1227.0, 0.007139206665397308
1228.0, 0.0061630899984294555
1229.0, 0.0027972379384999923
1230.0, 0.00549659952621005
1231.0, 0.0037034785177897356
1232.0, 0.0024852728678358984
1233.0, 0.005648104217392132
1234.0, 0.0053975049589264626
1235.0, 0.0035892212613297387
1236.0, 0.0042281534170978356
1237.0, 0.0004630130297142652
1238.0, 0.0023417132919552977
1239.0, 0.0018654345688803474
1240.0, 0.000759626357253608
1241.0, 0.0005961499473754395
1242.0, 0.0007002084174400476
1243.0, 0.0015269377949851904
1244.0, 0.003288138765545648
1245.0, 0.0012535823751797877
1246.0, 0.0034091620578241624
1247.0, 0.0055453233969423865
1248.0, 0.002480864332471235
1249.0, 0.00391270675430474
1250.0, 0.00520458860039843
1251.0, 0.0021838957776248486
1252.0, 0.0013940559863310246
1253.0, 0.004815034662166625
1254.0, 0.005212554453128244
1255.0, 0.0015648046658898749
1256.0, 0.0002178949138043605
1257.0, 0.0024126229580347684
1258.0, 0.001480080241200855
1259.0, 0.0029374196879908255
1260.0, 0.005489221745933229
1261.0, 0.006553436269744088
1262.0, 0.002910133992046781
1263.0, 0.002701781139073478
1264.0, 0.004462505558151656
1265.0, 0.005059207456100031
1266.0, 0.0023056607283939963
1267.0, 0.0033350884991650994
1268.0, 0.000895253620439708
1269.0, 0.0010463275397870856
1270.0, 0.00040239576631743876
1271.0, 0.005442073865181246
1272.0, 0.005349294085653385
1273.0, 0.004069483563553054
1274.0, 0.005723485099734021
1275.0, 0.0036578261880971514
1276.0, 0.0005027619744172263
1277.0, 0.0024714883616059214
1278.0, 0.0023947534349201055
1279.0, 0.0031871689163667487
1280.0, 0.004652198995899311
1281.0, 0.0045023347518134815
1282.0, 0.004681927165177494
1283.0, 0.004127920122430488
1284.0, 0.006184109206963051
1285.0, 0.003894573665353804
1286.0, 0.00407772341796243
1287.0, 0.0022558801538834616
1288.0, 0.004373757037827752
1289.0, 0.006705650147709055
1290.0, 0.0027364511346648687
1291.0, 0.0024341289392690807
1292.0, 0.004521454899944855
1293.0, 0.000957027512641562
1294.0, 0.0025337158554991374
1295.0, 0.004240533527474766
1296.0, 0.0026323821610270337
1297.0, 0.0021033079210895683
1298.0, 0.000528876914380272
1299.0, 0.0012245952293331776
1300.0, 0.0031119563703769764
1301.0, 0.0014895256131936157
1302.0, 0.0017000305060023717
1303.0, 0.0018303260866096007
1304.0, 0.0012139957480319311
1305.0, 0.0014756319903480681
1306, 0.0
1307, 0.0
1308, 0.0
1309, 0.0
1310, 0.0
1311, 0.0
1312, 0.0
1313, 0.0
1314, 0.0
1315, 0.0
1316, 0.0
1317, 0.0
1318, 0.0
1319, 0.0
1320, 0.0
1321, 0.0
1322, 0.0
1323, 0.0
1324, 0.0
1325, 0.0
1326, 0.0
1327, 0.0
1328, 0.0
1329, 0.0
1330, 0.0
1331, 0.0
1332, 0.0
1333, 0.0
1334, 0.0
1335, 0.0
1336, 0.0
1337, 0.0
1338, 0.0
1339, 0.0
1340, 0.0
1341, 0.0
1342, 0.0
1343, 0.0
1344, 0.0
1345, 0.0
1346, 0.0
1347, 0.0
1348, 0.0
1349, 0.0
1350, 0.0
1351, 0.0
1352, 0.0
1353, 0.0
1354, 0.0
1355, 0.0
1356, 0.0
1357, 0.0
1358, 0.0
1359, 0.0
1360, 0.0
1361, 0.0
1362, 0.0
1363, 0.0
1364, 0.0
1365, 0.0
1366, 0.0
1367, 0.0
1368, 0.0
1369, 0.0
1370, 0.0
1371, 0.0
1372, 0.0
1373, 0.0
1374, 0.0
1375, 0.0
1376, 0.0
1377, 0.0
1378, 0.0
1379, 0.0
1380, 0.0
1381, 0.0
1382, 0.0
1383, 0.0
1384, 0.0
1385, 0.0
1386, 0.0
1387, 0.0
1388, 0.0
1389, 0.0
1390, 0.0
1391, 0.0
1392, 0.0
1393, 0.0
1394, 0.0
1395, 0.0
1396, 0.0
1397, 0.0
1398, 0.0
1399, 0.0
1400, 0.0
1401, 0.0
1402, 0.0
1403, 0.0
1404, 0.0
1405, 0.0
1406, 0.0
1407, 0.0
1408, 0.0
1409, 0.0
1410, 0.0
1411, 0.0
1412, 0.0
1413, 0.0
1414, 0.0
1415, 0.0
1416, 0.0
1417, 0.0
1418, 0.0
1419, 0.0
1420, 0.0
1421, 0.0
1422, 0.0
1423, 0.0
1424, 0.0
1425, 0.0
1426, 0.0
1427, 0.0
1428, 0.0
1429, 0.0
1430, 0.0
1431, 0.0
1432, 0.0
1433, 0.0
1434, 0.0
1435, 0.0
1436, 0.0
1437, 0.0
1438, 0.0
1439, 0.0
1440, 0.0
1441, 0.0
1442, 0.0
1443, 0.0
1444, 0.0
1445, 0.0
1446, 0.0
1447, 0.0
1448, 0.0
1449, 0.0
1450, 0.0
1451, 0.0
1452, 0.0
1453, 0.0
1454, 0.0
1455, 0.0
1456, 0.0
1457, 0.0
1458, 0.0
1459, 0.0
1460, 0.0
1461, 0.0
1462, 0.0
1463, 0.0
1464, 0.0
1465, 0.0
1466, 0.0
1467, 0.0
1468, 0.0
1469, 0.0
1470, 0.0
1471, 0.0
1472, 0.0
1473, 0.0
1474, 0.0
1475, 0.0
1476, 0.0
1477, 0.0
1478, 0.0
1479, 0.0
1480, 0.0
1481, 0.0
1482, 0.0
1483, 0.0
1484, 0.0
1485, 0.0
1486, 0.0
1487, 0.0
1488, 0.0
1489, 0.0
1490, 0.0
1491, 0.0
1492, 0.0
1493, 0.0
1494, 0.0
1495, 0.0
1496, 0.0
1497, 0.0
1498, 0.0
1499, 0.0
1500, 0.0
1501, 0.0
1502, 0.0
1503, 0.0
1504, 0.0
1505, 0.0
1506, 0.0
1507, 0.0
1508, 0.0
1509, 0.0
1510, 0.0
1511, 0.0
1512, 0.0
1513, 0.0
1514, 0.0
1515, 0.0
1516, 0.0
1517, 0.0
1518, 0.0
1519, 0.0
1520, 0.0
1521, 0.0
1522, 0.0
1523, 0.0
1524, 0.0
1525, 0.0
1526, 0.0
1527, 0.0
1528, 0.0
1529, 0.0
1530, 0.0
1531, 0.0
1532, 0.0
1533, 0.0
1534, 0.0
1535, 0.0
1536, 0.0
1537, 0.0
1538, 0.0
1539, 0.0
1540, 0.0
1541, 0.0
1542, 0.0
1543, 0.0
1544, 0.0
1545, 0.0
1546, 0.0
1547, 0.0
1548, 0.0
1549, 0.0
1550, 0.0
1551, 0.0
1552, 0.0
1553, 0.0
1554, 0.0
1555, 0.0
1556, 0.0
1557, 0.0
1558, 0.0
1559, 0.0
1560, 0.0
1561, 0.0
1562, 0.0
1563, 0.0
1564, 0.0
1565, 0.0
1566, 0.0
1567, 0.0
1568, 0.0
1569, 0.0
1570, 0.0
1571, 0.0
1572, 0.0
1573, 0.0
1574, 0.0
1575, 0.0
1576, 0.0
1577, 0.0
1578, 0.0
1579, 0.0
1580, 0.0
1581, 0.0
1582, 0.0
1583, 0.0
1584, 0.0
1585, 0.0
1586, 0.0
1587, 0.0
1588, 0.0
1589, 0.0
1590, 0.0
1591, 0.0
1592, 0.0
1593, 0.0
1594, 0.0
1595, 0.0
1596, 0.0
1597, 0.0
1598, 0.0
1599, 0.0
