30, 0.0
31, 0.0
32, 0.0
33, 0.0
34, 0.0
35, 0.0
36, 0.0
37, 0.0
38, 0.0
39, 0.0
40, 0.0
41, 0.0
42, 0.0
43, 0.0
44, 0.0
45, 0.0
46, 0.0
47, 0.0
48, 0.0
49, 0.0
50, 0.0
51, 0.0
52, 0.0
53, 0.0
54, 0.0
55, 0.0
56, 0.0
57, 0.0
58, 0.0
59, 0.0
60, 0.0
61, 0.0
62, 0.0
63, 0.0
64, 0.0
65, 0.0
66, 0.0
67, 0.0
68, 0.0
69, 0.0
70, 0.0
71, 0.0
72, 0.0
73, 0.0
74, 0.0
75, 0.0
76, 0.0
77, 0.0
78, 0.0
79, 0.0
80, 0.0
81, 0.0
82, 0.0
83, 0.0
84, 0.0
85, 0.0
86, 0.0
87, 0.0
88, 0.0
89, 0.0
90, 0.0
91, 0.0
92, 0.0
93, 0.0
94, 0.0
95, 0.0
96, 0.0
97, 0.0
98, 0.0
99, 0.0
100, 0.0
101, 0.0
102, 0.0
103.0, 8.541967510689189e-05
104.0, 0.0004925688069201485
105.0, 0.005323490453703913
106.0, 0.014089676301103606
107.0, 0.014078672618007033
108.0, 0.019066091909325227
109.0, 0.01821486264012976
110.0, 0.014284559007527118
111.0, 0.013422030537499893
112.0, 0.023267985651817456
113.0, 0.017654337069906385
114.0, 0.021416326381169495
115.0, 0.02952543458138943
116.0, 0.03658935247547619
117.0, 0.0386941324750447
118.0, 0.042595000752779166
119.0, 0.05370433717708154
120.0, 0.06390507177327619
121.0, 0.07621022541238696
122.0, 0.09344231038269477
123.0, 0.11118152866116827
124.0, 0.11521720527432851
125.0, 0.1226994508679451
126.0, 0.1307154849456878
127.0, 0.13885150099463378
128.0, 0.1512241241730324
129.0, 0.1640437847996273
130.0, 0.16145904452001994
131.0, 0.15857547596586602
132.0, 0.15290054842820125
133.0, 0.1353686414008957
134.0, 0.11517215203990923
135.0, 0.09770444446024099
136.0, 0.081604698009374
137.0, 0.06469437079724782
138.0, 0.04594375971603549
139.0, 0.027451256128104118
140.0, 0.017679425110657548
141.0, 0.011807919074090895
142.0, 0.006710476330489466
143.0, 0.0020363689105219202
144.0, 4.805204462802635e-05
145.0, 0.000964900003571645
146.0, 0.004370766511448882
147.0, 0.0038457238635670773
148.0, 0.0024591695482818862
149.0, 0.0047760727729097
150.0, 0.004856702599120118
151.0, 0.006048619193597744
152.0, 0.0033342880655498853
153.0, 0.0005371386199509042
154.0, 0.0004152821794819525
155.0, 0.0018840122234442748
156.0, 0.002339822446345144
157.0, 0.0015165484569114357
158.0, 0.0042736069477279015
159.0, 0.0071172005277634134
160.0, 0.004006770291158003
161.0, 0.009960076352770778
162.0, 0.011248234901667962
163.0, 0.012590033421177961
164.0, 0.015127607173480318
165.0, 0.01757819284977469
166.0, 0.015049694115359937
167.0, 0.020206147648927524
168.0, 0.014869712641064148
169.0, 0.014125358159717667
170.0, 0.01970544518738431
171.0, 0.020738799636763176
172.0, 0.013468440529708327
173.0, 0.005574878910213097
174.0, 0.004018211385874976
175.0, 0.004219352249547001
176.0, 0.0016596972311055914
177.0, 0.0031781059022588628
178.0, 0.005676474755242171
179.0, 0.012105688008520417
180.0, 0.013523635848357668
181.0, 0.01045675508107683
182.0, 0.01347484788395958
183.0, 0.020947042971215624
184.0, 0.020821048960359495
185.0, 0.021628539389050874
186.0, 0.026884264677741077
187.0, 0.0358140734845314
188.0, 0.04009479930645898
189.0, 0.04314353527137875
190.0, 0.047242273798332325
191.0, 0.05163490111719535
192.0, 0.05542975300345141
193.0, 0.05816904391726695
194.0, 0.06304900830394582
195.0, 0.06611023919873528
196.0, 0.06741272851076835
197.0, 0.06765425518450109
198.0, 0.06753033978588911
199.0, 0.06677859209375453
200.0, 0.06071681735206462
201.0, 0.05843952229711816
202.0, 0.056278217586034636
203.0, 0.05093153312003207
204.0, 0.04166004051792295
205.0, 0.038326588386029606
206.0, 0.02956918784681036
207.0, 0.02791061277754473
208.0, 0.02690351758689066
209.0, 0.019877320793343846
210.0, 0.01818104427166898
211.0, 0.01739425436955613
212.0, 0.02159139765460801
213.0, 0.02244518535176367
214.0, 0.01887984069823543
215.0, 0.01714778016529689
216.0, 0.022829969162930702
217.0, 0.023856751352129918
218.0, 0.023201988302032857
219.0, 0.025499283908156777
220.0, 0.030948455104834023
221.0, 0.029366377351992403
222.0, 0.03844236720451327
223.0, 0.03926117747518984
224.0, 0.043038713365167805
225.0, 0.04994589264287809
226.0, 0.05366758721264387
227.0, 0.059843205845272515
228.0, 0.07594191567228666
229.0, 0.08464010816531072
230.0, 0.09242192933208494
231.0, 0.10459869803938047
232.0, 0.11771397671079963
233.0, 0.12175709023742376
234.0, 0.13115861661663883
235.0, 0.1446013430101984
236.0, 0.15650711067537534
237.0, 0.1613870025374286
238.0, 0.16038899067103637
239.0, 0.16026122788487382
240.0, 0.15780437072954487
241.0, 0.15360617643162877
242.0, 0.14673206396282149
243.0, 0.13517751953919643
244.0, 0.12379220509562389
245.0, 0.10888441770802476
246.0, 0.09440237247471735
247.0, 0.07923206977337613
248.0, 0.06545120768526366
249.0, 0.06355197122134906
250.0, 0.052130210492703104
251.0, 0.04531288848346135
252.0, 0.04248316110531714
253.0, 0.03996654543668872
254.0, 0.03469898377711181
255.0, 0.03271751310715773
256.0, 0.03049087087905763
257.0, 0.0282766441362703
258.0, 0.03038384324419928
259.0, 0.033874945159773344
260.0, 0.029741625730633027
261.0, 0.030463782225882873
262.0, 0.02435060746532863
263.0, 0.021848088551598643
264.0, 0.02073615712690355
265.0, 0.01787920660220229
266.0, 0.015349636525124187
267.0, 0.012710580602514853
268.0, 0.011014539684805312
269.0, 0.010565106372549106
270.0, 0.0092234924105606
271.0, 0.005669462666947266
272.0, 0.006046974454395625
273.0, 0.009855417054446883
274.0, 0.01381621288442152
275.0, 0.01191810586156481
276.0, 0.006544394699011684
277.0, 0.005771048063644579
278.0, 0.002405503617137475
279.0, 0.0018973782392706095
280.0, 0.0032945930885534664
281.0, 0.0050029638604469125
282.0, 0.005884761009762895
283.0, 0.005752952991162043
284.0, 0.002745873314842819
285.0, 0.0008832810601999482
286.0, 0.00021253389152812275
287.0, 0.0008560688528377251
288.0, 0.002084836061087768
289.0, 0.001282415482730074
290.0, 0.0024290760013674076
291.0, 0.003914907832002207
292.0, 0.005089377992424808
293.0, 0.004675124131890558
294.0, 0.0024315672101862234
295.0, 0.003305728889193168
296.0, 0.0026959757590583207
297.0, 0.0017703832353777142
298.0, 0.0016031272157320416
299.0, 0.0016327043249496525
300.0, 0.0006238942553717925
301.0, 0.00236703016934649
302.0, 0.003199452612452176
303.0, 0.004904337357013464
304.0, 0.004038067179962361
305.0, 0.0009012530124151421
306.0, 0.0008594698940551733
307.0, 0.0011415594395909458
308.0, 0.0010523241497768128
309.0, 0.00577457252474987
310.0, 0.007691820601884624
311.0, 0.003601979909505931
312.0, 0.0035636899234722814
313.0, 0.0021288388994486953
314.0, 0.0024356837693906295
315.0, 0.004104447706343819
316.0, 0.0048328959674203975
317.0, 0.004694366544779025
318.0, 0.010789458329423705
319.0, 0.009878713661075325
320.0, 0.011590282005658824
321.0, 0.013241669216773624
322.0, 0.01506729357364833
323.0, 0.01768687788373695
324.0, 0.017471608383524607
325.0, 0.017405459882436327
326.0, 0.01810893196380294
327.0, 0.018536506643955522
328.0, 0.01859780583884744
329.0, 0.020028695128494423
330.0, 0.029272355057914708
331.0, 0.01797037097463812
332.0, 0.02370422592307555
333.0, 0.02705790898580497
334.0, 0.02230380286614721
335.0, 0.019239845025197932
336.0, 0.02189068873973617
337.0, 0.02326438369116561
338.0, 0.01984331002876481
339.0, 0.017676415794392837
340.0, 0.01832553415693047
341.0, 0.017501913571203436
342.0, 0.010616738037869562
343.0, 0.010572083469907737
344.0, 0.011680743867485542
345.0, 0.01036195249812125
346.0, 0.007293445996396749
347.0, 0.006793010745624864
348.0, 0.007482352209065859
349.0, 0.010005142409497373
350.0, 0.007269510249544973
351.0, 0.00603376776716421
352.0, 0.008356949778674799
353.0, 0.008122097265625109
354.0, 0.011711222650410505
355.0, 0.005841620145505473
356.0, 0.004971263756118959
357.0, 0.0051033754473159285
358.0, 0.0027179797933163186
359.0, 0.0006156425664959244
360.0, 0.0009460781629205535
361.0, 0.001704519838017317
362.0, 0.0035477302828470637
363.0, 0.004684298558217691
364.0, 0.004201789703865942
365.0, 0.0033589130758928712
366.0, 0.0047684496660214
367.0, 0.0015965953538560275
368.0, 0.0009242573604761218
369.0, 0.0023603194422335003
370.0, 0.0049863196269040976
371.0, 0.009505473237140719
372.0, 0.012848182804189047
373.0, 0.011968072666288585
374.0, 0.012752110849158924
375.0, 0.015048515820818892
376.0, 0.017806170800272383
377.0, 0.020857765496203495
378.0, 0.02392455605008218
379.0, 0.026411852554838744
380.0, 0.03002494751173671
381.0, 0.03339642132126263
382.0, 0.03581446495999159
383.0, 0.03824923875753937
384.0, 0.04063441658906362
385.0, 0.04506669262205867
386.0, 0.04671458233359612
387.0, 0.046192457369072085
388.0, 0.04605498650512887
389.0, 0.048124993995501575
390.0, 0.04242472351193262
391.0, 0.04599599318691176
392.0, 0.04871216811536848
393.0, 0.05271959292485142
394.0, 0.06017916258241109
395.0, 0.07149757274533967
396.0, 0.09214233984316716
397.0, 0.11247325517858449
398.0, 0.14172220965273744
399.0, 0.17376290245701362
400.0, 0.2047097941437769
401.0, 0.2350020774501111
402.0, 0.26423880083212065
403.0, 0.3007405732304235
404.0, 0.3241993887993906
405.0, 0.33830745563608283
406.0, 0.338986382317853
407.0, 0.3204806273481046
408.0, 0.30026364750844237
409.0, 0.2639360357635936
410.0, 0.22160933765801744
411.0, 0.1744252133788925
412.0, 0.1285372417849983
413.0, 0.09178412774364232
414.0, 0.06728549638530493
415.0, 0.047354879442869854
416.0, 0.030372348212116075
417.0, 0.022177224493058114
418.0, 0.01984745526660341
419.0, 0.018432293445311592
420.0, 0.018776415421564743
421.0, 0.01703612040931002
422.0, 0.012813725574705392
423.0, 0.013501093472498374
424.0, 0.014305909707812774
425.0, 0.011859155830702028
426.0, 0.013024072773060778
427.0, 0.02692979254806442
428.0, 0.025505877173421763
429.0, 0.029915246559871746
430.0, 0.03240017958552209
431.0, 0.02932574875787688
432.0, 0.0301446076867551
433.0, 0.031539996415560295
434.0, 0.03264202153248475
435.0, 0.028795326112315944
436.0, 0.024487369921178972
437.0, 0.0211502523960073
438.0, 0.017027848218365494
439.0, 0.01569594797656602
440.0, 0.006452225417120508
441.0, 0.0038976144614016888
442.0, 0.0025915105064223147
443.0, 0.00212053667303172
444.0, 0.004351532029848984
445.0, 0.005115968441297025
446.0, 0.00087669363287767
447.0, 3.37922018144771e-05
448.0, 0.004622624557548005
449.0, 0.006243132427105353
450.0, 0.002771053099359658
451.0, 0.009263693316964505
452.0, 0.007437314526039181
453.0, 0.005229093970344129
454.0, 0.007990547955355776
455.0, 0.011992871263648775
456.0, 0.013953845280100016
457.0, 0.015189387437835192
458.0, 0.023157998877722644
459.0, 0.017504425323755003
460.0, 0.011552658568874063
461.0, 0.013717982868345049
462.0, 0.01924678358570099
463.0, 0.02025309823153342
464.0, 0.03148783098456546
465.0, 0.040300273770823715
466.0, 0.04470561496365489
467.0, 0.051158830485985865
468.0, 0.060517280412831796
469.0, 0.07079462808278283
470.0, 0.08085020893486117
471.0, 0.09268330467644754
472.0, 0.10164504072543884
473.0, 0.11132966616888829
474.0, 0.12068677190616589
475.0, 0.12889852534908885
476.0, 0.13725056202458577
477.0, 0.1486448961633484
478.0, 0.14793014265763613
479.0, 0.15110500411056674
480.0, 0.15698219807241828
481.0, 0.16304004287813542
482.0, 0.16709293802009476
483.0, 0.1663414046066
484.0, 0.16180864508993073
485.0, 0.1528039563894345
486.0, 0.14405873016538293
487.0, 0.13200680738532103
488.0, 0.11433525292463183
489.0, 0.09564049619133827
490.0, 0.07587599527561363
491.0, 0.06267489582153762
492.0, 0.0541038134381462
493.0, 0.04797328960317526
494.0, 0.04376410854806697
495.0, 0.04191945955927531
496.0, 0.0404181349344709
497.0, 0.04761320449810554
498.0, 0.04935830873443469
499.0, 0.055962738713239535
500.0, 0.06355472228181011
501.0, 0.06843856574900851
502.0, 0.07937749349005781
503.0, 0.0874621951109931
504.0, 0.10954289783891422
505.0, 0.13190591592323997
506.0, 0.16188454268186936
507.0, 0.20324822980185417
508.0, 0.2556601788407981
509.0, 0.33512839270367956
510.0, 0.4173334063394145
511.0, 0.5140538796816503
512.0, 0.6036133132514527
513.0, 0.6951414570681416
514.0, 0.7960511017212423
515.0, 0.8832494937788894
516.0, 0.9541204487857057
517.0, 0.9904078504296661
518.0, 0.9865513688421639
519.0, 0.9560086529759073
520.0, 0.8943902320965268
521.0, 0.792300054804195
522.0, 0.6926520406306473
523.0, 0.5704820777977829
524.0, 0.45929205066867645
525.0, 0.3592439551879133
526.0, 0.276048556736382
527.0, 0.21626247654466554
528.0, 0.180053682239604
529.0, 0.1430094099104972
530.0, 0.11715650124153289
531.0, 0.0965043537955746
532.0, 0.08101999779279469
533.0, 0.07109483726578718
534.0, 0.06487012229414628
535.0, 0.05569547853648691
536.0, 0.04733500054605371
537.0, 0.04474525150212283
538.0, 0.03817143692028379
539.0, 0.03300155176058526
540.0, 0.03195647495269263
541.0, 0.02898518115159463
542.0, 0.021418589906353976
543.0, 0.025642076685755605
544.0, 0.027342364684538847
545.0, 0.029662042454893924
546.0, 0.026186452763612582
547.0, 0.01625537224962347
548.0, 0.017583204790900937
549.0, 0.013924759381994927
550.0, 0.01715979932512092
551.0, 0.012262520647466482
552.0, 0.01020682327109228
553.0, 0.01363231975128026
554.0, 0.016668838113292464
555.0, 0.02149839153239022
556.0, 0.02014973125369692
557.0, 0.020669633158031244
558.0, 0.016542402816792222
559.0, 0.012111197605471885
560.0, 0.011911228706266043
561.0, 0.014522539135063212
562.0, 0.010780954268414949
563.0, 0.015349375938368569
564.0, 0.01041423753250494
565.0, 0.014069005335538842
566.0, 0.02054788552930193
567.0, 0.020238864237615336
568.0, 0.018718809939278935
569.0, 0.023329900460375703
570.0, 0.026608600684315736
571.0, 0.02966430862789777
572.0, 0.03592577354929027
573.0, 0.04355488613470796
574.0, 0.04976155389075414
575.0, 0.05759687853027482
576.0, 0.06993060531948207
577.0, 0.07996770786116056
578.0, 0.09104567669984175
579.0, 0.10518065042485095
580.0, 0.11849945369368337
581.0, 0.124064559963062
582.0, 0.11980354617953061
583.0, 0.13046138739202875
584.0, 0.12695670236811166
585.0, 0.11537645660135169
586.0, 0.10683942204016753
587.0, 0.10200556888622833
588.0, 0.09218670808216839
589.0, 0.07899144667431891
590.0, 0.07993303965270777
591.0, 0.06091839548488094
592.0, 0.05015610500532758
593.0, 0.047227436275368094
594.0, 0.04381908518066098
595.0, 0.03828891605714956
596.0, 0.03640515202089511
597.0, 0.03418564700091075
598.0, 0.034183389188273114
599.0, 0.03227286233626795
600.0, 0.03010144318729625
601.0, 0.02931346568843783
602.0, 0.02828128155081586
603.0, 0.028423094598851652
604.0, 0.029941994865599588
605.0, 0.030041751915636364
606.0, 0.030318150670757132
607.0, 0.030310617589750784
608.0, 0.03056035281168997
609.0, 0.03343913122413832
610.0, 0.03246614281083163
611.0, 0.02917255569664263
612.0, 0.031354655523620135
613.0, 0.03342566783940274
614.0, 0.034338938413090915
615.0, 0.03622092202524568
616.0, 0.04023548173971725
617.0, 0.04161097315092491
618.0, 0.05184689429055197
619.0, 0.05863815988680747
620.0, 0.06175311752187021
621.0, 0.06803815990972385
622.0, 0.08071392409657444
623.0, 0.09273505933704114
624.0, 0.09902387237974572
625.0, 0.11312350806022953
626.0, 0.11092333890045304
627.0, 0.10877222489072425
628.0, 0.10639291366423399
629.0, 0.10165845296793763
630.0, 0.10244454318870709
631.0, 0.08667914512786824
632.0, 0.08197717281271143
633.0, 0.07962212077607286
634.0, 0.07262897180722659
635.0, 0.0629577153899749
636.0, 0.055490750721242585
637.0, 0.05260234902611102
638.0, 0.0576616060748371
639.0, 0.05720308057135446
640.0, 0.058341465075371614
641.0, 0.0597875245791141
642.0, 0.0610483075433239
643.0, 0.06101926764907402
644.0, 0.05925387998821651
645.0, 0.06598408546092661
646.0, 0.07015111243591918
647.0, 0.06675985095921141
648.0, 0.06747283433087595
649.0, 0.06858736754829593
650.0, 0.06835691234266335
651.0, 0.07051534779876066
652.0, 0.06251365589999826
653.0, 0.06828323998956394
654.0, 0.06340168462651341
655.0, 0.053711724135422
656.0, 0.04675775159598374
657.0, 0.042779570594495275
658.0, 0.03783585621547284
659.0, 0.03726444026565651
660.0, 0.026556182423023815
661.0, 0.02180973557970345
662.0, 0.023668754242229962
663.0, 0.023285458446793486
664.0, 0.021009342543278586
665.0, 0.02085233091895834
666.0, 0.015219730008822409
667.0, 0.017205088899935852
668.0, 0.009176474551493242
669.0, 0.00998015376123047
670.0, 0.012043292531904778
671.0, 0.011516465931132841
672.0, 0.009231192224341137
673.0, 0.005408345841565424
674.0, 0.005244095700930149
675.0, 0.010903333607228193
676.0, 0.006793024126947168
677.0, 0.006819687025416914
678.0, 0.011310467143071675
679.0, 0.011464334874590832
680.0, 0.0030607900426991657
681.0, 0.005448860597737452
682.0, 0.006623319384525407
683.0, 0.010439445401264858
684.0, 0.006378507788781118
685.0, 0.0053842147445570965
686.0, 0.008239155581157466
687.0, 0.0047508545935089725
688.0, 0.0008640835361936212
689.0, 0.0002455836149323599
690.0, 0.0001316957800328922
691.0, 0.006650555138010606
692.0, 0.0065284931721969214
693.0, 0.0020418300426727864
694.0, 0.0027899298387307476
695.0, 0.00603225163091301
696.0, 0.0007586644977850086
697.0, 0.005827952432071156
698.0, 0.006893963007312287
699.0, 0.005238225850738077
700.0, 0.00264709989043937
701.0, 0.0006836370920701319
702.0, 0.0004315345028365337
703.0, 0.0006059280927959172
704.0, 0.005470956563726144
705.0, 0.011112204117215661
706.0, 0.005489267128449884
707.0, 0.0022501549124430663
708.0, 0.0047603961516114405
709.0, 0.005314464998343599
710.0, 0.0034824703349453593
711.0, 0.0015393809254045485
712.0, 0.0049430171984184736
713.0, 0.005202928281883445
714.0, 0.005094600741890407
715.0, 0.003325416118322683
716.0, 0.0022164236868992366
717.0, 0.007123230686444327
718.0, 0.0036461502228165754
719.0, 0.0036028999032981196
720.0, 0.0013891183831666375
721.0, 0.002226304340769047
722.0, 0.0054835641981982606
723.0, 0.005612219020321207
724.0, 0.0028085723705820517
725.0, 0.009933693110484743
726.0, 0.0036809332812694265
727.0, 0.0015474622439002133
728.0, 0.0068438275449547725
729.0, 0.010534201618828587
730.0, 0.011377805484628769
731.0, 0.012142570370062267
732.0, 0.01319587615665688
733.0, 0.009315024698557812
734.0, 0.012897123577919205
735.0, 0.010520432546488887
736.0, 0.009543709982077556
737.0, 0.009966980691065275
738.0, 0.010672501598811538
739.0, 0.011292596226306408
740.0, 0.01192537635245808
741.0, 0.012016464009676127
742.0, 0.006014070394218278
743.0, 0.01002894105563678
744.0, 0.009448739975936229
745.0, 0.00829149459394055
746.0, 0.010175304656764163
747.0, 0.012164981064070294
748.0, 0.012828005530124514
749.0, 0.006539437658678714
750.0, 0.01480309640696946
751.0, 0.011067203239815382
752.0, 0.014438893419829022
753.0, 0.01652349888293878
754.0, 0.013626515096822035
755.0, 0.017685264445255932
756.0, 0.011011157908371105
757.0, 0.01053460031750835
758.0, 0.006899018812083062
759.0, 0.010289794886367639
760.0, 0.010088545868027458
761.0, 0.007083622204284011
762.0, 0.009238569175823282
763.0, 0.017181301646291565
764.0, 0.01764266114823213
765.0, 0.018158232344388
766.0, 0.01447514360071605
767.0, 0.011705405952689478
768.0, 0.010369603557200536
769.0, 0.010472043723074951
770.0, 0.012551245928900468
771.0, 0.016333374722480525
772.0, 0.017650398609324637
773.0, 0.018053492045581505
774.0, 0.01867552788915085
775.0, 0.020009576433728655
776.0, 0.0204625028007537
777.0, 0.019064159234184343
778.0, 0.018385286598919835
779.0, 0.02261256012548707
780.0, 0.01422048719961708
781.0, 0.022275620254672744
782.0, 0.017545519885314147
783.0, 0.01471071053944463
784.0, 0.01796387663108657
785.0, 0.023246073480185692
786.0, 0.02465783360520881
787.0, 0.020391425724982492
788.0, 0.023424594528849037
789.0, 0.026879476240857934
790.0, 0.020172852274519776
791.0, 0.015677809636752842
792.0, 0.017233940891139138
793.0, 0.021349333582318757
794.0, 0.02365287294718992
795.0, 0.02479674069783703
796.0, 0.029052616867614862
797.0, 0.023132546663907697
798.0, 0.026196776737785043
799.0, 0.021332319648645248
800.0, 0.015271255947675613
801.0, 0.01776763310371708
802.0, 0.02521999470437679
803.0, 0.02366605999384478
804.0, 0.024278198956197254
805.0, 0.02869007890898246
806.0, 0.030844392195533237
807.0, 0.03436886954126319
808.0, 0.03765996309627227
809.0, 0.03947548790599069
810.0, 0.039561144647738945
811.0, 0.03672921954814436
812.0, 0.03892862542118057
813.0, 0.04994025141477127
814.0, 0.052121875594166055
815.0, 0.049884274632016404
816.0, 0.04424976534223593
817.0, 0.03992744733859405
818.0, 0.04053706526007708
819.0, 0.04231533178342013
820.0, 0.04858858141774373
821.0, 0.040580558581467197
822.0, 0.03647746917052223
823.0, 0.03775353378117495
824.0, 0.03692769952752697
825.0, 0.03533812040384352
826.0, 0.03610071986759677
827.0, 0.03529483659954154
828.0, 0.0346544678781384
829.0, 0.04100633388800146
830.0, 0.0359792068496454
831.0, 0.03617014549619708
832.0, 0.038022914365846164
833.0, 0.03693369930176702
834.0, 0.032884812681865556
835.0, 0.030580830400194985
836.0, 0.03618815668694009
837.0, 0.03274449340092737
838.0, 0.03386306045752281
839.0, 0.03502750388421223
840.0, 0.04131270904209819
841.0, 0.04559071284151426
842.0, 0.04554443272362293
843.0, 0.04563888355331617
844.0, 0.045371016120826196
845.0, 0.056367138320960575
846.0, 0.049783077670612345
847.0, 0.05222965885970784
848.0, 0.051982086311477264
849.0, 0.05739696054709605
850.0, 0.06258643997879645
851.0, 0.059690902314824504
852.0, 0.05918049152073669
853.0, 0.06484548018047762
854.0, 0.062083003079271774
855.0, 0.07423609762075287
856.0, 0.07757535491965742
857.0, 0.08015274246139743
858.0, 0.0841591964057039
859.0, 0.08934395692430915
860.0, 0.0942543662602277
861.0, 0.08840276704418801
862.0, 0.08454893135745516
863.0, 0.0865384036039879
864.0, 0.08001150924023054
865.0, 0.08109226229275669
866.0, 0.07763238788970131
867.0, 0.0676912126846857
868.0, 0.05932573774714591
869.0, 0.05266466062991873
870.0, 0.04910590143987447
871.0, 0.05238820480857511
872.0, 0.047484289549026074
873.0, 0.046994719176830464
874.0, 0.04815744216128252
875.0, 0.04520983334859622
876.0, 0.04168783148827762
877.0, 0.04224318395935835
878.0, 0.03709484433272351
879.0, 0.04465020048021209
880.0, 0.0389286588315987
881.0, 0.037405553558209445
882.0, 0.04053367459328489
883.0, 0.03824535063792224
884.0, 0.032336014593097435
885.0, 0.031171377638185078
886.0, 0.03520875231979263
887.0, 0.03420669004056031
888.0, 0.03389296498652428
889.0, 0.030431886846974048
890.0, 0.03022418376693343
891.0, 0.029804227760520174
892.0, 0.02959945982947096
893.0, 0.029411669937606057
894.0, 0.0285200289547498
895.0, 0.027907255764178192
896.0, 0.026814232372123374
897.0, 0.029321610423994126
898.0, 0.029518068157832058
899.0, 0.032509771045083034
900.0, 0.029655515854317263
901.0, 0.025350909128535513
902.0, 0.02463688041554148
903.0, 0.026476015136008745
904.0, 0.02874446377287702
905.0, 0.02905676397934776
906.0, 0.025722486943703028
907.0, 0.024824243579547423
908.0, 0.02379012179342028
909.0, 0.01945062144514812
910.0, 0.020782367845567352
911.0, 0.025980971731218133
912.0, 0.02360372655801591
913.0, 0.01807331639252929
914.0, 0.02076056006850631
915.0, 0.02440876028679488
916.0, 0.016852514685597775
917.0, 0.019753775015671306
918.0, 0.018240250966807994
919.0, 0.01304782980782699
920.0, 0.012587190589593728
921.0, 0.014011894490927598
922.0, 0.0063155536222743785
923.0, 0.00960484647085058
924.0, 0.011256816830737459
925.0, 0.0037012222360743308
926.0, 0.009531223975143492
927.0, 0.009027293981299422
928.0, 0.010671820554945099
929.0, 0.015332410736290982
930.0, 0.010982146174457703
931.0, 0.009556386976204366
932.0, 0.007291922210652968
933.0, 0.015240186406126486
934.0, 0.011661402948463158
935.0, 0.011275960178032679
936.0, 0.010265367410658881
937.0, 0.00990319516787957
938.0, 0.00708187812854699
939.0, 0.003723763552718379
940.0, 0.0129914026781957
941.0, 0.0006523796878273396
942.0, 0.00447104949273699
943.0, 0.010678406656263477
944.0, 0.01185723773655972
945.0, 0.011469634214458761
946.0, 0.012190029355308687
947.0, 0.010112852123430431
948.0, 0.0062940365813603065
949.0, 0.01025659461776023
950.0, 0.011138990014982253
951.0, 0.005307094310175133
952.0, 0.0076596746519365586
953.0, 0.005285007651307036
954.0, 0.00882236305081649
955.0, 0.014620480583714084
956.0, 0.013916650525838315
957.0, 0.010218660470385534
958.0, 0.013306250522592359
959.0, 0.011970500566098373
960.0, 0.011432689185959051
961.0, 0.005725282277284139
962.0, 0.012810987834407612
963.0, 0.0054453028945815555
964.0, 0.0042714163639286165
965.0, 0.005850067014308911
966.0, 0.003676161914730845
967.0, 0.0036844569787182462
968.0, 0.0053023722901328
969.0, 0.0035777928954512255
970.0, 0.0045862966764725075
971.0, 0.0013908220246853324
972.0, 0.0033142159877409213
973.0, 0.0044552605124300775
974.0, 0.004749227572654579
975.0, 0.003105861509867098
976.0, 0.0007878132855736654
977.0, 0.002891508216530888
978.0, 0.005396531708149117
979.0, 0.0009236852024771596
980.0, 0.00395868534648924
981.0, 0.004416347186497405
982.0, 0.004848589108220541
983.0, 0.00822747293372485
984.0, 0.009397565521062612
985.0, 0.0084784565848548
986.0, 0.010309904440024978
987.0, 0.012482162625340295
988.0, 0.012482024384732464
989.0, 0.0036187693868680966
990.0, 0.01328738976366826
991.0, 0.004212533739128097
992.0, 0.0004050173020626589
993.0, 0.009413766940313489
994.0, 0.017162714905900867
995.0, 0.014411246975723
996.0, 0.009830168320785032
997.0, 0.01393059860264399
998.0, 0.025783234101886123
999.0, 0.027049672841112645
1000.0, 0.049517628352610914
1001.0, 0.057263537214630025
1002.0, 0.06790662324070072
1003.0, 0.06883844812684393
1004.0, 0.06118028669105715
1005.0, 0.052989511379678514
1006.0, 0.03913900139646645
1007.0, 0.02303798623544017
1008.0, 0.02200358181037905
1009.0, 0.016264831687494107
1010.0, 0.01642618127649351
1011.0, 0.013461438416476441
1012.0, 0.011766459973648362
1013.0, 0.011272027789549688
1014.0, 0.011276164067828665
1015.0, 0.011842191658705852
1016.0, 0.012631822206964965
1017.0, 0.014719456468652713
1018.0, 0.01932373143997789
1019.0, 0.020493628939896886
1020.0, 0.0208736037974987
1021.0, 0.023727059434035736
1022.0, 0.03231671101873721
1023.0, 0.03692454807239012
1024.0, 0.037572840682588676
1025.0, 0.03832749956027087
1026.0, 0.036833801664583735
1027.0, 0.03584299615993041
1028.0, 0.032010065767662056
1029.0, 0.02928520608453582
1030.0, 0.03388949718682945
1031.0, 0.03603534398902857
1032.0, 0.036978683294472084
1033.0, 0.035975488090798584
1034.0, 0.03506322965202217
1035.0, 0.03621242587250867
1036.0, 0.039524965632410855
1037.0, 0.04595549552935149
1038.0, 0.04673028326121428
1039.0, 0.047201120400847764
1040.0, 0.05220065629785558
1041.0, 0.05188464251942549
1042.0, 0.04868024262108851
1043.0, 0.04616781622714782
1044.0, 0.04888842161804423
1045.0, 0.05334952010351884
1046.0, 0.05371907753861405
1047.0, 0.05480430000479664
1048.0, 0.05742014808036647
1049.0, 0.04656745411136918
1050.0, 0.043892671625749474
1051.0, 0.04638963713169199
1052.0, 0.045404929719701254
1053.0, 0.044032825416512815
1054.0, 0.040461818749477095
1055.0, 0.03643543676483323
1056.0, 0.03490482945222332
1057.0, 0.033762240483708766
1058.0, 0.03336470425156596
1059.0, 0.03163299989749649
1060.0, 0.03546525367544417
1061.0, 0.038609551324357755
1062.0, 0.0365489842171231
1063.0, 0.03200297198992943
1064.0, 0.031149474517020357
1065.0, 0.0349165619941134
1066.0, 0.037935934865172556
1067.0, 0.03351123876840632
1068.0, 0.025185714797527094
1069.0, 0.035315846617357816
1070.0, 0.02178019845292049
1071.0, 0.029259252975513055
1072.0, 0.03185318731763326
1073.0, 0.03177173852741282
1074.0, 0.030909617204048615
1075.0, 0.030854065048115078
1076.0, 0.030265239815640683
1077.0, 0.032430595669971335
1078.0, 0.038687923386475635
1079.0, 0.03681730060802898
1080.0, 0.041682019053107304
1081.0, 0.03507704798086286
1082.0, 0.03926893129651227
1083.0, 0.037395906945607245
1084.0, 0.03316312972938141
1085.0, 0.03779433383472262
1086.0, 0.0427650455049071
1087.0, 0.03987734880156756
1088.0, 0.03462065949409148
1089.0, 0.03304837436165189
1090.0, 0.028591963744264894
1091.0, 0.028091377500280845
1092.0, 0.03277728886614527
1093.0, 0.02342144978079594
1094.0, 0.02138816595716598
1095.0, 0.01686456039661865
1096.0, 0.02305702800453295
1097.0, 0.025225936595523066
1098.0, 0.023535928085703896
1099.0, 0.02490364189383318
1100.0, 0.022521522565279433
1101.0, 0.02530684273121815
1102.0, 0.0326186031324643
1103.0, 0.033073727171510615
1104.0, 0.029214774451939356
1105.0, 0.028324783313867632
1106.0, 0.03123930484604802
1107.0, 0.034959725001927476
1108.0, 0.03523359815428401
1109.0, 0.037583921611039794
1110.0, 0.04157655823768471
1111.0, 0.041785641082393674
1112.0, 0.04822577359801543
1113.0, 0.053690380865016055
1114.0, 0.04876901652966646
1115.0, 0.050556950612405886
1116.0, 0.04975434686463095
1117.0, 0.05480540332410832
1118.0, 0.06547633208913306
1119.0, 0.07110695099701593
1120.0, 0.07332598540043246
1121.0, 0.07756706947455308
1122.0, 0.08193721642909832
1123.0, 0.08446892150436999
1124.0, 0.09106013274649585
1125.0, 0.10803246642041939
1126.0, 0.10747572642096484
1127.0, 0.12421725566025328
1128.0, 0.13621341372393744
1129.0, 0.14164397136543844
1130.0, 0.15500345550777925
1131.0, 0.1661682686573444
1132.0, 0.1727556792009685
1133.0, 0.18598250559734214
1134.0, 0.20109047862725496
1135.0, 0.20048509762542205
1136.0, 0.20842075201444205
1137.0, 0.21398936770514454
1138.0, 0.20671332764560077
1139.0, 0.20070780399316318
1140.0, 0.1888108041642427
1141.0, 0.17627242891761022
1142.0, 0.1601531427572597
1143.0, 0.14370172487783733
1144.0, 0.12987955154666664
1145.0, 0.11670363933872653
1146.0, 0.10271484378553317
1147.0, 0.08909436553953824
1148.0, 0.07924138311543921
1149.0, 0.06733238200104465
1150.0, 0.05433129983236675
1151.0, 0.051195753413389056
1152.0, 0.0464039549768256
1153.0, 0.03602903516227884
1154.0, 0.02540446719487958
1155.0, 0.024461057293211682
1156.0, 0.028016080974697193
1157.0, 0.024627084537270864
1158.0, 0.019305831182074205
1159.0, 0.021626578331458188
1160.0, 0.018639960727920703
1161.0, 0.02094575975343867
1162.0, 0.017719004817559746
1163.0, 0.013138125865535883
1164.0, 0.01457020081451675
1165.0, 0.01881709559061072
1166.0, 0.018222129158767076
1167.0, 0.01553740739939162
1168.0, 0.0190471260740953
1169.0, 0.019809051813500775
1170.0, 0.011505032983498165
1171.0, 0.01930334872613173
1172.0, 0.010292849132906652
1173.0, 0.00880584768718885
1174.0, 0.00179320583103854
1175.0, 0.007568259657997752
1176.0, 0.012303678947170885
1177.0, 0.010325461046864057
1178.0, 0.01065714218456962
1179.0, 0.013920491313633116
1180.0, 0.010723019226016236
1181.0, 0.004434416902846888
1182.0, 0.005226629044436634
1183.0, 0.0059385288668281945
1184.0, 0.003618102826097074
1185.0, 0.006211976478299682
1186.0, 0.00590850590420671
1187.0, 0.005015300750933697
1188.0, 0.005413683885862494
1189.0, 0.004086680790523554
1190.0, 0.0014557792160411337
1191.0, 0.0010682291592513534
1192.0, 0.002504321385539067
1193.0, 0.0026932139045166077
1194.0, 0.002508569201978931
1195.0, 0.0037879485371128166
1196.0, 0.0024671392009302288
1197.0, 0.0013302332787729684
1198.0, 0.006915773855104457
1199.0, 0.0011743819165875016
1200.0, 0.002085067167891963
1201.0, 0.0023428434231881584
1202.0, 0.005597046932520059
1203.0, 0.003288328910788605
1204.0, 0.004002907640061001
1205.0, 0.0035519047277279454
1206.0, 0.001129351217901583
1207.0, 0.002447303333756088
1208.0, 0.004170445767141135
1209.0, 0.0033212632126597744
1210.0, 0.0033598553903334822
1211.0, 0.011285800847217234
1212.0, 0.00830594703370873
1213.0, 0.001273903738437011
1214.0, 0.01141505471877103
1215.0, 0.008682905091189099
1216.0, 0.008140447704693366
1217.0, 0.005845543235704312
1218.0, 0.008929049521230338
1219.0, 0.008969305888599347
1220.0, 0.002701918542624175
1221.0, 0.004938662834573814
1222.0, 0.0061936965674887325
1223.0, 0.000944315435887972
1224.0, 0.002740886323233582
1225.0, 0.0008015760197177552
1226.0, 0.0056299560664818836
1227.0, 0.007191738471294483
1228.0, 0.006174829154798324
1229.0, 0.008226934433488932
1230.0, 0.010592122973170033
1231.0, 0.009394821148073787
1232.0, 0.007813658079500553
1233.0, 0.012106593548141113
1234.0, 0.017393593524784055
1235.0, 0.01696894787949254
1236.0, 0.022626017749499742
1237.0, 0.022209218252043233
1238.0, 0.021571452842586603
1239.0, 0.019822130822452537
1240.0, 0.02137703532474797
1241.0, 0.025838570371500204
1242.0, 0.025567158841138925
1243.0, 0.018407428538671375
1244.0, 0.014195492491593133
1245.0, 0.020651001224782452
1246.0, 0.02392297982561561
1247.0, 0.02226745840858199
1248.0, 0.024552748255332744
1249.0, 0.024176593720059994
1250.0, 0.027081784688425967
1251.0, 0.01913903769084914
1252.0, 0.014185174701022787
1253.0, 0.02452411737436712
1254.0, 0.01952332448587843
1255.0, 0.012575873014522109
1256.0, 0.01664046250705973
1257.0, 0.011867996540193621
1258.0, 0.012688509685652976
1259.0, 0.014441229342076829
1260.0, 0.01734971069750996
1261.0, 0.020688108686271484
1262.0, 0.02389368932244905
1263.0, 0.032016864977657426
1264.0, 0.03175843650264517
1265.0, 0.033366326975661005
1266.0, 0.044820995840505244
1267.0, 0.04170326464442016
1268.0, 0.03823749664754441
1269.0, 0.03772505420705353
1270.0, 0.03326599039092883
1271.0, 0.03981226886954864
1272.0, 0.0432118666556984
1273.0, 0.04333853352801019
1274.0, 0.04394393322063068
1275.0, 0.04095170690791033
1276.0, 0.03467983839248738
1277.0, 0.028485626721736018
1278.0, 0.022821327073149423
1279.0, 0.027278008299593134
1280.0, 0.024913211150003133
1281.0, 0.01527072248807336
1282.0, 0.024286360386541524
1283.0, 0.01289392497571868
1284.0, 0.014878873987607077
1285.0, 0.020098927136705736
1286.0, 0.02098283152587831
1287.0, 0.019189497277543453
1288.0, 0.015377447711314062
1289.0, 0.015844124216953467
1290.0, 0.021964519904936655
1291.0, 0.02846816004323274
1292.0, 0.029868082433375225
1293.0, 0.026944740246811327
1294.0, 0.03044877024542251
1295.0, 0.0349268329108013
1296.0, 0.039631373894405936
1297.0, 0.020951046345160297
1298.0, 0.03575365005697316
1299.0, 0.026809752755115244
1300.0, 0.03096705715164258
1301.0, 0.023921278808026657
1302.0, 0.021300034721094405
1303.0, 0.022145849702377388
1304.0, 0.02564797324823065
1305.0, 0.029109073209352535
1306.0, 0.031469363433725035
1307.0, 0.03504824265996001
1308.0, 0.03856774606395523
1309.0, 0.04111763459224938
1310.0, 0.04501964165824831
1311.0, 0.043343428165514404
1312.0, 0.04518539760425336
1313.0, 0.04295122589767608
1314.0, 0.048665558754799346
1315.0, 0.04496828966520459
1316.0, 0.052551173508059316
1317.0, 0.05136056920405197
1318.0, 0.053445446033796355
1319.0, 0.05043805295766027
1320.0, 0.04680076261519574
1321.0, 0.0398597127638028
1322.0, 0.03947284486307287
1323.0, 0.04855241937725962
1324.0, 0.04445993614263042
1325.0, 0.0336423073063503
1326.0, 0.03151252474156262
1327.0, 0.019317340094501863
1328.0, 0.02620751850494617
1329.0, 0.022461447601339734
1330.0, 0.014283186124577482
1331.0, 0.02338468569479099
1332.0, 0.029151954414755838
1333.0, 0.015789151802203322
1334.0, 0.016931868372172917
1335.0, 0.011817041909298939
1336.0, 0.006881007091546218
1337.0, 0.0065057541007962
1338.0, 0.009063052339457464
1339.0, 0.008902147238642745
1340.0, 0.008553110819809893
1341.0, 0.01437569571001218
1342.0, 0.011030255616446492
1343.0, 0.01415325318336683
1344.0, 0.014405095033719761
1345.0, 0.006654321734466686
1346.0, 0.02074731134229655
1347.0, 0.012146986907898887
1348.0, 0.012326623044212004
1349.0, 0.009331264690176274
1350.0, 0.013710593009824436
1351.0, 0.008985674899001067
1352.0, 0.0038979120454791273
1353.0, 0.007398902972545404
1354.0, 0.009021934060442193
1355.0, 0.008300064138160208
1356.0, 0.009758849400710338
1357.0, 0.010369999019635812
1358.0, 0.009493185985083369
1359.0, 0.009084494351973248
1360.0, 0.00899069434159049
1361.0, 0.005836457875721248
1362.0, 0.004309291905920772
1363.0, 0.006263729526996997
1364.0, 0.00453682348545261
1365.0, 0.012045081403587246
1366.0, 0.009700734531875714
1367.0, 0.014812870767495486
1368.0, 0.015425035482602318
1369.0, 0.005273730687483488
1370.0, 0.005682715255402227
1371.0, 0.004687466891845568
1372.0, 0.009859889747423562
1373.0, 0.012852017702398178
1374.0, 0.01484953988377137
1375.0, 0.021392037823891062
1376.0, 0.020909114775385398
1377.0, 0.018094547360443036
1378.0, 0.006785841807495932
1379.0, 0.01102652982826096
1380.0, 0.014321747555918172
1381.0, 0.00940357711372101
1382.0, 0.015324866979477502
1383.0, 0.010298271437503692
1384.0, 0.012912593188291898
1385.0, 0.017443298498046017
1386.0, 0.012558300595719562
1387.0, 0.011064020289162112
1388.0, 0.00982150285547393
1389.0, 0.006395586640386308
1390.0, 0.007681725961750009
1391.0, 0.00923831063654907
1392.0, 0.008948148025665775
1393.0, 0.006768498538276389
1394.0, 0.0033371837874596453
1395.0, 0.0020654290885357036
1396.0, 0.0018387083818564615
1397.0, 0.004630816871373778
1398.0, 0.004000770161951565
1399.0, 0.0015405253272977816
1400.0, 0.003914433865041254
1401.0, 0.0012273283338213531
1402.0, 0.0013057074423327847
1403.0, 0.0034789698768281697
1404.0, 0.005930042326970448
1405.0, 0.0025225354451620784
1406.0, 0.0023598396947125126
1407.0, 0.0021189174441588136
1408.0, 0.002771209281625778
1409.0, 0.0025769580117209977
1410.0, 0.003589960357903247
1411.0, 0.00526918937239389
1412.0, 0.005499250563504886
1413.0, 0.006315428962234319
1414.0, 0.008770002929805032
1415.0, 0.008188367288630469
1416.0, 0.007611791631570086
1417.0, 0.013472039038606923
1418.0, 0.006680731168847885
1419.0, 0.004358154404866512
1420.0, 0.004461323433898349
1421.0, 0.004421170865618282
1422.0, 0.0029331853592672597
1423.0, 0.0101719280605931
1424.0, 0.017411236268117206
1425.0, 0.008078921889231833
1426.0, 0.019963556038003146
1427.0, 0.014844085207097082
1428.0, 0.013626832484230099
1429.0, 0.012342509285581003
1430.0, 0.017071728534246818
1431.0, 0.021961652253416702
1432.0, 0.024442031191109187
1433.0, 0.027928822982822288
1434.0, 0.03302149970852612
1435.0, 0.03638267110028938
1436.0, 0.041688739906321666
1437.0, 0.05153368510976301
1438.0, 0.05707206684014808
1439.0, 0.06759679228570109
1440.0, 0.06708657554401044
1441.0, 0.08123600074039078
1442.0, 0.08814360187643464
1443.0, 0.09380656972324779
1444.0, 0.1016379455773931
1445.0, 0.09510419478854025
1446.0, 0.09786113141845006
1447.0, 0.10370212409042141
1448.0, 0.09683128068163077
1449.0, 0.10988911059917235
1450.0, 0.11157734804424778
1451.0, 0.11110864037215316
1452.0, 0.11216338756565813
1453.0, 0.11208672579788836
1454.0, 0.11570457276803112
1455.0, 0.11534063536451687
1456.0, 0.1141316371516793
1457.0, 0.1159693127835303
1458.0, 0.10835711855271729
1459.0, 0.09716968905027851
1460.0, 0.09534095667556629
1461.0, 0.09245617632811103
1462.0, 0.0950839562625355
1463.0, 0.09070378851814298
1464.0, 0.08010238427739182
1465.0, 0.07451195754643114
1466.0, 0.06589128996274884
1467.0, 0.07007435111435865
1468.0, 0.056847728979390375
1469.0, 0.0550219561695227
1470.0, 0.05418493461076955
1471.0, 0.04506550637644542
1472.0, 0.04409874310210416
1473.0, 0.04226491111233363
1474.0, 0.04524851401248215
1475.0, 0.042252249991768735
1476.0, 0.038978162391109406
1477.0, 0.037626727262174024
1478.0, 0.04015500913032445
1479.0, 0.04035576453838063
1480.0, 0.03969372533182332
1481.0, 0.03949056302954846
1482.0, 0.0361858026163818
1483.0, 0.0343726087359021
1484.0, 0.028582850896697865
1485.0, 0.022028456731663197
1486.0, 0.02810668746675676
1487.0, 0.009447362075102002
1488.0, 0.017958324992890552
1489.0, 0.01947848084565889
1490.0, 0.023209490300168334
1491.0, 0.01024554280528867
1492.0, 0.017419202280718596
1493.0, 0.0009836515712158154
1494.0, 0.004041292145187494
1495.0, 0.009202423850164749
1496.0, 0.012579182048497901
1497.0, 0.0031970985085266936
1498.0, 0.0021867200469895647
1499.0, 0.0030941197125288846
1500.0, 0.0014879856200205625
1501.0, 0.002925311253079506
1502.0, 0.004108604686100055
1503.0, 0.004501288942962867
1504.0, 0.005274655503881254
1505.0, 0.004216008059660557
1506.0, 0.0020558434279234258
1507.0, 0.0007503857291499096
1508.0, 0.0026080067003950067
1509.0, 0.007567045296614746
1510.0, 0.009317367474950154
1511.0, 0.006140693329583008
1512.0, 0.007740301213939895
1513.0, 0.01010896920813507
1514.0, 0.0011066853999083363
1515.0, 0.003311509739814948
1516.0, 0.00687665187731372
1517.0, 0.002991182726070388
1518.0, 0.0053570072214059305
1519.0, 0.010289917279838991
1520.0, 0.006126169225239241
1521.0, 0.0015727308025976763
1522.0, 0.008796407836259663
1523.0, 0.009282919091944114
1524.0, 0.008078381524111472
1525.0, 0.014400931031127197
1526.0, 0.01296072789742167
1527.0, 0.011572426655589647
1528.0, 0.012449349269158753
1529.0, 0.01534897991177599
1530.0, 0.016085398477843457
1531.0, 0.020054812613783418
1532.0, 0.01641778605552516
1533.0, 0.013189488906474587
1534.0, 0.011744812840209761
1535.0, 0.015551685030663195
1536.0, 0.016721964527114067
1537.0, 0.013040546062295343
1538.0, 0.018247195188155145
1539.0, 0.016313416705686503
1540.0, 0.00914105974021046
1541.0, 0.01341887066319816
1542.0, 0.018334987528853278
1543.0, 0.020643501966279287
1544.0, 0.01573365564526311
1545.0, 0.014017348228563159
1546.0, 0.01466428115798315
1547.0, 0.013592527694872316
1548.0, 0.012971712787425087
1549.0, 0.013365823605699503
1550.0, 0.006921619181183078
1551.0, 0.007486990280601836
1552.0, 0.0064547517144224655
1553.0, 0.006431317988488845
1554.0, 0.005799035706891941
1555.0, 0.0026786035015238657
1556.0, 0.014758341839193431
1557.0, 0.0027719562587216716
1558.0, 0.016980667501024994
1559.0, 0.0045818315861055154
1560.0, 0.006548650455508705
1561.0, 0.00873547149793471
1562.0, 0.009706434720283924
1563.0, 0.006908027635736187
1564.0, 0.010629735296950549
1565.0, 0.010174051138441708
1566.0, 0.010101971183630168
1567.0, 0.006169965488439725
1568.0, 0.004264712621923471
1569.0, 0.008562547944445751
1570.0, 0.004123728991982198
1571.0, 2.620212564720489e-05
1572, 0.0
1573, 0.0
1574, 0.0
1575, 0.0
1576, 0.0
1577, 0.0
1578, 0.0
1579, 0.0
1580, 0.0
1581, 0.0
1582, 0.0
1583, 0.0
1584, 0.0
1585, 0.0
1586, 0.0
1587, 0.0
1588, 0.0
1589, 0.0
1590, 0.0
1591, 0.0
1592, 0.0
1593, 0.0
1594, 0.0
1595, 0.0
1596, 0.0
1597, 0.0
1598, 0.0
1599, 0.0
