30, 0.0
31, 0.0
32, 0.0
33, 0.0
34, 0.0
35, 0.0
36, 0.0
37, 0.0
38, 0.0
39, 0.0
40, 0.0
41, 0.0
42, 0.0
43, 0.0
44, 0.0
45, 0.0
46, 0.0
47, 0.0
48, 0.0
49, 0.0
50, 0.0
51, 0.0
52, 0.0
53, 0.0
54, 0.0
55, 0.0
56, 0.0
57, 0.0
58, 0.0
59, 0.0
60, 0.0
61, 0.0
62, 0.0
63, 0.0
64, 0.0
65, 0.0
66, 0.0
67, 0.0
68, 0.0
69, 0.0
70, 0.0
71, 0.0
72, 0.0
73, 0.0
74, 0.0
75, 0.0
76, 0.0
77, 0.0
78, 0.0
79, 0.0
80, 0.0
81, 0.0
82, 0.0
83, 0.0
84, 0.0
85, 0.0
86, 0.0
87, 0.0
88, 0.0
89, 0.0
90, 0.0
91, 0.0
92, 0.0
93, 0.0
94, 0.0
95, 0.0
96.0, 0.9987158855815603
97.0, 0.9927135764519247
98.0, 0.9831120072723353
99.0, 0.9672196706813339
100.0, 0.9567397463778158
101.0, 0.9509238960873967
102.0, 0.9465008003929172
103.0, 0.9431158084155328
104.0, 0.9427929961992255
105.0, 0.9383091780634757
106.0, 0.9354134608607558
107.0, 0.9352942330608025
108.0, 0.9314098644849356
109.0, 0.9273237874945959
110.0, 0.9229441758407271
111.0, 0.9178139081568389
112.0, 0.9126423540745544
113.0, 0.9164602928279147
114.0, 0.9155038701809254
115.0, 0.910866925188914
116.0, 0.9104787517425936
117.0, 0.9113782535199773
118.0, 0.9052426195586891
119.0, 0.8984269979076132
120.0, 0.8993195719136141
121.0, 0.8977875691549769
122.0, 0.898548363340821
123.0, 0.8961155757243787
124.0, 0.8887616566824171
125.0, 0.8891183914062699
126.0, 0.8885302203116393
127.0, 0.8850421768726328
128.0, 0.8803172849356757
129.0, 0.8765817539770488
130.0, 0.8742060371534156
131.0, 0.8709100581350295
132.0, 0.8658816512309248
133.0, 0.8591559145300689
134.0, 0.8562767385997144
135.0, 0.856711140613872
136.0, 0.8571829253807834
137.0, 0.8532531255443003
138.0, 0.8559524270534765
139.0, 0.8557696224513061
140.0, 0.8511009353987276
141.0, 0.8454137891343507
142.0, 0.8433820360749441
143.0, 0.8438613952571478
144.0, 0.8424322382395625
145.0, 0.838603387883228
146.0, 0.8372317509200201
147.0, 0.838678333123121
148.0, 0.8356382803696142
149.0, 0.8281858755760783
150.0, 0.8235889100810991
151.0, 0.8269583047725411
152.0, 0.8274452134303124
153.0, 0.8242566782244969
154.0, 0.8222843219746815
155.0, 0.8195027382112411
156.0, 0.8196486448050964
157.0, 0.8187616670329488
158.0, 0.8146113938239423
159.0, 0.8126580809258825
160.0, 0.810192211877272
161.0, 0.8074770638566131
162.0, 0.8058771768517907
163.0, 0.8061458929116679
164.0, 0.803611032475169
165.0, 0.8008650595865084
166.0, 0.7998143547842639
167.0, 0.7994766567094033
168.0, 0.7928569852103485
169.0, 0.7922230584555667
170.0, 0.7929425560356168
171.0, 0.7893384313274353
172.0, 0.7878791721677022
173.0, 0.788914589655492
174.0, 0.7883099103574495
175.0, 0.7860074578460731
176.0, 0.7850254220002308
177.0, 0.7822045264929611
178.0, 0.7788568309789887
179.0, 0.7777649234958396
180.0, 0.7788869310165183
181.0, 0.7746732752342005
182.0, 0.7730232673885183
183.0, 0.7734820663384105
184.0, 0.7729276941476111
185.0, 0.7681562060538081
186.0, 0.767147488616323
187.0, 0.7681480354235167
188.0, 0.768725250203343
189.0, 0.7674470411196014
190.0, 0.7663545082954939
191.0, 0.7630068471920273
192.0, 0.7603559836787642
193.0, 0.7608997438589753
194.0, 0.7603560835428929
195.0, 0.7591500914939124
196.0, 0.7567736197746046
197.0, 0.7536326696302469
198.0, 0.7512911099472808
199.0, 0.7540421698031071
200.0, 0.7559690792075044
201.0, 0.754148092285352
202.0, 0.7483532167240959
203.0, 0.744116949872046
204.0, 0.7442584961724719
205.0, 0.7445550677105244
206.0, 0.7425133218033292
207.0, 0.7430105083635665
208.0, 0.7409720939487526
209.0, 0.7386101922134978
210.0, 0.7384585523751511
211.0, 0.7397615097538315
212.0, 0.7380164717671057
213.0, 0.7368327794096103
214.0, 0.7359025284882706
215.0, 0.7339282741635736
216.0, 0.7316728974340485
217.0, 0.731975135114323
218.0, 0.7327566561053188
219.0, 0.7326387314070033
220.0, 0.7313786760336352
221.0, 0.729311034395091
222.0, 0.7258665158204377
223.0, 0.7255000480371451
224.0, 0.727988094190591
225.0, 0.724194144821353
226.0, 0.7251187036556185
227.0, 0.7235222293942679
228.0, 0.7187139952179915
229.0, 0.7167636800400695
230.0, 0.7181844548899379
231.0, 0.7168332995333552
232.0, 0.7148902870750481
233.0, 0.7150898479098728
234.0, 0.7163664896786924
235.0, 0.7158504449982321
236.0, 0.7135057806878834
237.0, 0.7108049803347765
238.0, 0.7093459082105157
239.0, 0.7114018167084124
240.0, 0.7107142769552539
241.0, 0.7098468573017519
242.0, 0.710936107553017
243.0, 0.7110550030064288
244.0, 0.7058612513066368
245.0, 0.7050963082871428
246.0, 0.7085231328113188
247.0, 0.708109812440924
248.0, 0.7026694262290744
249.0, 0.7007110714100303
250.0, 0.701039649332839
251.0, 0.699719042097497
252.0, 0.6972338721151393
253.0, 0.6990010594215516
254.0, 0.6952833298489248
255.0, 0.6911839103164807
256.0, 0.6939237273024449
257.0, 0.6972426798303499
258.0, 0.6938224205633747
259.0, 0.6930927545209996
260.0, 0.6949065582537551
261.0, 0.6927199673061847
262.0, 0.6913676269549024
263.0, 0.6906131111406689
264.0, 0.6903877070887321
265.0, 0.6900137020366567
266.0, 0.6874903633544389
267.0, 0.6870132755587928
268.0, 0.687718515087867
269.0, 0.6886368172484275
270.0, 0.6890845978586918
271.0, 0.6873761849590415
272.0, 0.6830522693922785
273.0, 0.6805040090628319
274.0, 0.6817958838414823
275.0, 0.6835636889585361
276.0, 0.6825900017083916
277.0, 0.683814323402514
278.0, 0.6844699625551015
279.0, 0.6810622925811295
280.0, 0.6772102330226003
281.0, 0.6783136423025599
282.0, 0.6773304303927655
283.0, 0.6756277266906209
284.0, 0.6778595194906998
285.0, 0.6765010565949179
286.0, 0.6763210726604039
287.0, 0.6744520493502157
288.0, 0.6722999761161782
289.0, 0.6748616543633038
290.0, 0.6728082796901156
291.0, 0.6703279489613742
292.0, 0.6694552225744945
293.0, 0.6693385324269747
294.0, 0.668314112831501
295.0, 0.6692443937801367
296.0, 0.6712949280570343
297.0, 0.6696993377352835
298.0, 0.6638019669571191
299.0, 0.6655578476237409
300.0, 0.6661902046491168
301.0, 0.6666964567465663
302.0, 0.6668342834502025
303.0, 0.6646506051662355
304.0, 0.6624203275859541
305.0, 0.6638439669262803
306.0, 0.6638230678581374
307.0, 0.6621121679312845
308.0, 0.6640903625641844
309.0, 0.6618960405951267
310.0, 0.6617613663989349
311.0, 0.6635224772519838
312.0, 0.6649898369936664
313.0, 0.6648832179759296
314.0, 0.6600145489544458
315.0, 0.66109481456863
316.0, 0.6628835179344138
317.0, 0.6592075129416705
318.0, 0.6629389612251118
319.0, 0.6622792138897775
320.0, 0.6602715388189152
321.0, 0.6590025977331112
322.0, 0.6573778401554099
323.0, 0.655862193751989
324.0, 0.655975878170998
325.0, 0.655096326910382
326.0, 0.6538079206475828
327.0, 0.6551009689612827
328.0, 0.6591396179619331
329.0, 0.6596157063571556
330.0, 0.6585751999028129
331.0, 0.6560954612031414
332.0, 0.6499556702001925
333.0, 0.6516630314221808
334.0, 0.65629817917557
335.0, 0.6574657246925806
336.0, 0.6544896141303364
337.0, 0.6522464347149796
338.0, 0.6499705953399674
339.0, 0.6510028599745261
340.0, 0.6546644874792167
341.0, 0.6563851655889664
342.0, 0.6508573065864786
343.0, 0.6507005837797406
344.0, 0.6540090196370645
345.0, 0.6540661886466215
346.0, 0.6511120854444088
347.0, 0.6551213776874972
348.0, 0.6544619404017774
349.0, 0.6516939817254208
350.0, 0.6496781136721272
351.0, 0.6491748592021109
352.0, 0.649218215597634
353.0, 0.6503582071388551
354.0, 0.6504028511397287
355.0, 0.6496844145388185
356.0, 0.6504977041726422
357.0, 0.6541562620918415
358.0, 0.6543893224816354
359.0, 0.6522653457608701
360.0, 0.6514890850523404
361.0, 0.6512907122889644
362.0, 0.6447582864557238
363.0, 0.6447530642668451
364.0, 0.644290553604799
365.0, 0.6423082692780174
366.0, 0.6421019772431402
367.0, 0.6428573923408266
368.0, 0.6411319809669794
369.0, 0.6410920201622903
370.0, 0.6412251907140843
371.0, 0.6391435272679457
372.0, 0.6384322606388024
373.0, 0.6352824851993879
374.0, 0.6360678365953163
375.0, 0.6386676234477301
376.0, 0.6379979513330719
377.0, 0.6357299323731131
378.0, 0.6339658027742375
379.0, 0.6339236800927041
380.0, 0.6338134399864378
381.0, 0.6322224337928926
382.0, 0.6360863094597196
383.0, 0.6364195286968128
384.0, 0.6340607611246497
385.0, 0.6328018063668136
386.0, 0.6325760106255904
387.0, 0.6282961531184416
388.0, 0.6296789797202555
389.0, 0.6309889165418571
390.0, 0.6303549559704628
391.0, 0.6296810422459884
392.0, 0.628777095199496
393.0, 0.6266781777785235
394.0, 0.6267463271013577
395.0, 0.6275110298786964
396.0, 0.6266666733046321
397.0, 0.6243865372164544
398.0, 0.6238658666961303
399.0, 0.6217560448278853
400.0, 0.6221091128234612
401.0, 0.6263456093945761
402.0, 0.628713398511934
403.0, 0.6244185706613969
404.0, 0.6235227181865587
405.0, 0.6225546723652172
406.0, 0.6193222224759567
407.0, 0.6178071660194654
408.0, 0.6156520827381509
409.0, 0.6199515553755921
410.0, 0.6209548222661956
411.0, 0.6188878738138679
412.0, 0.6224571107940469
413.0, 0.6204859632542497
414.0, 0.6194252096473446
415.0, 0.6209370961505393
416.0, 0.6223695722591243
417.0, 0.6208033441979964
418.0, 0.6182838606274523
419.0, 0.6187153976249976
420.0, 0.6217392183009866
421.0, 0.6230548313828207
422.0, 0.6196777584519415
423.0, 0.6217058628401879
424.0, 0.6223033681265308
425.0, 0.6224434236207292
426.0, 0.62178876827187
427.0, 0.6199199773700055
428.0, 0.6196072154417172
429.0, 0.6227825126376888
430.0, 0.6221789242684357
431.0, 0.6210661119757525
432.0, 0.6217094228016953
433.0, 0.6212493988572698
434.0, 0.6211174431901604
435.0, 0.6208956575882548
436.0, 0.6209683466832243
437.0, 0.6222336979014303
438.0, 0.6235738150517418
439.0, 0.6194498085624965
440.0, 0.621584899599498
441.0, 0.6213552509339286
442.0, 0.6199857702423501
443.0, 0.6216480711848454
444.0, 0.6203737521832636
445.0, 0.6206812013188645
446.0, 0.6210105497423576
447.0, 0.6197442992151657
448.0, 0.6199181979154063
449.0, 0.6246805876166477
450.0, 0.6204033579512336
451.0, 0.6173136041152643
452.0, 0.618079564717607
453.0, 0.6187482420845227
454.0, 0.6165632991355428
455.0, 0.6187873530444251
456.0, 0.6192670087673184
457.0, 0.6197657565332583
458.0, 0.6207977213950635
459.0, 0.6209385236961018
460.0, 0.6177225939182364
461.0, 0.6211802366808671
462.0, 0.6216656720556044
463.0, 0.617904340949814
464.0, 0.6135831127698963
465.0, 0.612026720048523
466.0, 0.6136338507976942
467.0, 0.6201414340201029
468.0, 0.6202154871179287
469.0, 0.615511834460935
470.0, 0.6141164455145257
471.0, 0.6099574265885518
472.0, 0.611687891442612
473.0, 0.6142866397712269
474.0, 0.6132127892210231
475.0, 0.6096410861545917
476.0, 0.6118228989050792
477.0, 0.6115212238944524
478.0, 0.6124543469459001
479.0, 0.6111070033788985
480.0, 0.6077219172198541
481.0, 0.6070368381432023
482.0, 0.6069898724328775
483.0, 0.6095793231901352
484.0, 0.6075109221001513
485.0, 0.605939189729123
486.0, 0.607999927168007
487.0, 0.6067366694077458
488.0, 0.6088602959745525
489.0, 0.6084725615692433
490.0, 0.6058580839563736
491.0, 0.6043218736179842
492.0, 0.6050824330609368
493.0, 0.6039794299722696
494.0, 0.6026353523649395
495.0, 0.6028585019565201
496.0, 0.6024656753048232
497.0, 0.6018645780076375
498.0, 0.6034287311818929
499.0, 0.6007601771960032
500.0, 0.5990536093098057
501.0, 0.5978796314485121
502.0, 0.5963306229547455
503.0, 0.5950571223339098
504.0, 0.5951724287820847
505.0, 0.5941701199886219
506.0, 0.5931906626122779
507.0, 0.5933474963323897
508.0, 0.593142732565942
509.0, 0.5905447826242014
510.0, 0.5880362015015429
511.0, 0.587147805057229
512.0, 0.5875151170028394
513.0, 0.5847390007215163
514.0, 0.5799005258001553
515.0, 0.5800319277499694
516.0, 0.5792821228275072
517.0, 0.5758007490375087
518.0, 0.573723860639251
519.0, 0.5729800694525328
520.0, 0.570588278923086
521.0, 0.5655342834724431
522.0, 0.563079477446724
523.0, 0.5643143346045282
524.0, 0.5633887371852717
525.0, 0.5580095443229912
526.0, 0.5523529843681548
527.0, 0.5521793115986668
528.0, 0.5511960491780382
529.0, 0.5471360003153696
530.0, 0.5435038243101425
531.0, 0.5432236063019156
532.0, 0.5440288603345498
533.0, 0.5386155850763809
534.0, 0.5333771290784068
535.0, 0.5340435264073096
536.0, 0.5336548786853014
537.0, 0.5268960797233972
538.0, 0.5226953186204534
539.0, 0.5204924608465579
540.0, 0.5165432982537823
541.0, 0.5134441903968183
542.0, 0.5128684505446574
543.0, 0.5130112773554657
544.0, 0.5106412605443518
545.0, 0.5099175794044529
546.0, 0.5065011309683269
547.0, 0.5014546374973201
548.0, 0.4990767703109845
549.0, 0.5004104420375882
550.0, 0.4974973755516274
551.0, 0.498884043802499
552.0, 0.49467532739844977
553.0, 0.4898716503016722
554.0, 0.48933532342211006
555.0, 0.48830841458958474
556.0, 0.48250479654999423
557.0, 0.48606652267434747
558.0, 0.4832761779119329
559.0, 0.4804161208320564
560.0, 0.4824194992198475
561.0, 0.47954135915606955
562.0, 0.4754331062257889
563.0, 0.47582228136509147
564.0, 0.4744637141854831
565.0, 0.47188632488929566
566.0, 0.4701015190881959
567.0, 0.46761069789056103
568.0, 0.4702048880373061
569.0, 0.46757458486346215
570.0, 0.465174035882668
571.0, 0.46319295971190366
572.0, 0.4599120333254218
573.0, 0.45734283824135263
574.0, 0.4528802028762649
575.0, 0.45100971837970844
576.0, 0.45225419264244654
577.0, 0.4512614986915191
578.0, 0.44629047043906184
579.0, 0.4425397328504778
580.0, 0.4406634298300168
581.0, 0.43675065098714405
582.0, 0.4360057981258281
583.0, 0.4343939053270841
584.0, 0.429912932003613
585.0, 0.42949803011795085
586.0, 0.4257677678602625
587.0, 0.4232438966871455
588.0, 0.4190687109032894
589.0, 0.4170147392854252
590.0, 0.41654233039401783
591.0, 0.41112266467346587
592.0, 0.41233397940683875
593.0, 0.4080050352760619
594.0, 0.4043846851199096
595.0, 0.4021853005073885
596.0, 0.3996620497603222
597.0, 0.3960701430967972
598.0, 0.389686625522399
599.0, 0.3880718872902039
600.0, 0.38799306471239475
601.0, 0.3861225713849534
602.0, 0.3828656067357554
603.0, 0.37985450951793487
604.0, 0.37602042093553223
605.0, 0.3723618352985126
606.0, 0.37150752189199576
607.0, 0.369740046410751
608.0, 0.36648083535533715
609.0, 0.3645008747776903
610.0, 0.36274090133571735
611.0, 0.36111841742524264
612.0, 0.3601295936598467
613.0, 0.3583436128787166
614.0, 0.354329061597405
615.0, 0.35067595426740455
616.0, 0.35211405107462956
617.0, 0.3482191125321456
618.0, 0.3481715902286273
619.0, 0.3477336830946792
620.0, 0.34484515093185786
621.0, 0.34145953562973214
622.0, 0.34007276631509964
623.0, 0.33833999932205716
624.0, 0.3421676477099516
625.0, 0.3392041973410565
626.0, 0.33577891628065243
627.0, 0.3365382304043444
628.0, 0.3359140979844517
629.0, 0.3300973282810946
630.0, 0.3279472011032245
631.0, 0.3305359588939283
632.0, 0.32859449500309634
633.0, 0.3250123259023876
634.0, 0.3250756034868252
635.0, 0.3220750746485079
636.0, 0.32434273126924473
637.0, 0.32277725233943816
638.0, 0.3204133347528717
639.0, 0.31855954415707116
640.0, 0.31824670647305436
641.0, 0.3198840356590531
642.0, 0.316857764371747
643.0, 0.31784098482629075
644.0, 0.3156904648317755
645.0, 0.3153509201546763
646.0, 0.3159506890209184
647.0, 0.31218345474135356
648.0, 0.3093518278066924
649.0, 0.3102916624010596
650.0, 0.30879970450555805
651.0, 0.30687002315076056
652.0, 0.3048536650780707
653.0, 0.30210879191550344
654.0, 0.2998577833524032
655.0, 0.29960329873060587
656.0, 0.2988489906830834
657.0, 0.2952191294736375
658.0, 0.29308330833203566
659.0, 0.2907173072982111
660.0, 0.2869160260603933
661.0, 0.2881295838236392
662.0, 0.2824337069388815
663.0, 0.2823866019028388
664.0, 0.2805974994480544
665.0, 0.2782634483501087
666.0, 0.2782307841090309
667.0, 0.2755521513296153
668.0, 0.2707948294735395
669.0, 0.2714267118233504
670.0, 0.26910481080836374
671.0, 0.264415237464071
672.0, 0.2638433232919747
673.0, 0.2661039282795523
674.0, 0.26370947332736716
675.0, 0.26012906985391665
676.0, 0.25846917664093066
677.0, 0.25410333502971705
678.0, 0.2515165032381705
679.0, 0.2519770397894896
680.0, 0.24870395200832954
681.0, 0.24366985457468165
682.0, 0.24313620508502876
683.0, 0.23910537142582708
684.0, 0.23572146604171879
685.0, 0.2348446785971541
686.0, 0.2339273283324174
687.0, 0.2314945553851632
688.0, 0.22822209432770243
689.0, 0.23074806347884416
690.0, 0.22453267407111982
691.0, 0.21924397134405266
692.0, 0.21841595592986196
693.0, 0.21641280504155827
694.0, 0.21352085114775152
695.0, 0.21407755412942928
696.0, 0.2104912013608714
697.0, 0.20631308454130257
698.0, 0.20551059578742917
699.0, 0.20309509774539633
700.0, 0.19666203615591316
701.0, 0.194980004212634
702.0, 0.196894835276924
703.0, 0.19612763471778427
704.0, 0.19492941291880975
705.0, 0.19203297002272454
706.0, 0.19130952881981153
707.0, 0.19195636754340492
708.0, 0.18619496391251317
709.0, 0.1858112155835834
710.0, 0.18158081150302172
711.0, 0.17924861926473334
712.0, 0.18054165479287823
713.0, 0.1798300200975997
714.0, 0.17549268260253745
715.0, 0.1742341012721136
716.0, 0.17223626027992406
717.0, 0.17184784221577165
718.0, 0.1683293256477372
719.0, 0.16874699840396948
720.0, 0.16940882784466477
721.0, 0.16377987956372295
722.0, 0.15949112807632826
723.0, 0.16117859779055357
724.0, 0.15945164151127061
725.0, 0.15786378331252265
726.0, 0.1578263207124044
727.0, 0.15856192442962544
728.0, 0.1586784649206202
729.0, 0.15630220206361212
730.0, 0.15432825208762432
731.0, 0.15300542965755284
732.0, 0.15037277839383437
733.0, 0.14687314285983646
734.0, 0.14566775637262042
735.0, 0.1455545130710408
736.0, 0.14155556937444286
737.0, 0.14129885879279452
738.0, 0.14041722560186679
739.0, 0.13880633543266
740.0, 0.13806541975407557
741.0, 0.13586369625357905
742.0, 0.13365216789469084
743.0, 0.13711146215155284
744.0, 0.1337345891278232
745.0, 0.13256362757064574
746.0, 0.12932336600494007
747.0, 0.12756195983187998
748.0, 0.12574590230703472
749.0, 0.12444366292327805
750.0, 0.12437668645149262
751.0, 0.11951810163960025
752.0, 0.12109911432898882
753.0, 0.1209562354054314
754.0, 0.12123968446088239
755.0, 0.11886743847201424
756.0, 0.1162868720022589
757.0, 0.11542032537678937
758.0, 0.11261430938601005
759.0, 0.1136562482013358
760.0, 0.11216671709886716
761.0, 0.11259553510872629
762.0, 0.11064076193927919
763.0, 0.10752155707738487
764.0, 0.10601705279575799
765.0, 0.10491676121285942
766.0, 0.10555213053602201
767.0, 0.10468134691445007
768.0, 0.10173178202651237
769.0, 0.10085658765156837
770.0, 0.09959831293243163
771.0, 0.09819416791343491
772.0, 0.09841416344136288
773.0, 0.09596163296029736
774.0, 0.09616864359873964
775.0, 0.09394765683122856
776.0, 0.09282197546185048
777.0, 0.09233807948498961
778.0, 0.09053274171998851
779.0, 0.08740622698277355
780.0, 0.08445903335947974
781.0, 0.08392522734741956
782.0, 0.08344774219082915
783.0, 0.08285681063701303
784.0, 0.08240488526742881
785.0, 0.0813956843969065
786.0, 0.08075904659937203
787.0, 0.07936016031436693
788.0, 0.07573695747466433
789.0, 0.07627536939937292
790.0, 0.07417133033765137
791.0, 0.07323926884504765
792.0, 0.07427454720705817
793.0, 0.07200582365253061
794.0, 0.06742478371515556
795.0, 0.06542439572659989
796.0, 0.06517005065150537
797.0, 0.06537033163439328
798.0, 0.06400666017676843
799.0, 0.06223623946139249
800.0, 0.05855339072552778
801.0, 0.055893781175741696
802.0, 0.05471857675354561
803.0, 0.05262869161480313
804.0, 0.05358602724713856
805.0, 0.053204781067092435
806.0, 0.05122549139069146
807.0, 0.05055157807087829
808.0, 0.049706720208353046
809.0, 0.04847660274325965
810.0, 0.04785706922959683
811.0, 0.047721076490168546
812.0, 0.046873473174384825
813.0, 0.04602820021803272
814.0, 0.04260670177720737
815.0, 0.04147342592500357
816.0, 0.04159522294172098
817.0, 0.03977489410207744
818.0, 0.03813389854961096
819.0, 0.03931054347766205
820.0, 0.039500170241479046
821.0, 0.041168728051407116
822.0, 0.042427474668013
823.0, 0.03993690006841709
824.0, 0.040487403329312985
825.0, 0.039469978463646686
826.0, 0.03710899337941332
827.0, 0.039290479227332656
828.0, 0.04147180026537169
829.0, 0.03933269586442351
830.0, 0.041784570012316155
831.0, 0.04276464055861916
832.0, 0.04504569360822965
833.0, 0.04787774220914085
834.0, 0.04724282237978802
835.0, 0.044771386030698565
836.0, 0.045942262673584526
837.0, 0.04843065814101875
838.0, 0.052078214884697965
839.0, 0.050166476346236534
840.0, 0.05165285602513926
841.0, 0.056208411352466625
842.0, 0.05793414498543654
843.0, 0.05839193925094754
844.0, 0.06112349106491462
845.0, 0.06110980244993361
846.0, 0.06080441222012257
847.0, 0.06394713618922569
848.0, 0.06871476980952784
849.0, 0.07093446038985694
850.0, 0.07276813285823305
851.0, 0.07498673866853077
852.0, 0.07681963692934485
853.0, 0.08162023996034813
854.0, 0.08378097264553674
855.0, 0.08570238631331865
856.0, 0.08766426162175762
857.0, 0.08897473784645371
858.0, 0.0910735807218533
859.0, 0.09363693682446206
860.0, 0.09713179194996575
861.0, 0.10323589500702018
862.0, 0.10218522969793385
863.0, 0.10364137333454737
864.0, 0.10508098601498096
865.0, 0.1107204562919957
866.0, 0.11597436067052641
867.0, 0.11696661910262923
868.0, 0.11847604830635167
869.0, 0.12277021198761659
870.0, 0.12357813143930019
871.0, 0.12641619655442657
872.0, 0.1323844833223805
873.0, 0.1330990977473342
874.0, 0.1367197365729044
875.0, 0.13879349206150957
876.0, 0.13979846007386995
877.0, 0.14337824505267793
878.0, 0.14661121434063812
879.0, 0.14876386079898324
880.0, 0.15397206286975224
881.0, 0.15527944145439782
882.0, 0.1559097276618455
883.0, 0.1591110240469892
884.0, 0.16240310545925385
885.0, 0.16492475049362734
886.0, 0.16775255660575839
887.0, 0.1697935626291418
888.0, 0.1717113762319185
889.0, 0.17604684555220582
890.0, 0.17561299865211702
891.0, 0.17869899500817107
892.0, 0.18196742059827398
893.0, 0.18439370042935885
894.0, 0.18751923789768463
895.0, 0.19016787336662996
896.0, 0.1916100159103241
897.0, 0.19463169527420196
898.0, 0.19664061735711094
899.0, 0.20122053257127367
900.0, 0.20538852312887992
901.0, 0.2072237391561616
902.0, 0.20846474738533477
903.0, 0.20978605197535938
904.0, 0.21203134088100203
905.0, 0.21656475110104328
906.0, 0.21981244284500803
907.0, 0.22637838417019637
908.0, 0.2247737107797643
909.0, 0.2261131395621124
910.0, 0.22922460540653325
911.0, 0.2322245643540105
912.0, 0.23431054636072574
913.0, 0.23625528254334055
914.0, 0.23815864444923057
915.0, 0.23815473824647743
916.0, 0.2397097272545914
917.0, 0.24188781522040564
918.0, 0.24618156487840542
919.0, 0.2516493326103252
920.0, 0.25644357601160056
921.0, 0.25551897717863614
922.0, 0.2532475485483804
923.0, 0.25690834437113835
924.0, 0.2594976378777348
925.0, 0.2627713701496911
926.0, 0.26295167204525416
927.0, 0.263684493693292
928.0, 0.26481198453521637
929.0, 0.26682683187094536
930.0, 0.26945969807414
931.0, 0.27189268496099345
932.0, 0.27367873493864936
933.0, 0.2756841949726287
934.0, 0.2782183765750842
935.0, 0.27793036923848824
936.0, 0.2772908607418725
937.0, 0.28215977949733945
938.0, 0.28459649074277293
939.0, 0.2841923136541828
940.0, 0.2837398183434954
941.0, 0.28895443975200735
942.0, 0.29340843158738045
943.0, 0.2878322372952942
944.0, 0.2896181816385973
945.0, 0.2936417494757056
946.0, 0.29020999074806786
947.0, 0.2892776718987305
948.0, 0.29071900143159274
949.0, 0.293788066219259
950.0, 0.29656243498404233
951.0, 0.29900908244671387
952.0, 0.2996997670894762
953.0, 0.29885700994669023
954.0, 0.30331419404003174
955.0, 0.30393487099270555
956.0, 0.30208480680208416
957.0, 0.3022529771860351
958.0, 0.30324511320270586
959.0, 0.30338278063936763
960.0, 0.3026570351742873
961.0, 0.30417862650296357
962.0, 0.30798162942361396
963.0, 0.3093008664999608
964.0, 0.31030258758934354
965.0, 0.30636981174921285
966.0, 0.3088949255414686
967.0, 0.3087402962614877
968.0, 0.309050399309983
969.0, 0.309181554542628
970.0, 0.31286819489669765
971.0, 0.31576182563365374
972.0, 0.31542534186029514
973.0, 0.31543601567882495
974.0, 0.315010481740779
975.0, 0.3159223814234816
976.0, 0.3157363834091107
977.0, 0.3176413834670446
978.0, 0.3185780250085
979.0, 0.316832625921689
980.0, 0.31790143455114855
981.0, 0.31698072451617754
982.0, 0.3161533273574246
983.0, 0.31870343209768165
984.0, 0.31826378658538734
985.0, 0.32053938534846055
986.0, 0.3211554677198945
987.0, 0.3195698329046866
988.0, 0.32082282173867804
989.0, 0.3210600175963046
990.0, 0.3239816506874125
991.0, 0.3255346322476491
992.0, 0.3229981518971257
993.0, 0.32120787448885674
994.0, 0.32222006122316255
995.0, 0.3228763161659584
996.0, 0.3239857978478913
997.0, 0.3240729507882429
998.0, 0.3210992728488236
999.0, 0.32215352268502845
1000.0, 0.3238566644282782
1001.0, 0.32286742801325097
1002.0, 0.3220663391181146
1003.0, 0.3205897265799026
1004.0, 0.31871986581909567
1005.0, 0.31747367899287116
1006.0, 0.31639053328718897
1007.0, 0.31968212665142026
1008.0, 0.3208737710883844
1009.0, 0.3181403220029545
1010.0, 0.3163043058245246
1011.0, 0.31907721864830646
1012.0, 0.3209558564348417
1013.0, 0.31782245035593876
1014.0, 0.3146113618630679
1015.0, 0.3156110027838833
1016.0, 0.3167261830020558
1017.0, 0.31410814630140954
1018.0, 0.31090355802340613
1019.0, 0.3114126170954196
1020.0, 0.3072716614050524
1021.0, 0.30714484689627214
1022.0, 0.30982417278750696
1023.0, 0.3075701483783302
1024.0, 0.30330893048979707
1025.0, 0.3019636360338652
1026.0, 0.3015826370934079
1027.0, 0.30017014915362183
1028.0, 0.29924108092965135
1029.0, 0.2976003391053437
1030.0, 0.29387314535349635
1031.0, 0.2907779295986525
1032.0, 0.2902359649424983
1033.0, 0.2858839878294615
1034.0, 0.2887608347838324
1035.0, 0.28904129480510726
1036.0, 0.2868642229874209
1037.0, 0.2826373901154985
1038.0, 0.27647894312325144
1039.0, 0.27374327671698456
1040.0, 0.2746044091409266
1041.0, 0.27022581129517426
1042.0, 0.2687124925015049
1043.0, 0.2687476828017925
1044.0, 0.2607247146253342
1045.0, 0.26260028240003963
1046.0, 0.25767663024522725
1047.0, 0.2558548023717302
1048.0, 0.255817566058478
1049.0, 0.25105365015233716
1050.0, 0.245724553435354
1051.0, 0.24247814015643715
1052.0, 0.24008653610578987
1053.0, 0.24005035484597212
1054.0, 0.237359892455307
1055.0, 0.22910076495910411
1056.0, 0.22472734407446696
1057.0, 0.22228282547338804
1058.0, 0.22126213721420745
1059.0, 0.22074670987917416
1060.0, 0.2190763916775527
1061.0, 0.21667442570546597
1062.0, 0.2119266477804597
1063.0, 0.20837901997658947
1064.0, 0.2068672279741092
1065.0, 0.20202095695874722
1066.0, 0.1959232866858712
1067.0, 0.19328029373563307
1068.0, 0.19143050803983647
1069.0, 0.1872672652929409
1070.0, 0.18559128702014116
1071.0, 0.18156560628063323
1072.0, 0.17831578241665455
1073.0, 0.1750734966968149
1074.0, 0.169555797527621
1075.0, 0.16712163671087452
1076.0, 0.1637433823802072
1077.0, 0.16028591038689996
1078.0, 0.16136519721148984
1079.0, 0.15771624196631256
1080.0, 0.1549843543438048
1081.0, 0.14715662410009867
1082.0, 0.14702570800940065
1083.0, 0.14220896918742937
1084.0, 0.14359803127660653
1085.0, 0.13925551196400016
1086.0, 0.13257799457516684
1087.0, 0.1292349993482615
1088.0, 0.1275556706749177
1089.0, 0.12511173117439756
1090.0, 0.12252024101963152
1091.0, 0.1207289925807229
1092.0, 0.11863096809449708
1093.0, 0.11542548799371048
1094.0, 0.11079772239687263
1095.0, 0.10816501274427993
1096.0, 0.1047840024436991
1097.0, 0.10561069533011361
1098.0, 0.09882221029654865
1099.0, 0.09604376907276292
1100.0, 0.09604456342235931
1101.0, 0.09391033672382942
1102.0, 0.09168779446077965
1103.0, 0.08926957115095507
1104.0, 0.08484710960845905
1105.0, 0.08266223376100493
1106.0, 0.08344860285038419
1107.0, 0.0797180066358039
1108.0, 0.08385249528225922
1109.0, 0.08181625415257918
1110.0, 0.07337007124680929
1111.0, 0.07212038781941273
1112.0, 0.07264847531711893
1113.0, 0.06904917716152177
1114.0, 0.06685429668600842
1115.0, 0.0641456710761306
1116.0, 0.06117500763604485
1117.0, 0.06346440800131327
1118.0, 0.0634744112214261
1119.0, 0.05837448037342155
1120.0, 0.057418449400254576
1121.0, 0.05691785248811874
1122.0, 0.05662174233214501
1123.0, 0.053332556098006516
1124.0, 0.05182617040235599
1125.0, 0.04987645460058594
1126.0, 0.048248213917102295
1127.0, 0.049204336936075864
1128.0, 0.04712314088893802
1129.0, 0.04628205190842224
1130.0, 0.04579602197049411
1131.0, 0.04608617124296732
1132.0, 0.046103511526115026
1133.0, 0.04112943958530801
1134.0, 0.03867564421850554
1135.0, 0.04086393513592109
1136.0, 0.03941898409449998
1137.0, 0.03800425890253899
1138.0, 0.03526194757523478
1139.0, 0.033859566634760016
1140.0, 0.037719662553957686
1141.0, 0.03511715143196538
1142.0, 0.03202600785865976
1143.0, 0.032501959682288785
1144.0, 0.03207935289278545
1145.0, 0.03164616995874606
1146.0, 0.030932508967514604
1147.0, 0.029364195613815466
1148.0, 0.030493830400848704
1149.0, 0.030404531056866097
1150.0, 0.027811624911970867
1151.0, 0.026586329806741704
1152.0, 0.027009890607051994
1153.0, 0.026328209468363926
1154.0, 0.02670317855339873
1155.0, 0.02187397005921078
1156.0, 0.02596618741723985
1157.0, 0.024969578196257076
1158.0, 0.021226318764278402
1159.0, 0.021419831654794087
1160.0, 0.020725257055838598
1161.0, 0.020661854070176455
1162.0, 0.02139146025330533
1163.0, 0.02109453765145587
1164.0, 0.020946240544800602
1165.0, 0.019814208100421414
1166.0, 0.020517498468012287
1167.0, 0.020220177589805998
1168.0, 0.016990785751245328
1169.0, 0.017741804656416633
1170.0, 0.017756615669881334
1171.0, 0.015595945222093175
1172.0, 0.014317805980512924
1173.0, 0.016926208671303743
1174.0, 0.013991017283058392
1175.0, 0.017024955841766696
1176.0, 0.017101035467057914
1177.0, 0.013688246207631418
1178.0, 0.014442819813485238
1179.0, 0.014192263778801341
1180.0, 0.013830707365785086
1181.0, 0.013516720453463768
1182.0, 0.01267659858085683
1183.0, 0.013106076058517895
1184.0, 0.013444282993879984
1185.0, 0.01372778334571195
1186.0, 0.010225987740862362
1187.0, 0.00759499423414482
1188.0, 0.011735181053268463
1189.0, 0.008937786127131215
1190.0, 0.009720957533110934
1191.0, 0.009876101751310753
1192.0, 0.0073649402748239765
1193.0, 0.008688804568137958
1194.0, 0.012168466574950009
1195.0, 0.01148271373413573
1196.0, 0.009221914732549737
1197.0, 0.008953352901662524
1198.0, 0.008843121394573463
1199.0, 0.00844321253232724
1200.0, 0.007377773741031266
1201.0, 0.007973614326116062
1202.0, 0.00922816295602146
1203.0, 0.008332962957723329
1204.0, 0.007635926497252151
1205.0, 0.007202773804525126
1206.0, 0.007731712802974374
1207.0, 0.005998578083941065
1208.0, 0.0058790036071574275
1209.0, 0.004090710138836879
1210.0, 0.00747818632554978
1211.0, 0.007892662551634805
1212.0, 0.009274360908302508
1213.0, 0.005484961989432106
1214.0, 0.002912155984758142
1215.0, 0.0019426996543297217
1216.0, 0.0031171915790286216
1217.0, 0.003149310504214004
1218.0, 0.002673830002340859
1219.0, 0.004118195417534119
1220.0, 0.003596457285078268
1221.0, 0.003003680817669459
1222.0, 0.0030005462859124415
1223.0, 0.0016139293635979272
1224.0, 0.0003887979263745813
1225.0, 0.0018030949502023785
1226.0, 0.0048151110478632745
1227.0, 0.004479588899313407
1228.0, 0.00364404836258421
1229.0, 0.0031058778570896032
1230.0, 0.00793190371901886
1231.0, 0.007958684120137305
1232.0, 0.003580851356528717
1233.0, 0.006187503168041627
1234.0, 0.004457836947699581
1235.0, 0.003982740197305005
1236.0, 0.0003852915366979915
1237.0, 0.004020652654138571
1238.0, 0.007232748520954601
1239.0, 0.00868142582501934
1240.0, 0.005549894928877206
1241.0, 0.005167068200770615
1242.0, 0.003946055618899458
1243.0, 0.0059101636799101616
1244.0, 0.006708725035823238
1245.0, 0.005434028927024391
1246.0, 0.006827443597350298
1247.0, 0.008612147315826772
1248.0, 0.010152820037789502
1249.0, 0.008424731976983908
1250.0, 0.006227601934725819
1251.0, 0.009012719865875846
1252.0, 0.009138667606382754
1253.0, 0.009060413564800357
1254.0, 0.004577500994561863
1255.0, 0.007014423295115033
1256.0, 0.00618446967891195
1257.0, 0.0037679980903867457
1258.0, 0.007276167590476309
1259.0, 0.008733636971410635
1260.0, 0.007957877147403376
1261.0, 0.004172157864214356
1262.0, 0.005961923186807335
1263.0, 0.00646611474075112
1264.0, 0.004664226407924625
1265.0, 0.005876094211004788
1266.0, 0.008144025453799903
1267.0, 0.005697534416431487
1268.0, 0.00641624683604072
1269.0, 0.0068353027102554895
1270.0, 0.007028701249883519
1271.0, 0.009029004885083625
1272.0, 0.010620438265470647
1273.0, 0.00930140307297707
1274.0, 0.00662262703402505
1275.0, 0.008982304350984068
1276.0, 0.007619440971580668
1277.0, 0.004575039448804953
1278.0, 0.00934310115499819
1279.0, 0.008220746910280402
1280.0, 0.007543380607540421
1281.0, 0.0061137791277667865
1282.0, 0.00782883266087244
1283.0, 0.006205677368623567
1284.0, 0.006704619547568377
1285.0, 0.0062745459184057155
1286, 0.0
1287, 0.0
1288, 0.0
1289, 0.0
1290, 0.0
1291, 0.0
1292, 0.0
1293, 0.0
1294, 0.0
1295, 0.0
1296, 0.0
1297, 0.0
1298, 0.0
1299, 0.0
1300, 0.0
1301, 0.0
1302, 0.0
1303, 0.0
1304, 0.0
1305, 0.0
1306, 0.0
1307, 0.0
1308, 0.0
1309, 0.0
1310, 0.0
1311, 0.0
1312, 0.0
1313, 0.0
1314, 0.0
1315, 0.0
1316, 0.0
1317, 0.0
1318, 0.0
1319, 0.0
1320, 0.0
1321, 0.0
1322, 0.0
1323, 0.0
1324, 0.0
1325, 0.0
1326, 0.0
1327, 0.0
1328, 0.0
1329, 0.0
1330, 0.0
1331, 0.0
1332, 0.0
1333, 0.0
1334, 0.0
1335, 0.0
1336, 0.0
1337, 0.0
1338, 0.0
1339, 0.0
1340, 0.0
1341, 0.0
1342, 0.0
1343, 0.0
1344, 0.0
1345, 0.0
1346, 0.0
1347, 0.0
1348, 0.0
1349, 0.0
1350, 0.0
1351, 0.0
1352, 0.0
1353, 0.0
1354, 0.0
1355, 0.0
1356, 0.0
1357, 0.0
1358, 0.0
1359, 0.0
1360, 0.0
1361, 0.0
1362, 0.0
1363, 0.0
1364, 0.0
1365, 0.0
1366, 0.0
1367, 0.0
1368, 0.0
1369, 0.0
1370, 0.0
1371, 0.0
1372, 0.0
1373, 0.0
1374, 0.0
1375, 0.0
1376, 0.0
1377, 0.0
1378, 0.0
1379, 0.0
1380, 0.0
1381, 0.0
1382, 0.0
1383, 0.0
1384, 0.0
1385, 0.0
1386, 0.0
1387, 0.0
1388, 0.0
1389, 0.0
1390, 0.0
1391, 0.0
1392, 0.0
1393, 0.0
1394, 0.0
1395, 0.0
1396, 0.0
1397, 0.0
1398, 0.0
1399, 0.0
1400, 0.0
1401, 0.0
1402, 0.0
1403, 0.0
1404, 0.0
1405, 0.0
1406, 0.0
1407, 0.0
1408, 0.0
1409, 0.0
1410, 0.0
1411, 0.0
1412, 0.0
1413, 0.0
1414, 0.0
1415, 0.0
1416, 0.0
1417, 0.0
1418, 0.0
1419, 0.0
1420, 0.0
1421, 0.0
1422, 0.0
1423, 0.0
1424, 0.0
1425, 0.0
1426, 0.0
1427, 0.0
1428, 0.0
1429, 0.0
1430, 0.0
1431, 0.0
1432, 0.0
1433, 0.0
1434, 0.0
1435, 0.0
1436, 0.0
1437, 0.0
1438, 0.0
1439, 0.0
1440, 0.0
1441, 0.0
1442, 0.0
1443, 0.0
1444, 0.0
1445, 0.0
1446, 0.0
1447, 0.0
1448, 0.0
1449, 0.0
1450, 0.0
1451, 0.0
1452, 0.0
1453, 0.0
1454, 0.0
1455, 0.0
1456, 0.0
1457, 0.0
1458, 0.0
1459, 0.0
1460, 0.0
1461, 0.0
1462, 0.0
1463, 0.0
1464, 0.0
1465, 0.0
1466, 0.0
1467, 0.0
1468, 0.0
1469, 0.0
1470, 0.0
1471, 0.0
1472, 0.0
1473, 0.0
1474, 0.0
1475, 0.0
1476, 0.0
1477, 0.0
1478, 0.0
1479, 0.0
1480, 0.0
1481, 0.0
1482, 0.0
1483, 0.0
1484, 0.0
1485, 0.0
1486, 0.0
1487, 0.0
1488, 0.0
1489, 0.0
1490, 0.0
1491, 0.0
1492, 0.0
1493, 0.0
1494, 0.0
1495, 0.0
1496, 0.0
1497, 0.0
1498, 0.0
1499, 0.0
1500, 0.0
1501, 0.0
1502, 0.0
1503, 0.0
1504, 0.0
1505, 0.0
1506, 0.0
1507, 0.0
1508, 0.0
1509, 0.0
1510, 0.0
1511, 0.0
1512, 0.0
1513, 0.0
1514, 0.0
1515, 0.0
1516, 0.0
1517, 0.0
1518, 0.0
1519, 0.0
1520, 0.0
1521, 0.0
1522, 0.0
1523, 0.0
1524, 0.0
1525, 0.0
1526, 0.0
1527, 0.0
1528, 0.0
1529, 0.0
1530, 0.0
1531, 0.0
1532, 0.0
1533, 0.0
1534, 0.0
1535, 0.0
1536, 0.0
1537, 0.0
1538, 0.0
1539, 0.0
1540, 0.0
1541, 0.0
1542, 0.0
1543, 0.0
1544, 0.0
1545, 0.0
1546, 0.0
1547, 0.0
1548, 0.0
1549, 0.0
1550, 0.0
1551, 0.0
1552, 0.0
1553, 0.0
1554, 0.0
1555, 0.0
1556, 0.0
1557, 0.0
1558, 0.0
1559, 0.0
1560, 0.0
1561, 0.0
1562, 0.0
1563, 0.0
1564, 0.0
1565, 0.0
1566, 0.0
1567, 0.0
1568, 0.0
1569, 0.0
1570, 0.0
1571, 0.0
1572, 0.0
1573, 0.0
1574, 0.0
1575, 0.0
1576, 0.0
1577, 0.0
1578, 0.0
1579, 0.0
1580, 0.0
1581, 0.0
1582, 0.0
1583, 0.0
1584, 0.0
1585, 0.0
1586, 0.0
1587, 0.0
1588, 0.0
1589, 0.0
1590, 0.0
1591, 0.0
1592, 0.0
1593, 0.0
1594, 0.0
1595, 0.0
1596, 0.0
1597, 0.0
1598, 0.0
1599, 0.0
