30, 0.0
31, 0.0
32, 0.0
33, 0.0
34, 0.0
35, 0.0
36, 0.0
37, 0.0
38, 0.0
39, 0.0
40, 0.0
41, 0.0
42, 0.0
43, 0.0
44, 0.0
45, 0.0
46, 0.0
47, 0.0
48, 0.0
49, 0.0
50, 0.0
51, 0.0
52, 0.0
53, 0.0
54, 0.0
55, 0.0
56, 0.0
57, 0.0
58, 0.0
59, 0.0
60, 0.0
61, 0.0
62, 0.0
63, 0.0
64, 0.0
65, 0.0
66, 0.0
67, 0.0
68, 0.0
69, 0.0
70, 0.0
71, 0.0
72, 0.0
73, 0.0
74, 0.0
75, 0.0
76, 0.0
77, 0.0
78, 0.0
79, 0.0
80, 0.0
81, 0.0
82, 0.0
83, 0.0
84, 0.0
85, 0.0
86, 0.0
87, 0.0
88, 0.0
89, 0.0
90, 0.0
91, 0.0
92, 0.0
93, 0.0
94, 0.0
95, 0.0
96, 0.0
97, 0.0
98, 0.0
99, 0.0
100, 0.0
101, 0.0
102, 0.0
103, 0.0
104.0, 2.3078523378209324e-08
105.0, 4.279648984344987e-07
106.0, 3.132965782810566e-06
107.0, 0.00010442232375191626
108.0, 0.0004677762701742899
109.0, 0.001833615561191763
110.0, 0.0030712304063999253
111.0, 0.003935849077266398
112.0, 0.003918711580598725
113.0, 0.004272682640758734
114.0, 0.004619321828909454
115.0, 0.004604064198428301
116.0, 0.005442454774626602
117.0, 0.005490065489710102
118.0, 0.004526327311482331
119.0, 0.002044021474436419
120.0, 0.0018227749159569731
121.0, 0.001964996588766226
122.0, 0.001400223432321791
123.0, 0.0008502739294079044
124.0, 0.0006119695644155465
125.0, 0.0005931762072726534
126.0, 0.0005414943764269486
127.0, 0.00027333605240728104
128.0, 0.00014138437693801602
129.0, 0.0002786158433976245
130.0, 0.00017400460650276572
131.0, 0.00033776251466880657
132.0, 0.0006719994693027251
133.0, 0.0010523533450103515
134.0, 0.00131924982526221
135.0, 0.001596254541233089
136.0, 0.0019096617686999676
137.0, 0.002260048063430097
138.0, 0.0023456520887167173
139.0, 0.002352829616302208
140.0, 0.0024485853034672267
141.0, 0.0023825804474481294
142.0, 0.002232246759639481
143.0, 0.0021878154370017586
144.0, 0.0031398085025097443
145.0, 0.0026672129806189705
146.0, 0.00233986566242508
147.0, 0.003025529756816269
148.0, 0.003673002297849464
149.0, 0.0037123661146545636
150.0, 0.003521399148356187
151.0, 0.00397213697001016
152.0, 0.004793448126304629
153.0, 0.005665624137057551
154.0, 0.006516096742142022
155.0, 0.007531197148481526
156.0, 0.008749944757845574
157.0, 0.009994190754928618
158.0, 0.01106080462029476
159.0, 0.012979383147890449
160.0, 0.015126005434501178
161.0, 0.017473951586147975
162.0, 0.020280663265396348
163.0, 0.02425979140993279
164.0, 0.029434115926060996
165.0, 0.03598977080581653
166.0, 0.0420433124986296
167.0, 0.04685865367057656
168.0, 0.0510686916502595
169.0, 0.05597254890946967
170.0, 0.05855954254967231
171.0, 0.05947248287890066
172.0, 0.05876357742980805
173.0, 0.05607285393885254
174.0, 0.05074715240245444
175.0, 0.044373546606567754
176.0, 0.038249973761480816
177.0, 0.03215993891872116
178.0, 0.02703414154881252
179.0, 0.022816393198828527
180.0, 0.019205537075072877
181.0, 0.015737534513737373
182.0, 0.013176782522241203
183.0, 0.011848787319119345
184.0, 0.00972213978893979
185.0, 0.008273951962969381
186.0, 0.00725374233671762
187.0, 0.006399422012088791
188.0, 0.005653468805846005
189.0, 0.005029782621559267
190.0, 0.00449084575973368
191.0, 0.0038210754714182674
192.0, 0.00351630785715543
193.0, 0.0031339193309484334
194.0, 0.0024201288581290155
195.0, 0.002490648735679796
196.0, 0.0023221719576645055
197.0, 0.002082671171288061
198.0, 0.0020971935181728204
199.0, 0.0014457241653623584
200.0, 0.0010023823281914918
201.0, 0.0008971836325475291
202.0, 0.0008055776385761266
203.0, 0.000558925619857592
204.0, 0.00035642776289053523
205.0, 0.0003404992264458735
206.0, 0.00031922537480711993
207.0, 0.0004041865212630859
208.0, 0.0005046773760971699
209.0, 0.0004122030620931318
210.0, 0.0004354802277485375
211.0, 0.000436376396049619
212.0, 0.0003875284631118809
213.0, 0.00032457239982409806
214.0, 0.0004256231557383788
215.0, 0.0004376062590085584
216.0, 0.00016127714821186884
217.0, 0.00048934134039709
218.0, 0.00039360346495344523
219.0, 0.0002603976064211632
220.0, 0.0010411709401751525
221.0, 0.00047293506630459805
222.0, 0.00012329152245913342
223.0, 0.00029773107049264566
224.0, 0.000590787568816772
225.0, 0.0003366247585016134
226.0, 7.565059827089411e-05
227.0, 0.00017723601200312082
228.0, 0.0001840466620641116
229.0, 0.00012895057981309512
230.0, 0.00017090228842033708
231.0, 0.0006548542810866784
232.0, 0.0004307081535069091
233.0, 0.0003629911412437031
234.0, 0.0005308581100498012
235.0, 0.00037956411423008393
236.0, 0.00018621160559801502
237.0, 5.5737704748683685e-05
238.0, 5.377671598813494e-05
239.0, 4.5350973318260534e-05
240.0, 0.00012069871803667675
241.0, 0.0002641391525553387
242.0, 0.0004625707140579251
243.0, 0.0007131981005504845
244.0, 0.0005960500479284516
245.0, 0.00025925361015647556
246.0, 0.0006212760909276381
247.0, 0.0011956241543930285
248.0, 0.0015469958955345133
249.0, 0.0015285149332992538
250.0, 0.002308731853699388
251.0, 0.002332639724898705
252.0, 0.0022089143633268033
253.0, 0.0025947526190235994
254.0, 0.0025649046594963328
255.0, 0.0028953328558017455
256.0, 0.0034032490912397437
257.0, 0.003418259341570199
258.0, 0.003948275953308885
259.0, 0.004352846519921119
260.0, 0.004578750184732962
261.0, 0.005693402517766799
262.0, 0.005467480659083125
263.0, 0.005577667499127725
264.0, 0.007191357214010337
265.0, 0.007439242667906409
266.0, 0.008315384986032504
267.0, 0.009420992459384894
268.0, 0.010083419744147141
269.0, 0.010895979039153923
270.0, 0.012106106986033083
271.0, 0.013612789193371663
272.0, 0.014874272908561765
273.0, 0.016282759847965247
274.0, 0.017993969177370155
275.0, 0.020086476209899236
276.0, 0.02259090784239526
277.0, 0.025031579980444425
278.0, 0.027372327466378778
279.0, 0.029568181388625922
280.0, 0.03326041227327947
281.0, 0.0363174045361211
282.0, 0.03897230909954695
283.0, 0.041775493660999474
284.0, 0.04575964575734836
285.0, 0.050185143521826
286.0, 0.05458706061139861
287.0, 0.05735730051689784
288.0, 0.05964913587136632
289.0, 0.06118609367932531
290.0, 0.06182689616541762
291.0, 0.0618028039243222
292.0, 0.061326682355783355
293.0, 0.060486603122284474
294.0, 0.05931448187611516
295.0, 0.05602271881706731
296.0, 0.052627729856137666
297.0, 0.048763062176048755
298.0, 0.043544676214547696
299.0, 0.03960670784716934
300.0, 0.03578350700311037
301.0, 0.031864932492030776
302.0, 0.02768976020191781
303.0, 0.02464309476557647
304.0, 0.022071912869950597
305.0, 0.019729128814576165
306.0, 0.017157783469685526
307.0, 0.01560268371170341
308.0, 0.014331194871338231
309.0, 0.012865789446166198
310.0, 0.011552139152770232
311.0, 0.01036603430080382
312.0, 0.009281761484761859
313.0, 0.008274886597908747
314.0, 0.007664989300719648
315.0, 0.007026345737039126
316.0, 0.006509527794057124
317.0, 0.0066506178572038254
318.0, 0.007050020907550386
319.0, 0.006880818030006621
320.0, 0.006139405769059879
321.0, 0.005891181898227045
322.0, 0.0056893422501910875
323.0, 0.005367528748047448
324.0, 0.00486954467984371
325.0, 0.0045872565377089785
326.0, 0.004701443307298195
327.0, 0.004848336263046198
328.0, 0.004732406936052159
329.0, 0.005041267262163692
330.0, 0.005160882769121635
331.0, 0.0051399304555497065
332.0, 0.005051367289487035
333.0, 0.005272976532181942
334.0, 0.005236353236732439
335.0, 0.004943559295579336
336.0, 0.004526177364472159
337.0, 0.0042790069939563045
338.0, 0.004251714397168466
339.0, 0.0043951711078167215
340.0, 0.004391807864065454
341.0, 0.004024810924647835
342.0, 0.0035846937899350847
343.0, 0.003233516525701774
344.0, 0.0035370025527304938
345.0, 0.0033844355192889615
346.0, 0.0030153176908673156
347.0, 0.0025775189200210563
348.0, 0.0021707669865248494
349.0, 0.0020180934884394953
350.0, 0.002105352990531993
351.0, 0.002438760921554722
352.0, 0.0022124107326376105
353.0, 0.002281642306687465
354.0, 0.0024723399602903434
355.0, 0.0023819851690013993
356.0, 0.002429056442612587
357.0, 0.0023812183120663732
358.0, 0.0023198039243415604
359.0, 0.0025960786202063944
360.0, 0.002568914028841248
361.0, 0.0022907799749192644
362.0, 0.0019186679558345747
363.0, 0.002231247385631054
364.0, 0.0024210317119891865
365.0, 0.0023077125461185323
366.0, 0.0018942614335837973
367.0, 0.0020274664092316337
368.0, 0.0017860371262336588
369.0, 0.0014730263012271408
370.0, 0.0012733342519911943
371.0, 0.0013314215284955034
372.0, 0.0013880258193886901
373.0, 0.001374737089891972
374.0, 0.0012234533119530719
375.0, 0.0009013421858375524
376.0, 0.0008463275677017638
377.0, 0.0009651398115187783
378.0, 0.0011306424836821395
379.0, 0.0009697317329338804
380.0, 0.001065451944278126
381.0, 0.0012470852454702006
382.0, 0.0010852099239553011
383.0, 0.0010404826847739438
384.0, 0.0009251843636880952
385.0, 0.0007918407032733255
386.0, 0.0008745294564423377
387.0, 0.0008839345662264674
388.0, 0.0008500844860712868
389.0, 0.0007966837392380246
390.0, 0.00080014200035769
391.0, 0.0007026179202145127
392.0, 0.0006912635962086398
393.0, 0.0008497544974283451
394.0, 0.0013240744962511276
395.0, 0.0006810809330241441
396.0, 0.00032689303098791794
397.0, 0.0007499268598499748
398.0, 0.00027933152155519894
399.0, 0.0002872419055878194
400.0, 0.00031342011094814
401.0, 0.000108318674898584
402.0, 0.00036530942812294874
403.0, 0.0003580067719214498
404.0, 0.00022928714974250103
405.0, 9.363468978342438e-05
406.0, 0.0005426268122607782
407.0, 0.00037970605417048147
408.0, 0.00018579885576167472
409.0, 0.0005897332323562452
410.0, 0.0006728584787921079
411.0, 0.00048235641586601125
412.0, 0.0002633023712816815
413.0, 0.00035735793065902173
414.0, 0.0001178872969736044
415.0, 5.309295562370582e-05
416.0, 0.00015457244924607836
417.0, 0.00036464593774456633
418.0, 0.0003146086270276809
419.0, 0.00024759807860116526
420.0, 0.0002011061426070301
421.0, 0.00020563575445369173
422.0, 0.0002520304983640804
423.0, 0.0003123789549138409
424.0, 0.0003508805955531885
425.0, 0.0002779477520377673
426.0, 0.00038014115267695524
427.0, 0.0004684032119084063
428.0, 0.0005137622689167235
429.0, 0.0005334831104140586
430.0, 0.0006712791462593167
431.0, 0.0005304330434558096
432.0, 0.0002517083425283251
433.0, 0.0007903051416345965
434.0, 0.000451390868788566
435.0, 0.00023974120490835162
436.0, 0.00042650123302393275
437.0, 0.000973908967208918
438.0, 0.0006307497621864239
439.0, 0.00045454200661094134
440.0, 0.0007044174984963763
441.0, 0.0008447912564318118
442.0, 0.0005302793027943834
443.0, 0.0002466675570185475
444.0, 0.0002092364234123699
445.0, 0.0006297513161603361
446.0, 0.0005910455860678384
447.0, 0.0006074783744662348
448.0, 0.0008030586229908667
449.0, 0.00036908951948899454
450.0, 0.0002344916022087416
451.0, 0.00018392379614159528
452.0, 0.000135769474496051
453.0, 0.0002656039809080815
454.0, 0.0002893572116681033
455.0, 0.0004609186378102146
456.0, 0.0008466114251708159
457.0, 0.0006541530440979347
458.0, 0.0006812532605583127
459.0, 0.0007416762173910257
460.0, 0.000744251329424824
461.0, 0.000839981475512604
462.0, 0.0007886501199675296
463.0, 0.0008481552200131055
464.0, 0.0011475535537980954
465.0, 0.0013141342493443048
466.0, 0.0012750465739952393
467.0, 0.001337436740233144
468.0, 0.0016308589408716182
469.0, 0.0012162995275912113
470.0, 0.0006765799125668392
471.0, 0.00047387181465465065
472.0, 0.0008390117497482175
473.0, 0.0006433052698707475
474.0, 0.00044673353379758734
475.0, 0.00042125692955532134
476.0, 0.0006665756489922125
477.0, 0.0009568437056286334
478.0, 0.00122402457242967
479.0, 0.0012682499799534371
480.0, 0.0010097183790364536
481.0, 0.0012513862569751453
482.0, 0.001355562582711694
483.0, 0.0012222272475340171
484.0, 0.0008442126111474905
485.0, 0.0010837476642062559
486.0, 0.001518157670291449
487.0, 0.0016800387734162783
488.0, 0.0013240214470413136
489.0, 0.0009840354274742208
490.0, 0.001140261381154543
491.0, 0.0012420516228422189
492.0, 0.001009256179565707
493.0, 0.000827347913447871
494.0, 0.0009232344745358854
495.0, 0.0011668709281426077
496.0, 0.001447253024272438
497.0, 0.0013240228174031113
498.0, 0.001331255642099184
499.0, 0.0013938261632670092
500.0, 0.0014709486713893245
501.0, 0.0015194542238603892
502.0, 0.001397565114599062
503.0, 0.0013539194223935911
504.0, 0.0014584838950448085
505.0, 0.0014109957120615173
506.0, 0.0016554763359026949
507.0, 0.0016684937699190962
508.0, 0.00135806620806998
509.0, 0.001446345247069191
510.0, 0.0013707551790256862
511.0, 0.0012472299052792614
512.0, 0.0011785961968562978
513.0, 0.0014871163261975006
514.0, 0.001590771281809625
515.0, 0.001685699835526717
516.0, 0.0018031448291962006
517.0, 0.0018281771368550035
518.0, 0.0018675694372519733
519.0, 0.0017015984454254566
520.0, 0.0014328713610400128
521.0, 0.0016153441235396428
522.0, 0.0016478414479442233
523.0, 0.0016054900429922465
524.0, 0.0016030534023200795
525.0, 0.0019273474132139234
526.0, 0.0018064465384828527
527.0, 0.0018691375684163117
528.0, 0.002034738770158156
529.0, 0.0018830915124630845
530.0, 0.001944453299555779
531.0, 0.001736296692632229
532.0, 0.0015410854911207374
533.0, 0.0020042910776092754
534.0, 0.002422843134375945
535.0, 0.0021663188979691994
536.0, 0.0016410441648961854
537.0, 0.0015347367551833285
538.0, 0.0017018871763864725
539.0, 0.0016084102268298208
540.0, 0.001414842160385637
541.0, 0.0013412643961205567
542.0, 0.0013923706940809823
543.0, 0.0011382034560025052
544.0, 0.0011257281186683764
545.0, 0.001833898331998144
546.0, 0.0016171379747621972
547.0, 0.0013562519843318065
548.0, 0.0013529074955287662
549.0, 0.0017499727604537206
550.0, 0.001343977672334431
551.0, 0.0014735146565766095
552.0, 0.0018470465966930103
553.0, 0.00223645708297205
554.0, 0.002069818733747185
555.0, 0.0018380806340254502
556.0, 0.001560227362693
557.0, 0.0013362625411657684
558.0, 0.0016720870814222607
559.0, 0.0016185899678801653
560.0, 0.0015820139738077187
561.0, 0.0016533527044067518
562.0, 0.0017221332392375506
563.0, 0.00168220606462184
564.0, 0.00162215872846756
565.0, 0.0015923959989649916
566.0, 0.0016778688395088141
567.0, 0.0016078980343987967
568.0, 0.0015167146685723656
569.0, 0.001453202446721063
570.0, 0.001475407061326673
571.0, 0.0014215439915971795
572.0, 0.0013731047754016645
573.0, 0.0013237861548167933
574.0, 0.0012586602628012222
575.0, 0.0012135529069620039
576.0, 0.0011305120641155627
577.0, 0.001058150885347586
578.0, 0.0010396890868857734
579.0, 0.001028260379277802
580.0, 0.0009481768392669999
581.0, 0.0009954580201654978
582.0, 0.0012447041646749583
583.0, 0.0012335929211672071
584.0, 0.0010873923219629827
585.0, 0.0011765918610155304
586.0, 0.00147196373782928
587.0, 0.0010163581400451645
588.0, 0.0009146268982876186
589.0, 0.0009449207676631688
590.0, 0.0009274096655570468
591.0, 0.00048300318727496406
592.0, 0.0008930059192004772
593.0, 0.0010708494813549928
594.0, 0.0009558603968797734
595.0, 0.0007702586588648416
596.0, 0.0006312459934884121
597.0, 0.0008791586623711264
598.0, 0.0011598526520154152
599.0, 0.0009902436633317912
600.0, 0.0009346518402893424
601.0, 0.0008311886885380514
602.0, 0.0007002423997982007
603.0, 0.0005743474800406312
604.0, 0.0006750067144856049
605.0, 0.000710219977940208
606.0, 0.0006582434961147291
607.0, 0.0005866621845115262
608.0, 0.0010143640965355734
609.0, 0.0006244383273859422
610.0, 0.000480342173069609
611.0, 0.0006843953592192065
612.0, 0.00039820461847423204
613.0, 0.0005593267250327639
614.0, 0.0007464570388693316
615.0, 0.000903337443316601
616.0, 0.001068028616653517
617.0, 0.00048205423517208384
618.0, 0.0001763822187404697
619.0, 0.00013510217300659555
620.0, 0.0002346882202900067
621.0, 5.8970896416230646e-05
622.0, 0.0001577140276247542
623.0, 0.0003261645921151002
624.0, 0.00040834022777200247
625.0, 0.0004372979943635589
626.0, 0.0006575954835231661
627.0, 0.0007925153765434007
628.0, 0.0008059736464045207
629.0, 0.0011125444838158837
630.0, 0.0006449059147832011
631.0, 0.00045324435104900285
632.0, 0.0005314756573265307
633.0, 0.00022519745807249327
634.0, 7.639269483496162e-05
635.0, 2.383191903681421e-05
636.0, 3.4660637261708054e-05
637.0, 6.998691616200686e-05
638.0, 0.00020590215351506312
639.0, 0.0003956162161548184
640.0, 0.0005799684510696601
641.0, 0.0007129943802774074
642.0, 0.0008261345535350698
643.0, 0.0006540353562312739
644.0, 0.0007471887200820837
645.0, 0.001060922904545176
646.0, 0.00018784971425680563
647.0, 0.0003101515853680965
648.0, 0.0004913907352344406
649.0, 0.0005288136415881608
650.0, 0.0004552698011751183
651.0, 0.0010892351816520359
652.0, 0.0007617966341479556
653.0, 0.00018920519837606396
654.0, 0.00044747371197449953
655.0, 0.0001976364225510168
656.0, 0.0006808755513199058
657.0, 0.0010553967152720828
658.0, 0.0008154677423135557
659.0, 0.0006799927129203894
660.0, 0.0005806687553916323
661.0, 0.0006705938984743061
662.0, 0.0008236614767018159
663.0, 0.00041354181203511506
664.0, 0.0005258897832809519
665.0, 0.0004593297279655153
666.0, 0.00039398703003951113
667.0, 0.0008177816252808619
668.0, 0.0003071098594357527
669.0, 0.00018581960580410812
670.0, 0.0003367930016403241
671.0, 0.0005824228538703672
672.0, 0.0005574264816092759
673.0, 0.000700614542101233
674.0, 0.0005347460479428137
675.0, 0.00017028902140781455
676.0, 0.0010205346876315175
677.0, 0.0007915741115226417
678.0, 0.0006305873388902782
679.0, 0.0007267599980359229
680.0, 0.0009906118053980828
681.0, 0.0010861462941588109
682.0, 0.0010581482733818016
683.0, 0.0011270181538337446
684.0, 0.0014506704055438039
685.0, 0.0011040553352617555
686.0, 0.0012649499019825347
687.0, 0.0011937428162455905
688.0, 0.0007554793716425144
689.0, 0.0009713981192696754
690.0, 0.0007896870358845386
691.0, 0.0009661971099013386
692.0, 0.0015245450557174313
693.0, 0.0021912432925553994
694.0, 0.0021656489416821524
695.0, 0.0022244691399236132
696.0, 0.002159246525474207
697.0, 0.00180854846237464
698.0, 0.0021533640759235405
699.0, 0.0025260323716739357
700.0, 0.0028231276086596343
701.0, 0.003061012435284575
702.0, 0.003487186278909962
703.0, 0.0037166878433267177
704.0, 0.003750687049097223
705.0, 0.0040920758605308616
706.0, 0.005564526541896297
707.0, 0.0057774366549543455
708.0, 0.00789681395569355
709.0, 0.010015600910722042
710.0, 0.010787883617700694
711.0, 0.012454856155501636
712.0, 0.015081665233168992
713.0, 0.01778893617493388
714.0, 0.020613422935873118
715.0, 0.02457222909480695
716.0, 0.027858019382301823
717.0, 0.03199289113121831
718.0, 0.03647459810716368
719.0, 0.04042044808718677
720.0, 0.0430746923191675
721.0, 0.04267424288971439
722.0, 0.04088032520005671
723.0, 0.038711341773411755
724.0, 0.036264374611973516
725.0, 0.03283289044976611
726.0, 0.028420367348570324
727.0, 0.023711479040730548
728.0, 0.020018592896495165
729.0, 0.016840196118915695
730.0, 0.014299271253057182
731.0, 0.01199303901681021
732.0, 0.009616624654848773
733.0, 0.007667095749174242
734.0, 0.00646273415031781
735.0, 0.005483711862629214
736.0, 0.004648078299467901
737.0, 0.004234466903910049
738.0, 0.00321220535292888
739.0, 0.002521114793837379
740.0, 0.0020211800301220845
741.0, 0.001473700614269142
742.0, 0.0016260732018845293
743.0, 0.0019366150400406698
744.0, 0.0018715012189887143
745.0, 0.0013869297697941105
746.0, 0.0012965882971151077
747.0, 0.000581600070484145
748.0, 0.0003598131655904796
749.0, 0.0004056839747136711
750.0, 0.00013984549062611812
751.0, 0.00017880616158250472
752.0, 0.000660461099735076
753.0, 0.0008268967950948812
754.0, 0.0004089659029671532
755.0, 0.0003668797192181223
756.0, 0.0005318884799758475
757.0, 0.0004225091179367395
758.0, 0.00024600064763813633
759.0, 0.00052762317408814
760.0, 0.00022301532194773748
761.0, 0.0002955531448683167
762.0, 0.0005432616658111349
763.0, 0.0007213958642935241
764.0, 0.00031191686504094743
765.0, 0.0003749636266670833
766.0, 0.0002566754997676148
767.0, 1.0136928867946564e-05
768.0, 4.767894574350285e-05
769.0, 4.813983770684139e-05
770.0, 9.001601794180908e-05
771.0, 0.00014297188641302627
772.0, 0.00021943537719120948
773.0, 0.0005791278268147299
774.0, 0.0005914134966488543
775.0, 0.00033760512435227884
776.0, 0.00013907437289060012
777.0, 0.0005821482544011228
778.0, 0.0006149909609896578
779.0, 0.0005238158569016823
780.0, 0.0003949648272802453
781.0, 0.00027509635462281674
782.0, 6.47906926396688e-05
783.0, 0.0003408927680533961
784.0, 0.0005687600153103234
785.0, 0.000531109110391568
786.0, 9.180273354826693e-05
787.0, 0.00012360010100893903
788.0, 0.0003629371857958584
789.0, 0.00043199687797555763
790.0, 0.00015791888826795545
791.0, 0.00011207341295245635
792.0, 0.00021222129863161966
793.0, 0.000281720062488884
794.0, 0.00032639793926907005
795.0, 0.00042849909523925853
796.0, 0.0003965739263000216
797.0, 0.00029796321507204995
798.0, 0.0002625037900383162
799.0, 0.00037912579327881743
800.0, 0.0006787431612714508
801.0, 0.000754024485400678
802.0, 0.0009809010525155758
803.0, 0.0012219544700590706
804.0, 0.0011657798442495327
805.0, 0.00048742914704710664
806.0, 0.0007198409440321537
807.0, 0.0009072376274838206
808.0, 0.0006571269744513975
809.0, 0.0004436533578481679
810.0, 0.0008839409524392184
811.0, 0.0008573781126643058
812.0, 0.0006876919581206157
813.0, 0.0009269354327978677
814.0, 0.00127694272832925
815.0, 0.0014986168061573736
816.0, 0.0016328503474666318
817.0, 0.0016786762813979302
818.0, 0.001587721153659107
819.0, 0.0015401808895099667
820.0, 0.0016986686561831976
821.0, 0.0016930050213275344
822.0, 0.0012303811673696626
823.0, 0.0006777833813298338
824.0, 0.0014249135002240743
825.0, 0.001963079623839514
826.0, 0.0019872699340150474
827.0, 0.0017463005613824617
828.0, 0.001231506990556678
829.0, 0.0015563506258751917
830.0, 0.001764886230434552
831.0, 0.0014206012961738791
832.0, 0.0014085454664521894
833.0, 0.0016257630551554884
834.0, 0.0015680423427511655
835.0, 0.0014351841881134193
836.0, 0.0015585724256624446
837.0, 0.0013172668683803465
838.0, 0.001176792819075078
839.0, 0.001131118490096083
840.0, 0.0010409794790558037
841.0, 0.0005536809493115449
842.0, 0.0010701751508955296
843.0, 0.0010356733759177518
844.0, 0.0007535898669364743
845.0, 0.0006282367396459687
846.0, 0.001009205462106489
847.0, 0.0010315035927248575
848.0, 0.0008563037198180606
849.0, 0.0005576579146451307
850.0, 0.0002131996724351035
851.0, 0.0004960228575360072
852.0, 0.0004258823305115388
853.0, 0.0002563902439385268
854.0, 0.00014363943834828121
855.0, 0.0001639214291684611
856.0, 0.0005780678648007248
857.0, 0.0006728569325379181
858.0, 0.0005163004294348293
859.0, 0.00026946559470238476
860.0, 0.0001255881711495229
861.0, 0.0004458855709824879
862.0, 0.0007591027607146253
863.0, 0.0008278252815383061
864.0, 0.0004943545016196372
865.0, 0.0006623379847176526
866.0, 0.0006472371644152343
867.0, 0.0006928507909920996
868.0, 0.0009002652854266163
869.0, 0.0011998460908706878
870.0, 0.0014993963597152388
871.0, 0.0015393996338238039
872.0, 0.0015717112348498548
873.0, 0.0017902739480316961
874.0, 0.0018926636195050856
875.0, 0.0014110096514987104
876.0, 0.0010970374812598732
877.0, 0.000950468105757978
878.0, 0.0007423081371949085
879.0, 0.0010422787897011827
880.0, 0.0009539100435334786
881.0, 0.000760023459393939
882.0, 0.0006138091081152122
883.0, 0.000584557730762216
884.0, 0.0006025997893647653
885.0, 0.00037319787895883857
886.0, 0.00023171015808109215
887.0, 0.0003896601327289057
888.0, 0.0006731367615392304
889.0, 0.000753158176190836
890.0, 0.000684642463187981
891.0, 0.0004484405744981207
892.0, 8.027458427652478e-05
893.0, 0.00017633496478136664
894.0, 0.00018903931082639701
895.0, 0.0002957691206753803
896.0, 0.00045283825734708164
897.0, 0.0004915387567205922
898.0, 0.0002253547553840795
899.0, 0.00021548927889082064
900.0, 0.0006093321399411735
901.0, 0.0010439694765133195
902.0, 0.0003375668167493456
903.0, 0.0006127185067792462
904.0, 0.0007098458859770918
905.0, 0.000675612710467671
906.0, 0.0006566447335372891
907.0, 0.0008907647779031242
908.0, 0.0009080209476372889
909.0, 0.0006089344505221978
910.0, 0.00040503783881125073
911.0, 0.000693295857700103
912.0, 0.0008616814787356095
913.0, 0.0004288846803597169
914.0, 0.00017874359255775873
915.0, 0.00027994148333761507
916.0, 0.0006131326138125624
917.0, 0.0003539286807036676
918.0, 0.000404559815983943
919.0, 0.0004096068829808892
920.0, 0.0003163183963949391
921.0, 0.00034875935959964024
922.0, 0.0005099284144281962
923.0, 0.0004996864188956871
924.0, 0.00033245033005725895
925.0, 0.00011426239290659388
926.0, 0.0001338118472796596
927.0, 0.0002758940653849281
928.0, 0.0004370199965594996
929.0, 0.0006245667641237134
930.0, 0.0007500304229750654
931.0, 0.0002893098041466611
932.0, 0.00012792647025614988
933.0, 0.00023683971907216076
934.0, 0.00035737998346695496
935.0, 0.000283979595247036
936.0, 0.0006343406296285934
937.0, 0.0007782120896414413
938.0, 0.0007530538153826151
939.0, 0.0007971605335312647
940.0, 0.0011465061635506405
941.0, 0.0004367894176396982
942.0, 0.00015995290275309004
943.0, 0.00013770815938774655
944.0, 0.0002546581183220079
945.0, 0.00041032337741442077
946.0, 0.00040856603725075057
947.0, 0.000567176294536955
948.0, 0.0006301591189686922
949.0, 0.0006564505204358175
950.0, 0.0010575618181827466
951.0, 0.0006077459037075828
952.0, 0.0002824036744826279
953.0, 0.0003361389058294229
954.0, 0.0005809288150413487
955.0, 8.570016195290651e-05
956.0, 0.0006250474711053119
957.0, 0.0008042988562343889
958.0, 0.0007337771637638663
959.0, 0.0005730649286256481
960.0, 0.0003434838318619399
961.0, 0.0003057407992634703
962.0, 0.0007745279496945421
963.0, 0.0011900722752059983
964.0, 0.001032025160584588
965.0, 0.0002129781873601125
966.0, 0.0005873895489666272
967.0, 0.0005632083928234184
968.0, 0.0004478046380349585
969.0, 0.0006418049602559208
970.0, 0.00027884994930101064
971.0, 0.00036164526037191566
972.0, 0.0006563792700833554
973.0, 0.000784006176220648
974.0, 0.0005079565698047202
975.0, 0.0008775195390898652
976.0, 0.0003345696261363791
977.0, 0.00040633738923463177
978.0, 0.0009701706847018038
979.0, 0.0013127951890245701
980.0, 0.0003834451112262554
981.0, 0.0010227068995711803
982.0, 0.0010014798708108754
983.0, 0.0005566879534555125
984.0, 0.0007806701080061353
985.0, 0.0008176470494493568
986.0, 0.0010441568563583127
987.0, 0.0013426089371882755
988.0, 0.0015866869591075485
989.0, 0.0016333680840713936
990.0, 0.0012535094577383176
991.0, 0.0013146996487056056
992.0, 0.0015312726400004272
993.0, 0.0017006601890535969
994.0, 0.0016836924753117896
995.0, 0.0020085845249272743
996.0, 0.0021188508337243
997.0, 0.002046663753331586
998.0, 0.0020076551670198044
999.0, 0.0022734230251495254
1000.0, 0.0015764672118740602
1001.0, 0.0014057913677138203
1002.0, 0.001349865902680867
1003.0, 0.0011214352341683126
1004.0, 0.0005906151036403375
1005.0, 0.0019477071852575412
1006.0, 0.002201885177840722
1007.0, 0.0023800506060252004
1008.0, 0.0024178110147170685
1009.0, 0.0016775412627440867
1010.0, 0.0024683515041200323
1011.0, 0.002125674447353634
1012.0, 0.002314113168464082
1013.0, 0.0028886501551262794
1014.0, 0.0026636207893176774
1015.0, 0.002936350308946253
1016.0, 0.0029180029053094882
1017.0, 0.002977337547143769
1018.0, 0.0031470191200450755
1019.0, 0.0032386643197904927
1020.0, 0.002691275101095103
1021.0, 0.0037625117465915647
1022.0, 0.003949769995327722
1023.0, 0.003511038876342332
1024.0, 0.004042299201436301
1025.0, 0.0043996592468024225
1026.0, 0.004608042434071882
1027.0, 0.004696599245134002
1028.0, 0.004713915594641006
1029.0, 0.00476605808468323
1030.0, 0.005442574438956428
1031.0, 0.005263766219182843
1032.0, 0.005597518495295375
1033.0, 0.006025706623612098
1034.0, 0.005703939632811314
1035.0, 0.006363959268312433
1036.0, 0.00577153384055464
1037.0, 0.006493595965432656
1038.0, 0.007558154195616937
1039.0, 0.007345558275894571
1040.0, 0.007704264201123557
1041.0, 0.008394619987292642
1042.0, 0.00837569042051151
1043.0, 0.008133306567742984
1044.0, 0.00833389317006245
1045.0, 0.00857564631863838
1046.0, 0.009024805231173666
1047.0, 0.009216258041200548
1048.0, 0.009534742181339892
1049.0, 0.010219185788729483
1050.0, 0.010462040921689501
1051.0, 0.011176889610431773
1052.0, 0.011348551381030903
1053.0, 0.011653810397515141
1054.0, 0.012485505889822595
1055.0, 0.013013717064417177
1056.0, 0.01338493241000073
1057.0, 0.013955538685205304
1058.0, 0.014307135637605514
1059.0, 0.01478242945272208
1060.0, 0.017144499823903567
1061.0, 0.01704807175216235
1062.0, 0.018191080728563187
1063.0, 0.019025240612329027
1064.0, 0.01944435562726797
1065.0, 0.021225743575308008
1066.0, 0.02315391207022008
1067.0, 0.026301063363309767
1068.0, 0.02858853487408192
1069.0, 0.03033517276207457
1070.0, 0.033557483457133566
1071.0, 0.03597457569899066
1072.0, 0.037974723011309795
1073.0, 0.040201815957437166
1074.0, 0.042496683327146574
1075.0, 0.04460903277107425
1076.0, 0.04915276586473854
1077.0, 0.0545919420962248
1078.0, 0.061867988238352815
1079.0, 0.07131316734756717
1080.0, 0.08298138564564399
1081.0, 0.09708497617108083
1082.0, 0.11644299263534501
1083.0, 0.14329659177083376
1084.0, 0.17766266620228682
1085.0, 0.22066336370746872
1086.0, 0.2786833995108206
1087.0, 0.36583034338185266
1088.0, 0.4695436492611649
1089.0, 0.6076779538864365
1090.0, 0.7708509968548708
1091.0, 0.9067664167758098
1092.0, 0.9815144133457512
1093.0, 0.9930103271780277
1094.0, 0.9264859961468773
1095.0, 0.7966303863648203
1096.0, 0.6427249861696247
1097.0, 0.4905673403327684
1098.0, 0.3672749599141
1099.0, 0.2693035336753054
1100.0, 0.19502019345176153
1101.0, 0.14214278136868905
1102.0, 0.10634253724502873
1103.0, 0.08409060948862393
1104.0, 0.06568901497050035
1105.0, 0.05113949379812463
1106.0, 0.041782979403159254
1107.0, 0.036680765176863805
1108.0, 0.030841579004039416
1109.0, 0.0265917899731847
1110.0, 0.022964047133791604
1111.0, 0.01973372170147252
1112.0, 0.01842244970134109
1113.0, 0.017028620030625673
1114.0, 0.015209283135682239
1115.0, 0.014294482040851876
1116.0, 0.013787295537138285
1117.0, 0.011968760643088718
1118.0, 0.01103815209559836
1119.0, 0.01074292148935933
1120.0, 0.010933931505368996
1121.0, 0.01098754322318676
1122.0, 0.010283435272503652
1123.0, 0.009074914789585588
1124.0, 0.008106116498259526
1125.0, 0.007727236537519711
1126.0, 0.007206650537008805
1127.0, 0.006228827180253742
1128.0, 0.005713770898771944
1129.0, 0.005970092164133342
1130.0, 0.005953240603106604
1131.0, 0.005451816585577291
1132.0, 0.00487661145496017
1133.0, 0.005078718737254821
1134.0, 0.005005487873701809
1135.0, 0.004544900057707874
1136.0, 0.004202778971671238
1137.0, 0.004051701324470576
1138.0, 0.003956532210946022
1139.0, 0.0037091233008717927
1140.0, 0.0037836007137560376
1141.0, 0.0034924275032835084
1142.0, 0.003231974623240403
1143.0, 0.0032884975230371414
1144.0, 0.0033844038413480574
1145.0, 0.0027833826836777173
1146.0, 0.0027253330703107385
1147.0, 0.0029952308689375376
1148.0, 0.003118542528330713
1149.0, 0.0025686585490855168
1150.0, 0.0019841709476022804
1151.0, 0.0021175668496617893
1152.0, 0.002093319890590257
1153.0, 0.002040389691349845
1154.0, 0.0022196925504727265
1155.0, 0.0021995695179762467
1156.0, 0.002256567615957601
1157.0, 0.0022853015528326703
1158.0, 0.002218332373077383
1159.0, 0.002145064156694735
1160.0, 0.0023172105700682458
1161.0, 0.0017674650309640332
1162.0, 0.002081630626515103
1163.0, 0.00209954594167177
1164.0, 0.0017352368738825414
1165.0, 0.0014460115991925427
1166.0, 0.0014932636815017345
1167.0, 0.0019954686921081015
1168.0, 0.0017722223944746933
1169.0, 0.0012951810596499348
1170.0, 0.0010906839031489346
1171.0, 0.0012218724670597799
1172.0, 0.002335292036732934
1173.0, 0.0018255565858542521
1174.0, 0.0014061405349020872
1175.0, 0.0013750129548493466
1176.0, 0.0010729412258672212
1177.0, 0.0005232189893469338
1178.0, 0.0015696999580227513
1179.0, 0.00157165233772217
1180.0, 0.001255064558861623
1181.0, 0.001471581018670149
1182.0, 0.0016904643390605286
1183.0, 0.0014896557422625532
1184.0, 0.0015552532372573578
1185.0, 0.0013962146195788583
1186.0, 0.0012015504992076856
1187.0, 0.001500110404563384
1188.0, 0.0012049444943351844
1189.0, 0.0009824189710250784
1190.0, 0.0013335819404197988
1191.0, 0.001559559882167687
1192.0, 0.001283380637538645
1193.0, 0.0014345317697376887
1194.0, 0.000982331225269769
1195.0, 0.0007393844279758321
1196.0, 0.0011194717852107648
1197.0, 0.0015742182553645432
1198.0, 0.0011848405595635658
1199.0, 0.0011746014575954077
1200.0, 0.00173832487339806
1201.0, 0.0016468956513633287
1202.0, 0.001295847269884037
1203.0, 0.0011850761273978054
1204.0, 0.0013191090541649338
1205.0, 0.0011285454370371399
1206.0, 0.000882527204326519
1207.0, 0.0009526925353445839
1208.0, 0.001268154844977882
1209.0, 0.0014694553506467158
1210.0, 0.0011297238805542467
1211.0, 0.0013127400277709758
1212.0, 0.0010175441169405954
1213.0, 0.0007421536059106496
1214.0, 0.000843804235750002
1215.0, 0.0011125968624320565
1216.0, 0.0009515599759992843
1217.0, 0.0010666753690334449
1218.0, 0.0009711648180196517
1219.0, 0.0009469920830610443
1220.0, 0.0012689970640169254
1221.0, 0.0010407270200317369
1222.0, 0.000928512562875685
1223.0, 0.0013804023254535506
1224.0, 0.0015729972699326817
1225.0, 0.001396876056103959
1226.0, 0.0014354800932124213
1227.0, 0.0010535833643381257
1228.0, 0.0010816930834184676
1229.0, 0.0011124635392468368
1230.0, 0.00098189454046221
1231.0, 0.0006667865393707057
1232.0, 0.0002904038195363938
1233.0, 0.0010137039870309235
1234.0, 0.0012255900077010485
1235.0, 0.0007381277932823477
1236.0, 0.0005132565343924462
1237.0, 0.0012900341362546233
1238.0, 9.938769570032432e-05
1239.0, 0.0005326915818840128
1240.0, 0.0009058345237064739
1241.0, 0.0007022787374353771
1242.0, 0.00041559876467608443
1243.0, 0.0011898785324478238
1244.0, 0.0009077375172768242
1245.0, 0.0007418764027530714
1246.0, 0.0012420446781904334
1247.0, 0.0011756249694776775
1248.0, 0.00026077965180640176
1249.0, 0.0009943965273618354
1250.0, 0.0012815938950673858
1251.0, 0.0007169710513592923
1252.0, 0.0006939538102942558
1253.0, 0.0007980609262810334
1254.0, 0.0002468560070663473
1255.0, 0.0006539701356517939
1256.0, 0.0013021775673664779
1257.0, 0.001667846310059031
1258.0, 0.0016190562142407298
1259.0, 0.0012058462993314446
1260.0, 0.0006791430941105375
1261.0, 0.0008450314823602363
1262.0, 0.0010551888697025483
1263.0, 0.000753799975614682
1264.0, 0.0003745260817864304
1265.0, 0.0003678402111196862
1266.0, 0.0008055767548174092
1267.0, 0.0002446947731580788
1268.0, 0.0003539833238767394
1269.0, 0.0008488153019846538
1270.0, 0.0011805011748651601
1271.0, 0.0009995847774583008
1272.0, 0.0006106324844733801
1273.0, 0.0007840571483767089
1274.0, 0.0005078102401619704
1275.0, 0.0008580314252812224
1276.0, 0.0013273409138704977
1277.0, 0.001046901039796713
1278.0, 0.0010888175396227067
1279.0, 0.0006088881051297104
1280.0, 0.000540227169262844
1281.0, 0.0006795095246216456
1282.0, 0.0007673729993324231
1283.0, 0.0006519623027093648
1284.0, 0.0005287890175183735
1285.0, 0.0006714296394150864
1286.0, 0.0003415618226375503
1287.0, 0.00018401255328564007
1288.0, 0.0004910999605385523
1289.0, 0.0008956538521819322
1290.0, 0.0006764650119431455
1291.0, 0.0006828072828864135
1292.0, 0.0004093063386933743
1293.0, 0.00014756104259094248
1294.0, 0.000309606311943074
1295.0, 0.0010540228677256912
1296.0, 0.00020775297189896762
1297.0, 8.183003360263968e-05
1298.0, 0.0008117605797244963
1299.0, 0.0009914826598378152
1300.0, 0.0002158897422505608
1301.0, 0.0005707468911305102
1302.0, 0.00021086431800576688
1303.0, 0.00030243505190664634
1304.0, 0.00020130777078696487
1305.0, 0.0003238830279431413
1306.0, 0.0008875744681540302
1307.0, 0.0007890277051364496
1308.0, 0.0008265622066444576
1309.0, 0.0005995748670435924
1310.0, 0.0004002535221755695
1311.0, 0.0003137142511840555
1312.0, 0.0003496428051464348
1313.0, 0.0006127105005643518
1314.0, 0.0010116726468647988
1315.0, 0.0008742680443075319
1316.0, 0.00044173577280944796
1317.0, 0.00014239193738897825
1318.0, 0.00023244028342845433
1319.0, 0.0002639999125756595
1320.0, 0.0002758975104338448
1321.0, 0.00027973228343363587
1322.0, 0.00035938390400043024
1323.0, 0.0005185635752169792
1324.0, 0.000750079652350506
1325.0, 0.0011855712530111967
1326.0, 0.00042160237213230824
1327.0, 0.0008952682503737286
1328.0, 0.0009220452889040744
1329.0, 0.00047808823568221506
1330.0, 0.00046149884716329456
1331.0, 0.0006359927782072693
1332.0, 0.0005663592725594449
1333.0, 0.0007656886476797173
1334.0, 0.0005180545340186632
1335.0, 0.0003024988248119259
1336.0, 0.0007507803169218745
1337.0, 0.00022776787606034084
1338.0, 0.00043728952017721304
1339.0, 0.00020642651195233228
1340.0, 3.298124814697003e-05
1341.0, 4.039502408559919e-05
1342.0, 7.029473622005594e-05
1343.0, 9.120129614789874e-05
1344.0, 0.00026166093197002967
1345.0, 0.0004488997072644715
1346.0, 0.0007083680818531783
1347.0, 0.0007012361849639229
1348.0, 0.0002693068969398239
1349.0, 0.000459558468289193
1350.0, 0.0005482087035655675
1351.0, 0.0007146776302310117
1352.0, 0.0004826155718523929
1353.0, 0.000449415821204551
1354.0, 0.0010290397978127514
1355.0, 0.0006101042968590629
1356.0, 0.0001720356442565343
1357.0, 0.0008220139456261602
1358.0, 0.0006298259853725623
1359.0, 0.00047043428181430875
1360.0, 0.00143288962039836
1361.0, 0.0019282052064053443
1362.0, 0.000581257532844043
1363.0, 0.0008305460056701555
1364.0, 0.000863345635267065
1365.0, 0.00048058101044369474
1366.0, 0.00014210894426006492
1367.0, 0.00015524004856268215
1368.0, 0.0001169054216308862
1369.0, 4.926606925853326e-05
1370.0, 0.0002099367088579179
1371.0, 0.00048705512569878994
1372.0, 0.0008322376306999157
1373.0, 0.0014056900203759674
1374.0, 0.0013810219430808704
1375.0, 0.00040225148057886523
1376.0, 0.000804119014243929
1377.0, 0.0011996006036776301
1378.0, 0.0007887746485717481
1379.0, 0.0005622589142123723
1380.0, 0.0011986334523564554
1381.0, 0.0005402319224946075
1382.0, 0.0006364047774910671
1383.0, 0.0008550100745717971
1384.0, 0.000679538337941853
1385.0, 0.0003532148165061567
1386.0, 0.0011289343504630948
1387.0, 0.0011088663029892106
1388.0, 0.0013009886451792005
1389.0, 0.0018180448032321173
1390.0, 0.0020776485758747317
1391.0, 0.0015515946075258965
1392.0, 0.001087227846611415
1393.0, 0.0015917693830867366
1394.0, 0.0015840012897791952
1395.0, 0.0015546804348717572
1396.0, 0.0014899909441062594
1397.0, 0.0013285471099287113
1398.0, 0.0014676961166125559
1399.0, 0.0015441784471763862
1400.0, 0.0015688390046994301
1401.0, 0.0014717512424293048
1402.0, 0.0013187999272980082
1403.0, 0.0011245308755338714
1404.0, 0.000868499080675217
1405.0, 0.0015190114070543505
1406.0, 0.0013897182514433484
1407.0, 0.00192458589547311
1408.0, 0.002114376355916414
1409.0, 0.0018503384272141202
1410.0, 0.002006092638463245
1411.0, 0.002053849286821872
1412.0, 0.002048933657729406
1413.0, 0.0023380440371706776
1414.0, 0.0028473699579238294
1415.0, 0.003107907778118496
1416.0, 0.0030528261101258657
1417.0, 0.004050977240158247
1418.0, 0.0042281917452899635
1419.0, 0.00421731658210156
1420.0, 0.004176371320276111
1421.0, 0.004397137931534508
1422.0, 0.004814160428827105
1423.0, 0.004897198509857945
1424.0, 0.005373580052800435
1425.0, 0.0055301738010328175
1426.0, 0.00596113638756861
1427.0, 0.006539747292531816
1428.0, 0.007102468256611701
1429.0, 0.0075618837468025574
1430.0, 0.007708372130830313
1431.0, 0.008996252417286393
1432.0, 0.009746531334210435
1433.0, 0.010706611055762651
1434.0, 0.01193070291369589
1435.0, 0.013082882985164334
1436.0, 0.014008870844716515
1437.0, 0.013970882581469848
1438.0, 0.015044289220523525
1439.0, 0.014294403630189885
1440.0, 0.012935390358338416
1441.0, 0.012441484989198585
1442.0, 0.012576759218683026
1443.0, 0.01012868988341163
1444.0, 0.009344128411956787
1445.0, 0.009481327050605573
1446.0, 0.008824610699120052
1447.0, 0.007755036166248052
1448.0, 0.007291713606712101
1449.0, 0.006423522871108949
1450.0, 0.005233619615856468
1451.0, 0.004817726054500631
1452.0, 0.005220307562142778
1453.0, 0.004971678045720635
1454.0, 0.004079965376851423
1455.0, 0.004422905184955058
1456.0, 0.004035173779709697
1457.0, 0.004216041108440482
1458.0, 0.0037148600945211456
1459.0, 0.0032202112192273795
1460.0, 0.0032019295269341682
1461.0, 0.003481876458360562
1462.0, 0.0031823452969641495
1463.0, 0.0030396058033128536
1464.0, 0.003280142672669521
1465.0, 0.002787164614757972
1466.0, 0.002453267396262408
1467.0, 0.002838876135637578
1468.0, 0.0031444772589765842
1469.0, 0.0015676574147838115
1470.0, 0.001912034651128404
1471.0, 0.003019109158417259
1472.0, 0.0026568526010469842
1473.0, 0.0018013330725922404
1474.0, 0.002195413413296252
1475.0, 0.0029392107222627403
1476.0, 0.0010796699520408209
1477.0, 0.0015851520594445283
1478.0, 0.0016369238191370117
1479.0, 0.0019104748809514124
1480.0, 0.002607861352932139
1481.0, 0.0026704812603736082
1482.0, 0.0011490320807160895
1483.0, 0.0020047705753903407
1484.0, 0.0023964713348587447
1485.0, 0.0020144344904090114
1486.0, 0.00162100665891245
1487.0, 0.0016914335439672651
1488.0, 0.0016020761306919725
1489.0, 0.0005073930217971315
1490.0, 0.0016729158724975055
1491.0, 0.0013855727797107116
1492.0, 0.0014169883554809091
1493.0, 0.0019653079551510957
1494.0, 0.0018200080152048898
1495.0, 0.00042532208128222244
1496.0, 0.00020412833452472474
1497.0, 0.0012429519427381744
1498.0, 0.001437965471935244
1499.0, 0.0007505747746265915
1500.0, 0.0003827025271773716
1501.0, 0.0013074499078809029
1502.0, 0.0015183679766424326
1503.0, 0.0014423355506738217
1504.0, 0.0009395904999259688
1505.0, 0.00037271463682408973
1506.0, 0.000728071254211134
1507.0, 0.0016180890900083706
1508.0, 0.0011978595053297085
1509.0, 0.0012830900368598157
1510.0, 0.0020186660309829134
1511.0, 0.001038853440791175
1512.0, 0.0004420576970305649
1513.0, 0.00030786484295676546
1514.0, 0.00011927134458211203
1515.0, 0.0005359864441684026
1516.0, 5.005131799580898e-05
1517, 0.0
1518, 0.0
1519, 0.0
1520, 0.0
1521, 0.0
1522, 0.0
1523, 0.0
1524, 0.0
1525, 0.0
1526, 0.0
1527, 0.0
1528, 0.0
1529, 0.0
1530, 0.0
1531, 0.0
1532, 0.0
1533, 0.0
1534, 0.0
1535, 0.0
1536, 0.0
1537, 0.0
1538, 0.0
1539, 0.0
1540, 0.0
1541, 0.0
1542, 0.0
1543, 0.0
1544, 0.0
1545, 0.0
1546, 0.0
1547, 0.0
1548, 0.0
1549, 0.0
1550, 0.0
1551, 0.0
1552, 0.0
1553, 0.0
1554, 0.0
1555, 0.0
1556, 0.0
1557, 0.0
1558, 0.0
1559, 0.0
1560, 0.0
1561, 0.0
1562, 0.0
1563, 0.0
1564, 0.0
1565, 0.0
1566, 0.0
1567, 0.0
1568, 0.0
1569, 0.0
1570, 0.0
1571, 0.0
1572, 0.0
1573, 0.0
1574, 0.0
1575, 0.0
1576, 0.0
1577, 0.0
1578, 0.0
1579, 0.0
1580, 0.0
1581, 0.0
1582, 0.0
1583, 0.0
1584, 0.0
1585, 0.0
1586, 0.0
1587, 0.0
1588, 0.0
1589, 0.0
1590, 0.0
1591, 0.0
1592, 0.0
1593, 0.0
1594, 0.0
1595, 0.0
1596, 0.0
1597, 0.0
1598, 0.0
1599, 0.0
