30, 0.0
31, 0.0
32, 0.0
33, 0.0
34, 0.0
35, 0.0
36, 0.0
37, 0.0
38, 0.0
39, 0.0
40, 0.0
41, 0.0
42, 0.0
43, 0.0
44, 0.0
45, 0.0
46, 0.0
47, 0.0
48, 0.0
49, 0.0
50, 0.0
51, 0.0
52, 0.0
53, 0.0
54, 0.0
55, 0.0
56, 0.0
57, 0.0
58, 0.0
59, 0.0
60, 0.0
61, 0.0
62, 0.0
63, 0.0
64, 0.0
65, 0.0
66, 0.0
67, 0.0
68, 0.0
69, 0.0
70, 0.0
71, 0.0
72, 0.0
73, 0.0
74, 0.0
75, 0.0
76, 0.0
77, 0.0
78, 0.0
79, 0.0
80, 0.0
81, 0.0
82, 0.0
83, 0.0
84, 0.0
85, 0.0
86, 0.0
87, 0.0
88, 0.0
89, 0.0
90, 0.0
91, 0.0
92, 0.0
93, 0.0
94, 0.0
95, 0.0
96, 0.0
97, 0.0
98, 0.0
99, 0.0
100, 0.0
101, 0.0
102, 0.0
103, 0.0
104, 0.0
105, 0.0
106, 0.0
107, 0.0
108, 0.0
109, 0.0
110, 0.0
111, 0.0
112, 0.0
113, 0.0
114, 0.0
115, 0.0
116, 0.0
117, 0.0
118, 0.0
119.0, 0.0004430644847649227
120.0, 0.00032005229203194055
121.0, 0.00014648300541849946
122.0, 0.0004046288857553113
123.0, 0.0005104939876574442
124.0, 0.00015979070584467824
125.0, 0.00039065462683083603
126.0, 0.0006513775899842836
127.0, 0.00094822588849613
128.0, 0.0020077687264426574
129.0, 0.001062320912841465
130.0, 0.0008801385234327712
131.0, 0.0010238005651275908
132.0, 0.0014986196743360129
133.0, 0.0022950003763416676
134.0, 0.00177753734768304
135.0, 0.0023904890157318997
136.0, 0.0025560670190263456
137.0, 0.0028698822107474514
138.0, 0.0035599431536096284
139.0, 0.0028956509604319875
140.0, 0.0030476207758011816
141.0, 0.00265270230721806
142.0, 0.0028160347385619918
143.0, 0.003483157845047988
144.0, 0.0034560611045613234
145.0, 0.004127777786360278
146.0, 0.004976314903497417
147.0, 0.005285813478259177
148.0, 0.0053491478077080604
149.0, 0.005674802515777224
150.0, 0.005870417150745417
151.0, 0.006920531697308625
152.0, 0.007647403411216644
153.0, 0.008420440575893124
154.0, 0.009526470815240141
155.0, 0.010769437352778561
156.0, 0.012177077693212022
157.0, 0.01371109649213212
158.0, 0.01554820844431484
159.0, 0.01766500813939239
160.0, 0.020151786451341122
161.0, 0.025070111755343072
162.0, 0.029702809964319253
163.0, 0.03384122942093456
164.0, 0.03898949166173143
165.0, 0.04576254586118255
166.0, 0.05187454955538699
167.0, 0.05851545586007419
168.0, 0.06532672332804558
169.0, 0.07304842840099149
170.0, 0.08085173323756548
171.0, 0.08651910915806225
172.0, 0.08717644144510495
173.0, 0.08607763367744785
174.0, 0.08175907231413881
175.0, 0.07294154022467006
176.0, 0.06091310054448439
177.0, 0.053925237257579674
178.0, 0.04346713947754726
179.0, 0.035601328392751694
180.0, 0.029239919129301
181.0, 0.02339255036346633
182.0, 0.017945809521006387
183.0, 0.014919144751244454
184.0, 0.013410079170895203
185.0, 0.011062376417553872
186.0, 0.008852915793212054
187.0, 0.008275942218445227
188.0, 0.008433511296900781
189.0, 0.00562039042660851
190.0, 0.005418916604548056
191.0, 0.00515873217386475
192.0, 0.0038900322038866704
193.0, 0.0033751352511131325
194.0, 0.0034287918494722777
195.0, 0.002542372894796481
196.0, 0.0021387017318390336
197.0, 0.002002264223077825
198.0, 0.0017275981760682697
199.0, 0.0023921960066070743
200.0, 0.002114274976038253
201.0, 0.0009980637836858961
202.0, 0.0010021498839775781
203.0, 0.0017726635653546128
204.0, 0.000717214409039935
205.0, 0.0005734704861841532
206.0, 0.0004933837947679704
207.0, 0.0003890502722963523
208.0, 0.00047610033902376633
209.0, 0.0008328426347827182
210.0, 0.0008731218034416708
211.0, 0.000844975319279117
212.0, 0.000527988961201898
213.0, 0.00045966272052718317
214.0, 0.000557288503318407
215.0, 0.00024522864269425573
216.0, 4.281262336414459e-05
217.0, 0.00021253393776925558
218.0, 0.000261873020938211
219.0, 0.0002550865325211778
220.0, 0.00033910529468502034
221.0, 0.0005037133895446615
222.0, 0.00017464529420399186
223.0, 0.0007530462027625687
224.0, 0.000701388767416353
225.0, 0.000157699323011213
226.0, 0.00025495759509477727
227.0, 0.0006588398884080783
228.0, 0.0006803782269857175
229.0, 0.0003315061733871337
230.0, 0.00011867692223852872
231.0, 0.00025175484497400404
232.0, 0.00034151375741910226
233.0, 9.658105672686705e-05
234.0, 0.0003267735875972944
235.0, 0.0005957722616546707
236.0, 0.0006790684023535626
237.0, 0.0006088092742341266
238.0, 0.0009287269843488374
239.0, 0.0002919662646877624
240.0, 3.920523002381044e-05
241.0, 3.801360497070646e-05
242.0, 0.000269808291841963
243.0, 0.0008261463389644544
244.0, 0.00040803985906746746
245.0, 0.0002271791868140407
246.0, 0.0008811938804168821
247.0, 0.0015428547062647827
248.0, 0.0015749729498211148
249.0, 0.0015010292386092958
250.0, 0.000798640347019058
251.0, 0.0011419633699989264
252.0, 0.0014136610634346242
253.0, 0.0014306184718562204
254.0, 0.0016884326274886478
255.0, 0.003099622868614563
256.0, 0.002482035639515882
257.0, 0.0034949810340135115
258.0, 0.004210956198121578
259.0, 0.004156397254838515
260.0, 0.004850521318348389
261.0, 0.00460424169943897
262.0, 0.003605749971298311
263.0, 0.003649322615479835
264.0, 0.0037985406415867655
265.0, 0.0038899199114064047
266.0, 0.006626179008829598
267.0, 0.005342454265100678
268.0, 0.005538912922246415
269.0, 0.006304095310727174
270.0, 0.006872942572198316
271.0, 0.007120631127880795
272.0, 0.008757593052972705
273.0, 0.010036566034693536
274.0, 0.010332984357806968
275.0, 0.010807835509979888
276.0, 0.011819471841717609
277.0, 0.012922028036686873
278.0, 0.01451698958738425
279.0, 0.01605833176482875
280.0, 0.01756966925515246
281.0, 0.019226996102735813
282.0, 0.02101563013677047
283.0, 0.02263406603165782
284.0, 0.024446246747536066
285.0, 0.026497432935016812
286.0, 0.029472145356459017
287.0, 0.03203198165728352
288.0, 0.03339098956698687
289.0, 0.035760139012072985
290.0, 0.03794821347026792
291.0, 0.0395104747279286
292.0, 0.040339355931560975
293.0, 0.04073392825727687
294.0, 0.040876120120204605
295.0, 0.039580765368028153
296.0, 0.03871600219048673
297.0, 0.0371345780459677
298.0, 0.03533895787518041
299.0, 0.032645142695081356
300.0, 0.027999908108927683
301.0, 0.02544030337667342
302.0, 0.021987499345989876
303.0, 0.019011560207614953
304.0, 0.016398856274999662
305.0, 0.01404323793731452
306.0, 0.012116079778927842
307.0, 0.009960078491955614
308.0, 0.009018294456764287
309.0, 0.0075521301213360694
310.0, 0.006636042626850449
311.0, 0.006832062149829303
312.0, 0.00654167669591925
313.0, 0.00639055461866426
314.0, 0.004467071077802075
315.0, 0.003569312394864997
316.0, 0.003183080897334654
317.0, 0.0025006041713506945
318.0, 0.0032272749180392727
319.0, 0.0033376807824636446
320.0, 0.0034327777083743554
321.0, 0.0035140637594847737
322.0, 0.0034151850048222965
323.0, 0.00314320154744583
324.0, 0.0034875624285633598
325.0, 0.0032328960097382426
326.0, 0.003477332093772612
327.0, 0.004081320355982033
328.0, 0.004439198920917705
329.0, 0.004093974789963495
330.0, 0.0042031740334525815
331.0, 0.005422173377415091
332.0, 0.005417996406407214
333.0, 0.0057560824583806755
334.0, 0.006403225635945756
335.0, 0.006252182354279512
336.0, 0.007445087198131221
337.0, 0.00622956875297634
338.0, 0.006240148406340966
339.0, 0.006129805430489873
340.0, 0.005632640074876081
341.0, 0.00582299568588612
342.0, 0.005012687795229634
343.0, 0.004116983704955738
344.0, 0.004286265174987144
345.0, 0.003878150060732893
346.0, 0.002771276730196577
347.0, 0.00265745794668999
348.0, 0.0015737472821642086
349.0, 0.0010889943725698936
350.0, 0.0010123424202214389
351.0, 0.001707433356055778
352.0, 0.0024376667072328316
353.0, 0.0015905493380451263
354.0, 0.003097342425885728
355.0, 0.0015349408925803172
356.0, 0.0010547858959519553
357.0, 0.0007457791359489275
358.0, 0.0002702169318099865
359.0, 0.0012085370904383501
360.0, 0.0010552927179245432
361.0, 0.0013027579253744054
362.0, 0.0014380151616939874
363.0, 0.0014685216676109708
364.0, 0.001161970603781147
365.0, 2.4840827463991192e-05
366.0, 0.00029118414032020684
367.0, 0.0002439384924276953
368.0, 0.0012087145046127037
369.0, 0.001379967258679621
370.0, 0.0005510982406676218
371.0, 0.0013308646414425219
372.0, 0.0011460735759589477
373.0, 0.0013008880823556126
374.0, 0.000736543245927777
375.0, 0.00071420815473097
376.0, 0.0011827933000104237
377.0, 7.893815627484752e-05
378.0, 0.0006816531763432943
379.0, 0.00040158375228951633
380.0, 0.0002016275801286799
381.0, 0.0002198377230836766
382.0, 0.00042912660706723583
383.0, 0.0007585947000980835
384.0, 0.00029411393258608337
385.0, 0.000659258592726235
386.0, 0.0003661675301722462
387.0, 0.00019149483754193528
388.0, 0.0006902448207627638
389.0, 0.0014274670384968199
390.0, 0.0008511795875879309
391.0, 0.00024058509801710228
392.0, 0.0003163281544592616
393.0, 0.0004189897016652808
394.0, 0.00032094451661504483
395.0, 0.0004424359875845074
396.0, 0.0006314933050800317
397.0, 0.00018671421655837363
398.0, 0.0011087153661580235
399.0, 0.0012298926721972532
400.0, 0.0005560077471687484
401.0, 0.0009053499184484574
402.0, 0.0003143463532510877
403.0, 0.0006142384413253717
404.0, 0.0008441857746340091
405.0, 0.0005473584799887666
406.0, 0.000266705402634564
407.0, 0.0007462029185097584
408.0, 0.0007632859682701603
409.0, 0.0003354050797505189
410.0, 0.001155663309706623
411.0, 0.0014453900387241133
412.0, 0.000905060841290268
413.0, 0.00035068217239295815
414.0, 0.0004698224055997783
415.0, 0.0006567456399409786
416.0, 0.00029459500741720165
417.0, 0.00015686182444176315
418.0, 0.00020809247008844788
419.0, 0.0002883505613181912
420.0, 0.0009024645081111294
421.0, 0.0003413258999839084
422.0, 0.0007501235450840447
423.0, 0.0010252988042859664
424.0, 0.0009543212226764166
425.0, 0.0006532684122206873
426.0, 0.00021298645189309366
427.0, 0.000333051830088505
428.0, 0.00043727914952714956
429.0, 0.00035867075289976543
430.0, 0.00040853892710439375
431.0, 0.0006026919153284468
432.0, 0.0005797801616364406
433.0, 0.0011288767426259865
434.0, 0.00034089674022906124
435.0, 5.611567096536262e-05
436.0, 0.00011089047733818012
437.0, 0.00026257367947297734
438.0, 0.0005967662221868921
439.0, 0.0015994667620582304
440.0, 0.0008825258460690199
441.0, 0.0009333629104449237
442.0, 0.0008684023962230339
443.0, 0.0006103403459571451
444.0, 0.0006799180866628205
445.0, 0.0012149975481638576
446.0, 0.0008359895068757618
447.0, 0.0008833760809979696
448.0, 0.0010795812041341642
449.0, 0.0007946491131811947
450.0, 0.0003259136143903219
451.0, 0.0014888659408742256
452.0, 0.000252083798688924
453.0, 0.0013905241620580373
454.0, 0.0019256356323481359
455.0, 0.001192358133172827
456.0, 0.00036369745989994144
457.0, 0.0011868626177474976
458.0, 0.0001686207662367499
459.0, 0.0006328052261836297
460.0, 0.0008618201424898906
461.0, 0.0006685049883057491
462.0, 0.00041077352857724563
463.0, 0.000421981191851726
464.0, 9.407377547929058e-05
465.0, 0.0003266625384733392
466.0, 0.0007758238536512812
467.0, 0.0015972501057297387
468.0, 0.0018015621006670342
469.0, 0.0008703818945116776
470.0, 0.0002368238212969547
471.0, 0.000740059020278574
472.0, 0.0012170149457898488
473.0, 0.0007848021414086188
474.0, 0.0006293320623271969
475.0, 0.0013264695726604176
476.0, 0.0019964335715992264
477.0, 0.0016513400518526496
478.0, 0.001407498465379275
479.0, 0.0014109631925571463
480.0, 0.00148698009909719
481.0, 0.0012442274948086865
482.0, 0.000630436169543279
483.0, 0.0008200581480865823
484.0, 0.00017882534591995167
485.0, 0.00022986457006799995
486.0, 0.00020598111919208743
487.0, 0.0005043243938762402
488.0, 0.0011121600021091755
489.0, 0.0009011362286504975
490.0, 0.0014526914063008637
491.0, 0.001586847481538885
492.0, 0.0010487771805403746
493.0, 0.001092705915595066
494.0, 0.0014924301786396004
495.0, 0.0011032401178613278
496.0, 0.0011826358548613011
497.0, 0.0008735428443224475
498.0, 0.001778468263621424
499.0, 0.0025134552121224853
500.0, 0.0026571973726127844
501.0, 0.002277732645505918
502.0, 0.0014053954360604458
503.0, 0.0018475604291187603
504.0, 0.002221144768758817
505.0, 0.0019662231232592596
506.0, 0.0018777592215530438
507.0, 0.0017854720023350633
508.0, 0.0011315314533331654
509.0, 0.002631598581106343
510.0, 0.0016956911985812012
511.0, 0.0026109821554444316
512.0, 0.002626357967174098
513.0, 0.0021846918805468233
514.0, 0.0019261003170315144
515.0, 5.851750540882656e-05
516.0, 0.0007860470755904803
517.0, 0.0021218307082097555
518.0, 0.0021304806372027733
519.0, 0.002179346389310176
520.0, 0.002529979457405591
521.0, 0.002148333241604404
522.0, 0.0013124293531575246
523.0, 0.0018301339021758575
524.0, 0.002120802897752925
525.0, 0.0016923408649336263
526.0, 0.001949350121411505
527.0, 0.0031362858217728645
528.0, 0.00285985997421155
529.0, 0.002098696575032362
530.0, 0.0010568764857086092
531.0, 0.001108644488248504
532.0, 0.001506030752703641
533.0, 0.001684277477410023
534.0, 0.0016181566805225434
535.0, 0.0015564781040821977
536.0, 0.0015415624152635878
537.0, 0.0017235272582065615
538.0, 0.0021215114228235665
539.0, 0.0018794264019025599
540.0, 0.0015480485766857935
541.0, 0.002688799354520071
542.0, 0.0018125669030940044
543.0, 0.002388089297719432
544.0, 0.0021954933284864214
545.0, 0.0014084513243463406
546.0, 0.0017047325050137548
547.0, 0.003172176917110809
548.0, 0.002332445015023203
549.0, 0.002365731874791433
550.0, 0.002823291004985359
551.0, 0.0027528748684665077
552.0, 0.0022783063462566166
553.0, 0.002210420882799742
554.0, 0.0029184404556963843
555.0, 0.00256692193390107
556.0, 0.002045223456384649
557.0, 0.0025204384160559556
558.0, 0.0019831758600005476
559.0, 0.0012867384975140794
560.0, 0.0013936515409414868
561.0, 0.0019540089347329626
562.0, 0.0014478837226754658
563.0, 0.0012595787255017176
564.0, 0.0019636489587095463
565.0, 0.0021221300458873116
566.0, 0.0014926971120943163
567.0, 0.0012667012084104168
568.0, 0.0029829711331144713
569.0, 0.0018738676961091076
570.0, 0.00189032628607679
571.0, 0.00196097315702099
572.0, 0.0018410407785515175
573.0, 0.0016806793845302542
574.0, 0.0015625406796520773
575.0, 0.0010960030383580686
576.0, 0.0011060495731299179
577.0, 0.0013556836034317942
578.0, 0.0010781073127964205
579.0, 0.0006566503135823025
580.0, 0.0007808571659455247
581.0, 0.0014042788771005277
582.0, 0.000555488441312585
583.0, 0.0020364385218042433
584.0, 0.0022782047980942923
585.0, 0.002206118004679423
586.0, 0.0019392579460618554
587.0, 0.0018059589504179018
588.0, 0.002008047307440902
589.0, 0.000673518779240741
590.0, 0.002653749856880377
591.0, 0.0010491247702520369
592.0, 0.0007202168661931623
593.0, 0.0016085115930780933
594.0, 0.0021494383757419515
595.0, 0.0019006203800590094
596.0, 0.0023169470616911246
597.0, 0.0017664517471274624
598.0, 0.0018211202093666736
599.0, 0.001559733094954178
600.0, 0.0010025681698729732
601.0, 0.0005727327903187335
602.0, 0.0005325490270902503
603.0, 0.00103526659553516
604.0, 0.0011558408720198459
605.0, 0.0019621124124746645
606.0, 0.0017376051611046864
607.0, 0.001684766373688406
608.0, 0.002147385066600146
609.0, 0.0008609023791083889
610.0, 0.001724764839848653
611.0, 0.0017101874665992264
612.0, 0.0006920068906887873
613.0, 0.0006550509658052652
614.0, 0.0013894746400468817
615.0, 0.0016619735720761438
616.0, 0.0009963736378745868
617.0, 0.0008073318393956923
618.0, 0.0010950104587603233
619.0, 0.0005770231356351734
620.0, 0.0008510101089035858
621.0, 0.0009845796058138262
622.0, 0.00039477151209741
623.0, 0.0010779322925965043
624.0, 0.0023037982923633975
625.0, 0.0016718863308691143
626.0, 0.0009157114828297146
627.0, 0.00038432076865510734
628.0, 0.0004708267685196932
629.0, 0.0011264785028439824
630.0, 0.0016185694344496829
631.0, 0.0019095123228293567
632.0, 0.0010488349265736553
633.0, 0.0022266124069150518
634.0, 0.0017145808891391309
635.0, 0.0011364910705244143
636.0, 0.001688765433156821
637.0, 0.0005276530526998012
638.0, 0.0006770093557072539
639.0, 0.0007786093718655477
640.0, 0.0009778338368887443
641.0, 0.0014527308001552942
642.0, 0.0014825232079620063
643.0, 0.0010911090136880384
644.0, 0.0013240152391611288
645.0, 0.0009424323653739043
646.0, 0.0011701903418899185
647.0, 0.0011138594345546605
648.0, 0.0005154282507591916
649.0, 0.0003626415011093031
650.0, 0.0011363345502959608
651.0, 0.0018959344037735976
652.0, 0.0007773931592184296
653.0, 0.0010997836296953714
654.0, 0.001611886766020671
655.0, 0.001410767326485583
656.0, 0.0006581555946370956
657.0, 0.000697932152776714
658.0, 0.002134219492964754
659.0, 0.0013944442288381055
660.0, 0.00035622544945946883
661.0, 0.0008414264944873098
662.0, 0.001304016170460143
663.0, 0.0013528072796636693
664.0, 0.0011172719370534912
665.0, 0.0007458448696961372
666.0, 0.00010639917176940178
667.0, 0.0003346067186936987
668.0, 0.0004766526922137358
669.0, 0.00039717796846705283
670.0, 0.0009434065096183012
671.0, 0.001377279506526519
672.0, 0.0010859780602552823
673.0, 0.0012941436180191929
674.0, 0.0009921457738683336
675.0, 0.0009149310803306785
676.0, 0.0009907896488827218
677.0, 0.0007709567279101726
678.0, 0.0009491462420409242
679.0, 0.0017336056736874108
680.0, 0.0021575056614885203
681.0, 0.0020964914787653015
682.0, 0.0010305105216408365
683.0, 0.001620364921703683
684.0, 0.0013551217216186712
685.0, 0.0017764345443361596
686.0, 0.0024669885682807213
687.0, 0.0018076043439079082
688.0, 0.0032730554325054806
689.0, 0.0013604099180904337
690.0, 0.0014369927178278649
691.0, 0.0020661609031406743
692.0, 0.0024264763459717546
693.0, 0.0027425885988951225
694.0, 0.0032591155564373983
695.0, 0.0033109832748939036
696.0, 0.003677348454853187
697.0, 0.003812136326991057
698.0, 0.004083409791599808
699.0, 0.004110084094318702
700.0, 0.004394949922647497
701.0, 0.005047375937947667
702.0, 0.005399456814389096
703.0, 0.005629730619172676
704.0, 0.006342924838617281
705.0, 0.006865760465078808
706.0, 0.007714312626587806
707.0, 0.008764775672840806
708.0, 0.009952416503886943
709.0, 0.011301700397256158
710.0, 0.012681237165177724
711.0, 0.014676277047719552
712.0, 0.01644463994966261
713.0, 0.01831568982904763
714.0, 0.021639724021805768
715.0, 0.025249717132089476
716.0, 0.028698746077473764
717.0, 0.033138072879497556
718.0, 0.03550165495798354
719.0, 0.0398111004010655
720.0, 0.042252297169113516
721.0, 0.04386222873545314
722.0, 0.04510007926935378
723.0, 0.044841079619947384
724.0, 0.0424806852703037
725.0, 0.040132250865998836
726.0, 0.034263986277832253
727.0, 0.031632252283059256
728.0, 0.026203269904149423
729.0, 0.02163272796893991
730.0, 0.018242200449305263
731.0, 0.015234036034582125
732.0, 0.012759666925229887
733.0, 0.010280911026835413
734.0, 0.008471795738603424
735.0, 0.006871801842114949
736.0, 0.005616956285061859
737.0, 0.004578430168837557
738.0, 0.0036888354867319964
739.0, 0.003108136740933403
740.0, 0.003064646427429477
741.0, 0.0028739800953490467
742.0, 0.002683246311128847
743.0, 0.0030842644429378134
744.0, 0.002657428156902742
745.0, 0.00203623392848731
746.0, 0.001470681415428659
747.0, 0.0008399220661307681
748.0, 0.001411251725661386
749.0, 0.0012690686352911896
750.0, 0.0018540408825235375
751.0, 0.0007424021731265065
752.0, 0.0004931390685341993
753.0, 0.0007027048055833557
754.0, 0.0008950877307387552
755.0, 0.0015755357340207733
756.0, 8.398067346198474e-05
757.0, 0.0011593558008529403
758.0, 0.0010297403200704143
759.0, 0.0008062601326642712
760.0, 0.0017762482100153053
761.0, 0.0017543578319811457
762.0, 0.0002928019659612538
763.0, 0.0009701139654027274
764.0, 6.374832410602487e-05
765.0, 0.0013493265234176795
766.0, 0.0010891262254568114
767.0, 0.000790154103063544
768.0, 0.0005985666078024336
769.0, 0.00045306145648047906
770.0, 0.0006868214962962096
771.0, 0.0016468515720393145
772.0, 0.0013087373220876685
773.0, 0.0012693305653350168
774.0, 0.0004648538842593602
775.0, 0.000961061398442437
776.0, 0.0011626447634256751
777.0, 0.0008341204404368433
778.0, 0.0008573040115055003
779.0, 0.000338255367554188
780.0, 0.0008785140426004845
781.0, 0.0007686746237381929
782.0, 0.0006357584502057079
783.0, 0.0005842271705620784
784.0, 0.0004676909013774458
785.0, 0.00031740546142371005
786.0, 0.00047983238874539587
787.0, 0.0012600485936743934
788.0, 0.0013037355434654342
789.0, 0.0015525785481611298
790.0, 0.0016460845358059455
791.0, 0.001547842908284396
792.0, 0.001437881911717749
793.0, 0.0012169827582244061
794.0, 0.0007635110713874043
795.0, 0.000578630473965726
796.0, 0.0008580888194478028
797.0, 0.0002778505403542804
798.0, 0.00038198497255536494
799.0, 0.000594060760118496
800.0, 0.0008240190946336052
801.0, 0.00097919593668627
802.0, 0.0009230465887557593
803.0, 0.0008785705205950878
804.0, 0.000717452865265758
805.0, 0.00044132128494372064
806.0, 0.00028302836537552926
807.0, 0.0002847851985435148
808.0, 0.0002557133930074683
809.0, 0.00029924838312878624
810.0, 0.000833011834616188
811.0, 0.00181784685470264
812.0, 0.0004135725635627046
813.0, 0.00018997493868613282
814.0, 0.00017076086551370595
815.0, 0.001082496791349853
816.0, 0.0012990982734093198
817.0, 0.0009834661797683327
818.0, 0.0009700274564728686
819.0, 0.0003588955462409372
820.0, 0.0012715313235355358
821.0, 0.0007044241897708433
822.0, 0.0004350139520974847
823.0, 0.00035058052469034463
824.0, 0.00035593642002513897
825.0, 0.00031891075592331016
826.0, 0.0002438327389519324
827.0, 0.00025391525786712756
828.0, 1.2273774115891163e-05
829.0, 0.00047143138255424
830.0, 0.00048482574012138874
831.0, 0.0008003243419625787
832.0, 0.0006322350268294215
833.0, 0.00042585794150105987
834.0, 0.0007618385910991382
835.0, 0.0011739228140752772
836.0, 0.0008985436836503151
837.0, 0.0018002683254563939
838.0, 0.0012124238944897742
839.0, 0.001554390934943158
840.0, 0.0012739497704516072
841.0, 0.0006955679272662413
842.0, 0.0005063308995040552
843.0, 0.000794500923799891
844.0, 0.001425209377794188
845.0, 0.00047355803213594496
846.0, 0.0012164034965158452
847.0, 0.0003726130238871777
848.0, 0.0002160057866682076
849.0, 0.0008783462031199973
850.0, 0.0009522151226430044
851.0, 0.0004007561350511324
852.0, 0.0010630330192739291
853.0, 0.0007768441608806476
854.0, 0.0009735136395903679
855.0, 0.0018981630055408376
856.0, 0.0013841043956247918
857.0, 0.0011974453790351907
858.0, 0.0011357939603223086
859.0, 0.0008945080570003184
860.0, 0.0009949454877288724
861.0, 0.0007232208696853766
862.0, 0.00017980219397105673
863.0, 8.951175611487063e-05
864.0, 0.00022318089271956555
865.0, 0.00048298292280942503
866.0, 0.0007792289934927987
867.0, 0.0009304532922683816
868.0, 0.00092008344842362
869.0, 0.000980723838715439
870.0, 0.0009136936553985466
871.0, 0.0010282142638582373
872.0, 0.0012894475431810492
873.0, 0.0016935692264973294
874.0, 0.0015386307680352108
875.0, 0.0018184486984809262
876.0, 0.002233420421310886
877.0, 0.0016129164834677902
878.0, 0.0015313898552897537
879.0, 0.002189659281657744
880.0, 0.0026243103203136458
881.0, 0.002359092191517818
882.0, 0.0025714395146710545
883.0, 0.002142816267902855
884.0, 0.0020199626266242457
885.0, 0.002583185651881056
886.0, 0.0019961252640617816
887.0, 0.0008939890884309132
888.0, 0.0011398790438678411
889.0, 0.0016473935594183975
890.0, 0.0011836396523759144
891.0, 0.0013820485694976499
892.0, 0.0008843745651891777
893.0, 0.0005774121961845715
894.0, 0.0013404237307479327
895.0, 0.0007902290444686267
896.0, 0.0006528217080917248
897.0, 0.00028425673119064003
898.0, 0.0008177650894177246
899.0, 0.0015729342537884904
900.0, 0.0013286087125165304
901.0, 0.0006596648966221137
902.0, 0.00043746886882021797
903.0, 0.0006178261369322724
904.0, 0.0005572584932539031
905.0, 0.00044806071775214365
906.0, 0.0015703397017484523
907.0, 0.0008875511303823256
908.0, 0.0004579500129148023
909.0, 0.0008029476517812468
910.0, 0.0009317358978433582
911.0, 0.0006175140542273765
912.0, 0.000606635076516262
913.0, 0.0007349859295825877
914.0, 0.000253031447992961
915.0, 0.0011233472443490562
916.0, 0.0010327762774756878
917.0, 0.0005125598985162014
918.0, 0.0007303179253425747
919.0, 0.0008158996898151443
920.0, 0.0003102346666385048
921.0, 0.00035409974205615884
922.0, 0.0014291214106858085
923.0, 0.00020108352564325246
924.0, 0.0022719976534408314
925.0, 0.0020624843989320097
926.0, 0.0008197316250061575
927.0, 0.00012770682931415945
928.0, 0.00010867918729963185
929.0, 0.0005871786076237361
930.0, 0.0013467968806243208
931.0, 0.0013611358955250706
932.0, 0.00069746892360292
933.0, 0.00042820170103557363
934.0, 0.0007023000009542511
935.0, 0.0003797923946853254
936.0, 0.000417828277117546
937.0, 0.0006545511492919852
938.0, 0.0005513312802296354
939.0, 0.0005292610043262496
940.0, 0.0013011389172353112
941.0, 8.73918882999205e-05
942.0, 0.00018466987121373344
943.0, 0.00022947175830619586
944.0, 0.0006121575905190008
945.0, 0.0012236107630645956
946.0, 0.0014824667287629458
947.0, 0.0018467259919354379
948.0, 0.00245932642433578
949.0, 0.0018765085652209944
950.0, 0.0003244293250273927
951.0, 0.002136575145851207
952.0, 0.0008385893589941158
953.0, 0.001287207140667458
954.0, 0.0016038280977853628
955.0, 0.0022019652619053583
956.0, 0.002568016447247762
957.0, 0.0022962737385654013
958.0, 0.002021854885371873
959.0, 0.0010468773414910601
960.0, 0.0018284310494628764
961.0, 0.0004781901657154088
962.0, 0.0007070569545226109
963.0, 0.0012991379005046668
964.0, 0.0020626653947987714
965.0, 0.002076368777750336
966.0, 0.0015524362215898473
967.0, 0.0016628251151715524
968.0, 0.0018701546753987117
969.0, 0.00013531924317562846
970.0, 0.0014090388827540685
971.0, 0.0013246322074728734
972.0, 0.0015440088329334396
973.0, 0.001155556109906653
974.0, 0.00041908023605695703
975.0, 0.00011938358647000035
976.0, 0.00039365608427375615
977.0, 0.0005668227807128594
978.0, 0.00024681765641791555
979.0, 0.00046379787081082943
980.0, 0.0010878551404265046
981.0, 0.0008906987696445705
982.0, 0.0009619154559813728
983.0, 0.0006646135047560949
984.0, 0.0009422199803735085
985.0, 0.0014749760528863355
986.0, 0.0016750693992733819
987.0, 0.0027996921071238635
988.0, 0.001314125342638609
989.0, 0.0014816008537950143
990.0, 0.0008218039801720001
991.0, 0.0009250823862099365
992.0, 0.0014690040070235652
993.0, 0.0012235687941390804
994.0, 0.0008479059951707862
995.0, 0.0009674280550921592
996.0, 0.0010512155725670592
997.0, 0.001299650976402712
998.0, 0.0016011271610019556
999.0, 0.00029721887514666187
1000.0, 0.001282984266008387
1001.0, 0.0023337607375957955
1002.0, 0.0024628493371540395
1003.0, 0.001628810073647679
1004.0, 0.0012484985644313441
1005.0, 0.0018738748485071525
1006.0, 0.0020787239203848957
1007.0, 0.0013645040881696013
1008.0, 0.002210197661121538
1009.0, 0.0004521059835528782
1010.0, 0.00011417061862194311
1011.0, 0.0012945889518618798
1012.0, 0.00236224449765284
1013.0, 0.0024301533634347246
1014.0, 0.002410234163569787
1015.0, 0.0032568026126271092
1016.0, 0.0040228625349791195
1017.0, 0.002874078066183111
1018.0, 0.001116126895140323
1019.0, 0.0025271780093737463
1020.0, 0.002430286097194719
1021.0, 0.002932268466473516
1022.0, 0.003386648273776572
1023.0, 0.0034263902481687907
1024.0, 0.0037921518117544355
1025.0, 0.0042743828028138685
1026.0, 0.004046839617686891
1027.0, 0.0048195697621326115
1028.0, 0.0037442357979469093
1029.0, 0.003918893585028944
1030.0, 0.00412410323344267
1031.0, 0.0035301960406204256
1032.0, 0.004347555553323301
1033.0, 0.004512254634977517
1034.0, 0.004363489567779376
1035.0, 0.004593143938344946
1036.0, 0.004292539286553349
1037.0, 0.004705298599555574
1038.0, 0.004558219812498997
1039.0, 0.004898665339852263
1040.0, 0.005519885238940742
1041.0, 0.006122323494060129
1042.0, 0.006583717132005736
1043.0, 0.007622379099102478
1044.0, 0.007802859406253268
1045.0, 0.007208514153547785
1046.0, 0.007702117587391414
1047.0, 0.008397158059888618
1048.0, 0.006845843388776557
1049.0, 0.007641877808786342
1050.0, 0.008422426688868914
1051.0, 0.009610107808123158
1052.0, 0.010216878108722387
1053.0, 0.010130082173003622
1054.0, 0.009963960362579355
1055.0, 0.010665339786034725
1056.0, 0.011507713374876178
1057.0, 0.011210034716878885
1058.0, 0.012467378415760219
1059.0, 0.013851939595199588
1060.0, 0.013841192216219803
1061.0, 0.014337054457342097
1062.0, 0.015994369035103404
1063.0, 0.017860386331189314
1064.0, 0.019393513527531884
1065.0, 0.020416859822403533
1066.0, 0.02196143287993896
1067.0, 0.02417105627975145
1068.0, 0.0250579783193426
1069.0, 0.027242368627094376
1070.0, 0.031219547398782806
1071.0, 0.03301791346549945
1072.0, 0.0352312341315702
1073.0, 0.038077561461947046
1074.0, 0.04183684394168705
1075.0, 0.04465957018797799
1076.0, 0.047768136682427756
1077.0, 0.05204554413664032
1078.0, 0.05565635757261098
1079.0, 0.059759277987051024
1080.0, 0.06783223735369118
1081.0, 0.07675990830648748
1082.0, 0.08884194729925309
1083.0, 0.10170578918337496
1084.0, 0.123742237932377
1085.0, 0.15457524682120014
1086.0, 0.19768248758782117
1087.0, 0.2538990765778095
1088.0, 0.32549442672724477
1089.0, 0.41766947569021884
1090.0, 0.5272677460524611
1091.0, 0.6567358910531952
1092.0, 0.785413094410484
1093.0, 0.8958468239470809
1094.0, 0.9779372828403224
1095.0, 0.9991663949574411
1096.0, 0.9551250122294309
1097.0, 0.8499284335573212
1098.0, 0.7072181748121145
1099.0, 0.5545756986754389
1100.0, 0.4110371392552065
1101.0, 0.2995154277487474
1102.0, 0.2088135618482773
1103.0, 0.1494209053997939
1104.0, 0.11094838998319724
1105.0, 0.08400037132142321
1106.0, 0.06352987951356104
1107.0, 0.050348095806563575
1108.0, 0.04187778677653101
1109.0, 0.03523360059246056
1110.0, 0.028895143569858995
1111.0, 0.023283243059081287
1112.0, 0.02067670894120081
1113.0, 0.018404784308660754
1114.0, 0.018211501925467815
1115.0, 0.013756102879315214
1116.0, 0.012304583729030566
1117.0, 0.013192109559178322
1118.0, 0.011541038314436512
1119.0, 0.010077829109612663
1120.0, 0.00954407149402817
1121.0, 0.008970979720578691
1122.0, 0.008531237015029143
1123.0, 0.007909345217117697
1124.0, 0.006523626841662365
1125.0, 0.006822884308943383
1126.0, 0.00579611237417854
1127.0, 0.006955888300913456
1128.0, 0.005583473787250275
1129.0, 0.004014615364065766
1130.0, 0.004049317387227666
1131.0, 0.003347387022014447
1132.0, 0.0029605731523096013
1133.0, 0.0032451011170958
1134.0, 0.002298131393534012
1135.0, 0.003458622428949558
1136.0, 0.004106728049957581
1137.0, 0.0031469410208402795
1138.0, 0.005177832156852889
1139.0, 0.002887717975102404
1140.0, 0.002464462994613466
1141.0, 0.0016168564866551605
1142.0, 0.0013183920713910442
1143.0, 0.001441770547552341
1144.0, 0.0018951336331933298
1145.0, 0.0028953829544522886
1146.0, 0.003131476771096004
1147.0, 0.0015155943073395719
1148.0, 0.00016548250004983636
1149.0, 0.0005058136645838456
1150.0, 0.0008236000701210612
1151.0, 0.0024584667256862145
1152.0, 0.0022438134579786492
1153.0, 0.0013608216788206437
1154.0, 0.0009187662573551913
1155.0, 0.0014461795468863649
1156.0, 0.0018568047391218545
1157.0, 0.0013244279919096562
1158.0, 0.0007298976576534864
1159.0, 0.00020592261833320548
1160.0, 0.0009668848972287149
1161.0, 0.00032693032773821484
1162.0, 0.0017926343416352249
1163.0, 0.002482962335656232
1164.0, 0.0021372889530125476
1165.0, 0.0009506636811177399
1166.0, 0.0008799422180935068
1167.0, 0.0007593778489083681
1168.0, 0.00016336025117616877
1169.0, 0.00065622425345953
1170.0, 0.0015174842998823895
1171.0, 0.0002512769077536098
1172.0, 0.0010614061394299019
1173.0, 0.001449172144536393
1174.0, 0.001411788122665553
1175.0, 0.000729746304616678
1176.0, 0.0009429576890259689
1177.0, 0.00043882467049950107
1178.0, 0.0003122758380743659
1179.0, 0.00037366948261194734
1180.0, 0.0010044580998211257
1181.0, 0.0013874602877489183
1182.0, 0.0006907126430443828
1183.0, 0.001314548246632577
1184.0, 0.0026353527577068505
1185.0, 0.0017480684096587446
1186.0, 0.0021130785028536355
1187.0, 0.0011047111902246836
1188.0, 0.0013801268202029405
1189.0, 0.0017593461992221053
1190.0, 0.001946923960611723
1191.0, 0.0015194882051474254
1192.0, 0.0007235165877315574
1193.0, 0.00027091066232079605
1194.0, 0.00020671591672963608
1195.0, 0.00023277699708097472
1196.0, 0.0007349245330415902
1197.0, 0.0010233543535698865
1198.0, 0.0010470795654220575
1199.0, 0.0013876477213763724
1200.0, 0.0026738018766372237
1201.0, 0.0013265051026162692
1202.0, 0.00132107032143145
1203.0, 0.0012192013800789198
1204.0, 0.0008652633794536755
1205.0, 0.001246599932838994
1206.0, 0.0014167922780387702
1207.0, 0.0007811184342415022
1208.0, 0.0007217912232720512
1209.0, 0.0007992742980392105
1210.0, 0.00033572004129372643
1211.0, 0.0006675303672265652
1212.0, 0.00021653605930154577
1213.0, 6.8657416806011e-05
1214.0, 0.0017195420174825865
1215.0, 0.0006726995369529907
1216.0, 0.0008497053174466537
1217.0, 0.0015182482383067886
1218.0, 0.0012107256271534615
1219.0, 0.0008675641711777039
1220.0, 0.000917078268515393
1221.0, 0.0008928770555314842
1222.0, 0.0014084088041336818
1223.0, 0.0005703379685578988
1224.0, 0.0009709939266639449
1225.0, 0.00015371892214913934
1226.0, 0.001559503293792384
1227.0, 0.0005115574809176316
1228.0, 0.00042010352436292375
1229.0, 0.0012712304023982605
1230.0, 0.0012997587337260337
1231.0, 0.0006652505788802715
1232.0, 0.0006612664825295073
1233.0, 0.0008064895009949338
1234.0, 0.0007860194783847066
1235.0, 0.0014262791690921256
1236.0, 0.0011932923963590442
1237.0, 0.002226145332941488
1238.0, 0.0016167181834360542
1239.0, 0.0014988243910211418
1240.0, 0.0008448744195628639
1241.0, 0.000666998854430658
1242.0, 0.0018326792993359972
1243.0, 0.0011265813672488316
1244.0, 0.0008408124295059378
1245.0, 0.0017211920830317055
1246.0, 0.0019323339396187856
1247.0, 0.0014533007124763173
1248.0, 0.0016062025374143428
1249.0, 0.0017426712284029664
1250.0, 0.001562314500009549
1251.0, 0.002394301219235863
1252.0, 0.0005625503403390011
1253.0, 0.0014410702793956768
1254.0, 0.0011412282510626908
1255.0, 0.001631099414363004
1256.0, 0.0016313243014307633
1257.0, 0.0005565358663786208
1258.0, 0.00018595339273391856
1259.0, 0.0005286030359142164
1260.0, 0.0005717039939789287
1261.0, 0.001112010278894161
1262.0, 0.001654059936770369
1263.0, 0.0006314640480999593
1264.0, 0.000891415996709227
1265.0, 0.0006976844589577617
1266.0, 0.0007092592514164359
1267.0, 0.0019307323855116774
1268.0, 0.0018360283794849573
1269.0, 0.0015357566318176116
1270.0, 0.0027824127418232475
1271.0, 0.0020266788498338397
1272.0, 0.0015375304936115237
1273.0, 0.00246020868691245
1274.0, 0.0019293670582692874
1275.0, 0.0009717347023551216
1276.0, 0.00114388326520294
1277.0, 0.0008315123677940586
1278.0, 0.000673225429330905
1279.0, 0.0015394539993942478
1280.0, 0.0016888678114926725
1281.0, 0.001446744156301801
1282.0, 0.0013539180260493163
1283.0, 0.0009386158041943119
1284.0, 0.00031566074525633505
1285.0, 0.000831565638918557
1286.0, 0.0004308970589699105
1287.0, 0.0006961947845679546
1288.0, 0.0011383183921775833
1289.0, 0.002129666389247114
1290.0, 0.001868611355123894
1291.0, 0.00035857525092128123
1292.0, 0.0005770550869812142
1293.0, 0.0015056953776461995
1294.0, 0.0009661661199015281
1295.0, 0.0009160041969348822
1296.0, 0.0006795625863981913
1297.0, 0.00014908068971063268
1298.0, 0.0011431816233243236
1299.0, 0.0006966884326123572
1300.0, 0.0005924096449850152
1301.0, 0.00022244247566389667
1302.0, 0.001192712998036367
1303.0, 0.0015252885339472689
1304.0, 0.0011997651761598907
1305.0, 0.0005895631698460075
1306.0, 0.0007108764797895715
1307.0, 0.0013294009817826726
1308.0, 0.0010853080105770118
1309.0, 0.001530264430425285
1310.0, 0.0018683992854771978
1311.0, 0.0015769036463034616
1312.0, 0.0019824905455526694
1313.0, 6.790450053091417e-05
1314.0, 0.0005843891149499274
1315.0, 0.0012937189343822974
1316.0, 0.0016333864729481226
1317.0, 0.002571383198002619
1318.0, 0.0016382789967899743
1319.0, 0.0014438347960241944
1320.0, 0.0019353034806753576
1321.0, 0.0017792606934884613
1322.0, 0.001673046721194028
1323.0, 0.0018468539257940164
1324.0, 0.001500808591745589
1325.0, 0.0013457783841642965
1326.0, 0.0013687395175192884
1327.0, 0.0017219225849276038
1328.0, 0.0005876674007558492
1329.0, 0.002486141380560196
1330.0, 0.0006539963441012086
1331.0, 0.0007234548339427665
1332.0, 0.000999476272557525
1333.0, 0.0006913824379146775
1334.0, 0.0008953766831018823
1335.0, 0.0009281694834020111
1336.0, 0.0012544133398689164
1337.0, 0.0019524689558648295
1338.0, 0.0015279235955368484
1339.0, 0.0016007030745756616
1340.0, 0.0023253243502823115
1341.0, 0.001460277300782979
1342.0, 0.0026188186440438107
1343.0, 0.0016121361625205106
1344.0, 0.00028163007133724357
1345.0, 0.0011089823988394275
1346.0, 0.0029923605454604965
1347.0, 0.0005696709617125299
1348.0, 0.002309643779845397
1349.0, 0.0010308567058095394
1350.0, 0.0007096917690362578
1351.0, 0.0012309671004796545
1352.0, 0.001556855120764509
1353.0, 0.0013701068206262812
1354.0, 0.001708209981358378
1355.0, 0.0018103722868714424
1356.0, 0.0010142065935131934
1357.0, 0.0012682316439535084
1358.0, 0.0020762817021134196
1359.0, 0.0006815487936858184
1360.0, 0.0007863831521550586
1361.0, 0.001027553575571004
1362.0, 0.0004547133733420714
1363.0, 0.0008999291880847963
1364.0, 0.000375000839778161
1365.0, 0.001951842953541861
1366.0, 0.00030671500640893246
1367.0, 0.0014822656435602294
1368.0, 0.0013633650825297652
1369.0, 0.0018010187559727646
1370.0, 0.0013094000146712768
1371.0, 0.0003785668727477688
1372.0, 0.000605398249945284
1373.0, 0.0014801082715801832
1374.0, 0.0016772407153536448
1375.0, 0.0016390701205260404
1376.0, 0.00204011011121812
1377.0, 0.0019684828410165217
1378.0, 0.0015240950379430567
1379.0, 0.0017072388126896827
1380.0, 0.00318554536806074
1381.0, 0.0018235854897853665
1382.0, 0.002230210563836082
1383.0, 0.0022157858401688937
1384.0, 0.0011286967439696216
1385.0, 0.0028076125727820203
1386.0, 0.0021260899080479153
1387.0, 0.0008285867958064518
1388.0, 0.0007725397190035283
1389.0, 0.0005143187227693173
1390.0, 0.0002839875947699802
1391.0, 0.0006130707036604445
1392.0, 0.0011573727100388587
1393.0, 0.0018811605531631496
1394.0, 0.0018578672328318654
1395.0, 0.0015109528425841406
1396.0, 0.0024500227731884122
1397.0, 0.0012376545369396441
1398.0, 0.0004496199999824059
1399.0, 0.0002861634174863108
1400.0, 0.0005247873871586659
1401.0, 0.0006307748260518037
1402.0, 0.0006507378209177438
1403.0, 0.0017760789035182701
1404.0, 0.0005914969900082339
1405.0, 0.002420523818356735
1406.0, 0.0016214976692053807
1407.0, 0.0018749776309766343
1408.0, 0.002276529560698647
1409.0, 0.0021272941240049656
1410.0, 0.0009081671620674605
1411.0, 0.00121156120554331
1412.0, 0.001793138460642682
1413.0, 0.0019594543208931088
1414.0, 0.0022927574546696746
1415.0, 0.002081912299607272
1416.0, 0.002612529047245832
1417.0, 0.0017688018329697357
1418.0, 0.0010082950881164638
1419.0, 0.0008989538434697715
1420.0, 0.0027003537914950153
1421.0, 0.002179034975428666
1422.0, 0.0021431684545466343
1423.0, 0.0019353518039958418
1424.0, 0.0024995806436325227
1425.0, 0.003732372656149027
1426.0, 0.004469803480073319
1427.0, 0.0044202282373518266
1428.0, 0.00539552235557259
1429.0, 0.0057858809374227394
1430.0, 0.005326042392956508
1431.0, 0.006382130227066875
1432.0, 0.0068462466988371455
1433.0, 0.007160114431089273
1434.0, 0.008771626753148578
1435.0, 0.010295085040040251
1436.0, 0.011894421980865719
1437.0, 0.013899770393759687
1438.0, 0.014727780998629173
1439.0, 0.01586284371343616
1440.0, 0.0176697530089042
1441.0, 0.01540095451091832
1442.0, 0.01444245252246045
1443.0, 0.01417329600998816
1444.0, 0.01459528667970551
1445.0, 0.011048109299833648
1446.0, 0.009050001589791957
1447.0, 0.007866165851584773
1448.0, 0.007926637344167431
1449.0, 0.007088110348040553
1450.0, 0.006639571554622216
1451.0, 0.00632067682722706
1452.0, 0.005204012048240852
1453.0, 0.005322166847841551
1454.0, 0.0048761769534635185
1455.0, 0.0044342648596421026
1456.0, 0.004693953012033268
1457.0, 0.004788986863890008
1458.0, 0.004468043478165456
1459.0, 0.0038139478144219906
1460.0, 0.0030779036504311385
1461.0, 0.002116546335175508
1462.0, 0.002258734341631272
1463.0, 0.002069943749831369
1464.0, 0.002412422892701572
1465.0, 0.0027936724059800504
1466.0, 0.0006745911517067403
1467.0, 0.0016573459809239338
1468.0, 0.0019988569450601662
1469.0, 0.004118404700394852
1470.0, 0.0022750940716440163
1471.0, 0.0025349301268875455
1472.0, 0.0031921914923836235
1473.0, 0.0024403624781842853
1474.0, 0.001660808296710929
1475.0, 0.0023480331427003925
1476.0, 0.0017259808375361832
1477.0, 0.0016827024169934724
1478.0, 0.0016933766797253144
1479.0, 0.0013642753092920894
1480.0, 0.0011724031115819065
1481.0, 0.0008433065496043942
1482.0, 0.0006278887583381421
1483.0, 0.0007532464542904724
1484.0, 0.0009971863645672
1485.0, 0.001300936796403831
1486.0, 0.0014061240970202448
1487.0, 0.0020447795262584887
1488.0, 0.0017740276445100548
1489.0, 0.0015427899492280288
1490.0, 0.0025767716169126115
1491.0, 0.0028513297817462195
1492.0, 0.002555583297283056
1493.0, 0.002695579874057931
1494.0, 0.0018221107848812
1495.0, 0.001947704301194011
1496.0, 0.001700223327040415
1497.0, 0.0013471674880847244
1498.0, 0.0018611971368853854
1499.0, 0.00041119992927034893
1500.0, 0.0001572282655634191
1501.0, 0.0002654385348762063
1502.0, 0.0006785842480407015
1503.0, 0.0013157677277077203
1504.0, 0.0020454440644785844
1505.0, 0.002855697609156091
1506.0, 0.0030816559080760913
1507.0, 0.0023651684388571364
1508.0, 0.001232602871114583
1509.0, 0.0003729832678214252
1510.0, 0.0005910051363359384
1511.0, 0.0011201912671330218
1512.0, 0.0008108902637881768
1513.0, 0.0008511902810501497
1514.0, 0.0009603245177525165
1515.0, 0.0011149721346959563
1516.0, 0.00013732178456821742
1517.0, 0.0007845664931516087
1518.0, 0.001556800210226472
1519.0, 0.0005770545207759061
1520.0, 0.0012306792864866922
1521.0, 0.0022735824668930673
1522.0, 0.0018161954013408987
1523.0, 0.0007715931526423417
1524.0, 0.0009128437984639158
1525.0, 0.0011626319667849899
1526.0, 0.0014502022686427784
1527.0, 0.00089853536627302
1528.0, 0.0019146809048812205
1529.0, 0.0023376414412441416
1530.0, 0.0009896268731728899
1531.0, 0.0017250977146103016
1532.0, 0.00282040811936718
1533.0, 0.0023650211262739576
1534.0, 0.002006678595794081
1535.0, 0.0011635170788600788
1536.0, 0.0015476037119131997
1537.0, 0.0016786963055751252
1538.0, 0.001247615388810247
1539.0, 0.0013251331382922958
1540.0, 0.0012835522167419962
1541.0, 0.0006943513369888564
1542.0, 0.0010577242425925974
1543.0, 0.002271650661196168
1544.0, 0.0019609378207044894
1545.0, 0.0021862355907723728
1546.0, 0.0006740400643325339
1547.0, 0.0003851252781355862
1548.0, 0.0012936590098215303
1549.0, 0.0006510352558216479
1550.0, 0.0011663243716591427
1551.0, 0.0013486114178248593
1552.0, 0.00223419746229257
1553.0, 0.001816881175782538
1554.0, 0.000819991425252398
1555.0, 0.0023193425937513656
1556.0, 0.0006015865125595504
1557.0, 0.001023550655706246
1558.0, 0.0009093525258053067
1559.0, 0.001878308707830924
1560.0, 0.001702664110551331
1561.0, 0.0017392655306385629
1562.0, 0.000607292105444875
1563.0, 0.0011414802154122699
1564.0, 0.0006816007619802349
1565.0, 0.00016216379178485236
1566.0, 0.0004636142629734397
1567.0, 0.00020910845024940311
1568.0, 0.00038278020148741523
1569.0, 0.00037237677938285513
1570.0, 0.0003325306470185918
1571.0, 0.0011635886902805082
1572.0, 0.0007181250733936109
1573, 0.0
1574, 0.0
1575, 0.0
1576, 0.0
1577, 0.0
1578, 0.0
1579, 0.0
1580, 0.0
1581, 0.0
1582, 0.0
1583, 0.0
1584, 0.0
1585, 0.0
1586, 0.0
1587, 0.0
1588, 0.0
1589, 0.0
1590, 0.0
1591, 0.0
1592, 0.0
1593, 0.0
1594, 0.0
1595, 0.0
1596, 0.0
1597, 0.0
1598, 0.0
1599, 0.0
