30, 0.0
31, 0.0
32, 0.0
33, 0.0
34, 0.0
35, 0.0
36, 0.0
37, 0.0
38, 0.0
39, 0.0
40, 0.0
41, 0.0
42, 0.0
43, 0.0
44, 0.0
45, 0.0
46, 0.0
47, 0.0
48, 0.0
49, 0.0
50, 0.0
51, 0.0
52, 0.0
53, 0.0
54, 0.0
55, 0.0
56, 0.0
57, 0.0
58, 0.0
59, 0.0
60, 0.0
61, 0.0
62, 0.0
63, 0.0
64, 0.0
65, 0.0
66, 0.0
67, 0.0
68, 0.0
69, 0.0
70, 0.0
71, 0.0
72, 0.0
73, 0.0
74, 0.0
75, 0.0
76, 0.0
77, 0.0
78, 0.0
79, 0.0
80, 0.0
81, 0.0
82, 0.0
83, 0.0
84, 0.0
85, 0.0
86, 0.0
87, 0.0
88, 0.0
89, 0.0
90, 0.0
91, 0.0
92, 0.0
93, 0.0
94, 0.0
95, 0.0
96, 0.0
97, 0.0
98, 0.0
99, 0.0
100, 0.0
101, 0.0
102, 0.0
103, 0.0
104, 0.0
105, 0.0
106, 0.0
107, 0.0
108, 0.0
109, 0.0
110, 0.0
111, 0.0
112, 0.0
113, 0.0
114, 0.0
115, 0.0
116, 0.0
117, 0.0
118, 0.0
119, 0.0
120, 0.0
121, 0.0
122, 0.0
123, 0.0
124, 0.0
125, 0.0
126, 0.0
127, 0.0
128, 0.0
129, 0.0
130, 0.0
131, 0.0
132, 0.0
133, 0.0
134, 0.0
135, 0.0
136, 0.0
137, 0.0
138, 0.0
139, 0.0
140, 0.0
141, 0.0
142, 0.0
143, 0.0
144, 0.0
145, 0.0
146, 0.0
147, 0.0
148.0, 0.003142289314406688
149.0, 0.0029975085664375664
150.0, 0.0038491592668114995
151.0, 0.0042053125449075645
152.0, 0.004055712536105147
153.0, 0.0138156259460436
154.0, 0.017306864591762085
155.0, 0.015833416962323967
156.0, 0.013022415002372884
157.0, 0.012601257395885659
158.0, 0.014013204724816125
159.0, 0.018961365488316922
160.0, 0.024696924858828143
161.0, 0.026502479330514007
162.0, 0.027027059403162332
163.0, 0.023294415530826975
164.0, 0.018733055124034184
165.0, 0.014721233783356867
166.0, 0.006295953563802473
167.0, 0.005628417472874173
168.0, 0.002583276557236828
169.0, 0.003167053048678648
170.0, 0.002146094057997461
171.0, 0.001859273832597846
172.0, 0.0045862199196810005
173.0, 0.004928209335775154
174.0, 0.0004217126491104542
175.0, 0.0005128991139993094
176.0, 0.0004639531660018073
177.0, 0.0023076998595114796
178.0, 0.003927807168419331
179.0, 0.003555640359709046
180.0, 0.00773562729861022
181.0, 0.012814134629176147
182.0, 0.015371871231512317
183.0, 0.014255131582504618
184.0, 0.012148119109533053
185.0, 0.012757099011209182
186.0, 0.015396971351123756
187.0, 0.018495367038897804
188.0, 0.022679953020687513
189.0, 0.02002218558312548
190.0, 0.017213060476388212
191.0, 0.016659737655725555
192.0, 0.013425128555631926
193.0, 0.016499176631848453
194.0, 0.01918879916003241
195.0, 0.01808769408472149
196.0, 0.015056520922370156
197.0, 0.02005028800599819
198.0, 0.02232681570432631
199.0, 0.024547291418028246
200.0, 0.030030365504348684
201.0, 0.036123100630783785
202.0, 0.038913157477846884
203.0, 0.04151226850737477
204.0, 0.04822032884668072
205.0, 0.06065556928651528
206.0, 0.07056019965156411
207.0, 0.07769859913898859
208.0, 0.08855889488633065
209.0, 0.10560781571066843
210.0, 0.11815305303964949
211.0, 0.126848709252577
212.0, 0.13553457041806924
213.0, 0.147193393318433
214.0, 0.16234277257896287
215.0, 0.1751917747064811
216.0, 0.1825026145881513
217.0, 0.18609666851452722
218.0, 0.18963571819244798
219.0, 0.19562385232352922
220.0, 0.20058058359602418
221.0, 0.2008867035732258
222.0, 0.20009725067691994
223.0, 0.20611707435472199
224.0, 0.20134002915486335
225.0, 0.19362217877508747
226.0, 0.1862694102136206
227.0, 0.17881380876733677
228.0, 0.16947425653745585
229.0, 0.15630707734146962
230.0, 0.13946181130616525
231.0, 0.12565495339374286
232.0, 0.1231304243013036
233.0, 0.11489641350215381
234.0, 0.10873016677816476
235.0, 0.10591194013780887
236.0, 0.10463423050061187
237.0, 0.10329903310915924
238.0, 0.10646214965378163
239.0, 0.10862793476461197
240.0, 0.10880821094116694
241.0, 0.11157924210326979
242.0, 0.12099107983025685
243.0, 0.1244097332916941
244.0, 0.12691019519397276
245.0, 0.1330436191096186
246.0, 0.1340478053893337
247.0, 0.13972199684010653
248.0, 0.14290811333419576
249.0, 0.1450272163469623
250.0, 0.15299782695796244
251.0, 0.15548240307893207
252.0, 0.15874711994724564
253.0, 0.16324301691514836
254.0, 0.16897225201597302
255.0, 0.17754448432654116
256.0, 0.17996818588238966
257.0, 0.18693467613070022
258.0, 0.19506101999440112
259.0, 0.19620752418344664
260.0, 0.2014354461009194
261.0, 0.1918761959529065
262.0, 0.1801691574798863
263.0, 0.17132389989894595
264.0, 0.15518046832044075
265.0, 0.15030395041886663
266.0, 0.14210052314482668
267.0, 0.13140063114919212
268.0, 0.12413453638690188
269.0, 0.11817891463395915
270.0, 0.10437241928454802
271.0, 0.08658360172458292
272.0, 0.07168263073822294
273.0, 0.0633585312216952
274.0, 0.05171776787829864
275.0, 0.03635922848947112
276.0, 0.024214127576748137
277.0, 0.017254982375582237
278.0, 0.00723692132315437
279.0, 0.0012087399665001105
280.0, 0.003902786502015183
281.0, 0.005255672250980249
282.0, 0.002627712572512311
283.0, 0.001249978863682974
284.0, 0.004111869014661706
285.0, 0.010561308463110033
286.0, 0.01866885962978968
287.0, 0.03260237377997275
288.0, 0.04869619249839321
289.0, 0.0678549549482318
290.0, 0.08762824667160232
291.0, 0.10719279872763268
292.0, 0.12857952619621169
293.0, 0.14145507480780428
294.0, 0.15249528812364185
295.0, 0.16088730910406168
296.0, 0.1624694519906945
297.0, 0.16120034833337138
298.0, 0.1465387478605993
299.0, 0.13210840941699312
300.0, 0.12132273801143854
301.0, 0.10660089191642401
302.0, 0.0943689731708324
303.0, 0.07740905159374695
304.0, 0.06440802407241081
305.0, 0.05948035901426776
306.0, 0.05554893952106103
307.0, 0.061676985449822114
308.0, 0.062020456358899176
309.0, 0.062287265431885605
310.0, 0.07132925866047163
311.0, 0.07910975244938195
312.0, 0.08824334058633922
313.0, 0.0967280995247299
314.0, 0.10533139411936651
315.0, 0.11604560906777776
316.0, 0.12607809897946967
317.0, 0.13780970119643143
318.0, 0.1479703190004462
319.0, 0.15530461211194532
320.0, 0.16126012040392645
321.0, 0.16548789418763152
322.0, 0.17949534795254352
323.0, 0.1928175106923606
324.0, 0.19614213077501308
325.0, 0.19485006959150097
326.0, 0.2021398584975469
327.0, 0.20944354365079956
328.0, 0.20998510901638165
329.0, 0.20378259572182164
330.0, 0.20376782646230077
331.0, 0.18801045863162194
332.0, 0.17322547259956123
333.0, 0.1620156272118182
334.0, 0.1480275238310905
335.0, 0.1341367311301398
336.0, 0.11435555930932874
337.0, 0.09612752497343625
338.0, 0.08138370663677774
339.0, 0.06469183670963677
340.0, 0.04644430014019163
341.0, 0.03401313453059747
342.0, 0.027127528107224307
343.0, 0.021190558681011166
344.0, 0.010787505104722591
345.0, 0.0011922242728516156
346.0, 0.004093231105085252
347.0, 0.008363991514704378
348.0, 0.014990579978954385
349.0, 0.01647677325734872
350.0, 0.01759608016362207
351.0, 0.017258014617263978
352.0, 0.015523239079563024
353.0, 0.012201439020735715
354.0, 0.005581039610526854
355.0, 0.003490261770544147
356.0, 0.0006510151413022743
357.0, 0.008397578006848882
358.0, 0.021335312924625306
359.0, 0.022984907114930453
360.0, 0.030397066046845757
361.0, 0.04648341530189746
362.0, 0.06236264640547635
363.0, 0.07126229578797816
364.0, 0.08668239809007278
365.0, 0.10055619830783427
366.0, 0.11262740686168313
367.0, 0.12355081753244515
368.0, 0.1327843533148759
369.0, 0.14026613668515928
370.0, 0.14968709535348548
371.0, 0.15501192430922212
372.0, 0.15862031868568963
373.0, 0.1690136788715075
374.0, 0.18037117742097014
375.0, 0.19288562058519657
376.0, 0.1996288403201164
377.0, 0.20184546936774522
378.0, 0.21072524895508818
379.0, 0.22503460711024223
380.0, 0.23597078944778543
381.0, 0.2444568297312844
382.0, 0.2526411848012641
383.0, 0.2612189484100127
384.0, 0.2821369846659607
385.0, 0.28902192410426264
386.0, 0.2975917204326063
387.0, 0.31658743580878806
388.0, 0.33208685287324274
389.0, 0.35157781493926654
390.0, 0.370873007066546
391.0, 0.3896151385497946
392.0, 0.4106612403218934
393.0, 0.43446904909084566
394.0, 0.4474586341110232
395.0, 0.46265207576705836
396.0, 0.4800319167357366
397.0, 0.4930915935519498
398.0, 0.49418729733954714
399.0, 0.49929965114834685
400.0, 0.49724085938332585
401.0, 0.48524319714871494
402.0, 0.46548193146668493
403.0, 0.442657631732378
404.0, 0.41811547711709474
405.0, 0.38640061099355644
406.0, 0.3528459678974838
407.0, 0.32269521913206284
408.0, 0.2930539394548561
409.0, 0.2636411246070139
410.0, 0.2315415673449446
411.0, 0.20328604752554189
412.0, 0.1821523718311233
413.0, 0.16210944813260234
414.0, 0.14946990333580723
415.0, 0.1381451983778612
416.0, 0.12933211359866154
417.0, 0.1219277026307857
418.0, 0.11065680109178275
419.0, 0.10203688858802369
420.0, 0.1019011879116948
421.0, 0.10443132175890817
422.0, 0.1005521383550685
423.0, 0.09854056459200586
424.0, 0.09666260921498045
425.0, 0.09927474727203617
426.0, 0.09843370939909306
427.0, 0.09986350666836324
428.0, 0.0984934536441194
429.0, 0.09485099247564309
430.0, 0.09718257819076653
431.0, 0.08712704299426043
432.0, 0.08275797920222085
433.0, 0.07404362200872544
434.0, 0.06965470818635183
435.0, 0.06247190785332834
436.0, 0.055153056371619956
437.0, 0.0490905016258686
438.0, 0.04411821032198184
439.0, 0.0448227988882613
440.0, 0.038119922281838366
441.0, 0.032814948541913025
442.0, 0.030585656724501104
443.0, 0.028048076672847817
444.0, 0.02670121479936125
445.0, 0.030125581069687945
446.0, 0.02818384716128315
447.0, 0.025934092247252388
448.0, 0.02901196052167535
449.0, 0.028024607690128215
450.0, 0.030852506463748437
451.0, 0.032989557763063365
452.0, 0.03467106329515775
453.0, 0.03835810181818821
454.0, 0.04533045620762139
455.0, 0.04714127696963877
456.0, 0.05059333403696577
457.0, 0.05843126346504198
458.0, 0.06638515588493989
459.0, 0.06932470078612687
460.0, 0.07624562674445115
461.0, 0.08204849052900356
462.0, 0.08483736359169011
463.0, 0.0881482145739527
464.0, 0.09525997704726773
465.0, 0.09952179960372265
466.0, 0.09790669938406053
467.0, 0.09770460505588995
468.0, 0.10084875788114829
469.0, 0.10397242224597855
470.0, 0.1003151602065468
471.0, 0.09508321308916415
472.0, 0.0913019251777541
473.0, 0.08923120576894746
474.0, 0.08640431628969225
475.0, 0.07926995620482573
476.0, 0.0697122754720372
477.0, 0.06923278240192865
478.0, 0.06590937474246555
479.0, 0.05518234109826005
480.0, 0.05114122746083525
481.0, 0.04301884755582898
482.0, 0.03832838645042493
483.0, 0.02921758887511622
484.0, 0.019248972011878928
485.0, 0.01900200259886145
486.0, 0.01476572743018241
487.0, 0.005993143838061059
488.0, 0.002078411037425748
489.0, 0.0038891052259468735
490.0, 0.0018149260336629415
491.0, 0.006542160127618871
492.0, 0.00803718449838089
493.0, 0.00890167550324754
494.0, 0.00960235900574726
495.0, 0.009588631882181233
496.0, 0.008751090423381017
497.0, 0.004381773382756684
498.0, 0.004154644063017977
499.0, 0.001722885255036016
500.0, 0.00511121045497501
501.0, 0.011020726151827594
502.0, 0.016791839590331252
503.0, 0.022615002866128112
504.0, 0.03466154988391092
505.0, 0.04634080565423586
506.0, 0.05205026651652479
507.0, 0.06561246950198381
508.0, 0.07723979153277308
509.0, 0.08782656360942137
510.0, 0.09930457171326423
511.0, 0.11162824404312886
512.0, 0.12300565548925128
513.0, 0.13326937124036922
514.0, 0.13787806712920958
515.0, 0.1481083808635844
516.0, 0.15570349941518297
517.0, 0.14897425018757596
518.0, 0.15087190474665949
519.0, 0.14047186503230108
520.0, 0.13073601565812962
521.0, 0.12012266981820632
522.0, 0.10411421823448617
523.0, 0.08794196038730466
524.0, 0.07451448358954618
525.0, 0.061993149889945906
526.0, 0.05208759643354094
527.0, 0.04429692658552515
528.0, 0.03627632277590164
529.0, 0.03081827679557407
530.0, 0.029461164452605503
531.0, 0.023209125129657032
532.0, 0.01926041717197622
533.0, 0.021943936222398184
534.0, 0.01724360474689139
535.0, 0.02075148362032319
536.0, 0.022286095168545614
537.0, 0.02577172452599302
538.0, 0.03292996288347456
539.0, 0.038506586708320696
540.0, 0.042479620136876464
541.0, 0.04646196648566244
542.0, 0.04813785896661009
543.0, 0.05076804585710278
544.0, 0.05500048138710428
545.0, 0.052649267897224565
546.0, 0.047781017450873244
547.0, 0.04264575562700303
548.0, 0.03634385293207174
549.0, 0.029003867340945053
550.0, 0.023136270704206197
551.0, 0.016423016672352547
552.0, 0.012578356739321199
553.0, 0.008688861250176276
554.0, 0.004242228731675282
555.0, 0.0015975000809176252
556.0, 0.0012367485481849134
557.0, 0.0014226289975844942
558.0, 0.0036117783965238697
559.0, 0.0023360923502943605
560.0, 0.0003884116206918169
561.0, 0.0010075424786912365
562.0, 0.0026873830785025805
563.0, 0.005714422691836198
564.0, 0.007179732515135737
565.0, 0.008039855021180266
566.0, 0.009103899581284294
567.0, 0.010865883354735227
568.0, 0.013543054629396551
569.0, 0.01054485083855149
570.0, 0.012653435035152245
571.0, 0.016711016081038806
572.0, 0.01654447557151906
573.0, 0.018170819990105315
574.0, 0.017115370531536663
575.0, 0.015293689163547628
576.0, 0.015514942680023952
577.0, 0.01760746459426529
578.0, 0.01896982305755625
579.0, 0.018151584565952752
580.0, 0.01983266987656848
581.0, 0.019142021043490068
582.0, 0.020029892529074885
583.0, 0.023100792299394043
584.0, 0.02234357804802186
585.0, 0.023729234970025808
586.0, 0.02708062810649828
587.0, 0.026034066744428208
588.0, 0.02514894243635651
589.0, 0.02803803816524385
590.0, 0.027095242499572476
591.0, 0.025206268501720638
592.0, 0.026677579032514845
593.0, 0.029673991031882445
594.0, 0.030515239450503776
595.0, 0.029561835232481827
596.0, 0.031934564572024725
597.0, 0.02959662789525991
598.0, 0.027301307898001552
599.0, 0.025709533233330993
600.0, 0.02387110149260372
601.0, 0.021817413797664147
602.0, 0.019694157684313887
603.0, 0.02114070881249205
604.0, 0.02004680192024327
605.0, 0.018541080001374506
606.0, 0.017447024817285446
607.0, 0.01334643110889539
608.0, 0.0128884628525403
609.0, 0.013782255443533977
610.0, 0.013760571512570093
611.0, 0.012249695534824639
612.0, 0.010554522707748686
613.0, 0.01074391121842928
614.0, 0.003949032557034942
615.0, 0.006432731900562888
616.0, 0.0057486167144798275
617.0, 0.0025087132851063865
618.0, 0.0015156764577274426
619.0, 0.004110203705900946
620.0, 0.004238080795510394
621.0, 0.001050864684495585
622.0, 0.0004471709994273638
623.0, 0.00032601078676117916
624.0, 0.0007381601894985146
625.0, 0.005660031211108453
626.0, 0.005404694026719939
627.0, 0.006023990069432102
628.0, 0.004227364783651602
629.0, 0.0018348559923079474
630.0, 0.002070640291678792
631.0, 0.0017669447116222974
632.0, 0.001685694750834771
633.0, 0.0031848094812787888
634.0, 0.00677870544318466
635.0, 0.00884980319324951
636.0, 0.009952453755632178
637.0, 0.019805428569568146
638.0, 0.020319381637536185
639.0, 0.024210269616657263
640.0, 0.03083756445421723
641.0, 0.03648889799215093
642.0, 0.04064943662452482
643.0, 0.044242984584814266
644.0, 0.050528951063124876
645.0, 0.05915339390174168
646.0, 0.0680339613002195
647.0, 0.07460202281887938
648.0, 0.07908647999034528
649.0, 0.08766537756627293
650.0, 0.09369644465320817
651.0, 0.10463869338295112
652.0, 0.11188033772538113
653.0, 0.11176620608100982
654.0, 0.11172773757820555
655.0, 0.11803636435562752
656.0, 0.11947918039241719
657.0, 0.11991008665683747
658.0, 0.11937764180998203
659.0, 0.11768928285940447
660.0, 0.11489275860259024
661.0, 0.1091570270913355
662.0, 0.10682715770544046
663.0, 0.1009372711871162
664.0, 0.09461462225910214
665.0, 0.0881550449072962
666.0, 0.0794796227112575
667.0, 0.07324683699889752
668.0, 0.0640058119830037
669.0, 0.056061348730019805
670.0, 0.049265946690540775
671.0, 0.04096369665180016
672.0, 0.03231237577530931
673.0, 0.02896008459023804
674.0, 0.020141305340021103
675.0, 0.01468953174476436
676.0, 0.009298767375959638
677.0, 0.003947153153353317
678.0, 0.002311867751450965
679.0, 0.003921054626128608
680.0, 0.0016724437336505253
681.0, 0.0035692308451730284
682.0, 0.007552257167946982
683.0, 0.009040151890340149
684.0, 0.012730854747649645
685.0, 0.017666086790868157
686.0, 0.02789821135851239
687.0, 0.03583564210621137
688.0, 0.05003756458522703
689.0, 0.06659254752321833
690.0, 0.08132293230836127
691.0, 0.09764654057459725
692.0, 0.11609217436271684
693.0, 0.13311702524546487
694.0, 0.15545372111143663
695.0, 0.17965220927250744
696.0, 0.2035750191094574
697.0, 0.22989814304153883
698.0, 0.2601360008729652
699.0, 0.2894739016920582
700.0, 0.31335397689123706
701.0, 0.3364157259732092
702.0, 0.35681396907161256
703.0, 0.37268613795318606
704.0, 0.3877608158789262
705.0, 0.3856093793905684
706.0, 0.3816809499146433
707.0, 0.36793686577148704
708.0, 0.34719819163124516
709.0, 0.3258211561532565
710.0, 0.3028957419837171
711.0, 0.2691219354307334
712.0, 0.23264033857062397
713.0, 0.20038737183798616
714.0, 0.17164212206174215
715.0, 0.14403062986325263
716.0, 0.11749813540158777
717.0, 0.0929713292180438
718.0, 0.07130601700115716
719.0, 0.051413216132535834
720.0, 0.03623822945462064
721.0, 0.022593441301586796
722.0, 0.008817585302601096
723.0, 0.0016811369091687873
724.0, 0.00604090146482788
725.0, 0.0081492036448882
726.0, 0.010933167186126342
727.0, 0.013028374800555286
728.0, 0.010065507252916259
729.0, 0.0027950693457520974
730.0, 0.0032077460722096
731.0, 0.01713508708552789
732.0, 0.024149149924185088
733.0, 0.03791916550214502
734.0, 0.05671702984621162
735.0, 0.07080072049529873
736.0, 0.08874748027076156
737.0, 0.11435247972308463
738.0, 0.14015893078000188
739.0, 0.164073260437562
740.0, 0.19129558299633007
741.0, 0.2211549742647734
742.0, 0.25010190812841465
743.0, 0.288650657137086
744.0, 0.3164615011851367
745.0, 0.35008239816444536
746.0, 0.3843847968925139
747.0, 0.41292931768620444
748.0, 0.4408234380369566
749.0, 0.47446872266052104
750.0, 0.4945804840134442
751.0, 0.516883831269103
752.0, 0.5287547640749772
753.0, 0.5348416431127203
754.0, 0.5411962449944748
755.0, 0.5379573250748056
756.0, 0.5143182372232447
757.0, 0.4940837338633553
758.0, 0.47795957349373863
759.0, 0.447148421812872
760.0, 0.40940480092161763
761.0, 0.37652871970383894
762.0, 0.3437608062930821
763.0, 0.309462198331059
764.0, 0.27746076423465654
765.0, 0.24371301320241415
766.0, 0.21422171507930046
767.0, 0.1873179978804055
768.0, 0.16053618761183883
769.0, 0.14430227303845458
770.0, 0.12740460725178276
771.0, 0.11436029428737364
772.0, 0.1008800108732548
773.0, 0.09077267922776987
774.0, 0.08474584993609448
775.0, 0.07926492929997177
776.0, 0.08169936135447126
777.0, 0.08211621162161983
778.0, 0.08079465181723243
779.0, 0.08187646931468771
780.0, 0.08618536619587809
781.0, 0.09092685339265784
782.0, 0.09500762693861792
783.0, 0.10239224671684324
784.0, 0.11161578237899662
785.0, 0.11744086270799271
786.0, 0.12717146270815213
787.0, 0.13583291408800183
788.0, 0.1398410999531024
789.0, 0.1499660533146452
790.0, 0.16049793626155864
791.0, 0.16490295241157998
792.0, 0.17209157580611917
793.0, 0.17814063777266015
794.0, 0.18042197161889031
795.0, 0.1819183746662454
796.0, 0.18394066301872256
797.0, 0.18317513370264146
798.0, 0.17873865430714295
799.0, 0.17233579787548195
800.0, 0.1617892203095059
801.0, 0.14991020812666353
802.0, 0.14141120565348425
803.0, 0.13367354461925998
804.0, 0.11861619520436462
805.0, 0.11166664300983743
806.0, 0.10325194790191185
807.0, 0.0988007589655975
808.0, 0.09602005364584132
809.0, 0.08913816964710723
810.0, 0.08747264758678377
811.0, 0.08321451304791547
812.0, 0.07858864336749291
813.0, 0.06951210473981229
814.0, 0.060128205224654195
815.0, 0.0503077800476764
816.0, 0.03745644830604429
817.0, 0.026538994915090253
818.0, 0.018386713208180732
819.0, 0.013426846211674393
820.0, 0.008518631672498831
821.0, 0.005600561058632838
822.0, 0.005553850507812492
823.0, 0.004045385267765775
824.0, 0.0021532589058776805
825.0, 0.003696481308878388
826.0, 0.002665107020323711
827.0, 0.0015384104854852675
828.0, 0.004610802398633651
829.0, 0.006406870003380396
830.0, 0.0033716130754428333
831.0, 0.003937877696573562
832.0, 0.0041298637139524684
833.0, 0.0020389937873653
834.0, 0.0028946582180935745
835.0, 0.003704263227388207
836.0, 0.0030081454215170386
837.0, 0.0009087875810600014
838.0, 0.004219960649255711
839.0, 0.004134223154070123
840.0, 0.0062454485211163955
841.0, 0.009595601583687897
842.0, 0.011418280967942205
843.0, 0.014019036024111182
844.0, 0.01958321309309104
845.0, 0.025820919785937674
846.0, 0.027638273856001212
847.0, 0.029254612383884333
848.0, 0.03881149972108129
849.0, 0.048566198688583015
850.0, 0.05736321226512428
851.0, 0.06610760968636571
852.0, 0.07513454709580349
853.0, 0.08832182841174131
854.0, 0.09641144986880633
855.0, 0.11322256143436372
856.0, 0.12791302377383978
857.0, 0.14444586368989082
858.0, 0.1606665187535381
859.0, 0.1741194612420242
860.0, 0.19657689963524833
861.0, 0.2184743376024375
862.0, 0.2446182188539523
863.0, 0.2689507634669877
864.0, 0.2978316149824977
865.0, 0.3299830093789758
866.0, 0.3609218709418256
867.0, 0.3931625678992251
868.0, 0.42957468810160365
869.0, 0.4728849578072362
870.0, 0.505982848425215
871.0, 0.5476916467889056
872.0, 0.5902984426856377
873.0, 0.625999122405929
874.0, 0.6586163734159394
875.0, 0.6890573360532177
876.0, 0.7166471437302468
877.0, 0.736999863510129
878.0, 0.75703884966215
879.0, 0.7665624838409056
880.0, 0.7675316004105243
881.0, 0.7630931975986902
882.0, 0.7476957759762076
883.0, 0.7292411903489429
884.0, 0.7047802059532531
885.0, 0.6677596068739695
886.0, 0.6298222967730155
887.0, 0.5865764533459207
888.0, 0.5389588528737189
889.0, 0.49621661419780466
890.0, 0.4567350063668153
891.0, 0.40918078992023216
892.0, 0.3741300212973379
893.0, 0.34057603356318644
894.0, 0.30772451083087293
895.0, 0.27649488452080206
896.0, 0.2454577812624802
897.0, 0.21630384980117814
898.0, 0.1968119222410805
899.0, 0.17373227007803832
900.0, 0.15266984061255082
901.0, 0.13292519276165668
902.0, 0.11781665644317249
903.0, 0.10334372051724472
904.0, 0.08493156115225625
905.0, 0.06854645282005681
906.0, 0.060941964158156274
907.0, 0.05783448168531118
908.0, 0.04639140646716163
909.0, 0.03737705670564057
910.0, 0.02809490292764721
911.0, 0.018288585348110592
912.0, 0.011853012001334743
913.0, 0.007250650684922994
914.0, 0.004721597212019551
915.0, 0.001019886626942929
916.0, 0.001834918850321529
917.0, 0.004322644789437753
918.0, 0.007315256976183382
919.0, 0.009210161326916579
920.0, 0.010993579443876762
921.0, 0.013620495851702344
922.0, 0.017289188785005797
923.0, 0.014199771346968024
924.0, 0.016224547368544767
925.0, 0.016549245304885163
926.0, 0.014017918988443581
927.0, 0.013646537594687645
928.0, 0.014579547453352243
929.0, 0.00917544286639301
930.0, 0.004963394866773231
931.0, 0.002994755115392333
932.0, 0.004603890972366632
933.0, 0.00964947349688966
934.0, 0.012586546946100292
935.0, 0.019706033458922554
936.0, 0.03099316339816473
937.0, 0.04206849402790468
938.0, 0.058881595215607686
939.0, 0.0649338265630407
940.0, 0.07844614275672669
941.0, 0.09480833232689205
942.0, 0.11647317269662895
943.0, 0.13996983305155347
944.0, 0.1596511031314981
945.0, 0.1849297466326646
946.0, 0.21372693076303848
947.0, 0.24585786228477025
948.0, 0.2804578054727323
949.0, 0.318520735648377
950.0, 0.35774989500834936
951.0, 0.3961669991905922
952.0, 0.43641952073059814
953.0, 0.484255030886211
954.0, 0.5364193597527007
955.0, 0.5808466281642252
956.0, 0.6317477664979695
957.0, 0.6797934711630074
958.0, 0.7236205537694976
959.0, 0.7657949708157348
960.0, 0.8055227771541402
961.0, 0.8406603547935506
962.0, 0.8684998591008872
963.0, 0.8955370904482067
964.0, 0.905427908168661
965.0, 0.9264607789564778
966.0, 0.9364935779424919
967.0, 0.9371458504543162
968.0, 0.9382034815766102
969.0, 0.932009830859077
970.0, 0.9188255595849321
971.0, 0.9025916193519096
972.0, 0.8892013133680652
973.0, 0.870428254131971
974.0, 0.8485797054946073
975.0, 0.8247695708058815
976.0, 0.7997862316387473
977.0, 0.7712224184024905
978.0, 0.7382644538427585
979.0, 0.7223902123625444
980.0, 0.6888238293464827
981.0, 0.6630149173994168
982.0, 0.6400656336384317
983.0, 0.6190409139864305
984.0, 0.598890352156349
985.0, 0.5815321461084797
986.0, 0.5678693909205043
987.0, 0.5514425293531929
988.0, 0.5518011422025076
989.0, 0.5483883788676075
990.0, 0.5546186106290136
991.0, 0.5609642039470034
992.0, 0.569638194641958
993.0, 0.5816913313760257
994.0, 0.5955729720290209
995.0, 0.6149087021233682
996.0, 0.6349241598028792
997.0, 0.652763463887911
998.0, 0.6817251845495012
999.0, 0.7086290540650799
1000.0, 0.7314944592350533
1001.0, 0.7608813314211168
1002.0, 0.7909670589524735
1003.0, 0.8145557197180815
1004.0, 0.8448951918587752
1005.0, 0.8770702906866478
1006.0, 0.8870816353817658
1007.0, 0.9134666363982155
1008.0, 0.9443236094175399
1009.0, 0.9652046138939581
1010.0, 0.979077263013485
1011.0, 0.9891465321113656
1012.0, 0.9943936930450826
1013.0, 0.9991188210469308
1014.0, 0.9989481363698662
1015.0, 0.9894546532577606
1016.0, 0.9831320751208034
1017.0, 0.9806807383911386
1018.0, 0.9714288740217025
1019.0, 0.957545593633818
1020.0, 0.9478060611739139
1021.0, 0.9394968688087878
1022.0, 0.920001229030152
1023.0, 0.9041270884581755
1024.0, 0.8824812156344499
1025.0, 0.8580116411602973
1026.0, 0.8387298990545133
1027.0, 0.8185991411052512
1028.0, 0.7942378381789601
1029.0, 0.7682344222366508
1030.0, 0.7409278941009846
1031.0, 0.7093927683209389
1032.0, 0.6776804792750611
1033.0, 0.6467952131539328
1034.0, 0.6091722166720397
1035.0, 0.5723075373435411
1036.0, 0.5374661385331807
1037.0, 0.5086438037959462
1038.0, 0.47803825970735175
1039.0, 0.4390612721289667
1040.0, 0.4036567908901081
1041.0, 0.3650169093949636
1042.0, 0.3374295852306929
1043.0, 0.3113492758510579
1044.0, 0.28157666261506326
1045.0, 0.252142592276244
1046.0, 0.22778629060067795
1047.0, 0.20813487838207087
1048.0, 0.1876273293935527
1049.0, 0.16352520143872218
1050.0, 0.14466734631684353
1051.0, 0.12696261616793608
1052.0, 0.11380550949488613
1053.0, 0.10102706337252347
1054.0, 0.0858137584404634
1055.0, 0.07657721594685223
1056.0, 0.06784450401077928
1057.0, 0.055181713061919525
1058.0, 0.046155767671474925
1059.0, 0.04168676983156973
1060.0, 0.038521763422293694
1061.0, 0.031861700407366716
1062.0, 0.023068973821191576
1063.0, 0.016015505382130195
1064.0, 0.015997755395136225
1065.0, 0.01460109100970683
1066.0, 0.009727096739722461
1067.0, 0.005412259330189397
1068.0, 0.0003788123071908698
1069.0, 0.0008959321284216394
1070.0, 0.0018899899091755208
1071.0, 0.0028540945296874477
1072.0, 0.003050133012803547
1073.0, 0.0004920215950356832
1074.0, 0.0012004400314417486
1075.0, 0.00501918674642925
1076.0, 0.007070954988572291
1077.0, 0.008747686557841661
1078.0, 0.011865643321860334
1079.0, 0.009957833785158953
1080.0, 0.0067674719298179385
1081.0, 0.00887380147842608
1082.0, 0.009351613149194315
1083.0, 0.006929549048592719
1084.0, 0.007684813284973121
1085.0, 0.011040013723448764
1086.0, 0.011313130067018964
1087.0, 0.008035928428651369
1088.0, 0.005123712207872202
1089.0, 0.0013209872333947892
1090.0, 0.005597407426865052
1091.0, 0.005944769521396963
1092.0, 0.0030750426089268777
1093.0, 0.000997372351041407
1094.0, 0.003105117836931383
1095.0, 0.00527824389366418
1096.0, 0.006174272947297242
1097.0, 0.005157897636455889
1098.0, 0.0072204521970001155
1099.0, 0.010749801165410714
1100.0, 0.013677031605370952
1101.0, 0.015313049625716094
1102.0, 0.018442055687692978
1103.0, 0.020935765670875767
1104.0, 0.02242891757182388
1105.0, 0.02245712208266412
1106.0, 0.02470928571062755
1107.0, 0.030343244601233214
1108.0, 0.03368295756916167
1109.0, 0.03902816387490065
1110.0, 0.038216143887562844
1111.0, 0.04010785024233146
1112.0, 0.04324066575113792
1113.0, 0.047725476504976765
1114.0, 0.05215293769342735
1115.0, 0.05377075917181775
1116.0, 0.05476415688469659
1117.0, 0.058385156476646764
1118.0, 0.06055255677889678
1119.0, 0.05990936148559947
1120.0, 0.06554996008429145
1121.0, 0.06465426587985851
1122.0, 0.06645622387804156
1123.0, 0.06883860308936679
1124.0, 0.06664484690509652
1125.0, 0.06449548285036104
1126.0, 0.06655469085393505
1127.0, 0.06867996921441688
1128.0, 0.06688296297578167
1129.0, 0.06537432549622761
1130.0, 0.06484532697261032
1131.0, 0.06575753911264973
1132.0, 0.06280751156832629
1133.0, 0.06124046986893575
1134.0, 0.06320790508609324
1135.0, 0.06245181932675914
1136.0, 0.05935925081779856
1137.0, 0.05392834002951811
1138.0, 0.04923686700027213
1139.0, 0.04988553627814434
1140.0, 0.04689350256041268
1141.0, 0.044247954175479116
1142.0, 0.042447751440879304
1143.0, 0.0370901560715922
1144.0, 0.033643728889904086
1145.0, 0.033708242347151356
1146.0, 0.03231132416986036
1147.0, 0.028815258485268985
1148.0, 0.026787537977706104
1149.0, 0.027267128896785495
1150.0, 0.027321800971901507
1151.0, 0.025388826971845673
1152.0, 0.021948481110961166
1153.0, 0.02325795769352341
1154.0, 0.024501209395766353
1155.0, 0.02357721382630062
1156.0, 0.021548849405065167
1157.0, 0.021245898554346998
1158.0, 0.02261966695523485
1159.0, 0.022694068259427054
1160.0, 0.021627349033623972
1161.0, 0.02130872533115739
1162.0, 0.019861857860462694
1163.0, 0.02039474204104261
1164.0, 0.019630476711138482
1165.0, 0.02324001624372976
1166.0, 0.02540456650458872
1167.0, 0.023237287148779005
1168.0, 0.021361491872682627
1169.0, 0.021098480260663972
1170.0, 0.018663686687731055
1171.0, 0.014722490657550697
1172.0, 0.014273127177382371
1173.0, 0.01607052642175315
1174.0, 0.01759401498388379
1175.0, 0.01970534059766105
1176.0, 0.019137109914217375
1177.0, 0.01640974310343295
1178.0, 0.016713990242550592
1179.0, 0.013418256690239827
1180.0, 0.014789995854668576
1181.0, 0.013933650094618211
1182.0, 0.011201765447423592
1183.0, 0.013565320599297001
1184.0, 0.013947311346667018
1185.0, 0.010304642032915246
1186.0, 0.007008383642593908
1187.0, 0.009885812911137744
1188.0, 0.008466458177141709
1189.0, 0.00985251520144738
1190.0, 0.007862946237309066
1191.0, 0.007611177210070869
1192.0, 0.007484671270442341
1193.0, 0.005119499524818604
1194.0, 0.006712120997793491
1195.0, 0.008543192749558101
1196.0, 0.003982826215069524
1197.0, 0.0030490548589679426
1198.0, 0.0028257587009894777
1199.0, 0.005971738982564393
1200.0, 0.0037725594741334534
1201.0, 0.00893029998931309
1202.0, 0.008092550315229007
1203.0, 0.00142429206062054
1204.0, 0.005037086430902694
1205.0, 0.008539187504359369
1206.0, 0.007170540655274535
1207.0, 0.0010033917567978399
1208.0, 0.0011342537539556752
1209.0, 0.002329340175960351
1210.0, 0.005958500850134761
1211.0, 0.0034855037874161263
1212.0, 0.003346594810233913
1213.0, 0.0031682492433821575
1214.0, 0.004622720925940569
1215.0, 0.0037200755853486304
1216.0, 0.000995034459398113
1217.0, 0.0022274354055551856
1218.0, 0.002939228386395913
1219.0, 0.0009811362157293635
1220.0, 0.004001146645564214
1221.0, 0.0031710991461195892
1222.0, 0.003402800934863553
1223.0, 0.0008251044776529038
1224.0, 0.0013979588843972127
1225.0, 0.003179751672691653
1226.0, 0.0026939594070185956
1227.0, 0.0017512461753245057
1228.0, 0.0025899828338040135
1229.0, 0.0018053663727440204
1230.0, 0.0017518037876569983
1231.0, 0.0033766902107783734
1232.0, 0.003072893885204219
1233.0, 0.0017111908489935528
1234.0, 0.003181565853671621
1235.0, 0.0035576788381124647
1236.0, 0.004375195659668359
1237.0, 0.005134718315034775
1238.0, 0.0036965240482491122
1239.0, 0.000637228270693337
1240.0, 0.004149748664465846
1241.0, 0.00455620747212175
1242.0, 0.001809844785292363
1243.0, 0.0033425218194071365
1244.0, 0.005124223603819102
1245.0, 0.0036951825329738543
1246.0, 0.0036347408201990727
1247.0, 0.005073624536303236
1248.0, 0.0033843324304571416
1249.0, 0.001807830781400909
1250.0, 0.00231773058152153
1251.0, 0.0034175877959190843
1252.0, 0.004577593571218896
1253.0, 0.004042096996234801
1254.0, 0.003971258186174365
1255.0, 0.005371038800277339
1256.0, 0.0061130264079078634
1257.0, 0.005462887664554521
1258.0, 0.003319475352975869
1259.0, 0.0018617429380756432
1260.0, 0.003505285259276701
1261.0, 0.003694282418492423
1262.0, 0.003583188062992072
1263.0, 0.005684289617313257
1264.0, 0.0019266462413728641
1265.0, 0.0018629158860085102
1266.0, 0.004438014730349249
1267.0, 0.0012392033175127057
1268.0, 0.0021413235408687613
1269.0, 0.004431830889490372
1270.0, 0.0033237346673272183
1271.0, 0.002394020525909352
1272.0, 0.0025748033685784443
1273.0, 0.004213304342395549
1274.0, 0.005889490705589976
1275.0, 0.0035768100698838476
1276.0, 0.0038179001974711236
1277.0, 0.004869521958411914
1278.0, 0.004329703745047184
1279.0, 0.0008582673914831923
1280.0, 0.0009308673477084606
1281.0, 0.001669766441724764
1282.0, 0.0017450242467419766
1283.0, 0.003656123819493253
1284.0, 0.002064810125325587
1285.0, 0.00187227087730907
1286.0, 0.003876834410454737
1287.0, 0.002135532460278693
1288.0, 0.0003493596676214841
1289.0, 0.0011334807448990355
1290.0, 0.000628770031334435
1291.0, 0.00021306941052002902
1292.0, 0.00048567991894047524
1293.0, 0.003296568427005027
1294.0, 0.003370782302831296
1295.0, 0.0040469020940302565
1296.0, 0.005813297689935827
1297.0, 0.0019249870787339369
1298.0, 0.00014054268874550408
1299.0, 0.0013282355881170118
1300.0, 0.002820030349144972
1301.0, 0.0029104458820171488
1302.0, 0.0013082535622395363
1303.0, 0.0005554311066747063
1304.0, 0.0008189424844705403
1305.0, 0.0007363870909673966
1306, 0.0
1307, 0.0
1308, 0.0
1309, 0.0
1310, 0.0
1311, 0.0
1312, 0.0
1313, 0.0
1314, 0.0
1315, 0.0
1316, 0.0
1317, 0.0
1318, 0.0
1319, 0.0
1320, 0.0
1321, 0.0
1322, 0.0
1323, 0.0
1324, 0.0
1325, 0.0
1326, 0.0
1327, 0.0
1328, 0.0
1329, 0.0
1330, 0.0
1331, 0.0
1332, 0.0
1333, 0.0
1334, 0.0
1335, 0.0
1336, 0.0
1337, 0.0
1338, 0.0
1339, 0.0
1340, 0.0
1341, 0.0
1342, 0.0
1343, 0.0
1344, 0.0
1345, 0.0
1346, 0.0
1347, 0.0
1348, 0.0
1349, 0.0
1350, 0.0
1351, 0.0
1352, 0.0
1353, 0.0
1354, 0.0
1355, 0.0
1356, 0.0
1357, 0.0
1358, 0.0
1359, 0.0
1360, 0.0
1361, 0.0
1362, 0.0
1363, 0.0
1364, 0.0
1365, 0.0
1366, 0.0
1367, 0.0
1368, 0.0
1369, 0.0
1370, 0.0
1371, 0.0
1372, 0.0
1373, 0.0
1374, 0.0
1375, 0.0
1376, 0.0
1377, 0.0
1378, 0.0
1379, 0.0
1380, 0.0
1381, 0.0
1382, 0.0
1383, 0.0
1384, 0.0
1385, 0.0
1386, 0.0
1387, 0.0
1388, 0.0
1389, 0.0
1390, 0.0
1391, 0.0
1392, 0.0
1393, 0.0
1394, 0.0
1395, 0.0
1396, 0.0
1397, 0.0
1398, 0.0
1399, 0.0
1400, 0.0
1401, 0.0
1402, 0.0
1403, 0.0
1404, 0.0
1405, 0.0
1406, 0.0
1407, 0.0
1408, 0.0
1409, 0.0
1410, 0.0
1411, 0.0
1412, 0.0
1413, 0.0
1414, 0.0
1415, 0.0
1416, 0.0
1417, 0.0
1418, 0.0
1419, 0.0
1420, 0.0
1421, 0.0
1422, 0.0
1423, 0.0
1424, 0.0
1425, 0.0
1426, 0.0
1427, 0.0
1428, 0.0
1429, 0.0
1430, 0.0
1431, 0.0
1432, 0.0
1433, 0.0
1434, 0.0
1435, 0.0
1436, 0.0
1437, 0.0
1438, 0.0
1439, 0.0
1440, 0.0
1441, 0.0
1442, 0.0
1443, 0.0
1444, 0.0
1445, 0.0
1446, 0.0
1447, 0.0
1448, 0.0
1449, 0.0
1450, 0.0
1451, 0.0
1452, 0.0
1453, 0.0
1454, 0.0
1455, 0.0
1456, 0.0
1457, 0.0
1458, 0.0
1459, 0.0
1460, 0.0
1461, 0.0
1462, 0.0
1463, 0.0
1464, 0.0
1465, 0.0
1466, 0.0
1467, 0.0
1468, 0.0
1469, 0.0
1470, 0.0
1471, 0.0
1472, 0.0
1473, 0.0
1474, 0.0
1475, 0.0
1476, 0.0
1477, 0.0
1478, 0.0
1479, 0.0
1480, 0.0
1481, 0.0
1482, 0.0
1483, 0.0
1484, 0.0
1485, 0.0
1486, 0.0
1487, 0.0
1488, 0.0
1489, 0.0
1490, 0.0
1491, 0.0
1492, 0.0
1493, 0.0
1494, 0.0
1495, 0.0
1496, 0.0
1497, 0.0
1498, 0.0
1499, 0.0
1500, 0.0
1501, 0.0
1502, 0.0
1503, 0.0
1504, 0.0
1505, 0.0
1506, 0.0
1507, 0.0
1508, 0.0
1509, 0.0
1510, 0.0
1511, 0.0
1512, 0.0
1513, 0.0
1514, 0.0
1515, 0.0
1516, 0.0
1517, 0.0
1518, 0.0
1519, 0.0
1520, 0.0
1521, 0.0
1522, 0.0
1523, 0.0
1524, 0.0
1525, 0.0
1526, 0.0
1527, 0.0
1528, 0.0
1529, 0.0
1530, 0.0
1531, 0.0
1532, 0.0
1533, 0.0
1534, 0.0
1535, 0.0
1536, 0.0
1537, 0.0
1538, 0.0
1539, 0.0
1540, 0.0
1541, 0.0
1542, 0.0
1543, 0.0
1544, 0.0
1545, 0.0
1546, 0.0
1547, 0.0
1548, 0.0
1549, 0.0
1550, 0.0
1551, 0.0
1552, 0.0
1553, 0.0
1554, 0.0
1555, 0.0
1556, 0.0
1557, 0.0
1558, 0.0
1559, 0.0
1560, 0.0
1561, 0.0
1562, 0.0
1563, 0.0
1564, 0.0
1565, 0.0
1566, 0.0
1567, 0.0
1568, 0.0
1569, 0.0
1570, 0.0
1571, 0.0
1572, 0.0
1573, 0.0
1574, 0.0
1575, 0.0
1576, 0.0
1577, 0.0
1578, 0.0
1579, 0.0
1580, 0.0
1581, 0.0
1582, 0.0
1583, 0.0
1584, 0.0
1585, 0.0
1586, 0.0
1587, 0.0
1588, 0.0
1589, 0.0
1590, 0.0
1591, 0.0
1592, 0.0
1593, 0.0
1594, 0.0
1595, 0.0
1596, 0.0
1597, 0.0
1598, 0.0
1599, 0.0
