30, 0.0
31, 0.0
32, 0.0
33, 0.0
34, 0.0
35, 0.0
36, 0.0
37, 0.0
38, 0.0
39, 0.0
40, 0.0
41, 0.0
42, 0.0
43, 0.0
44, 0.0
45, 0.0
46, 0.0
47, 0.0
48, 0.0
49, 0.0
50, 0.0
51, 0.0
52, 0.0
53, 0.0
54, 0.0
55, 0.0
56, 0.0
57, 0.0
58, 0.0
59, 0.0
60, 0.0
61, 0.0
62, 0.0
63, 0.0
64, 0.0
65, 0.0
66, 0.0
67, 0.0
68, 0.0
69, 0.0
70, 0.0
71, 0.0
72, 0.0
73, 0.0
74, 0.0
75, 0.0
76, 0.0
77, 0.0
78, 0.0
79, 0.0
80, 0.0
81, 0.0
82, 0.0
83, 0.0
84, 0.0
85, 0.0
86, 0.0
87, 0.0
88, 0.0
89, 0.0
90, 0.0
91, 0.0
92, 0.0
93, 0.0
94, 0.0
95, 0.0
96, 0.0
97, 0.0
98, 0.0
99, 0.0
100, 0.0
101, 0.0
102, 0.0
103, 0.0
104, 0.0
105, 0.0
106, 0.0
107, 0.0
108, 0.0
109, 0.0
110, 0.0
111, 0.0
112, 0.0
113, 0.0
114, 0.0
115, 0.0
116, 0.0
117, 0.0
118, 0.0
119, 0.0
120, 0.0
121, 0.0
122, 0.0
123, 0.0
124, 0.0
125, 0.0
126, 0.0
127, 0.0
128, 0.0
129, 0.0
130, 0.0
131, 0.0
132, 0.0
133, 0.0
134, 0.0
135, 0.0
136, 0.0
137, 0.0
138, 0.0
139, 0.0
140, 0.0
141, 0.0
142, 0.0
143, 0.0
144, 0.0
145, 0.0
146, 0.0
147, 0.0
148, 0.0
149, 0.0
150, 0.0
151, 0.0
152, 0.0
153, 0.0
154, 0.0
155, 0.0
156, 0.0
157, 0.0
158, 0.0
159, 0.0
160, 0.0
161, 0.0
162, 0.0
163, 0.0
164, 0.0
165, 0.0
166, 0.0
167, 0.0
168, 0.0
169, 0.0
170, 0.0
171, 0.0
172, 0.0
173, 0.0
174, 0.0
175, 0.0
176, 0.0
177, 0.0
178, 0.0
179, 0.0
180, 0.0
181, 0.0
182, 0.0
183.0, 0.003221327217327433
184.0, 0.0012715950435794386
185.0, 0.0023206546233855976
186.0, 0.01553255168276447
187.0, 0.03526192521760506
188.0, 0.024034921025412954
189.0, 0.025058921312839988
190.0, 0.039687705377994084
191.0, 0.046614260818749545
192.0, 0.047213889607848836
193.0, 0.05317986054791061
194.0, 0.0540378563417303
195.0, 0.04899336788654245
196.0, 0.05375604407288452
197.0, 0.06864922194933128
198.0, 0.08628606980485223
199.0, 0.0955103213828657
200.0, 0.09466610457527169
201.0, 0.09612093386015645
202.0, 0.09145932639149267
203.0, 0.08275631448241591
204.0, 0.07382274239714091
205.0, 0.06658802492862807
206.0, 0.05017786426915384
207.0, 0.038251455948989765
208.0, 0.030021768837665747
209.0, 0.01733357550381556
210.0, 0.0028887052023438774
211.0, 0.002246471053238642
212.0, 0.005453321890587595
213.0, 0.007897810154212852
214.0, 0.0025937699803278216
215.0, 0.003017053039941998
216.0, 0.003834841384107616
217.0, 0.001317807821729668
218.0, 0.008982063260665835
219.0, 0.00533637368790495
220.0, 0.01208371600438884
221.0, 0.017472138524110278
222.0, 0.020282422108064902
223.0, 0.023355095334714426
224.0, 0.014870010691064027
225.0, 0.007309566048767699
226.0, 0.0021790151418167613
227.0, 0.0007768584886654478
228.0, 0.003920251481642453
229.0, 0.007739963520617425
230.0, 0.006589665800714316
231.0, 0.0003714597651894688
232.0, 0.001124162155006876
233.0, 0.0029044824123986178
234.0, 0.013152309965373837
235.0, 0.02227753178106386
236.0, 0.022975436530033352
237.0, 0.02788214247441815
238.0, 0.03354093226560139
239.0, 0.04690926958735956
240.0, 0.05564924581591746
241.0, 0.058886618274811744
242.0, 0.06753066932945352
243.0, 0.0711904406826481
244.0, 0.07076609220426112
245.0, 0.07451316679954098
246.0, 0.08138003172573213
247.0, 0.06926954257887423
248.0, 0.06737956448521003
249.0, 0.07470223222257025
250.0, 0.09089779095252172
251.0, 0.11364047947764079
252.0, 0.12965698443421658
253.0, 0.14309888531650158
254.0, 0.1651585716261527
255.0, 0.18906110672858875
256.0, 0.20332446610394603
257.0, 0.22389224198264368
258.0, 0.2506136622228234
259.0, 0.26445788225835415
260.0, 0.27684544899119695
261.0, 0.312673835259558
262.0, 0.31443917116784137
263.0, 0.31748684587594883
264.0, 0.32319915805518384
265.0, 0.32295710662176985
266.0, 0.31917124653894774
267.0, 0.3057079422945451
268.0, 0.28654605171750847
269.0, 0.26213164199334743
270.0, 0.23417230522438226
271.0, 0.2303968534200265
272.0, 0.2196329142197911
273.0, 0.20416328893299412
274.0, 0.19096684343443823
275.0, 0.18696049052926117
276.0, 0.1890264486656426
277.0, 0.19361337022961245
278.0, 0.2033274503315997
279.0, 0.21853891234545872
280.0, 0.2320600267127567
281.0, 0.23176390538648137
282.0, 0.24293608955730747
283.0, 0.2639164093669088
284.0, 0.287765007656222
285.0, 0.3149843872572178
286.0, 0.3333467031453749
287.0, 0.36372947691860974
288.0, 0.40365473927535417
289.0, 0.4455506159148371
290.0, 0.49125696156653115
291.0, 0.5424088777547497
292.0, 0.6084337361372635
293.0, 0.6869044261986805
294.0, 0.7675552848300982
295.0, 0.8401938166988746
296.0, 0.9124763056183648
297.0, 0.9610678912350863
298.0, 0.9841292568469316
299.0, 0.9753615420853149
300.0, 0.9031881939488922
301.0, 0.8082636349872518
302.0, 0.7013334262795958
303.0, 0.5957295516419114
304.0, 0.5069759676979558
305.0, 0.4424869058056874
306.0, 0.3933809432858232
307.0, 0.3450775624413753
308.0, 0.3013004189454475
309.0, 0.26838966444305845
310.0, 0.22291790021294755
311.0, 0.2016324561911859
312.0, 0.18259121893225896
313.0, 0.15977789706950166
314.0, 0.14667248871084046
315.0, 0.13881548678731526
316.0, 0.12750884427898526
317.0, 0.1282369394620784
318.0, 0.13493076881858648
319.0, 0.13110355755585096
320.0, 0.14874624836708222
321.0, 0.16076710025275306
322.0, 0.17216727236267998
323.0, 0.18448367723703313
324.0, 0.1917619630027805
325.0, 0.2097896047367577
326.0, 0.21263134328557073
327.0, 0.21856644678492868
328.0, 0.22759754265275503
329.0, 0.21976372465959165
330.0, 0.20471785834178546
331.0, 0.18372571908736668
332.0, 0.15906910912419472
333.0, 0.13309627912733532
334.0, 0.10890898440257706
335.0, 0.09073150237340565
336.0, 0.06956232041824818
337.0, 0.04817269419030808
338.0, 0.030772923241956976
339.0, 0.017780286935011214
340.0, 0.006949156415071428
341.0, 0.006804448043067407
342.0, 0.010362153531635469
343.0, 0.01861833681192718
344.0, 0.03238301545733482
345.0, 0.03649963814370594
346.0, 0.03893344272055674
347.0, 0.057742719662576235
348.0, 0.08297172135151042
349.0, 0.0999832318160945
350.0, 0.1218156037393578
351.0, 0.13955447769022492
352.0, 0.16446871732820953
353.0, 0.18541717505870042
354.0, 0.19087077020032683
355.0, 0.1970464551727113
356.0, 0.18260977575028592
357.0, 0.16419992965112418
358.0, 0.14253728530672377
359.0, 0.11685153985611661
360.0, 0.09836019914914094
361.0, 0.06914636930176406
362.0, 0.04092060213447764
363.0, 0.02282309804434979
364.0, 0.011861364133604054
365.0, 0.010642670085587454
366.0, 0.00950335738823888
367.0, 0.008650563543966603
368.0, 0.010964653843864039
369.0, 0.011643788641236517
370.0, 0.006755598978219327
371.0, 0.002494478381891589
372.0, 0.002756900661636763
373.0, 0.0053202236840241245
374.0, 0.01125181719312048
375.0, 0.010009293610077519
376.0, 0.017006047403611703
377.0, 0.017272194554683106
378.0, 0.017784606749593822
379.0, 0.016492872659225603
380.0, 0.005304101136745221
381.0, 0.0017933685676600182
382.0, 0.008597014811921471
383.0, 0.007644782339191285
384.0, 0.0022381780134621697
385.0, 0.004016868616786353
386.0, 0.0028163449366489755
387.0, 0.002673687034897322
388.0, 0.005118999904961254
389.0, 0.0027724567934592293
390.0, 0.009316101595908507
391.0, 0.03986325389957699
392.0, 0.06115779708394782
393.0, 0.07575116547817459
394.0, 0.07975268060302974
395.0, 0.08531550880506994
396.0, 0.10785687672536369
397.0, 0.1106102112882433
398.0, 0.1271050253240696
399.0, 0.1429064201387397
400.0, 0.15581312471136582
401.0, 0.17892646306427304
402.0, 0.2045312667505028
403.0, 0.22665855849234184
404.0, 0.2513115178847416
405.0, 0.2758835831818235
406.0, 0.2998500418690881
407.0, 0.3278723832026352
408.0, 0.34735391723157016
409.0, 0.36136459640948193
410.0, 0.378923599905191
411.0, 0.41001953445706407
412.0, 0.45801786602123584
413.0, 0.5064759139162459
414.0, 0.5556765711351671
415.0, 0.5967297918965624
416.0, 0.6363914082981413
417.0, 0.6731579289874325
418.0, 0.6791739973088531
419.0, 0.6658177021088948
420.0, 0.6199567507566174
421.0, 0.5520265215826413
422.0, 0.4714871920481307
423.0, 0.38777287624960566
424.0, 0.3305536098047696
425.0, 0.2752787183184368
426.0, 0.22702596775342407
427.0, 0.19044610842045503
428.0, 0.16113058005708433
429.0, 0.13274722682111695
430.0, 0.11618305229052997
431.0, 0.09567054255798199
432.0, 0.08145584757486467
433.0, 0.07793271730471685
434.0, 0.06952748174323585
435.0, 0.062485056087096036
436.0, 0.05851522955280255
437.0, 0.055347595977126275
438.0, 0.058044022338366655
439.0, 0.06667136819095755
440.0, 0.06295406916162737
441.0, 0.07371270604246853
442.0, 0.08158566262740963
443.0, 0.08757556069433915
444.0, 0.10293256487009507
445.0, 0.12973068087035747
446.0, 0.1474088386211674
447.0, 0.1645041284623436
448.0, 0.18762831909339303
449.0, 0.21370872207250294
450.0, 0.2371877020000441
451.0, 0.2573795046607814
452.0, 0.26810791143821605
453.0, 0.27298932424527517
454.0, 0.26813083268320154
455.0, 0.24968729463425357
456.0, 0.22113475000392027
457.0, 0.2038583497817314
458.0, 0.1774003068957475
459.0, 0.14377242767952508
460.0, 0.11230298980709648
461.0, 0.09253858595297214
462.0, 0.08564315956992416
463.0, 0.06506933413290965
464.0, 0.05647048845684542
465.0, 0.04538153318600854
466.0, 0.037988210668232165
467.0, 0.046857748771034026
468.0, 0.033852611217040016
469.0, 0.022021190228391555
470.0, 0.020626297297841892
471.0, 0.02384272667750077
472.0, 0.022114574385109016
473.0, 0.009566632152758608
474.0, 0.0008337525175469702
475.0, 0.004839628188382598
476.0, 0.0036254615586998203
477.0, 0.00733871708357771
478.0, 0.013852374474202643
479.0, 0.0027835541138536224
480.0, 0.0029898424498991574
481.0, 0.0029476866736340163
482.0, 0.005158038440700501
483.0, 0.0020080234419455685
484.0, 0.0023553109248311828
485.0, 0.00427316047283561
486.0, 0.022288806648385014
487.0, 0.0359301163806744
488.0, 0.042273173777012535
489.0, 0.04893605578896754
490.0, 0.05989665125640484
491.0, 0.06610480153676176
492.0, 0.07144625499648566
493.0, 0.06855113219333861
494.0, 0.06519759321186043
495.0, 0.06398354844693349
496.0, 0.05643601896713675
497.0, 0.05529006499155432
498.0, 0.0361310023398976
499.0, 0.027866484598210863
500.0, 0.0284290948146822
501.0, 0.022863284594820947
502.0, 0.015576783891000087
503.0, 0.0019777071750620417
504.0, 0.007393776881088825
505.0, 0.011290818766535878
506.0, 0.00546197864769706
507.0, 0.0004438494096613625
508.0, 0.0033206060965343814
509.0, 0.018596113270143242
510.0, 0.015087885375665923
511.0, 0.015550080507719692
512.0, 0.025899750002475633
513.0, 0.03069329449150102
514.0, 0.030659774615928972
515.0, 0.03182852083440667
516.0, 0.042958521207153114
517.0, 0.05206398620168282
518.0, 0.058273230119848154
519.0, 0.06712697810634241
520.0, 0.07107592871530583
521.0, 0.07590235062066585
522.0, 0.08905935391091355
523.0, 0.10114336959139651
524.0, 0.11473769310748375
525.0, 0.13862521292535795
526.0, 0.16278991770011036
527.0, 0.19143213432513556
528.0, 0.2215299150245379
529.0, 0.2568311170433714
530.0, 0.29340021112904363
531.0, 0.329286484763594
532.0, 0.3799597045797735
533.0, 0.43460985294605076
534.0, 0.48749928476888343
535.0, 0.5280414020393782
536.0, 0.5523222777779911
537.0, 0.5588084412094381
538.0, 0.5339852031102297
539.0, 0.4961426733780812
540.0, 0.4381808194243404
541.0, 0.3791075531097618
542.0, 0.3231296528379641
543.0, 0.26523673835474876
544.0, 0.22175027260613167
545.0, 0.19532967653422276
546.0, 0.1789010587417513
547.0, 0.14807322449637034
548.0, 0.11461669902913697
549.0, 0.0993800348207841
550.0, 0.07834683414283324
551.0, 0.0752844877541075
552.0, 0.06707363438207394
553.0, 0.05983709378218177
554.0, 0.05541353498545045
555.0, 0.048211926814403255
556.0, 0.041388303619076285
557.0, 0.043915965824584194
558.0, 0.03762942253680395
559.0, 0.03301522533908592
560.0, 0.03345835466511297
561.0, 0.03207476910030075
562.0, 0.02927424586502329
563.0, 0.028016626497029778
564.0, 0.035501552306566285
565.0, 0.0258520058685446
566.0, 0.011184303062178356
567.0, 0.009068452626133346
568.0, 0.016395545518640774
569.0, 0.01035101448124325
570.0, 0.009355397000215555
571.0, 0.00515317043515914
572.0, 0.0027376345132432054
573.0, 0.002373800020835568
574.0, 0.008584169568822296
575.0, 0.007999585138419687
576.0, 0.001087689599399559
577.0, 0.001054996038909466
578.0, 0.0015380116706902283
579.0, 0.0004537892966130024
580.0, 0.007523937843892897
581.0, 0.008177826028519337
582.0, 0.014726000505765181
583.0, 0.026073876213605393
584.0, 0.020691470888953803
585.0, 0.018471921226731025
586.0, 0.026466331963960157
587.0, 0.027365634297248188
588.0, 0.03697371116347305
589.0, 0.04980267788080277
590.0, 0.04819853368900456
591.0, 0.051527770708138326
592.0, 0.06002242426542563
593.0, 0.06498162054288187
594.0, 0.08364201480159707
595.0, 0.10165062842229139
596.0, 0.11045032276002739
597.0, 0.11939275571222015
598.0, 0.1364415882194466
599.0, 0.15914010878916285
600.0, 0.17771856701418656
601.0, 0.18604597800837336
602.0, 0.17762390370624032
603.0, 0.16933712116378535
604.0, 0.15993790312208933
605.0, 0.1476765842483745
606.0, 0.134721299052901
607.0, 0.11660551070715112
608.0, 0.10213194374362716
609.0, 0.08947585451763007
610.0, 0.07454532458083775
611.0, 0.07278143102112207
612.0, 0.07939764260890865
613.0, 0.061539585686434715
614.0, 0.04913380374125013
615.0, 0.035948679024554925
616.0, 0.030282860052511715
617.0, 0.034772389058250266
618.0, 0.039760132615181944
619.0, 0.0379012200306681
620.0, 0.03376417403051771
621.0, 0.022148870207239133
622.0, 0.02627902230217251
623.0, 0.027600870339671367
624.0, 0.026989535648837288
625.0, 0.027629246898581164
626.0, 0.02146885232327874
627.0, 0.018553977914950805
628.0, 0.029552592580627063
629.0, 0.013570786545591655
630.0, 0.016058797580354577
631.0, 0.025065647177084815
632.0, 0.013317399852677252
633.0, 0.00036997934282550484
634.0, 0.010369664636001221
635.0, 0.016498197864861255
636.0, 0.016133563184351826
637.0, 0.012459186147024874
638.0, 0.012398392798820069
639.0, 0.016575265796139375
640.0, 0.016490918586246364
641.0, 0.0093180777270971
642.0, 0.004432592068010019
643.0, 0.003286417101365682
644.0, 0.012093566499890936
645.0, 0.01241369254934213
646.0, 0.0014432251113816361
647.0, 0.0040300079316129365
648.0, 0.0007597838261621052
649.0, 0.0033328972741438084
650.0, 0.0007411285301110814
651.0, 0.0033654555708770404
652.0, 0.003643309379523952
653.0, 0.015907615703345722
654.0, 0.010997817058517826
655.0, 0.015909360018123805
656.0, 0.017428799193361915
657.0, 0.014741726438784618
658.0, 0.011371432146687309
659.0, 0.01180510676359777
660.0, 0.01787152094516824
661.0, 0.021478789275354418
662.0, 0.0055711032785714775
663.0, 0.007453198210525147
664.0, 0.005108533400375819
665.0, 0.0022351809524242764
666.0, 0.0021637170149947553
667.0, 0.0017598288109275271
668.0, 0.0032268376805265854
669.0, 0.005773035151091793
670.0, 0.006749050523360016
671.0, 0.003876315321253619
672.0, 0.005648288195032812
673.0, 0.013799038824813765
674.0, 0.019848102979730952
675.0, 0.009109611954699321
676.0, 0.014441741808800366
677.0, 0.016044717450061096
678.0, 0.014352830387538868
679.0, 0.014824339094019146
680.0, 0.016005599064709674
681.0, 0.01272292441477392
682.0, 0.005740156321424596
683.0, 0.005874654953129604
684.0, 0.002722472906175076
685.0, 0.002346116743082472
686.0, 0.0058762173054931165
687.0, 0.007170488733120083
688.0, 0.003967874227934076
689.0, 0.000967826590730033
690.0, 0.009357716411539948
691.0, 0.006976669494119038
692.0, 0.00732321492285906
693.0, 0.0053685474731724565
694.0, 0.0053335004938821
695.0, 0.013730456914728859
696.0, 0.01980040374484046
697.0, 0.03425020688523475
698.0, 0.02970000489593309
699.0, 0.023077678824802817
700.0, 0.014664966262055051
701.0, 0.014998492559008302
702.0, 0.02280693623272194
703.0, 0.019518739312753493
704.0, 0.022547061430792013
705.0, 0.020531910376375834
706.0, 0.01031762481102636
707.0, 0.008515392160599775
708.0, 0.008026651609188494
709.0, 0.0048927632604640146
710.0, 0.004015564683794534
711.0, 0.00308193823947734
712.0, 0.000683236084315232
713.0, 0.006965827815450026
714.0, 0.0050284488473952135
715.0, 0.010405813800435485
716.0, 0.020795892831820602
717.0, 0.022179925083753244
718.0, 0.015210706845679565
719.0, 0.010127965966172839
720.0, 0.024117244878744507
721.0, 0.02258756462392424
722.0, 0.020915680506104595
723.0, 0.020990842315822898
724.0, 0.01816478805277679
725.0, 0.015764381808917764
726.0, 0.007431883387069857
727.0, 0.008154763256865162
728.0, 0.006542302307654773
729.0, 0.019379270868415743
730.0, 0.015839271411533247
731.0, 0.008379133648173593
732.0, 0.01012714387211474
733.0, 0.006620866196099386
734.0, 0.014502965016430683
735.0, 0.020791293478826384
736.0, 0.020940876159939063
737.0, 0.025697399497240238
738.0, 0.025446279089256472
739.0, 0.02048738032063747
740.0, 0.023338934611561914
741.0, 0.030441233882642544
742.0, 0.02247206904883747
743.0, 0.02802351922004917
744.0, 0.02958955555398965
745.0, 0.020954924831356202
746.0, 0.019397851456877474
747.0, 0.02753188648414915
748.0, 0.027837372135642576
749.0, 0.022247216533384212
750.0, 0.02733059507225547
751.0, 0.017975413885026763
752.0, 0.022944477193122273
753.0, 0.021924794262869505
754.0, 0.019215250139713543
755.0, 0.02024933411303805
756.0, 0.016882019313748657
757.0, 0.014642542746850298
758.0, 0.009941984299379541
759.0, 0.005166259312305747
760.0, 0.0018457272485912452
761.0, 0.002216906442345196
762.0, 0.0035635527842735135
763.0, 0.011628516696732408
764.0, 0.009447985593676966
765.0, 0.0071313087411526
766.0, 0.00913654224346973
767.0, 0.005074359661837473
768.0, 0.015887581087316967
769.0, 0.01502831020838351
770.0, 0.020830016416736492
771.0, 0.03007843054947293
772.0, 0.01642530371142264
773.0, 0.019420295124721595
774.0, 0.017282564497164914
775.0, 0.010863984536891497
776.0, 0.01356053538019513
777.0, 0.01078090369804016
778.0, 0.002949121470755092
779.0, 0.002772382508423251
780.0, 0.0017201674725036995
781.0, 0.005480288067490275
782.0, 0.010540212813341197
783.0, 0.0008890798850856368
784.0, 0.006746947760897586
785.0, 0.011125414898506925
786.0, 0.008451562278757875
787.0, 0.010596834674000558
788.0, 0.02533119893910467
789.0, 0.03480818070624567
790.0, 0.03239281785984738
791.0, 0.026658299195154465
792.0, 0.028145861817859073
793.0, 0.019315532962378448
794.0, 0.01776229900307179
795.0, 0.021623454292505093
796.0, 0.01686383024609073
797.0, 0.009192188942377465
798.0, 0.01731564989885418
799.0, 0.003657162419473596
800.0, 0.003997734609777928
801.0, 0.015739966872577206
802.0, 0.01806483734955299
803.0, 0.01805199214271641
804.0, 0.01873894284373806
805.0, 0.01727611201907708
806.0, 0.018379859822654956
807.0, 0.018181335923814494
808.0, 0.02831859514073374
809.0, 0.022932959649054476
810.0, 0.02140670044498803
811.0, 0.02980965885227156
812.0, 0.03903643271395172
813.0, 0.04113621304763811
814.0, 0.039332045101758764
815.0, 0.04461301970849626
816.0, 0.04532488327059399
817.0, 0.04042313231633902
818.0, 0.04066654673500214
819.0, 0.0639491626454928
820.0, 0.06448494778592466
821.0, 0.051217228755477844
822.0, 0.05240242852382976
823.0, 0.05488572597418143
824.0, 0.06719482173004787
825.0, 0.07801267286339882
826.0, 0.07591988410672106
827.0, 0.06829119684721853
828.0, 0.0614004597781606
829.0, 0.05177455703126287
830.0, 0.041530825512145354
831.0, 0.03485702145322959
832.0, 0.029067490326251142
833.0, 0.02967565546519026
834.0, 0.02794561889101799
835.0, 0.03270889478681018
836.0, 0.027480059393853933
837.0, 0.018999221215604992
838.0, 0.0168534473656448
839.0, 0.019017150044708296
840.0, 0.013415926112902063
841.0, 0.002411588210972616
842.0, 0.00428856453737445
843.0, 0.013213626338239044
844.0, 0.015809609789681687
845.0, 0.008614490890334229
846.0, 0.014908712678978035
847.0, 0.01764695270289959
848.0, 0.012671653057066998
849.0, 0.015133066509787971
850.0, 0.016001298103072648
851.0, 0.0039440237228538875
852.0, 0.017408160166542862
853.0, 0.012453439271197254
854.0, 0.012690084911358302
855.0, 0.006903945428033211
856.0, 0.009591034079444087
857.0, 0.010297488537424892
858.0, 0.00353282342554298
859.0, 0.010465393252100158
860.0, 0.014525871019255128
861.0, 0.006316365403599989
862.0, 0.001329079029659112
863.0, 0.0056609588652656
864.0, 0.006762599172118585
865.0, 0.002798450669820482
866.0, 0.0004543128068832157
867.0, 0.0015258674028167537
868.0, 0.0028781754783640872
869.0, 0.007237877708199493
870.0, 0.006080655818818481
871.0, 0.0068512142496899445
872.0, 0.001053967219921894
873.0, 0.007280583543592959
874.0, 0.009452540041262624
875.0, 0.008762036025944941
876.0, 0.003798116756454979
877.0, 0.005768169260625016
878.0, 0.007213397897563759
879.0, 0.0061575260839614385
880.0, 0.007219668030463045
881.0, 0.012410264503872075
882.0, 0.009981403450420832
883.0, 0.012249541699135526
884.0, 0.013167678089153692
885.0, 0.006421001682633827
886.0, 0.003379895071724976
887.0, 0.0024607610267131184
888.0, 0.00524558709927446
889.0, 0.00767428526727963
890.0, 0.016153838008386642
891.0, 0.023628055367751574
892.0, 0.017105101934512694
893.0, 0.024596781325845963
894.0, 0.01501547369059154
895.0, 0.014552446587226396
896.0, 0.018743791243390106
897.0, 0.009039141694077024
898.0, 0.011432542506673672
899.0, 0.003349628983545377
900.0, 0.004750478421029655
901.0, 0.006409115136581863
902.0, 0.01495132949362717
903.0, 0.012891271476201562
904.0, 0.019847108488616785
905.0, 0.02233658388950156
906.0, 0.017672482554409265
907.0, 0.022379922892419392
908.0, 0.02716193970211286
909.0, 0.031110570180330182
910.0, 0.01597453884035106
911.0, 0.029918937845976143
912.0, 0.029201103617411458
913.0, 0.03764661399525465
914.0, 0.03924800302453541
915.0, 0.02998862628913276
916.0, 0.029403668380307623
917.0, 0.035591704982620036
918.0, 0.035588611047776844
919.0, 0.0385577106790911
920.0, 0.029400237612940076
921.0, 0.03816146813854884
922.0, 0.04436289242422587
923.0, 0.04862263053090334
924.0, 0.05467465097246538
925.0, 0.059010519175723385
926.0, 0.06008891032465824
927.0, 0.07038082478620346
928.0, 0.08796112666312761
929.0, 0.09182868802297363
930.0, 0.09858549813083493
931.0, 0.11490080779599265
932.0, 0.1207937331763553
933.0, 0.15026071748848568
934.0, 0.1571418111892955
935.0, 0.17010684209830057
936.0, 0.17227380662111969
937.0, 0.1788829013087909
938.0, 0.2027088374037088
939.0, 0.22196102116591093
940.0, 0.24893448105579488
941.0, 0.2760035902898775
942.0, 0.32141383104437626
943.0, 0.35383605120346595
944.0, 0.4117232156369448
945.0, 0.46577747447076434
946.0, 0.5230550027528832
947.0, 0.5888515459548588
948.0, 0.665479514530944
949.0, 0.7494302863049447
950.0, 0.8328025420647923
951.0, 0.9159618435526368
952.0, 0.9672917747171816
953.0, 0.9928747550493892
954.0, 0.9968416712520538
955.0, 0.9613310049034036
956.0, 0.876683636777478
957.0, 0.781651206355759
958.0, 0.662777528510661
959.0, 0.5614017932301529
960.0, 0.49608859443878284
961.0, 0.4279437427299005
962.0, 0.3578767863923074
963.0, 0.32228977183170754
964.0, 0.2814536349940538
965.0, 0.2295122738130309
966.0, 0.21259853391322833
967.0, 0.19401693212646562
968.0, 0.1773047056821481
969.0, 0.1674014624971229
970.0, 0.1533302376641042
971.0, 0.14538016163978237
972.0, 0.1422927547535979
973.0, 0.13729869237928496
974.0, 0.1458586771815175
975.0, 0.13872324363937846
976.0, 0.1719639309700816
977.0, 0.1730521238855772
978.0, 0.17020532219330067
979.0, 0.1966497946118756
980.0, 0.2156293173271255
981.0, 0.23059625225175134
982.0, 0.2572576360450706
983.0, 0.284100347498614
984.0, 0.3069998548050115
985.0, 0.32887657849944185
986.0, 0.33862276875908215
987.0, 0.36471218873469025
988.0, 0.34373190877751686
989.0, 0.327061165103047
990.0, 0.2989116895235043
991.0, 0.2723719274935072
992.0, 0.22480173170155923
993.0, 0.18764401106027626
994.0, 0.1599120898105612
995.0, 0.1342279308261667
996.0, 0.12339521464000931
997.0, 0.11126781728740438
998.0, 0.08650969488199872
999.0, 0.08858450573028168
1000.0, 0.07648932168892209
1001.0, 0.06902342218480222
1002.0, 0.07159988151701097
1003.0, 0.06576123254182538
1004.0, 0.05685970264030434
1005.0, 0.042890450404802716
1006.0, 0.03361593636503606
1007.0, 0.028859119274616
1008.0, 0.02692501208323156
1009.0, 0.03050324594480141
1010.0, 0.030463870720916955
1011.0, 0.018921966879901473
1012.0, 0.010047952069711635
1013.0, 0.0271855513951565
1014.0, 0.020981993021996357
1015.0, 0.03325495624986322
1016.0, 0.024812350624284652
1017.0, 0.024545049044135618
1018.0, 0.01303224548620208
1019.0, 0.005849177282370624
1020.0, 0.0018591486764590567
1021.0, 0.0037064167972534795
1022.0, 0.00392893420053776
1023.0, 0.008783787072073451
1024.0, 0.0009434199763086377
1025.0, 3.5068184780292504e-05
1026.0, 0.0010892679691183616
1027.0, 0.0055398229074989
1028.0, 0.002788762533656041
1029.0, 0.005943825448984525
1030.0, 0.006318920724677229
1031.0, 0.00360001483418816
1032.0, 0.0033323685169008347
1033.0, 0.006083375849271992
1034.0, 0.005392835992376945
1035.0, 0.006121974046033088
1036.0, 0.011615725740824
1037.0, 0.0023731719462396616
1038.0, 0.0018722038304921623
1039.0, 0.0020573092765965584
1040.0, 0.007836310156152269
1041.0, 0.0040671370778391554
1042.0, 0.0013418005175476159
1043.0, 0.0007383577090832527
1044.0, 0.0061959836080213646
1045.0, 0.00967561640051499
1046.0, 0.002970263595341341
1047.0, 0.002531231093658829
1048.0, 0.003445779049925182
1049.0, 0.0015095051457569935
1050.0, 0.004458277356623705
1051.0, 0.009502348521565215
1052.0, 0.01691022325195716
1053.0, 0.011839111623047571
1054.0, 0.013290365902324812
1055.0, 0.021922516411625806
1056.0, 0.03471339732477225
1057.0, 0.03136141970025154
1058.0, 0.04193105539345368
1059.0, 0.041843729707889
1060.0, 0.047381896209596555
1061.0, 0.05024157135408131
1062.0, 0.048447406568020705
1063.0, 0.05158751228129831
1064.0, 0.04719098690303219
1065.0, 0.04945894779668491
1066.0, 0.07649890090907518
1067.0, 0.08080230717036613
1068.0, 0.09552244870705996
1069.0, 0.12288722198148935
1070.0, 0.12906910069707528
1071.0, 0.15237176455847218
1072.0, 0.18669924252770048
1073.0, 0.19690087188861938
1074.0, 0.2061010558413359
1075.0, 0.2272181793352147
1076.0, 0.24666943450333093
1077.0, 0.24778849687347315
1078.0, 0.240028632656297
1079.0, 0.2315107134322758
1080.0, 0.21674700813508282
1081.0, 0.19663124578506702
1082.0, 0.1746457976869988
1083.0, 0.16540414139079787
1084.0, 0.1398040643438857
1085.0, 0.11347448361301331
1086.0, 0.10569716293874777
1087.0, 0.08942764161606945
1088.0, 0.08470019070579243
1089.0, 0.08776066439867371
1090.0, 0.07479817637313833
1091.0, 0.07001700740143117
1092.0, 0.06701524056857737
1093.0, 0.06153084487915065
1094.0, 0.06460015182235715
1095.0, 0.07159545767580824
1096.0, 0.07301199142703695
1097.0, 0.06986518518966237
1098.0, 0.0510124454949405
1099.0, 0.044629683084565816
1100.0, 0.035483119901835086
1101.0, 0.029712332260153143
1102.0, 0.04415247692737009
1103.0, 0.041709235106025706
1104.0, 0.01655938856329338
1105.0, 0.018001020954067824
1106.0, 0.023494153108122258
1107.0, 0.020080618991185142
1108.0, 0.015389687116639841
1109.0, 0.023375017198626363
1110.0, 0.024368782535079347
1111.0, 0.014206732152881315
1112.0, 0.014836651122642961
1113.0, 0.01961306947237587
1114.0, 0.020189969301220016
1115.0, 0.032848535233896636
1116.0, 0.032723629506917234
1117.0, 0.025864478885647888
1118.0, 0.022262355409949516
1119.0, 0.018381845925768827
1120.0, 0.028602807193207035
1121.0, 0.023622565404010733
1122.0, 0.017281700872035056
1123.0, 0.02328116696585082
1124.0, 0.025474358278966686
1125.0, 0.024369333990228757
1126.0, 0.02702096861309036
1127.0, 0.029035659844277688
1128.0, 0.03443598166078312
1129.0, 0.033669620626372285
1130.0, 0.02441574050540096
1131.0, 0.017476824513008964
1132.0, 0.01487912491116756
1133.0, 0.014590830995684891
1134.0, 0.010963172911432513
1135.0, 0.008425523648375646
1136.0, 0.016281917046703596
1137.0, 0.010253804233002203
1138.0, 0.001019173337883755
1139.0, 0.01134776050938772
1140.0, 0.025261279555831597
1141.0, 0.012978936094931701
1142.0, 0.014087627421191334
1143.0, 0.016916518970513286
1144.0, 0.007142985877571224
1145.0, 0.018241905284502362
1146.0, 0.01643315768145818
1147.0, 0.006226406480367378
1148.0, 0.007077700667969084
1149.0, 0.00855088416648324
1150.0, 0.011074322539895532
1151.0, 0.017886753215302996
1152.0, 0.016030971669503073
1153.0, 0.011191302674484413
1154.0, 0.025594546998114944
1155.0, 0.019552652929930282
1156.0, 0.018269663802686586
1157.0, 0.0208392935973848
1158.0, 0.014611235092653652
1159.0, 0.028564314088733347
1160.0, 0.02398705040280689
1161.0, 0.02976974754495388
1162.0, 0.027358777760913403
1163.0, 0.014771077401101002
1164.0, 0.02332282776836041
1165.0, 0.018655909114680767
1166.0, 0.014209269529040508
1167.0, 0.02169196522117566
1168.0, 0.02089661538540439
1169.0, 0.01723197672325841
1170.0, 0.027759730529968024
1171.0, 0.03210585297356501
1172.0, 0.03136812413749329
1173.0, 0.028103849130925625
1174.0, 0.005368897885633091
1175.0, 0.011702529203318013
1176.0, 0.005342037837802256
1177.0, 0.0087369518785572
1178.0, 0.024089291092352676
1179.0, 0.009253631962489347
1180.0, 0.004015735196014627
1181.0, 0.01273068682855861
1182.0, 0.0052519335011478535
1183.0, 0.007142672216388769
1184.0, 0.004313373926579194
1185.0, 0.00568628921737938
1186.0, 0.0015265206017607241
1187.0, 0.004322613557417356
1188.0, 0.0016349701479833859
1189.0, 0.023126720872451566
1190.0, 0.02765552137048937
1191.0, 0.012527503634260582
1192.0, 0.003917360644871356
1193.0, 0.009781194144764888
1194.0, 0.007498022444174707
1195.0, 0.010751972533320057
1196.0, 0.024328741201589413
1197.0, 0.022532391184741058
1198.0, 0.023680444893732094
1199.0, 0.028226077779832517
1200.0, 0.03858757972940791
1201.0, 0.04499617683531128
1202.0, 0.04495824971242542
1203.0, 0.02771956074831474
1204.0, 0.021646585173892174
1205.0, 0.010747013374124707
1206.0, 0.012465991837533224
1207.0, 0.009608393900617308
1208.0, 0.012847852326377859
1209.0, 0.016966533318348912
1210.0, 0.026250571536623888
1211.0, 0.018715644031891857
1212.0, 0.017455667422572672
1213.0, 0.019419246433168415
1214.0, 0.02650250386906199
1215.0, 0.033640681137967775
1216.0, 0.024132585426977167
1217.0, 0.038088371072310084
1218.0, 0.03558069820882633
1219.0, 0.03053032392402853
1220.0, 0.03416760984891704
1221.0, 0.034975296718096224
1222.0, 0.027859816012479253
1223.0, 0.021295286811540925
1224.0, 0.036440663726903334
1225.0, 0.03231329217753155
1226.0, 0.024152544265569034
1227.0, 0.02762329828394783
1228.0, 0.02558100239614703
1229.0, 0.0006440597547742297
1230.0, 0.003079520891282557
1231.0, 0.015014263186659039
1232.0, 0.008803814009185024
1233.0, 0.0078332275724277
1234.0, 0.012937637702357016
1235.0, 0.012357058819165339
1236.0, 0.014516253427932706
1237.0, 0.01700417597581542
1238.0, 0.01268609065945323
1239.0, 0.018952296913094323
1240.0, 0.021154171483243823
1241.0, 0.009949612709186418
1242.0, 0.004384753758075158
1243.0, 0.00514772235412929
1244.0, 0.012929153858715993
1245.0, 0.003569075852681414
1246.0, 0.002723416849369128
1247, 0.0
1248, 0.0
1249, 0.0
1250, 0.0
1251, 0.0
1252, 0.0
1253, 0.0
1254, 0.0
1255, 0.0
1256, 0.0
1257, 0.0
1258, 0.0
1259, 0.0
1260, 0.0
1261, 0.0
1262, 0.0
1263, 0.0
1264, 0.0
1265, 0.0
1266, 0.0
1267, 0.0
1268, 0.0
1269, 0.0
1270, 0.0
1271, 0.0
1272, 0.0
1273, 0.0
1274, 0.0
1275, 0.0
1276, 0.0
1277, 0.0
1278, 0.0
1279, 0.0
1280, 0.0
1281, 0.0
1282, 0.0
1283, 0.0
1284, 0.0
1285, 0.0
1286, 0.0
1287, 0.0
1288, 0.0
1289, 0.0
1290, 0.0
1291, 0.0
1292, 0.0
1293, 0.0
1294, 0.0
1295, 0.0
1296, 0.0
1297, 0.0
1298, 0.0
1299, 0.0
1300, 0.0
1301, 0.0
1302, 0.0
1303, 0.0
1304, 0.0
1305, 0.0
1306, 0.0
1307, 0.0
1308, 0.0
1309, 0.0
1310, 0.0
1311, 0.0
1312, 0.0
1313, 0.0
1314, 0.0
1315, 0.0
1316, 0.0
1317, 0.0
1318, 0.0
1319, 0.0
1320, 0.0
1321, 0.0
1322, 0.0
1323, 0.0
1324, 0.0
1325, 0.0
1326, 0.0
1327, 0.0
1328, 0.0
1329, 0.0
1330, 0.0
1331, 0.0
1332, 0.0
1333, 0.0
1334, 0.0
1335, 0.0
1336, 0.0
1337, 0.0
1338, 0.0
1339, 0.0
1340, 0.0
1341, 0.0
1342, 0.0
1343, 0.0
1344, 0.0
1345, 0.0
1346, 0.0
1347, 0.0
1348, 0.0
1349, 0.0
1350, 0.0
1351, 0.0
1352, 0.0
1353, 0.0
1354, 0.0
1355, 0.0
1356, 0.0
1357, 0.0
1358, 0.0
1359, 0.0
1360, 0.0
1361, 0.0
1362, 0.0
1363, 0.0
1364, 0.0
1365, 0.0
1366, 0.0
1367, 0.0
1368, 0.0
1369, 0.0
1370, 0.0
1371, 0.0
1372, 0.0
1373, 0.0
1374, 0.0
1375, 0.0
1376, 0.0
1377, 0.0
1378, 0.0
1379, 0.0
1380, 0.0
1381, 0.0
1382, 0.0
1383, 0.0
1384, 0.0
1385, 0.0
1386, 0.0
1387, 0.0
1388, 0.0
1389, 0.0
1390, 0.0
1391, 0.0
1392, 0.0
1393, 0.0
1394, 0.0
1395, 0.0
1396, 0.0
1397, 0.0
1398, 0.0
1399, 0.0
1400, 0.0
1401, 0.0
1402, 0.0
1403, 0.0
1404, 0.0
1405, 0.0
1406, 0.0
1407, 0.0
1408, 0.0
1409, 0.0
1410, 0.0
1411, 0.0
1412, 0.0
1413, 0.0
1414, 0.0
1415, 0.0
1416, 0.0
1417, 0.0
1418, 0.0
1419, 0.0
1420, 0.0
1421, 0.0
1422, 0.0
1423, 0.0
1424, 0.0
1425, 0.0
1426, 0.0
1427, 0.0
1428, 0.0
1429, 0.0
1430, 0.0
1431, 0.0
1432, 0.0
1433, 0.0
1434, 0.0
1435, 0.0
1436, 0.0
1437, 0.0
1438, 0.0
1439, 0.0
1440, 0.0
1441, 0.0
1442, 0.0
1443, 0.0
1444, 0.0
1445, 0.0
1446, 0.0
1447, 0.0
1448, 0.0
1449, 0.0
1450, 0.0
1451, 0.0
1452, 0.0
1453, 0.0
1454, 0.0
1455, 0.0
1456, 0.0
1457, 0.0
1458, 0.0
1459, 0.0
1460, 0.0
1461, 0.0
1462, 0.0
1463, 0.0
1464, 0.0
1465, 0.0
1466, 0.0
1467, 0.0
1468, 0.0
1469, 0.0
1470, 0.0
1471, 0.0
1472, 0.0
1473, 0.0
1474, 0.0
1475, 0.0
1476, 0.0
1477, 0.0
1478, 0.0
1479, 0.0
1480, 0.0
1481, 0.0
1482, 0.0
1483, 0.0
1484, 0.0
1485, 0.0
1486, 0.0
1487, 0.0
1488, 0.0
1489, 0.0
1490, 0.0
1491, 0.0
1492, 0.0
1493, 0.0
1494, 0.0
1495, 0.0
1496, 0.0
1497, 0.0
1498, 0.0
1499, 0.0
1500, 0.0
1501, 0.0
1502, 0.0
1503, 0.0
1504, 0.0
1505, 0.0
1506, 0.0
1507, 0.0
1508, 0.0
1509, 0.0
1510, 0.0
1511, 0.0
1512, 0.0
1513, 0.0
1514, 0.0
1515, 0.0
1516, 0.0
1517, 0.0
1518, 0.0
1519, 0.0
1520, 0.0
1521, 0.0
1522, 0.0
1523, 0.0
1524, 0.0
1525, 0.0
1526, 0.0
1527, 0.0
1528, 0.0
1529, 0.0
1530, 0.0
1531, 0.0
1532, 0.0
1533, 0.0
1534, 0.0
1535, 0.0
1536, 0.0
1537, 0.0
1538, 0.0
1539, 0.0
1540, 0.0
1541, 0.0
1542, 0.0
1543, 0.0
1544, 0.0
1545, 0.0
1546, 0.0
1547, 0.0
1548, 0.0
1549, 0.0
1550, 0.0
1551, 0.0
1552, 0.0
1553, 0.0
1554, 0.0
1555, 0.0
1556, 0.0
1557, 0.0
1558, 0.0
1559, 0.0
1560, 0.0
1561, 0.0
1562, 0.0
1563, 0.0
1564, 0.0
1565, 0.0
1566, 0.0
1567, 0.0
1568, 0.0
1569, 0.0
1570, 0.0
1571, 0.0
1572, 0.0
1573, 0.0
1574, 0.0
1575, 0.0
1576, 0.0
1577, 0.0
1578, 0.0
1579, 0.0
1580, 0.0
1581, 0.0
1582, 0.0
1583, 0.0
1584, 0.0
1585, 0.0
1586, 0.0
1587, 0.0
1588, 0.0
1589, 0.0
1590, 0.0
1591, 0.0
1592, 0.0
1593, 0.0
1594, 0.0
1595, 0.0
1596, 0.0
1597, 0.0
1598, 0.0
1599, 0.0
