30, 0.0
31, 0.0
32, 0.0
33, 0.0
34, 0.0
35, 0.0
36, 0.0
37, 0.0
38, 0.0
39, 0.0
40, 0.0
41, 0.0
42, 0.0
43, 0.0
44, 0.0
45, 0.0
46, 0.0
47, 0.0
48, 0.0
49, 0.0
50, 0.0
51, 0.0
52, 0.0
53, 0.0
54, 0.0
55, 0.0
56, 0.0
57, 0.0
58, 0.0
59, 0.0
60, 0.0
61, 0.0
62, 0.0
63, 0.0
64, 0.0
65, 0.0
66, 0.0
67, 0.0
68, 0.0
69, 0.0
70, 0.0
71, 0.0
72, 0.0
73, 0.0
74, 0.0
75, 0.0
76, 0.0
77, 0.0
78, 0.0
79, 0.0
80, 0.0
81, 0.0
82, 0.0
83, 0.0
84, 0.0
85, 0.0
86, 0.0
87, 0.0
88, 0.0
89, 0.0
90, 0.0
91, 0.0
92, 0.0
93, 0.0
94, 0.0
95, 0.0
96, 0.0
97, 0.0
98, 0.0
99, 0.0
100, 0.0
101, 0.0
102, 0.0
103, 0.0
104, 0.0
105, 0.0
106, 0.0
107, 0.0
108, 0.0
109, 0.0
110, 0.0
111, 0.0
112, 0.0
113, 0.0
114, 0.0
115, 0.0
116, 0.0
117, 0.0
118, 0.0
119, 0.0
120, 0.0
121, 0.0
122, 0.0
123, 0.0
124, 0.0
125, 0.0
126, 0.0
127, 0.0
128, 0.0
129, 0.0
130, 0.0
131, 0.0
132, 0.0
133, 0.0
134, 0.0
135, 0.0
136, 0.0
137, 0.0
138, 0.0
139, 0.0
140, 0.0
141, 0.0
142, 0.0
143, 0.0
144, 0.0
145, 0.0
146, 0.0
147, 0.0
148, 0.0
149, 0.0
150, 0.0
151, 0.0
152.0, 9.667572994931625e-05
153.0, 0.000977209855991256
154.0, 0.002548254725080494
155.0, 0.004195826281286346
156.0, 0.0017453916397704669
157.0, 0.0002642853408552347
158.0, 0.00021792088799346874
159.0, 0.0003635024583140988
160.0, 0.0012261571236712495
161.0, 0.002392068535567606
162.0, 0.0027573513628407335
163.0, 0.004442311943349295
164.0, 0.005118653795586675
165.0, 0.006715331970360498
166.0, 0.008975059886422674
167.0, 0.010610057612923019
168.0, 0.013224421775799104
169.0, 0.01500836490284863
170.0, 0.01763002903604101
171.0, 0.022190397652232016
172.0, 0.024927503357149487
173.0, 0.029444016401877715
174.0, 0.03320685333045459
175.0, 0.03561493716505734
176.0, 0.04056343977991957
177.0, 0.04595149049620312
178.0, 0.051999298378058015
179.0, 0.05695043582002205
180.0, 0.05772035797763744
181.0, 0.05499593380854649
182.0, 0.05088898875730189
183.0, 0.04462562529692648
184.0, 0.036635608766941156
185.0, 0.032508200076974685
186.0, 0.026395292591051802
187.0, 0.018152374352947333
188.0, 0.010793890051279832
189.0, 0.007927978295317772
190.0, 0.005513307575646953
191.0, 0.0036889312893230164
192.0, 0.0034415972826968427
193.0, 0.005084106421722311
194.0, 0.005537804497224096
195.0, 0.005854511866917853
196.0, 0.007734772561082627
197.0, 0.011231362260847344
198.0, 0.0134453715372737
199.0, 0.016768409689549343
200.0, 0.020376406780604525
201.0, 0.02357009475022966
202.0, 0.026754341483487768
203.0, 0.02850743751974022
204.0, 0.029265345313720558
205.0, 0.02985250512606034
206.0, 0.030629959197848517
207.0, 0.02970769009602605
208.0, 0.02670477209080925
209.0, 0.0229789112566421
210.0, 0.01974298435706235
211.0, 0.017315227679425463
212.0, 0.013745359057991464
213.0, 0.009858651061556874
214.0, 0.007517987831103228
215.0, 0.006980877674126979
216.0, 0.0058885172497029
217.0, 0.005216207647236451
218.0, 0.004571108453556032
219.0, 0.005154642018275822
220.0, 0.008232636937324614
221.0, 0.010090654704074262
222.0, 0.011219452742881218
223.0, 0.01265783589912837
224.0, 0.015024112936884602
225.0, 0.01887765479323542
226.0, 0.021906337922227733
227.0, 0.0232002460547322
228.0, 0.023407393737906113
229.0, 0.025028494037364613
230.0, 0.027761253131019365
231.0, 0.030444333628902472
232.0, 0.03240708721714058
233.0, 0.033732745953672566
234.0, 0.03711067600998546
235.0, 0.03821905999811948
236.0, 0.0377981043792194
237.0, 0.03884479195942544
238.0, 0.040216611667688515
239.0, 0.04139264803548487
240.0, 0.04218662088300633
241.0, 0.04386232557463485
242.0, 0.049185719612802534
243.0, 0.053592193616851296
244.0, 0.05954905255655896
245.0, 0.06696550253735777
246.0, 0.07467607868287084
247.0, 0.086034273682108
248.0, 0.09651253264169317
249.0, 0.10800844756916492
250.0, 0.12096945702115697
251.0, 0.13110910830302044
252.0, 0.14201598814735444
253.0, 0.15081315024153066
254.0, 0.15632976235017584
255.0, 0.159282912488979
256.0, 0.16107061379459747
257.0, 0.16144819755726736
258.0, 0.15779336753167708
259.0, 0.1504116277266828
260.0, 0.14396866978304715
261.0, 0.13469223887137868
262.0, 0.12393289212239546
263.0, 0.11218109793991361
264.0, 0.10018532071183026
265.0, 0.09130286855075166
266.0, 0.0812791710821091
267.0, 0.07228480185453576
268.0, 0.06636199325357915
269.0, 0.06316940137512962
270.0, 0.0611760471386123
271.0, 0.059767934083157816
272.0, 0.05794987917922309
273.0, 0.05553207394322499
274.0, 0.058060743046604295
275.0, 0.057017631151012424
276.0, 0.05707156872818579
277.0, 0.059555753535734716
278.0, 0.059871594739499615
279.0, 0.0612730892488891
280.0, 0.06266984141493881
281.0, 0.06242502242556082
282.0, 0.06068640720767795
283.0, 0.060364008319614006
284.0, 0.05497431038071371
285.0, 0.05143740711638088
286.0, 0.049669767518901065
287.0, 0.044836891837216515
288.0, 0.03884988579452396
289.0, 0.0348229323432292
290.0, 0.031818079917945385
291.0, 0.029519516758755325
292.0, 0.02948902800869773
293.0, 0.027889113727571455
294.0, 0.02438259389946189
295.0, 0.022292060444973567
296.0, 0.02353739246502058
297.0, 0.023875776449594755
298.0, 0.02112140887744543
299.0, 0.018967308284216163
300.0, 0.018316072630245792
301.0, 0.017510884011286386
302.0, 0.018310245699944525
303.0, 0.017628146560074297
304.0, 0.01727605500460161
305.0, 0.018029164261291298
306.0, 0.017151214542273585
307.0, 0.018300886594098165
308.0, 0.018035237338817674
309.0, 0.016461106473136977
310.0, 0.0155368874251635
311.0, 0.015727629283034308
312.0, 0.014760366987601232
313.0, 0.01340311316102539
314.0, 0.011598404801809195
315.0, 0.008704362030946098
316.0, 0.008049837704860625
317.0, 0.008382564154897193
318.0, 0.0066903837732299526
319.0, 0.00301127778457476
320.0, 0.0015366165950925006
321.0, 0.00018638227285014918
322.0, 0.0013098963890374484
323.0, 0.0006900203144649982
324.0, 0.0019259788563245703
325.0, 0.0020264415696654194
326.0, 0.001945259094466135
327.0, 0.0016354284396364594
328.0, 0.0007400212933245593
329.0, 0.0027830055212027696
330.0, 0.0014863326118897365
331.0, 0.0027471768083231402
332.0, 0.002770293235924346
333.0, 0.0005230270295304245
334.0, 0.0010260402374204182
335.0, 0.0019244188351615964
336.0, 0.001091731579901186
337.0, 0.00010683514225101907
338.0, 0.0002357703896094475
339.0, 0.0006158979705755869
340.0, 0.00023112509542924043
341.0, 0.0003893985407238408
342.0, 0.00021705594500701347
343.0, 0.00028798703445920786
344.0, 0.00020907184373572562
345.0, 0.0008493759460046829
346.0, 0.0009364652000808258
347.0, 0.0013198108388080341
348.0, 0.002885153316663408
349.0, 0.002821533004463028
350.0, 0.0032497872454232343
351.0, 0.0036929592244475434
352.0, 0.0052165362288305395
353.0, 0.005912741983937745
354.0, 0.005954175472714663
355.0, 0.005731634508191699
356.0, 0.005358549716407208
357.0, 0.005179425954994203
358.0, 0.0053647747788728726
359.0, 0.006528949393662031
360.0, 0.0054002510778800306
361.0, 0.004200660872981899
362.0, 0.004788858631248578
363.0, 0.003637524282658372
364.0, 0.004024276267357066
365.0, 0.0033593135116453485
366.0, 0.0025642144198696217
367.0, 0.003483424011994425
368.0, 0.0027876386006797454
369.0, 0.002817134252825312
370.0, 0.0029521728410047106
371.0, 0.0032232429937361948
372.0, 0.00420645969699726
373.0, 0.004930497534592623
374.0, 0.004946372273386041
375.0, 0.005244507595397387
376.0, 0.006635333017280899
377.0, 0.008949904851612367
378.0, 0.008493642174587887
379.0, 0.010711135254532893
380.0, 0.014084949743218075
381.0, 0.01626861368864506
382.0, 0.016738029777966873
383.0, 0.019232918464600242
384.0, 0.01990172700496245
385.0, 0.02149856719167079
386.0, 0.025348495075874476
387.0, 0.02844640038658903
388.0, 0.04104797086564739
389.0, 0.047100129406175834
390.0, 0.04862215368477561
391.0, 0.05084172289965298
392.0, 0.04950333544184918
393.0, 0.05006628741392178
394.0, 0.052616760231878876
395.0, 0.05544179077380544
396.0, 0.05711435154666765
397.0, 0.05802591379408248
398.0, 0.05812536915757725
399.0, 0.058864269797456986
400.0, 0.0593549609221058
401.0, 0.057927597980505424
402.0, 0.05413856057425252
403.0, 0.05168637491552718
404.0, 0.050090457455455525
405.0, 0.048235392360043136
406.0, 0.04577417840012812
407.0, 0.044230203995961205
408.0, 0.041913003022719844
409.0, 0.038504527919354235
410.0, 0.036057046525669594
411.0, 0.03612557149699257
412.0, 0.03599509087698067
413.0, 0.034972404821377305
414.0, 0.03485257973723545
415.0, 0.035619636969629644
416.0, 0.036090176629340345
417.0, 0.03584264620193688
418.0, 0.03587961902799533
419.0, 0.03548481125759672
420.0, 0.035461955907057245
421.0, 0.037080421830845735
422.0, 0.04007953298098971
423.0, 0.04009516986730313
424.0, 0.040468740765726104
425.0, 0.04202555525378295
426.0, 0.04290015948431739
427.0, 0.041305498619437574
428.0, 0.03969558031405034
429.0, 0.034618668717153356
430.0, 0.029028742379661562
431.0, 0.026167850137494342
432.0, 0.020428364785847555
433.0, 0.016720852198264382
434.0, 0.014613190022886578
435.0, 0.012521126145083102
436.0, 0.009823806706325768
437.0, 0.007958114216683843
438.0, 0.006590787585151654
439.0, 0.006373503864860872
440.0, 0.00623374699813019
441.0, 0.005623752861555998
442.0, 0.006350601478598472
443.0, 0.0060913614178772476
444.0, 0.0053960385245045706
445.0, 0.00558347016797918
446.0, 0.006297049484967742
447.0, 0.00415025875354485
448.0, 0.00424353751983094
449.0, 0.005293819628532527
450.0, 0.005270337779078697
451.0, 0.003508016341950105
452.0, 0.0023381082305385234
453.0, 0.003909402671972253
454.0, 0.005103421270643111
455.0, 0.005159141404483499
456.0, 0.0044229703557746415
457.0, 0.0034465935824785614
458.0, 0.006658658117352913
459.0, 0.006321215637242751
460.0, 0.004633559314268287
461.0, 0.0037103305986207996
462.0, 0.0023346191781814397
463.0, 0.0027246676123803635
464.0, 0.003475053901792955
465.0, 0.004266420338260299
466.0, 0.004528155905391838
467.0, 0.0038595980119781096
468.0, 0.004851484083216558
469.0, 0.0032632390367897464
470.0, 0.0033180506033261255
471.0, 0.004526499044932209
472.0, 0.0036031022766187817
473.0, 0.0031605731191410255
474.0, 0.0020616744253831795
475.0, 0.00043947213933650376
476.0, 0.0004067368561977925
477.0, 0.0015354067925449136
478.0, 0.001039953270565931
479.0, 0.001423279399335965
480.0, 0.0009916659355700848
481.0, 0.0005527945651699689
482.0, 0.001358755991995442
483.0, 0.0001670035550084187
484.0, 4.589082237446705e-05
485.0, 0.0005269237021723637
486.0, 0.0008527958198326772
487.0, 0.00043339140483198563
488.0, 0.00010702893672178703
489.0, 6.245304842028318e-05
490.0, 0.000172423176296403
491.0, 0.00017800146680968423
492.0, 0.0003423310960404414
493.0, 0.0002674998132058939
494.0, 0.0006875970024200922
495.0, 0.0020140561644303814
496.0, 0.0013392444316598128
497.0, 0.0006293243602209476
498.0, 0.0015064154071031707
499.0, 0.0016895926269011657
500.0, 0.0011692473020433526
501.0, 0.0022947591602916415
502.0, 0.003678888615553257
503.0, 0.0036496498975634012
504.0, 0.005457410055146114
505.0, 0.006235372404436197
506.0, 0.00663962590815725
507.0, 0.008154598231420899
508.0, 0.009900199648084727
509.0, 0.00959738560857585
510.0, 0.009652161321008162
511.0, 0.008896020508668072
512.0, 0.008036017770846221
513.0, 0.007461105173516845
514.0, 0.006510335340550985
515.0, 0.0037006763645679565
516.0, 0.0060073839961827
517.0, 0.006310491492417637
518.0, 0.005326670070191839
519.0, 0.005911456705462695
520.0, 0.006228622717427979
521.0, 0.007718245459904813
522.0, 0.0065943446055512
523.0, 0.005364396669999503
524.0, 0.006525353895493865
525.0, 0.008409005877963397
526.0, 0.008975541143691975
527.0, 0.009933465207345062
528.0, 0.009771644822621548
529.0, 0.010013372276687001
530.0, 0.010269913921076911
531.0, 0.011353722777071244
532.0, 0.011660795256087528
533.0, 0.012731961646119117
534.0, 0.014513294290546767
535.0, 0.015453655312494206
536.0, 0.016488218313521704
537.0, 0.01938350351382739
538.0, 0.021569260424742616
539.0, 0.024201625049393695
540.0, 0.0278177122240207
541.0, 0.031358569041404584
542.0, 0.03260110188901112
543.0, 0.03530560576098034
544.0, 0.036457811911225664
545.0, 0.03743348680467173
546.0, 0.0400984959735336
547.0, 0.042533115734378915
548.0, 0.04350494468804203
549.0, 0.043981844501190054
550.0, 0.043451529730012296
551.0, 0.04252330501843135
552.0, 0.042537966430036475
553.0, 0.042854637412287455
554.0, 0.04476934568293373
555.0, 0.044125493178989394
556.0, 0.042145752612910085
557.0, 0.04163713551437208
558.0, 0.041403017285449636
559.0, 0.04225445636167785
560.0, 0.04082436741431706
561.0, 0.0408979152946098
562.0, 0.04163998666060583
563.0, 0.0390959093640326
564.0, 0.03751428334982825
565.0, 0.03725994837361726
566.0, 0.03708375711329608
567.0, 0.03679959559409811
568.0, 0.035960491788128934
569.0, 0.03375713689294893
570.0, 0.03466844095898303
571.0, 0.03401814462176865
572.0, 0.031517612073772905
573.0, 0.028890690588271425
574.0, 0.027813834392869653
575.0, 0.024788825152023138
576.0, 0.02301071427230636
577.0, 0.020438131383016155
578.0, 0.018071512333569403
579.0, 0.016333981128796225
580.0, 0.013586434951863156
581.0, 0.01151266310870098
582.0, 0.00950613300568265
583.0, 0.009438806066464266
584.0, 0.009725669283555557
585.0, 0.008450951847540487
586.0, 0.008057627464734122
587.0, 0.007949883937488071
588.0, 0.007744315708182644
589.0, 0.007410797307834622
590.0, 0.006640882801913094
591.0, 0.005035773813323961
592.0, 0.0031326100172489628
593.0, 0.004406059797992628
594.0, 0.004184424730305437
595.0, 0.0031013124229122874
596.0, 0.0031882098271470457
597.0, 0.0032487079761222117
598.0, 0.0017943625727599565
599.0, 0.0022695502005162464
600.0, 0.0016138594614260374
601.0, 0.001475019730522551
602.0, 0.0013676437382277033
603.0, 0.0014432756175259951
604.0, 0.0027235555882284004
605.0, 0.0023019527697235374
606.0, 0.0011308463412315441
607.0, 0.0009523940846483226
608.0, 0.00020702706595185984
609.0, 0.0002603596203120518
610.0, 0.0006392243468105935
611.0, 0.0012705708452832327
612.0, 0.0015806396617255648
613.0, 0.0016055258737949813
614.0, 0.0016993027690484698
615.0, 0.001323801035968891
616.0, 0.0010677778783849147
617.0, 0.000351717943554737
618.0, 0.00011411668539226243
619.0, 0.0006569302742357653
620.0, 0.0014753726199837989
621.0, 7.81990162875234e-05
622.0, 0.00032440361863667733
623.0, 0.00023075051912308217
624.0, 0.0007833614911999293
625.0, 0.001517653420239482
626.0, 0.0006897776611812276
627.0, 0.0011638673228353878
628.0, 0.0004147698162820295
629.0, 0.0003572485910258663
630.0, 0.0009557886782944932
631.0, 0.0017486435462364881
632.0, 0.00020923336951278996
633.0, 0.0012051691034855147
634.0, 5.781516813943186e-05
635.0, 0.0010189010776109327
636.0, 0.0009790043321946152
637.0, 0.0012677501328262812
638.0, 0.0007606041621347439
639.0, 0.0017140164425678962
640.0, 0.0011484241843145715
641.0, 0.0003318952425197032
642.0, 0.0005165807047041106
643.0, 0.000513281397897139
644.0, 0.0004635117457610934
645.0, 0.0021286913366287278
646.0, 0.003887616502968882
647.0, 0.002580548941969977
648.0, 0.00036486777044163394
649.0, 0.0030938912310743564
650.0, 0.005279310688024023
651.0, 0.00792033796805755
652.0, 0.010001995344089857
653.0, 0.009317494130859225
654.0, 0.007536674078579796
655.0, 0.00883893147728961
656.0, 0.010440204343605491
657.0, 0.008217597052228139
658.0, 0.008895244723088173
659.0, 0.009452060903337296
660.0, 0.007732020181286353
661.0, 0.008278599771755494
662.0, 0.00880264809632381
663.0, 0.007935182417902168
664.0, 0.007957152293611401
665.0, 0.007419763021550812
666.0, 0.0066012720438380565
667.0, 0.008585215500915431
668.0, 0.007678512245664718
669.0, 0.0103788151799465
670.0, 0.011841801292159868
671.0, 0.010905194741831613
672.0, 0.009997430387410543
673.0, 0.009919934805065983
674.0, 0.008780503568589202
675.0, 0.008006877135100282
676.0, 0.009454657955862556
677.0, 0.010415510106942978
678.0, 0.009422132935774612
679.0, 0.008487746362182661
680.0, 0.008833707230483868
681.0, 0.009935946797501472
682.0, 0.00998590797222862
683.0, 0.010860970892215972
684.0, 0.012627742151911776
685.0, 0.013080911532813093
686.0, 0.015203930809443744
687.0, 0.014854152694456488
688.0, 0.013637162979028963
689.0, 0.015018219308790466
690.0, 0.017209484264257398
691.0, 0.01617158731771223
692.0, 0.016709454664749924
693.0, 0.01709154139903789
694.0, 0.017993396450187476
695.0, 0.01888382151681992
696.0, 0.019804906703973297
697.0, 0.020550047841814325
698.0, 0.018903712826809985
699.0, 0.019166223207206626
700.0, 0.019507991697662073
701.0, 0.018658239222795334
702.0, 0.019740017581877874
703.0, 0.018903913792101507
704.0, 0.019159717024257446
705.0, 0.019619639554528247
706.0, 0.02021153205953158
707.0, 0.021391413737899555
708.0, 0.021320022382883382
709.0, 0.020534614533888176
710.0, 0.01955388300619393
711.0, 0.02016627790926622
712.0, 0.01912117003393384
713.0, 0.01886845687861841
714.0, 0.019022682199167314
715.0, 0.01844879911487243
716.0, 0.018538578034447688
717.0, 0.01781460795503197
718.0, 0.018135978559546198
719.0, 0.017646910349647046
720.0, 0.016664875251807685
721.0, 0.016658454997168854
722.0, 0.014877634248869223
723.0, 0.013844272266341412
724.0, 0.01581998058264963
725.0, 0.016087076034485635
726.0, 0.013263970189479338
727.0, 0.01085500677470408
728.0, 0.011288468854659763
729.0, 0.01183821679330163
730.0, 0.012732068539964909
731.0, 0.01264358711356796
732.0, 0.009337343813626537
733.0, 0.00827586884365193
734.0, 0.010476290994661427
735.0, 0.009345817110724089
736.0, 0.008056583745688784
737.0, 0.009006803613160749
738.0, 0.007406184890044761
739.0, 0.0038506413397318127
740.0, 0.0028575323480014188
741.0, 0.005352448927912251
742.0, 0.005325792556188067
743.0, 0.006704714962459908
744.0, 0.005842745414338056
745.0, 0.006221940484751065
746.0, 0.006616916587129682
747.0, 0.005365571165370033
748.0, 0.005255550963287618
749.0, 0.006760955041578413
750.0, 0.006293766221353034
751.0, 0.0065706968231982925
752.0, 0.005612144457294023
753.0, 0.003813745320116823
754.0, 0.0038120643095647024
755.0, 0.004144395452911897
756.0, 0.0010042570461307825
757.0, 0.0008649600842464569
758.0, 0.0036618422375636317
759.0, 0.0037278108720388008
760.0, 0.002342990891041374
761.0, 0.0019623809812214827
762.0, 0.002363676521359892
763.0, 0.0009661805953453152
764.0, 0.0026952752686701473
765.0, 0.0011437837173598352
766.0, 0.0005548365475490902
767.0, 0.0006503151758113787
768.0, 0.0014238761954710045
769.0, 0.0008995470191645845
770.0, 0.0006829231464959123
771.0, 0.0011239938090466003
772.0, 0.002343398108585596
773.0, 0.003772072338078871
774.0, 0.0037509067489236688
775.0, 0.002277706948413898
776.0, 0.0010438826372891695
777.0, 0.0006519802039408764
778.0, 0.00047495457608012537
779.0, 0.0011189491595079953
780.0, 0.0004168556135917071
781.0, 0.0005117321359849418
782.0, 0.0024489634078571475
783.0, 0.002687835481313787
784.0, 0.0019185374889569423
785.0, 0.000622395098844195
786.0, 0.0010289043726358707
787.0, 0.003108109327952416
788.0, 0.0010749087369068
789.0, 4.560107259814598e-05
790.0, 0.0004544610994513353
791.0, 0.0012871432530792788
792.0, 0.0008710614804380715
793.0, 0.0010179361768247925
794.0, 0.0016800457120817785
795.0, 0.002263413861765653
796.0, 0.005143898001769263
797.0, 0.005613116285822315
798.0, 0.004377230910642816
799.0, 0.002747433388429384
800.0, 0.002584074868556297
801.0, 0.0048569133061120455
802.0, 0.0037896556160838834
803.0, 0.002925169535246729
804.0, 0.0027976723413083177
805.0, 0.004003912145571707
806.0, 0.0042743106719341185
807.0, 0.0018368399021215093
808.0, 0.00043155919934625124
809.0, 0.0023727925184646942
810.0, 0.0024375745644052518
811.0, 0.0017363542178462736
812.0, 0.0016627541284823962
813.0, 0.0023289815987419258
814.0, 0.003424815738919778
815.0, 0.004095555357017273
816.0, 0.003026248392249794
817.0, 0.0006295888122010424
818.0, 0.0021230371444228265
819.0, 0.002849456423761947
820.0, 0.0019066593889090428
821.0, 0.0032459260014976467
822.0, 0.0012779150143981154
823.0, 0.0006915357276721892
824.0, 0.0025395404762500106
825.0, 0.0012194000491850664
826.0, 0.00122641904093977
827.0, 0.002558865473705408
828.0, 0.0018748939288996452
829.0, 0.003921369981892486
830.0, 0.00466102209948489
831.0, 0.003146232510612482
832.0, 0.003171786399022568
833.0, 0.004101479042820984
834.0, 0.003718521499071781
835.0, 0.002622628837703817
836.0, 0.0035134185223433894
837.0, 0.0029285173255541863
838.0, 0.003365793077480018
839.0, 0.00430931181290829
840.0, 0.003580299917229599
841.0, 0.0027555657069205756
842.0, 0.004554885443796209
843.0, 0.006577477011924554
844.0, 0.004713637693303758
845.0, 0.004965786055326127
846.0, 0.007150009336099627
847.0, 0.008855246006169383
848.0, 0.009160694046161544
849.0, 0.009046272661654678
850.0, 0.009613797551233072
851.0, 0.00730369265210669
852.0, 0.00861225611924954
853.0, 0.009259171292914323
854.0, 0.008262589426643494
855.0, 0.008981738191340845
856.0, 0.011354962539065117
857.0, 0.011253912183036225
858.0, 0.014214470387428952
859.0, 0.013893610187355054
860.0, 0.018731874862414916
861.0, 0.02018103533694657
862.0, 0.018306459097904692
863.0, 0.018542671236195452
864.0, 0.021457773485956982
865.0, 0.02125723309589085
866.0, 0.022894981156023772
867.0, 0.022124464628782252
868.0, 0.022646393185796514
869.0, 0.02451446881873299
870.0, 0.025893293004236262
871.0, 0.025953432082229368
872.0, 0.027557099254963465
873.0, 0.02712312579825275
874.0, 0.02756116814884411
875.0, 0.02847897657473731
876.0, 0.028872899781850713
877.0, 0.030382817891839085
878.0, 0.030771171619663577
879.0, 0.030345837300473966
880.0, 0.02931434705693161
881.0, 0.030931591631935703
882.0, 0.028071913871580634
883.0, 0.02767142304338373
884.0, 0.027747265472721723
885.0, 0.026334899087444665
886.0, 0.0261334476992878
887.0, 0.02460525566401921
888.0, 0.02420488989979889
889.0, 0.02105099822332921
890.0, 0.0211661359606807
891.0, 0.02056943221123514
892.0, 0.019003224069461203
893.0, 0.019099077281956173
894.0, 0.018546657240249214
895.0, 0.017285232661530293
896.0, 0.013626381893025157
897.0, 0.01458222459555431
898.0, 0.014857830474754878
899.0, 0.013234722652715986
900.0, 0.012761814988529713
901.0, 0.012972795425223636
902.0, 0.01123322661348729
903.0, 0.010930392337679087
904.0, 0.007472066137737638
905.0, 0.005325659592154792
906.0, 0.004248465696815039
907.0, 0.0033990366381205766
908.0, 0.004309511380497511
909.0, 0.004427565271900171
910.0, 0.004008520309484853
911.0, 0.003954425642720146
912.0, 0.004437596736497136
913.0, 0.000979176796512134
914.0, 0.0006021090290917174
915.0, 0.0016115238400118599
916.0, 0.00010107867469406445
917.0, 0.002346338813582642
918.0, 2.4222728835771317e-05
919.0, 0.0016055510932070699
920.0, 0.0010316645166065397
921.0, 0.0005146602616607375
922.0, 0.00015665764059611214
923.0, 0.00041815547678700557
924.0, 0.0005229448081698783
925.0, 0.0010734600246380538
926.0, 0.0002933861724687863
927.0, 0.00010097451548345998
928.0, 0.001460270086392369
929.0, 0.003072051706302644
930.0, 0.0011037061214120257
931.0, 0.0017524542905680495
932.0, 0.00013684830712649878
933.0, 0.0022255273161922314
934.0, 0.0029958684198977243
935.0, 0.0020239192638315893
936.0, 0.002213573375598861
937.0, 0.0019462222657702275
938.0, 0.002003461458997915
939.0, 0.003591715134717457
940.0, 0.0037089975551867303
941.0, 0.000531558451997386
942.0, 0.0010451885166816142
943.0, 0.0010971367380081662
944.0, 0.0004075639313772666
945.0, 0.0014299307031458023
946.0, 0.0022618523851502107
947.0, 0.0013648411626857027
948.0, 0.0009638711048883322
949.0, 0.0006311782875287526
950.0, 0.00019637602703726162
951.0, 0.0007959328516186537
952.0, 0.0037152495386154677
953.0, 0.004716549654247844
954.0, 0.005524577796707268
955.0, 0.0092792352495308
956.0, 0.01337601900461386
957.0, 0.015695699418929558
958.0, 0.01725708866972594
959.0, 0.019935878585980317
960.0, 0.025555368455336364
961.0, 0.03334056495216657
962.0, 0.04050973270209664
963.0, 0.04667938027996479
964.0, 0.055442741697568465
965.0, 0.0683617923393397
966.0, 0.07890960628378291
967.0, 0.0903276392910939
968.0, 0.11465222222254598
969.0, 0.1335042838701663
970.0, 0.15185199738260216
971.0, 0.18080749602623397
972.0, 0.2162724162776873
973.0, 0.25350069690891897
974.0, 0.29411166014911294
975.0, 0.3437962002273391
976.0, 0.3997371000009549
977.0, 0.4588274958594235
978.0, 0.5230762674879743
979.0, 0.5918646389174038
980.0, 0.6604685154001951
981.0, 0.7274508279215385
982.0, 0.7961095606365736
983.0, 0.8391654684649458
984.0, 0.8616981770984597
985.0, 0.8554610687476929
986.0, 0.8255775224145225
987.0, 0.7856293246573854
988.0, 0.7427935527023236
989.0, 0.6986675554997104
990.0, 0.6598791227279533
991.0, 0.6278683328347212
992.0, 0.603231552783966
993.0, 0.5926808481763963
994.0, 0.5857537791306113
995.0, 0.5783808023680874
996.0, 0.5728385424211252
997.0, 0.5616129465940609
998.0, 0.5316976983659548
999.0, 0.4911685545557849
1000.0, 0.4437300825491765
1001.0, 0.39786853468603556
1002.0, 0.36173775620082177
1003.0, 0.33480727261967425
1004.0, 0.3175867100449683
1005.0, 0.3088947381592908
1006.0, 0.3009934202464958
1007.0, 0.2918798723417374
1008.0, 0.2854031039779993
1009.0, 0.2733676918609988
1010.0, 0.26503804435285455
1011.0, 0.2526088627848075
1012.0, 0.24455095880927707
1013.0, 0.240732519943864
1014.0, 0.23365267546253976
1015.0, 0.22976200990225626
1016.0, 0.23274098277447985
1017.0, 0.23570090168196708
1018.0, 0.24410829492544558
1019.0, 0.23987712277711623
1020.0, 0.2358722847853981
1021.0, 0.23813504348937456
1022.0, 0.24384887881499684
1023.0, 0.2539195310409761
1024.0, 0.26894801035964677
1025.0, 0.2870680264897697
1026.0, 0.3139392168629178
1027.0, 0.3413427538410826
1028.0, 0.3744677928461714
1029.0, 0.4177235698636321
1030.0, 0.46838339352960523
1031.0, 0.5244558744011375
1032.0, 0.5878366042521773
1033.0, 0.6575820685403883
1034.0, 0.7261144389957979
1035.0, 0.7931423607328696
1036.0, 0.8624089506191165
1037.0, 0.9202645764081231
1038.0, 0.9607309774200901
1039.0, 0.9892053308327611
1040.0, 0.9994564502636296
1041.0, 0.978727516269808
1042.0, 0.9331791795894147
1043.0, 0.8727343353360819
1044.0, 0.7941691616242235
1045.0, 0.7075505506377753
1046.0, 0.6192883036603386
1047.0, 0.5322244045127107
1048.0, 0.45400277638185677
1049.0, 0.3843859931991122
1050.0, 0.3210669114414736
1051.0, 0.27246626043519867
1052.0, 0.23356156124413452
1053.0, 0.19820470168373994
1054.0, 0.17298095373125363
1055.0, 0.14888879399610924
1056.0, 0.12555562176761983
1057.0, 0.10857498786858394
1058.0, 0.09583009303944406
1059.0, 0.0825381327663411
1060.0, 0.07182047042409269
1061.0, 0.06317252822894194
1062.0, 0.055153633648946744
1063.0, 0.04939188314177422
1064.0, 0.04028598388972013
1065.0, 0.03265046733868482
1066.0, 0.028910320831768452
1067.0, 0.025922953966863574
1068.0, 0.02125986356821031
1069.0, 0.016641632798484105
1070.0, 0.014174543743336111
1071.0, 0.010778326696264407
1072.0, 0.012177449243978376
1073.0, 0.009114849287195383
1074.0, 0.006503646301671112
1075.0, 0.004870892578195341
1076.0, 0.005528811315617946
1077.0, 0.005315813325951502
1078.0, 0.001538300157970367
1079.0, 0.0007966190019382832
1080.0, 0.002097396807951949
1081.0, 0.001840622753175705
1082.0, 0.004279414351718969
1083.0, 0.003772924754209884
1084.0, 0.0030383546824004964
1085.0, 0.002866283058632584
1086.0, 0.0018930006768236405
1087.0, 0.00035378143839630104
1088.0, 0.0008552610021787513
1089.0, 0.0007025594958976608
1090.0, 0.004241104059251418
1091.0, 0.003242802379800385
1092.0, 0.0024999528053643587
1093.0, 0.0018362697610977787
1094.0, 0.0017264612805381284
1095.0, 0.002091566295763146
1096.0, 0.0019075980371988008
1097.0, 0.001089297157575692
1098.0, 0.0005576651932785383
1099.0, 0.0006159041083120293
1100.0, 0.002714577112882013
1101.0, 0.0011417926599622257
1102.0, 0.0005289974063179572
1103.0, 0.0005244636244783697
1104.0, 0.005095889478009415
1105.0, 0.0062317596476822905
1106.0, 0.0031357066572138487
1107.0, 0.0020656329007774556
1108.0, 0.0004135078125897756
1109.0, 0.002280814983509226
1110.0, 0.004574096558894071
1111.0, 0.000904802136961708
1112.0, 0.0002357665003507112
1113.0, 0.0008339276887402439
1114.0, 0.0006403724681452401
1115.0, 0.0018271451347002534
1116.0, 0.0011522763999811084
1117.0, 0.0009536185934553968
1118.0, 0.0026769620844230855
1119.0, 0.002615986652238007
1120.0, 0.0008106965385745161
1121.0, 0.0034877192728878376
1122.0, 0.0017176461540589069
1123.0, 0.001053934122660779
1124.0, 0.001009179996923462
1125.0, 0.0013307956247384605
1126.0, 0.002077571302201761
1127.0, 0.003096324448574946
1128.0, 0.0044432379515479846
1129.0, 0.00556915708811023
1130.0, 0.006347983095919816
1131.0, 0.00621878562744457
1132.0, 0.006741951515666034
1133.0, 0.007518443482072833
1134.0, 0.0063486023041096394
1135.0, 0.008390514832851125
1136.0, 0.00903204332238784
1137.0, 0.0055940930705374045
1138.0, 0.00453262055651271
1139.0, 0.007333839755091625
1140.0, 0.0060727976820510185
1141.0, 0.0059180699645666026
1142.0, 0.005453909479199223
1143.0, 0.005778111403308331
1144.0, 0.0064469257167889225
1145.0, 0.003622763208798169
1146.0, 0.0026114659966466076
1147.0, 0.004063547729881458
1148.0, 0.003925813277696903
1149.0, 0.0021887898034984735
1150.0, 0.0011999288134874441
1151.0, 0.0028379195453989317
1152.0, 0.004540425544409627
1153.0, 0.004696864778819486
1154.0, 0.0034301915452770912
1155.0, 0.0036540952259431166
1156.0, 0.005014485104821656
1157.0, 0.006027858269596552
1158.0, 0.0052713160128306895
1159.0, 0.003117310706440528
1160.0, 0.0028310753007877586
1161.0, 0.004968762735966253
1162.0, 0.0033475303338186568
1163.0, 0.0043114850592798
1164.0, 0.003502099503239715
1165.0, 0.0033507349614831884
1166.0, 0.001822686828788038
1167.0, 0.003099028973579192
1168.0, 0.005622665631428454
1169.0, 0.0052983673266262825
1170.0, 0.0031908559207942354
1171.0, 0.0017606064199708787
1172.0, 0.0025556134456997375
1173.0, 0.007598869038220681
1174.0, 0.0035811898890154613
1175.0, 0.006369791932638288
1176.0, 0.00472000477448325
1177.0, 0.00406042793667327
1178.0, 0.004085515721730969
1179.0, 0.006969455164278684
1180.0, 0.007133448736869071
1181.0, 0.005128652168268614
1182.0, 0.005482961938157164
1183.0, 0.004874539912890262
1184.0, 0.0064262586955771295
1185.0, 0.008240946338627958
1186.0, 0.005906992930280519
1187.0, 0.004983772357768346
1188.0, 0.007561527171180206
1189.0, 0.005553175151622854
1190.0, 0.006180459352554479
1191.0, 0.005486947516823021
1192.0, 0.00436053784750221
1193.0, 0.005311561393831427
1194.0, 0.004513780232764989
1195.0, 0.0053900064057343065
1196.0, 0.004005414574326676
1197.0, 0.0023721195551627784
1198.0, 0.0051399178316039575
1199.0, 0.003412475607087472
1200.0, 0.0053358569247290545
1201.0, 0.006023008060096267
1202.0, 0.004977884992346843
1203.0, 0.0034991365565444606
1204.0, 0.003070765725013146
1205.0, 0.003162145595066201
1206.0, 0.0030750536671245434
1207.0, 0.005430718619323499
1208.0, 0.0053507034345775546
1209.0, 0.0050100756577223775
1210.0, 0.004588053042351972
1211.0, 0.00547052463562573
1212.0, 0.004350919953710522
1213.0, 0.0035144357731158923
1214.0, 0.0031000303652296292
1215.0, 0.003672262655588827
1216.0, 0.0036879456053103723
1217.0, 0.0025963445586558633
1218.0, 0.0020593604379707093
1219.0, 0.0008372465633802098
1220.0, 0.0008902601985234133
1221.0, 0.002644323730666023
1222.0, 0.0018818243448999485
1223.0, 0.001188259578787934
1224.0, 0.0027788585990684914
1225.0, 0.0030587096061996354
1226.0, 0.003972060818021725
1227.0, 0.003393887138006331
1228.0, 0.004164213900070173
1229.0, 0.003242606140451444
1230.0, 0.003259847177778688
1231.0, 0.0034062754601854425
1232.0, 0.003327662420150784
1233.0, 0.0034141522512820756
1234.0, 0.003112822562621305
1235.0, 0.003875173062701087
1236.0, 0.003607802931966358
1237.0, 0.0034858098136787575
1238.0, 0.0040395487549626154
1239.0, 0.004333860692551462
1240.0, 0.003266429383582122
1241.0, 0.0034338825733630095
1242.0, 0.0038452634475780794
1243.0, 0.0020830714254335826
1244.0, 0.002067228286867519
1245.0, 0.0016964255075846253
1246.0, 0.003780473380041325
1247.0, 0.003789299566599975
1248.0, 0.0036617877879412787
1249.0, 0.004103007480616188
1250.0, 0.0035033155650630787
1251.0, 0.005062440029734125
1252.0, 0.005862331356747184
1253.0, 0.007028007103871681
1254.0, 0.00822009579528372
1255.0, 0.004532201889108032
1256.0, 0.0005574177391910708
1257.0, 0.0015220663312099244
1258.0, 0.0017176045045668629
1259.0, 0.0020709465397645544
1260.0, 0.002755803073243175
1261.0, 0.0011662106417408258
1262.0, 0.0016361595098125848
1263.0, 0.0006632453203489892
1264.0, 0.00016746497909634218
1265.0, 0.00031931634666220826
1266.0, 0.0003514970955098587
1267.0, 0.00032323702332285394
1268.0, 0.0003268815018433721
1269.0, 0.0004694241716875974
1270.0, 0.002097317000644459
1271.0, 0.003744905622683909
1272.0, 0.0029341257081247876
1273.0, 0.006204685302182738
1274.0, 0.006063627267784748
1275.0, 0.003843696927080426
1276.0, 0.0045711425453396825
1277.0, 0.003316707715205763
1278.0, 0.0026784177628081224
1279.0, 0.0022829696624195087
1280.0, 0.0025386324558729963
1281.0, 0.0024349411716185166
1282.0, 0.0024209225815599116
1283.0, 0.0022283190747332824
1284.0, 6.77000838515588e-05
1285.0, 0.0007419365101766278
1286.0, 0.0005809989834130635
1287, 0.0
1288, 0.0
1289, 0.0
1290, 0.0
1291, 0.0
1292, 0.0
1293, 0.0
1294, 0.0
1295, 0.0
1296, 0.0
1297, 0.0
1298, 0.0
1299, 0.0
1300, 0.0
1301, 0.0
1302, 0.0
1303, 0.0
1304, 0.0
1305, 0.0
1306, 0.0
1307, 0.0
1308, 0.0
1309, 0.0
1310, 0.0
1311, 0.0
1312, 0.0
1313, 0.0
1314, 0.0
1315, 0.0
1316, 0.0
1317, 0.0
1318, 0.0
1319, 0.0
1320, 0.0
1321, 0.0
1322, 0.0
1323, 0.0
1324, 0.0
1325, 0.0
1326, 0.0
1327, 0.0
1328, 0.0
1329, 0.0
1330, 0.0
1331, 0.0
1332, 0.0
1333, 0.0
1334, 0.0
1335, 0.0
1336, 0.0
1337, 0.0
1338, 0.0
1339, 0.0
1340, 0.0
1341, 0.0
1342, 0.0
1343, 0.0
1344, 0.0
1345, 0.0
1346, 0.0
1347, 0.0
1348, 0.0
1349, 0.0
1350, 0.0
1351, 0.0
1352, 0.0
1353, 0.0
1354, 0.0
1355, 0.0
1356, 0.0
1357, 0.0
1358, 0.0
1359, 0.0
1360, 0.0
1361, 0.0
1362, 0.0
1363, 0.0
1364, 0.0
1365, 0.0
1366, 0.0
1367, 0.0
1368, 0.0
1369, 0.0
1370, 0.0
1371, 0.0
1372, 0.0
1373, 0.0
1374, 0.0
1375, 0.0
1376, 0.0
1377, 0.0
1378, 0.0
1379, 0.0
1380, 0.0
1381, 0.0
1382, 0.0
1383, 0.0
1384, 0.0
1385, 0.0
1386, 0.0
1387, 0.0
1388, 0.0
1389, 0.0
1390, 0.0
1391, 0.0
1392, 0.0
1393, 0.0
1394, 0.0
1395, 0.0
1396, 0.0
1397, 0.0
1398, 0.0
1399, 0.0
1400, 0.0
1401, 0.0
1402, 0.0
1403, 0.0
1404, 0.0
1405, 0.0
1406, 0.0
1407, 0.0
1408, 0.0
1409, 0.0
1410, 0.0
1411, 0.0
1412, 0.0
1413, 0.0
1414, 0.0
1415, 0.0
1416, 0.0
1417, 0.0
1418, 0.0
1419, 0.0
1420, 0.0
1421, 0.0
1422, 0.0
1423, 0.0
1424, 0.0
1425, 0.0
1426, 0.0
1427, 0.0
1428, 0.0
1429, 0.0
1430, 0.0
1431, 0.0
1432, 0.0
1433, 0.0
1434, 0.0
1435, 0.0
1436, 0.0
1437, 0.0
1438, 0.0
1439, 0.0
1440, 0.0
1441, 0.0
1442, 0.0
1443, 0.0
1444, 0.0
1445, 0.0
1446, 0.0
1447, 0.0
1448, 0.0
1449, 0.0
1450, 0.0
1451, 0.0
1452, 0.0
1453, 0.0
1454, 0.0
1455, 0.0
1456, 0.0
1457, 0.0
1458, 0.0
1459, 0.0
1460, 0.0
1461, 0.0
1462, 0.0
1463, 0.0
1464, 0.0
1465, 0.0
1466, 0.0
1467, 0.0
1468, 0.0
1469, 0.0
1470, 0.0
1471, 0.0
1472, 0.0
1473, 0.0
1474, 0.0
1475, 0.0
1476, 0.0
1477, 0.0
1478, 0.0
1479, 0.0
1480, 0.0
1481, 0.0
1482, 0.0
1483, 0.0
1484, 0.0
1485, 0.0
1486, 0.0
1487, 0.0
1488, 0.0
1489, 0.0
1490, 0.0
1491, 0.0
1492, 0.0
1493, 0.0
1494, 0.0
1495, 0.0
1496, 0.0
1497, 0.0
1498, 0.0
1499, 0.0
1500, 0.0
1501, 0.0
1502, 0.0
1503, 0.0
1504, 0.0
1505, 0.0
1506, 0.0
1507, 0.0
1508, 0.0
1509, 0.0
1510, 0.0
1511, 0.0
1512, 0.0
1513, 0.0
1514, 0.0
1515, 0.0
1516, 0.0
1517, 0.0
1518, 0.0
1519, 0.0
1520, 0.0
1521, 0.0
1522, 0.0
1523, 0.0
1524, 0.0
1525, 0.0
1526, 0.0
1527, 0.0
1528, 0.0
1529, 0.0
1530, 0.0
1531, 0.0
1532, 0.0
1533, 0.0
1534, 0.0
1535, 0.0
1536, 0.0
1537, 0.0
1538, 0.0
1539, 0.0
1540, 0.0
1541, 0.0
1542, 0.0
1543, 0.0
1544, 0.0
1545, 0.0
1546, 0.0
1547, 0.0
1548, 0.0
1549, 0.0
1550, 0.0
1551, 0.0
1552, 0.0
1553, 0.0
1554, 0.0
1555, 0.0
1556, 0.0
1557, 0.0
1558, 0.0
1559, 0.0
1560, 0.0
1561, 0.0
1562, 0.0
1563, 0.0
1564, 0.0
1565, 0.0
1566, 0.0
1567, 0.0
1568, 0.0
1569, 0.0
1570, 0.0
1571, 0.0
1572, 0.0
1573, 0.0
1574, 0.0
1575, 0.0
1576, 0.0
1577, 0.0
1578, 0.0
1579, 0.0
1580, 0.0
1581, 0.0
1582, 0.0
1583, 0.0
1584, 0.0
1585, 0.0
1586, 0.0
1587, 0.0
1588, 0.0
1589, 0.0
1590, 0.0
1591, 0.0
1592, 0.0
1593, 0.0
1594, 0.0
1595, 0.0
1596, 0.0
1597, 0.0
1598, 0.0
1599, 0.0
