30, 0.0
31, 0.0
32, 0.0
33, 0.0
34, 0.0
35, 0.0
36, 0.0
37, 0.0
38, 0.0
39, 0.0
40, 0.0
41, 0.0
42, 0.0
43, 0.0
44, 0.0
45, 0.0
46, 0.0
47, 0.0
48, 0.0
49, 0.0
50, 0.0
51, 0.0
52, 0.0
53, 0.0
54, 0.0
55, 0.0
56, 0.0
57, 0.0
58, 0.0
59, 0.0
60, 0.0
61, 0.0
62, 0.0
63, 0.0
64, 0.0
65, 0.0
66, 0.0
67, 0.0
68, 0.0
69, 0.0
70, 0.0
71, 0.0
72, 0.0
73, 0.0
74, 0.0
75, 0.0
76, 0.0
77, 0.0
78, 0.0
79, 0.0
80, 0.0
81, 0.0
82, 0.0
83, 0.0
84, 0.0
85, 0.0
86, 0.0
87, 0.0
88, 0.0
89, 0.0
90, 0.0
91, 0.0
92, 0.0
93, 0.0
94, 0.0
95, 0.0
96, 0.0
97, 0.0
98, 0.0
99, 0.0
100, 0.0
101, 0.0
102, 0.0
103, 0.0
104, 0.0
105, 0.0
106, 0.0
107, 0.0
108, 0.0
109, 0.0
110, 0.0
111, 0.0
112, 0.0
113, 0.0
114, 0.0
115, 0.0
116, 0.0
117.0, 0.001186131432376811
118.0, 0.008008293935063766
119.0, 0.02312211952718097
120.0, 0.028518598643248967
121.0, 0.026084115442163526
122.0, 0.02937720759214358
123.0, 0.03703162980354383
124.0, 0.043198661165357116
125.0, 0.04470922390584983
126.0, 0.04657942961353409
127.0, 0.05283954564960384
128.0, 0.058401426668511495
129.0, 0.049314079530214334
130.0, 0.045448311945985795
131.0, 0.04832758274312361
132.0, 0.052594413127380946
133.0, 0.05048578200256011
134.0, 0.05391084691431039
135.0, 0.05988338322268438
136.0, 0.06355286753888774
137.0, 0.06141111976053225
138.0, 0.052852278662914406
139.0, 0.05514946688305447
140.0, 0.05988996241206836
141.0, 0.053651929233150555
142.0, 0.05112382056545289
143.0, 0.05194490264803849
144.0, 0.05916136989342506
145.0, 0.06900733497023875
146.0, 0.06338519987908436
147.0, 0.05806481860931207
148.0, 0.054863431833774526
149.0, 0.051876108024715074
150.0, 0.04552490889601899
151.0, 0.05064760791602966
152.0, 0.04205994657631527
153.0, 0.02023403790077627
154.0, 0.0026954951978945436
155.0, 0.0013070809447799235
156.0, 0.0059777113343625335
157.0, 0.006594881411513065
158.0, 0.005309199437311377
159.0, 0.016968192912245324
160.0, 0.02991269530352207
161.0, 0.04525483944063654
162.0, 0.060182365406577135
163.0, 0.06537078606496266
164.0, 0.08078766185101083
165.0, 0.08672647152062747
166.0, 0.07626264941595053
167.0, 0.0566533310896417
168.0, 0.052565030041598994
169.0, 0.0578900690882033
170.0, 0.05921862825078416
171.0, 0.050536921439139904
172.0, 0.04650100812006167
173.0, 0.03417515576176511
174.0, 0.04139950621874619
175.0, 0.07172766163899674
176.0, 0.07789942674182358
177.0, 0.08759981982686023
178.0, 0.09774317407782512
179.0, 0.11076120122672085
180.0, 0.13819138887127128
181.0, 0.1725436763287171
182.0, 0.19381850497204584
183.0, 0.186985215280484
184.0, 0.15239572637410664
185.0, 0.11948264854118969
186.0, 0.08858920238654912
187.0, 0.06922917528226051
188.0, 0.06421855379136529
189.0, 0.059479473520984594
190.0, 0.06249644560376392
191.0, 0.060989961206159585
192.0, 0.051344575198088944
193.0, 0.04112303684902073
194.0, 0.035580272095737706
195.0, 0.03458402704851258
196.0, 0.0347977371556486
197.0, 0.03312299969019825
198.0, 0.0324245445994544
199.0, 0.03740585257711441
200.0, 0.04823346041942085
201.0, 0.06453585091996404
202.0, 0.08367082766473445
203.0, 0.09380145086427955
204.0, 0.10504941180096118
205.0, 0.12034035636442096
206.0, 0.13808069025697337
207.0, 0.1684992626173392
208.0, 0.1800236443524957
209.0, 0.16384491911197221
210.0, 0.13321325452888472
211.0, 0.1186907141412159
212.0, 0.1103350341113899
213.0, 0.11599543365459074
214.0, 0.13157493648539337
215.0, 0.14143494417925118
216.0, 0.17395930317263325
217.0, 0.2075459076100345
218.0, 0.2452225000339934
219.0, 0.29518926119841377
220.0, 0.3312162526160439
221.0, 0.3616112317073051
222.0, 0.3853890518503712
223.0, 0.39118113847263697
224.0, 0.35969698415260243
225.0, 0.31495935030009864
226.0, 0.26478054844490256
227.0, 0.21868136061805357
228.0, 0.18336050854896974
229.0, 0.14228511186675674
230.0, 0.10816880847094988
231.0, 0.08438532894364466
232.0, 0.06926882685136661
233.0, 0.05744097577297588
234.0, 0.04497325082721442
235.0, 0.039641862260851854
236.0, 0.03589573075141024
237.0, 0.023320767830387334
238.0, 0.019017577943251724
239.0, 0.019696257919596612
240.0, 0.020209038907523343
241.0, 0.017776339897898584
242.0, 0.012739202839109896
243.0, 0.012754754209823181
244.0, 0.01909804159748939
245.0, 0.03012458628675202
246.0, 0.04286799172474505
247.0, 0.05065588964785866
248.0, 0.04230054674335637
249.0, 0.03662738892475016
250.0, 0.04325030366707696
251.0, 0.03706987353681449
252.0, 0.011116780068224977
253.0, 0.0011467102362492682
254.0, 0.0010136531831528234
255.0, 0.010105260259146468
256.0, 0.02041590982842224
257.0, 0.012081458709110359
258.0, 0.00018016104443500176
259.0, 0.005278465179725932
260.0, 0.013403747642568102
261.0, 0.014966298253678024
262.0, 0.024046148313774048
263.0, 0.03874926009368748
264.0, 0.04413075828034214
265.0, 0.04304113068095921
266.0, 0.04285515891614053
267.0, 0.04155219051011298
268.0, 0.038405068510941956
269.0, 0.03739192263099749
270.0, 0.03023645089280017
271.0, 0.030641551210200443
272.0, 0.036313275015198376
273.0, 0.03605997310394076
274.0, 0.020630232150601835
275.0, 0.04734157858227536
276.0, 0.06597050621688029
277.0, 0.05797027141799951
278.0, 0.06991865382893257
279.0, 0.0787430658333802
280.0, 0.08023746439115671
281.0, 0.08975409123320731
282.0, 0.11380185690788454
283.0, 0.12370381876618643
284.0, 0.11308872439148855
285.0, 0.10329268786681069
286.0, 0.09448437041135452
287.0, 0.07463783973048412
288.0, 0.07376748709729801
289.0, 0.07948668914939697
290.0, 0.07678660247078394
291.0, 0.061699891828544046
292.0, 0.0451575968263047
293.0, 0.03758967098658943
294.0, 0.04250466865261999
295.0, 0.0452612503582251
296.0, 0.03519066064356193
297.0, 0.03441310062106597
298.0, 0.02954897357339493
299.0, 0.03056108117498234
300.0, 0.042593056050366396
301.0, 0.05768256062165432
302.0, 0.0626936584744341
303.0, 0.07072528195911554
304.0, 0.09053564071634396
305.0, 0.11783737564148462
306.0, 0.1357579734111485
307.0, 0.1464766284373405
308.0, 0.144941464843698
309.0, 0.12848422984914426
310.0, 0.1004846126956215
311.0, 0.067756939218037
312.0, 0.05921465337828979
313.0, 0.05226335590781646
314.0, 0.03688424739084059
315.0, 0.02593728490022013
316.0, 0.020171496311820216
317.0, 0.01276095131488481
318.0, 0.004838166463917646
319.0, 0.0030249136570536903
320.0, 0.013328325208001096
321.0, 0.0037837972369075103
322.0, 0.0033254958521469332
323.0, 0.004277714829929706
324.0, 0.007346223323717215
325.0, 0.015638173955589564
326.0, 0.012123927290366005
327.0, 0.014083723306970337
328.0, 0.021279192785870104
329.0, 0.016550818919193355
330.0, 0.005436851138421198
331.0, 0.007383926285727806
332.0, 0.0097542636103488
333.0, 0.00433222133602428
334.0, 0.003025616928978153
335.0, 0.00036419316458474553
336.0, 0.0016756174498093145
337.0, 0.0011181451285503525
338.0, 0.00289989988534892
339.0, 0.01348020746109203
340.0, 0.01391496702906971
341.0, 0.015825422393193143
342.0, 0.023325167087557087
343.0, 0.027264202231756775
344.0, 0.01211930104879422
345.0, 0.011173396095902677
346.0, 0.015114733288813378
347.0, 0.019701980988574223
348.0, 0.034559701879176806
349.0, 0.0449104749747866
350.0, 0.05049165284055083
351.0, 0.050053256616332885
352.0, 0.049850489704642446
353.0, 0.06260146007778207
354.0, 0.052193709219270114
355.0, 0.039907655629578154
356.0, 0.02458490467899185
357.0, 0.007718362338698973
358.0, 0.010907855577421511
359.0, 0.003742425180544993
360.0, 0.008229792686416238
361.0, 0.009194910346811075
362.0, 0.008993878243802794
363.0, 0.004004419067060951
364.0, 0.004328852218222957
365.0, 0.0017373319510661745
366.0, 0.003929064284192736
367.0, 0.007946732040089971
368.0, 0.010485209227021425
369.0, 0.02364621365314465
370.0, 0.03753317631927916
371.0, 0.05180266131689423
372.0, 0.0754637261514366
373.0, 0.097639646828944
374.0, 0.1155109824676091
375.0, 0.13772099100330418
376.0, 0.16837539466747484
377.0, 0.20224126546344498
378.0, 0.22027336780136902
379.0, 0.24145755057896193
380.0, 0.2602564226659528
381.0, 0.2665523865307817
382.0, 0.25744951887540857
383.0, 0.23398371979602475
384.0, 0.18797161555234632
385.0, 0.13934616709989325
386.0, 0.10935081497615429
387.0, 0.09483700202713072
388.0, 0.08516417502403828
389.0, 0.08196680279086714
390.0, 0.07771137717622331
391.0, 0.07072802263728133
392.0, 0.07698025458447706
393.0, 0.08302083252718116
394.0, 0.09131002853807345
395.0, 0.10359388721225116
396.0, 0.12002255700836063
397.0, 0.1400757744468239
398.0, 0.16647013016172568
399.0, 0.19375174124326516
400.0, 0.21283068109308306
401.0, 0.2165120128408309
402.0, 0.20468677988708603
403.0, 0.18525817384331134
404.0, 0.1758692960721123
405.0, 0.16932012150175565
406.0, 0.15319920665677877
407.0, 0.16032038095211554
408.0, 0.1822838582682818
409.0, 0.19294777750000625
410.0, 0.20090938955192414
411.0, 0.2161107649256611
412.0, 0.18887016625230102
413.0, 0.1344123124205118
414.0, 0.08458101380064258
415.0, 0.05511689656476935
416.0, 0.04028780040241864
417.0, 0.020779083318357976
418.0, 0.0006376216348371903
419.0, 0.007384707074699602
420.0, 0.011412810439130802
421.0, 0.02205931648060961
422.0, 0.0249006690757871
423.0, 0.018040771922133964
424.0, 0.005673210600034485
425.0, 0.005637733874256865
426.0, 0.015176384036111068
427.0, 0.03775615448983256
428.0, 0.0652626317637685
429.0, 0.09717939018886575
430.0, 0.1340977002675648
431.0, 0.17642731007257836
432.0, 0.22943495218464544
433.0, 0.3001566354390607
434.0, 0.37750822602543926
435.0, 0.4479084508883313
436.0, 0.49580460852420494
437.0, 0.5078016464359261
438.0, 0.4687852812330714
439.0, 0.3836442546837176
440.0, 0.2917623992804463
441.0, 0.22088601153920326
442.0, 0.15563690216154452
443.0, 0.1374715406881014
444.0, 0.12957800028749508
445.0, 0.12732645264527553
446.0, 0.13780985141314267
447.0, 0.14840253301943962
448.0, 0.13431598609213316
449.0, 0.11452083061676722
450.0, 0.09575547590208655
451.0, 0.0767745981766073
452.0, 0.058684447926938214
453.0, 0.06571612590108682
454.0, 0.08446244534246423
455.0, 0.10045472501904501
456.0, 0.1184229767612985
457.0, 0.15707817873254967
458.0, 0.20408922526566903
459.0, 0.2506927916519134
460.0, 0.29819248891893585
461.0, 0.35392752063720684
462.0, 0.4259010414712774
463.0, 0.5118055889858579
464.0, 0.6154392486986074
465.0, 0.7368111848535962
466.0, 0.8592558927824949
467.0, 0.9438141165981454
468.0, 0.9389812603106721
469.0, 0.827388442861332
470.0, 0.6667237969725792
471.0, 0.5068796041925488
472.0, 0.3682129234841666
473.0, 0.26474532257655636
474.0, 0.19517705848867914
475.0, 0.1449246173471666
476.0, 0.11056819660921278
477.0, 0.08952960783103403
478.0, 0.06587652172158268
479.0, 0.03999290344576635
480.0, 0.021577562238978297
481.0, 0.015217662322848659
482.0, 0.01867755122772462
483.0, 0.025944403764789726
484.0, 0.03279638540538412
485.0, 0.052256214292878946
486.0, 0.06864622051188246
487.0, 0.07444068466177495
488.0, 0.08461563959904786
489.0, 0.09276012477606888
490.0, 0.10878221981318376
491.0, 0.11693021404808021
492.0, 0.11665739682282131
493.0, 0.12217318477684713
494.0, 0.11627846118559151
495.0, 0.09396501107064105
496.0, 0.08566357656116856
497.0, 0.09074485467488738
498.0, 0.09278463095912395
499.0, 0.10449602932944424
500.0, 0.1080734636092249
501.0, 0.11444121598638268
502.0, 0.12886581547409334
503.0, 0.15082190086934408
504.0, 0.17729480485754612
505.0, 0.20262045825719374
506.0, 0.23467670932028084
507.0, 0.27138401225363745
508.0, 0.3067762544955919
509.0, 0.3383324204999411
510.0, 0.365582000675916
511.0, 0.36753515100183326
512.0, 0.3588846760599999
513.0, 0.346738258394135
514.0, 0.32495191872433365
515.0, 0.2922392152393172
516.0, 0.27896175206478324
517.0, 0.271566697779239
518.0, 0.27339879415824997
519.0, 0.2891054159688959
520.0, 0.3024816014125776
521.0, 0.3376366315031489
522.0, 0.3839977163939897
523.0, 0.4260228498977335
524.0, 0.46352481878744645
525.0, 0.5089468189614196
526.0, 0.5513115788838866
527.0, 0.5749820678973265
528.0, 0.5853935888065243
529.0, 0.5727549488798399
530.0, 0.5279612618465083
531.0, 0.47739329711255557
532.0, 0.4173147592520654
533.0, 0.3509898341394067
534.0, 0.29108035679743205
535.0, 0.24297524170556625
536.0, 0.19961275005369603
537.0, 0.16738978220378914
538.0, 0.14755126278178887
539.0, 0.13325511051806013
540.0, 0.11704415518425226
541.0, 0.09532508454263457
542.0, 0.07185016726053371
543.0, 0.040908906660305895
544.0, 0.02161512898714257
545.0, 0.014627818896779983
546.0, 0.006739750278620507
547.0, 0.009273330725376198
548.0, 0.02017067538687704
549.0, 0.0311300042019677
550.0, 0.03492816699948759
551.0, 0.03320115314058276
552.0, 0.03500527836909368
553.0, 0.032187704488975365
554.0, 0.023585762717161108
555.0, 0.008794050103214266
556.0, 0.004083367395364906
557.0, 0.010640992048768547
558.0, 0.020416887434563054
559.0, 0.04075374288073681
560.0, 0.0742279633541074
561.0, 0.10450487225919566
562.0, 0.12808379510340515
563.0, 0.15694566492312362
564.0, 0.1952819320331527
565.0, 0.22874646407029775
566.0, 0.28354605838020996
567.0, 0.3451179836712814
568.0, 0.3954785773119209
569.0, 0.4575075940047472
570.0, 0.5361218937421716
571.0, 0.6036509277695243
572.0, 0.6611456985592999
573.0, 0.7109618859532507
574.0, 0.7385539265418936
575.0, 0.7101665408139176
576.0, 0.6491348875004878
577.0, 0.5633613248845667
578.0, 0.4752696695761881
579.0, 0.40092310690090127
580.0, 0.337676398132148
581.0, 0.29767678389050206
582.0, 0.27532703861152974
583.0, 0.25910270759706305
584.0, 0.24760839273961927
585.0, 0.24661190259733834
586.0, 0.25641532714022724
587.0, 0.2554102834847876
588.0, 0.2636780069895651
589.0, 0.2792713395080164
590.0, 0.2888877873279609
591.0, 0.28250880391931954
592.0, 0.26230381260795177
593.0, 0.2513037519908442
594.0, 0.24358482861267122
595.0, 0.22767063312529878
596.0, 0.2044743997389936
597.0, 0.1872860540191815
598.0, 0.1720239324248786
599.0, 0.16577245137459565
600.0, 0.17227570087973146
601.0, 0.1824162802797928
602.0, 0.19036237077343401
603.0, 0.21056406332215566
604.0, 0.2338260593171532
605.0, 0.24588514854860954
606.0, 0.2633918154141308
607.0, 0.2949289415163206
608.0, 0.32945811746205095
609.0, 0.3523138296486504
610.0, 0.3925397256376518
611.0, 0.4490600223920275
612.0, 0.5025913630327157
613.0, 0.5518595693400121
614.0, 0.6209033959739075
615.0, 0.7098755784431994
616.0, 0.8009019452191758
617.0, 0.8878803141973753
618.0, 0.9589178320264159
619.0, 0.9979412612869121
620.0, 0.9904251716864925
621.0, 0.9319254865297709
622.0, 0.8478267098596498
623.0, 0.7587990436034279
624.0, 0.6820266975293642
625.0, 0.622314673591415
626.0, 0.5546375785404688
627.0, 0.4924710621570506
628.0, 0.4373328629697992
629.0, 0.3938480849755918
630.0, 0.3550308129556695
631.0, 0.3137556571147384
632.0, 0.2816566578411601
633.0, 0.2480962870815268
634.0, 0.22226876055204783
635.0, 0.20306931804308043
636.0, 0.1862746970716838
637.0, 0.1703759648982397
638.0, 0.1550579706038651
639.0, 0.13785878948677127
640.0, 0.13079244719314834
641.0, 0.12786097485416761
642.0, 0.1198062705191431
643.0, 0.11008158071933122
644.0, 0.10800562709052751
645.0, 0.1073253639664277
646.0, 0.1175259998740098
647.0, 0.12754833950494768
648.0, 0.13317199384966838
649.0, 0.14588835305848644
650.0, 0.15459952162223162
651.0, 0.16398620341432607
652.0, 0.16486402147637594
653.0, 0.15184722801425196
654.0, 0.1327666031985493
655.0, 0.11888466151662784
656.0, 0.10126036111583146
657.0, 0.08029402958559298
658.0, 0.07541202964295378
659.0, 0.06773056586558093
660.0, 0.04948387414093651
661.0, 0.04527037690956369
662.0, 0.036460115446211395
663.0, 0.017617086808118996
664.0, 0.011942682370016076
665.0, 0.01652117446096274
666.0, 0.016249941133123013
667.0, 0.01004236830445268
668.0, 0.024994018071405225
669.0, 0.023416636524584086
670.0, 0.019401373259040695
671.0, 0.021475488978172804
672.0, 0.018900075700983128
673.0, 0.004076964771509466
674.0, 0.002828573830732158
675.0, 0.010562903352539675
676.0, 0.019931748696696443
677.0, 0.02039547223173929
678.0, 0.015217868036461692
679.0, 0.007331741970945604
680.0, 0.0023492492560061606
681.0, 0.0015565075274039035
682.0, 0.021392147300990483
683.0, 0.03681985469474639
684.0, 0.04002383789992258
685.0, 0.04995121755059393
686.0, 0.04306042129241922
687.0, 0.047234397078080095
688.0, 0.06127388627459246
689.0, 0.0707547807119227
690.0, 0.0770887852018183
691.0, 0.09189701655215167
692.0, 0.10238659544541133
693.0, 0.1105907335071184
694.0, 0.12048447268771383
695.0, 0.12962713213962027
696.0, 0.1311108340967777
697.0, 0.12445045959984141
698.0, 0.12721048132027682
699.0, 0.11856729564623747
700.0, 0.12413580929533144
701.0, 0.13068403271520646
702.0, 0.136422916354409
703.0, 0.14781361483366895
704.0, 0.1516386885305653
705.0, 0.1521283486421114
706.0, 0.13827816834296175
707.0, 0.12906728773562168
708.0, 0.11800792244662865
709.0, 0.10074874736535645
710.0, 0.09381687394359231
711.0, 0.06174069041711308
712.0, 0.06145182975773052
713.0, 0.06874122442510601
714.0, 0.07721410095651039
715.0, 0.08591848273989425
716.0, 0.08073644086058444
717.0, 0.07422100930598162
718.0, 0.09637741743618847
719.0, 0.09922229376218861
720.0, 0.09193914861013713
721.0, 0.0861352019243304
722.0, 0.07243297384420341
723.0, 0.061106629058261995
724.0, 0.062203491208533676
725.0, 0.05054438186199505
726.0, 0.04169440842248203
727.0, 0.033773287715104565
728.0, 0.021190691282105257
729.0, 0.02260086766953515
730.0, 0.01538703045780427
731.0, 0.0033384270453306404
732.0, 0.0013311426226810903
733.0, 0.002903649344699376
734.0, 0.008682293689073016
735.0, 0.011950260149124509
736.0, 0.0038096593060864257
737.0, 0.008453317485091521
738.0, 0.0076675470152664646
739.0, 0.018048243316859634
740.0, 0.012961664779025196
741.0, 0.004876595698214769
742.0, 0.00438876808500748
743.0, 0.003332888752323588
744.0, 0.015373314226822879
745.0, 0.030021691786368675
746.0, 0.03178179760932757
747.0, 0.026695146817683552
748.0, 0.03268167334147688
749.0, 0.029026342374798477
750.0, 0.034426923803981
751.0, 0.025184391279416546
752.0, 0.006945317152682448
753.0, 0.0040217159364041915
754.0, 0.00256816790015557
755.0, 0.025457577583350433
756.0, 0.024388635782408116
757.0, 0.039124003930920505
758.0, 0.04184146958548323
759.0, 0.030543287833988377
760.0, 0.025213046304250388
761.0, 0.03255091160477997
762.0, 0.026537281378314865
763.0, 0.03205554823680844
764.0, 0.04092000872194416
765.0, 0.04573743489025149
766.0, 0.05577622891210507
767.0, 0.07976103716116999
768.0, 0.1065069117101742
769.0, 0.11846686246220253
770.0, 0.14360253806536208
771.0, 0.16092207946884055
772.0, 0.1697529207871008
773.0, 0.1737374368390721
774.0, 0.16757507448824183
775.0, 0.17138254145124743
776.0, 0.16633453052044828
777.0, 0.17025620309879655
778.0, 0.18085541893386914
779.0, 0.19055267921329552
780.0, 0.19782407796603932
781.0, 0.20556815046414204
782.0, 0.22992392217493496
783.0, 0.23752191670102005
784.0, 0.2511906698130618
785.0, 0.26444520869997956
786.0, 0.2763418057895546
787.0, 0.2955489772905127
788.0, 0.30909740573738526
789.0, 0.3101264394380628
790.0, 0.3117515472807959
791.0, 0.32057473559655814
792.0, 0.33047546133152644
793.0, 0.33677809411844734
794.0, 0.33862249690421553
795.0, 0.3259878927105235
796.0, 0.31036119982946886
797.0, 0.28297950067145017
798.0, 0.2690339864377864
799.0, 0.2621133916120109
800.0, 0.24317934831395588
801.0, 0.21964480597877747
802.0, 0.21794006250116224
803.0, 0.21040270247064302
804.0, 0.18585293214013923
805.0, 0.18008271176395335
806.0, 0.18019846153994226
807.0, 0.16569869960197686
808.0, 0.16397133348096588
809.0, 0.16335276204068216
810.0, 0.16387558543832176
811.0, 0.15414057887476615
812.0, 0.13947782549999083
813.0, 0.13043142123123186
814.0, 0.13083119850782243
815.0, 0.12989317832190636
816.0, 0.11794988330654321
817.0, 0.11670337731567258
818.0, 0.10597167345011266
819.0, 0.08335034822947769
820.0, 0.07105097028992739
821.0, 0.07237751277733732
822.0, 0.05562517784943111
823.0, 0.048433097875497384
824.0, 0.04322740548932204
825.0, 0.034029993502158025
826.0, 0.03222416168532618
827.0, 0.042066585896715074
828.0, 0.05475981644708936
829.0, 0.0556667461843876
830.0, 0.0409113429573606
831.0, 0.04557228193889045
832.0, 0.04174279281383163
833.0, 0.033299482621344814
834.0, 0.03327688403126034
835.0, 0.03831127813410776
836.0, 0.04152457084193953
837.0, 0.04813481368591364
838.0, 0.040073310594134104
839.0, 0.05088109923473625
840.0, 0.052791963383851045
841.0, 0.040254283458074955
842.0, 0.03939922276391136
843.0, 0.049290625212255954
844.0, 0.05356218122802531
845.0, 0.05877460976805867
846.0, 0.061520658438598705
847.0, 0.059584847813964004
848.0, 0.05575728335168406
849.0, 0.05038070461777264
850.0, 0.038500107011551675
851.0, 0.020514991795647346
852.0, 0.023035742399200927
853.0, 0.019389650472144478
854.0, 0.014296146079526027
855.0, 0.006079221623010265
856.0, 0.005166192335717134
857.0, 0.004345337827098827
858.0, 0.007829188968746426
859.0, 0.014424348775924762
860.0, 0.008492845574242507
861.0, 0.012754521760581299
862.0, 0.01599815370921995
863.0, 0.016151121718449804
864.0, 0.02961288826108512
865.0, 0.01790281603416527
866.0, 0.006976059175658954
867.0, 0.0008698232427373899
868.0, 0.0009055800912813444
869.0, 0.005586765325286935
870.0, 0.010079852038948052
871.0, 0.004072225558799931
872.0, 0.006062345536327105
873.0, 0.004202577320883929
874.0, 0.001561303921259519
875.0, 0.0067424439951623725
876.0, 0.004230063647600339
877.0, 0.002048000075771829
878.0, 0.00017877788087071643
879.0, 0.002234652473953294
880.0, 0.013494917089866342
881.0, 0.009841501817415723
882.0, 0.008618488516517881
883.0, 0.022292682699392913
884.0, 0.029061593561404763
885.0, 0.024936418195517628
886.0, 0.02827863948103038
887.0, 0.028215671869258763
888.0, 0.033426824615504676
889.0, 0.03264088661667636
890.0, 0.04095303389382006
891.0, 0.04979314914849057
892.0, 0.05365382002972881
893.0, 0.05758059433817183
894.0, 0.0671768307737333
895.0, 0.08378409103032045
896.0, 0.0707611406419952
897.0, 0.06598469017098416
898.0, 0.06207568932295275
899.0, 0.051773656173142814
900.0, 0.04142226275229792
901.0, 0.03380169921334675
902.0, 0.025063130929361545
903.0, 0.03108145537577935
904.0, 0.021196062822972005
905.0, 0.025128174751459287
906.0, 0.029253657231659316
907.0, 0.025034128013314796
908.0, 0.022314401279747674
909.0, 0.023736558768878334
910.0, 0.01569256103430406
911.0, 0.012647372752193525
912.0, 0.02936141348646146
913.0, 0.022046116213481074
914.0, 0.010671336977988596
915.0, 0.01716848157829673
916.0, 0.025557076326614758
917.0, 0.028493153434914213
918.0, 0.02752093234320136
919.0, 0.03238614370152002
920.0, 0.026971752723197944
921.0, 0.030907253106527866
922.0, 0.042442623432161534
923.0, 0.0309942567695503
924.0, 0.034080413589256724
925.0, 0.023607634574653126
926.0, 0.018389938043698133
927.0, 0.023734275204085782
928.0, 0.015048599010938494
929.0, 0.026952098576320544
930.0, 0.013663156551791147
931.0, 0.03246256609063618
932.0, 0.027413114096555592
933.0, 0.00851358590534111
934.0, 0.03261602324598659
935.0, 0.034093066640390884
936.0, 0.02159754693957292
937.0, 0.02045301096295803
938.0, 0.028173049741406
939.0, 0.027631283962853668
940.0, 0.027538785533736915
941.0, 0.024349117896595336
942.0, 0.01805760129746309
943.0, 0.016235406435668
944.0, 0.010669712456543894
945.0, 0.01049920498557951
946.0, 0.012406026013786951
947.0, 0.008422147351357915
948.0, 0.0026490724439388507
949.0, 0.0005636944429407625
950.0, 0.0037707597994303312
951.0, 0.004016210534346878
952.0, 0.008569346109161567
953.0, 0.007378370921195726
954.0, 0.001939190111069384
955.0, 0.0010123501182223822
956.0, 0.0026202723727959546
957.0, 0.005246309550355562
958.0, 0.00136077107582092
959.0, 0.0010175663314882454
960.0, 0.0023599591826912363
961.0, 0.005645111312801274
962.0, 0.003543655485221416
963.0, 0.0013966444801564704
964.0, 0.010159578506828124
965.0, 0.015156761919881127
966.0, 0.005964957772473754
967.0, 0.004785829400799614
968.0, 0.013056162065307684
969.0, 0.005529151143522128
970.0, 0.0025211662196728034
971.0, 0.0014767123915609068
972.0, 0.0001890851866532035
973.0, 0.0011623490663437716
974.0, 0.01542680186731153
975.0, 0.014667751663184857
976.0, 0.028975412634699303
977.0, 0.04152559649979075
978.0, 0.0531432632262428
979.0, 0.05770781444200017
980.0, 0.05681161236207258
981.0, 0.0832844335918637
982.0, 0.10956941087931653
983.0, 0.1136102812918268
984.0, 0.11682759226862069
985.0, 0.13999593584899747
986.0, 0.1752087812515629
987.0, 0.20089285754150923
988.0, 0.21693512432419632
989.0, 0.24000078674073314
990.0, 0.24569971721188374
991.0, 0.2180279159019366
992.0, 0.18163587741095752
993.0, 0.14425564061985693
994.0, 0.1118149936786602
995.0, 0.08586816874831926
996.0, 0.061708304348627445
997.0, 0.04324574837105689
998.0, 0.04374613114806165
999.0, 0.0467031415415367
1000.0, 0.04244769261912274
1001.0, 0.029469368786697658
1002.0, 0.03356333675881056
1003.0, 0.04219765016016662
1004.0, 0.04425080924524025
1005.0, 0.034347087732153496
1006.0, 0.016125720961222462
1007.0, 0.01751585636676393
1008.0, 0.018737007005875734
1009.0, 0.01247230050659415
1010.0, 0.008606338725655638
1011.0, 0.009075747501208688
1012.0, 0.008768253405478188
1013.0, 0.009336864821355786
1014.0, 0.012356217998959043
1015.0, 0.013012179553796636
1016.0, 0.00806868563010448
1017.0, 0.0009023115609425197
1018.0, 0.010533208544837452
1019.0, 0.0033841526305065273
1020.0, 0.006750432474978278
1021.0, 0.006608455465839702
1022.0, 0.012371148747163222
1023.0, 0.009834252080735129
1024.0, 0.03832608009583199
1025.0, 0.03827452148028746
1026.0, 0.03286422314137503
1027.0, 0.019471554880706142
1028.0, 0.01609885654885206
1029.0, 0.025354858333560926
1030.0, 0.020785774786700843
1031.0, 0.01383110723745539
1032.0, 0.026302279125645645
1033.0, 0.023167427202215925
1034.0, 0.024082459697708166
1035.0, 0.020008990086369915
1036.0, 0.027746181561517036
1037.0, 0.01610175146988113
1038.0, 0.02228115023233272
1039.0, 0.026433498715764312
1040.0, 0.02005074172125425
1041.0, 0.027240184844391682
1042.0, 0.020463162901184464
1043.0, 0.01100545891977167
1044.0, 0.011354075926029045
1045.0, 0.01175162887224337
1046.0, 0.0032479456258246693
1047.0, 0.0054141444852683724
1048.0, 0.014651394989133402
1049.0, 0.013607503048701917
1050.0, 0.011043246119992734
1051.0, 0.011853893164594549
1052.0, 0.011543482912380323
1053.0, 0.01421759642447339
1054.0, 0.03174274639623857
1055.0, 0.023832121834396477
1056.0, 0.02836424314107793
1057.0, 0.04082554444189347
1058.0, 0.0424266447837543
1059.0, 0.0401734526209277
1060.0, 0.03931092362328405
1061.0, 0.03134976610339919
1062.0, 0.02155982818827958
1063.0, 0.011777257377805207
1064.0, 0.002030862070239624
1065.0, 0.0023388142358760767
1066.0, 0.006146179254016098
1067.0, 0.0019116461123102144
1068.0, 0.008186683784745987
1069.0, 0.001842791065495322
1070.0, 0.011171795573231596
1071.0, 0.012991579448870784
1072.0, 0.021187400110019735
1073.0, 0.027390349696190357
1074.0, 0.027969373406558126
1075.0, 0.024510147270206367
1076.0, 0.020889488907168192
1077.0, 0.012180787721078438
1078.0, 0.002504143873089019
1079.0, 0.0060082074256370245
1080.0, 0.0009239311510321514
1081.0, 0.0014225418579684789
1082.0, 0.0016286191114321443
1083.0, 0.0062134503321603606
1084.0, 0.012810408980934907
1085.0, 0.02018224964164393
1086.0, 0.028846709339938034
1087.0, 0.029602026803661464
1088.0, 0.02615962381762845
1089.0, 0.03259187188995351
1090.0, 0.02924472625287357
1091.0, 0.029362565837313535
1092.0, 0.029358507787159656
1093.0, 0.026497841273838522
1094.0, 0.028344893905182512
1095.0, 0.04018625075325495
1096.0, 0.0419102100678195
1097.0, 0.034406269065035196
1098.0, 0.041541516620044
1099.0, 0.046687745799876126
1100.0, 0.06456510042305764
1101.0, 0.03942360956800729
1102.0, 0.0336916492476962
1103.0, 0.0329675035709709
1104.0, 0.05215447173298566
1105.0, 0.06382453106256838
1106.0, 0.050292154902890004
1107.0, 0.041544189121222985
1108.0, 0.05538344354994374
1109.0, 0.051679036692607386
1110.0, 0.035049127423106834
1111.0, 0.03313525452002409
1112.0, 0.03238099883024787
1113.0, 0.033310982941915146
1114.0, 0.028816614136386202
1115.0, 0.03181622772908579
1116.0, 0.032143470778150336
1117.0, 0.024722962180044213
1118.0, 0.024955444097288042
1119.0, 0.022062350962414143
1120.0, 0.023153656841896506
1121.0, 0.0029876629907466864
1122.0, 0.00174336058977977
1123.0, 0.003680950934694521
1124.0, 0.0019001017409580592
1125.0, 0.009234790630098773
1126.0, 0.016616053042440144
1127.0, 0.023890913869253984
1128.0, 0.03490622595442437
1129.0, 0.038106203677813186
1130.0, 0.049785099042143566
1131.0, 0.05364259681424407
1132.0, 0.04570897772151684
1133.0, 0.05520791923959543
1134.0, 0.06303927206711418
1135.0, 0.04890603635551263
1136.0, 0.03342868762304789
1137.0, 0.03407720965176469
1138.0, 0.03917634632271534
1139.0, 0.03657826335241063
1140.0, 0.03217362642395103
1141.0, 0.03267725136702764
1142.0, 0.03294855873461169
1143.0, 0.028744922571103518
1144.0, 0.024865899768029304
1145.0, 0.013271640803574672
1146.0, 0.005074913510332037
1147.0, 0.007919518368586509
1148.0, 0.010980777626213925
1149.0, 0.0077668627060947714
1150.0, 0.007603159869061711
1151.0, 0.010285003582254256
1152.0, 0.01905340870779558
1153.0, 0.044595541243030654
1154.0, 0.04841228327749888
1155.0, 0.041754692180626114
1156.0, 0.035306961107924154
1157.0, 0.03678002922035013
1158.0, 0.039997329258448074
1159.0, 0.03599463621834096
1160.0, 0.029230646396702788
1161.0, 0.027845001102826915
1162.0, 0.026927283475534327
1163.0, 0.021650144216984288
1164.0, 0.0159565249104707
1165.0, 0.006374428058033504
1166.0, 0.00204018899287641
1167.0, 0.003439880034657502
1168.0, 0.011870198329257904
1169.0, 0.013025358661609778
1170.0, 0.007299075133436411
1171.0, 0.019008115093834262
1172.0, 0.01208473300042284
1173.0, 0.027618110051873365
1174.0, 0.02635295409852722
1175.0, 0.03626551760713154
1176.0, 0.04127941046391756
1177.0, 0.03781989638954662
1178.0, 0.04219660998950501
1179.0, 0.04096216229042844
1180.0, 0.03715382719965189
1181.0, 0.03826684827048086
1182.0, 0.041644905712779484
1183.0, 0.04551930093910118
1184.0, 0.041228141858304326
1185.0, 0.045784699453208816
1186.0, 0.05124108419906923
1187.0, 0.043296198417206416
1188.0, 0.03825007430442914
1189.0, 0.034714605012272234
1190.0, 0.017076990065430543
1191.0, 0.02152518673442062
1192.0, 0.03112239996821634
1193.0, 0.022911512516152012
1194.0, 0.025168517504101377
1195.0, 0.027121082420670913
1196.0, 0.025788202866882253
1197.0, 0.029412405124082313
1198.0, 0.02264333237548856
1199.0, 0.029576974519951525
1200.0, 0.03287671694737044
1201.0, 0.019870806973479878
1202.0, 0.014036790680010697
1203.0, 0.015966380500674324
1204.0, 0.017095558782464507
1205.0, 0.01655072626097981
1206.0, 0.016018300648384453
1207.0, 0.021461614582156337
1208.0, 0.02337519969081312
1209.0, 0.02734003387485678
1210.0, 0.023739572521371093
1211.0, 0.03136335018816189
1212.0, 0.04284865503386167
1213.0, 0.045206744799064086
1214.0, 0.03540297727874934
1215.0, 0.026872488045717416
1216.0, 0.022266863437211924
1217.0, 0.01943738315663948
1218.0, 0.017961269639242432
1219.0, 0.014981103525005349
1220.0, 0.02404311883592093
1221.0, 0.02362250534724889
1222.0, 0.015035292791966769
1223.0, 0.02799352053939874
1224.0, 0.032723706919728195
1225.0, 0.02965869746013352
1226.0, 0.02685726458677101
1227.0, 0.026001332528124522
1228.0, 0.03220587448230404
1229.0, 0.03692960152939038
1230.0, 0.034040257539623926
1231.0, 0.030685940096926267
1232.0, 0.019419629630318302
1233.0, 0.03306731589786266
1234.0, 0.04050546120174404
1235.0, 0.04458815792911554
1236.0, 0.042927106661154825
1237.0, 0.062180376776084574
1238.0, 0.05759599061336404
1239.0, 0.040668094581652735
1240.0, 0.030694575783304135
1241.0, 0.02694122777429508
1242.0, 0.026484786068790872
1243.0, 0.029911543014195918
1244.0, 0.04129113774651326
1245.0, 0.05080695318168217
1246.0, 0.049429407857109066
1247.0, 0.04645949225256332
1248.0, 0.051580285361713
1249.0, 0.07271953354713355
1250.0, 0.05840386097295213
1251.0, 0.045178594476255135
1252.0, 0.04058425855371006
1253.0, 0.030391603527849514
1254.0, 0.015002268373736378
1255.0, 0.014731122453350102
1256.0, 0.03333562691814053
1257.0, 0.04167166699678034
1258.0, 0.038012399828385786
1259.0, 0.04445163032582704
1260.0, 0.043924573063737635
1261.0, 0.035179057707224785
1262.0, 0.006109963638817369
1263.0, 0.009491817057830951
1264.0, 0.0065124051972997215
1265.0, 0.003666417279998993
1266.0, 0.006118795755280737
1267.0, 0.004128973300924687
1268.0, 0.011325583781014288
1269.0, 0.02447400134959807
1270.0, 0.040242847601676596
1271.0, 0.06281421596134051
1272.0, 0.08644259594829694
1273.0, 0.08805570580506208
1274.0, 0.10445294579923566
1275.0, 0.0808641091397991
1276.0, 0.08133347189609602
1277.0, 0.07632641990378272
1278.0, 0.07059602192797892
1279.0, 0.06965819781044008
1280.0, 0.06925270739712361
1281.0, 0.06883342364469958
1282.0, 0.06376796883936428
1283.0, 0.05946120001006105
1284.0, 0.058417148004486684
1285.0, 0.051487618025440086
1286.0, 0.06529472201144247
1287.0, 0.059738276654148825
1288.0, 0.05180251063969498
1289.0, 0.05134421371040324
1290.0, 0.047186589386191885
1291.0, 0.039024439965963234
1292.0, 0.030811939962034313
1293.0, 0.03431024778799299
1294.0, 0.03575362381648449
1295, 0.0
1296, 0.0
1297, 0.0
1298, 0.0
1299, 0.0
1300, 0.0
1301, 0.0
1302, 0.0
1303, 0.0
1304, 0.0
1305, 0.0
1306, 0.0
1307, 0.0
1308, 0.0
1309, 0.0
1310, 0.0
1311, 0.0
1312, 0.0
1313, 0.0
1314, 0.0
1315, 0.0
1316, 0.0
1317, 0.0
1318, 0.0
1319, 0.0
1320, 0.0
1321, 0.0
1322, 0.0
1323, 0.0
1324, 0.0
1325, 0.0
1326, 0.0
1327, 0.0
1328, 0.0
1329, 0.0
1330, 0.0
1331, 0.0
1332, 0.0
1333, 0.0
1334, 0.0
1335, 0.0
1336, 0.0
1337, 0.0
1338, 0.0
1339, 0.0
1340, 0.0
1341, 0.0
1342, 0.0
1343, 0.0
1344, 0.0
1345, 0.0
1346, 0.0
1347, 0.0
1348, 0.0
1349, 0.0
1350, 0.0
1351, 0.0
1352, 0.0
1353, 0.0
1354, 0.0
1355, 0.0
1356, 0.0
1357, 0.0
1358, 0.0
1359, 0.0
1360, 0.0
1361, 0.0
1362, 0.0
1363, 0.0
1364, 0.0
1365, 0.0
1366, 0.0
1367, 0.0
1368, 0.0
1369, 0.0
1370, 0.0
1371, 0.0
1372, 0.0
1373, 0.0
1374, 0.0
1375, 0.0
1376, 0.0
1377, 0.0
1378, 0.0
1379, 0.0
1380, 0.0
1381, 0.0
1382, 0.0
1383, 0.0
1384, 0.0
1385, 0.0
1386, 0.0
1387, 0.0
1388, 0.0
1389, 0.0
1390, 0.0
1391, 0.0
1392, 0.0
1393, 0.0
1394, 0.0
1395, 0.0
1396, 0.0
1397, 0.0
1398, 0.0
1399, 0.0
1400, 0.0
1401, 0.0
1402, 0.0
1403, 0.0
1404, 0.0
1405, 0.0
1406, 0.0
1407, 0.0
1408, 0.0
1409, 0.0
1410, 0.0
1411, 0.0
1412, 0.0
1413, 0.0
1414, 0.0
1415, 0.0
1416, 0.0
1417, 0.0
1418, 0.0
1419, 0.0
1420, 0.0
1421, 0.0
1422, 0.0
1423, 0.0
1424, 0.0
1425, 0.0
1426, 0.0
1427, 0.0
1428, 0.0
1429, 0.0
1430, 0.0
1431, 0.0
1432, 0.0
1433, 0.0
1434, 0.0
1435, 0.0
1436, 0.0
1437, 0.0
1438, 0.0
1439, 0.0
1440, 0.0
1441, 0.0
1442, 0.0
1443, 0.0
1444, 0.0
1445, 0.0
1446, 0.0
1447, 0.0
1448, 0.0
1449, 0.0
1450, 0.0
1451, 0.0
1452, 0.0
1453, 0.0
1454, 0.0
1455, 0.0
1456, 0.0
1457, 0.0
1458, 0.0
1459, 0.0
1460, 0.0
1461, 0.0
1462, 0.0
1463, 0.0
1464, 0.0
1465, 0.0
1466, 0.0
1467, 0.0
1468, 0.0
1469, 0.0
1470, 0.0
1471, 0.0
1472, 0.0
1473, 0.0
1474, 0.0
1475, 0.0
1476, 0.0
1477, 0.0
1478, 0.0
1479, 0.0
1480, 0.0
1481, 0.0
1482, 0.0
1483, 0.0
1484, 0.0
1485, 0.0
1486, 0.0
1487, 0.0
1488, 0.0
1489, 0.0
1490, 0.0
1491, 0.0
1492, 0.0
1493, 0.0
1494, 0.0
1495, 0.0
1496, 0.0
1497, 0.0
1498, 0.0
1499, 0.0
1500, 0.0
1501, 0.0
1502, 0.0
1503, 0.0
1504, 0.0
1505, 0.0
1506, 0.0
1507, 0.0
1508, 0.0
1509, 0.0
1510, 0.0
1511, 0.0
1512, 0.0
1513, 0.0
1514, 0.0
1515, 0.0
1516, 0.0
1517, 0.0
1518, 0.0
1519, 0.0
1520, 0.0
1521, 0.0
1522, 0.0
1523, 0.0
1524, 0.0
1525, 0.0
1526, 0.0
1527, 0.0
1528, 0.0
1529, 0.0
1530, 0.0
1531, 0.0
1532, 0.0
1533, 0.0
1534, 0.0
1535, 0.0
1536, 0.0
1537, 0.0
1538, 0.0
1539, 0.0
1540, 0.0
1541, 0.0
1542, 0.0
1543, 0.0
1544, 0.0
1545, 0.0
1546, 0.0
1547, 0.0
1548, 0.0
1549, 0.0
1550, 0.0
1551, 0.0
1552, 0.0
1553, 0.0
1554, 0.0
1555, 0.0
1556, 0.0
1557, 0.0
1558, 0.0
1559, 0.0
1560, 0.0
1561, 0.0
1562, 0.0
1563, 0.0
1564, 0.0
1565, 0.0
1566, 0.0
1567, 0.0
1568, 0.0
1569, 0.0
1570, 0.0
1571, 0.0
1572, 0.0
1573, 0.0
1574, 0.0
1575, 0.0
1576, 0.0
1577, 0.0
1578, 0.0
1579, 0.0
1580, 0.0
1581, 0.0
1582, 0.0
1583, 0.0
1584, 0.0
1585, 0.0
1586, 0.0
1587, 0.0
1588, 0.0
1589, 0.0
1590, 0.0
1591, 0.0
1592, 0.0
1593, 0.0
1594, 0.0
1595, 0.0
1596, 0.0
1597, 0.0
1598, 0.0
1599, 0.0
