30, 0.0
31, 0.0
32, 0.0
33, 0.0
34, 0.0
35, 0.0
36, 0.0
37, 0.0
38, 0.0
39, 0.0
40, 0.0
41, 0.0
42, 0.0
43, 0.0
44, 0.0
45, 0.0
46, 0.0
47, 0.0
48, 0.0
49, 0.0
50, 0.0
51, 0.0
52, 0.0
53, 0.0
54, 0.0
55, 0.0
56, 0.0
57, 0.0
58, 0.0
59, 0.0
60, 0.0
61, 0.0
62, 0.0
63, 0.0
64, 0.0
65, 0.0
66, 0.0
67, 0.0
68, 0.0
69, 0.0
70, 0.0
71, 0.0
72, 0.0
73, 0.0
74, 0.0
75, 0.0
76, 0.0
77, 0.0
78, 0.0
79, 0.0
80, 0.0
81, 0.0
82, 0.0
83, 0.0
84, 0.0
85, 0.0
86, 0.0
87, 0.0
88, 0.0
89, 0.0
90, 0.0
91, 0.0
92, 0.0
93, 0.0
94, 0.0
95, 0.0
96, 0.0
97, 0.0
98, 0.0
99, 0.0
100, 0.0
101, 0.0
102.0, 0.0003659659825740673
103.0, 0.002659733308012464
104.0, 0.02604152531547719
105.0, 0.04551979952030824
106.0, 0.056471191183247234
107.0, 0.060384859832479265
108.0, 0.05215658542871645
109.0, 0.029203364262875613
110.0, 0.008004473418682814
111.0, 0.0007485101333674061
112.0, 0.017316513041511775
113.0, 0.048024749198357294
114.0, 0.07493030177796253
115.0, 0.07848876233963444
116.0, 0.07790953165843509
117.0, 0.08609708753924677
118.0, 0.10450728666431916
119.0, 0.1252408250049886
120.0, 0.1320663390112786
121.0, 0.12530097892790693
122.0, 0.11744357083585767
123.0, 0.09523698905946484
124.0, 0.038543009533373966
125.0, 0.01379447286142253
126.0, 0.009063431489271275
127.0, 0.011290914575075608
128.0, 0.009955799997403744
129.0, 0.011869609556631484
130.0, 0.006186200317327662
131.0, 0.005771089250794652
132.0, 0.014633471935240111
133.0, 0.009328503234374147
134.0, 0.0008847347932508618
135.0, 0.00823140305437892
136.0, 0.016130741902269714
137.0, 0.02028807008104689
138.0, 0.04385839828221471
139.0, 0.05351340110031621
140.0, 0.05097081576487781
141.0, 0.059516891695621334
142.0, 0.06559508688627683
143.0, 0.08516859200526473
144.0, 0.10405039365107979
145.0, 0.10493157838594203
146.0, 0.1150872624258418
147.0, 0.13133662996945705
148.0, 0.13725507644781706
149.0, 0.12879342586187079
150.0, 0.12232512686308526
151.0, 0.11451444973918389
152.0, 0.10280805765193302
153.0, 0.08827578774946233
154.0, 0.07302693869716506
155.0, 0.05769646874046072
156.0, 0.04192872635608119
157.0, 0.03777181206251655
158.0, 0.049924679498232254
159.0, 0.02472224513120771
160.0, 0.017652897935096775
161.0, 0.027175008013476207
162.0, 0.03586088857601392
163.0, 0.03597007300018305
164.0, 0.03758994091814192
165.0, 0.03405176196102268
166.0, 0.03040833418147131
167.0, 0.046992232950781206
168.0, 0.06156327724233136
169.0, 0.0828156315431321
170.0, 0.10628424317591162
171.0, 0.12173519784980273
172.0, 0.1477755253771157
173.0, 0.16615630538650544
174.0, 0.18439921683959992
175.0, 0.21155540976430798
176.0, 0.23586118938595318
177.0, 0.26042092192751876
178.0, 0.28233338223171967
179.0, 0.30441603304856313
180.0, 0.3424897655055675
181.0, 0.3679826364140901
182.0, 0.40296127068400583
183.0, 0.4492000701282167
184.0, 0.48964334815378174
185.0, 0.5328690219076293
186.0, 0.5874813156126963
187.0, 0.6374145448205258
188.0, 0.6760167117571575
189.0, 0.7256874545579624
190.0, 0.7506913116627595
191.0, 0.7450105070568847
192.0, 0.7049165129831994
193.0, 0.6259722273157676
194.0, 0.5523256025312508
195.0, 0.47912414183876884
196.0, 0.39755328601155393
197.0, 0.3139058775705105
198.0, 0.2653142446316876
199.0, 0.22024697660437678
200.0, 0.17907877273718656
201.0, 0.149027568405974
202.0, 0.1262189023037681
203.0, 0.10911753673295452
204.0, 0.09121699279793709
205.0, 0.07700501668149652
206.0, 0.0693620211293462
207.0, 0.04944058922681012
208.0, 0.05409917646335787
209.0, 0.06114218737994257
210.0, 0.05890798993361385
211.0, 0.06913771960713805
212.0, 0.06299141086120724
213.0, 0.059496927619136185
214.0, 0.06571701383014636
215.0, 0.07395269672385452
216.0, 0.07086654621175341
217.0, 0.05772587483795061
218.0, 0.04467940581601216
219.0, 0.04217446206252512
220.0, 0.03136389920386471
221.0, 0.030570361002684336
222.0, 0.032894942257800146
223.0, 0.03167878350208807
224.0, 0.02731978025689119
225.0, 0.019646058699609496
226.0, 0.01926216047186799
227.0, 0.026358677707199924
228.0, 0.03354768100135166
229.0, 0.03187779679482773
230.0, 0.03133530210752476
231.0, 0.03600561121313925
232.0, 0.040665724343809065
233.0, 0.037617064331502324
234.0, 0.0495687555226876
235.0, 0.07001940523630311
236.0, 0.06981798679949988
237.0, 0.0461417522703343
238.0, 0.059814545188024724
239.0, 0.07734864897574759
240.0, 0.08438133141579997
241.0, 0.07780458175249312
242.0, 0.06766189349351351
243.0, 0.07883281327726047
244.0, 0.09452568463225418
245.0, 0.10139266047591025
246.0, 0.09903784435456545
247.0, 0.0950727116647419
248.0, 0.09712911912136499
249.0, 0.09596885437914295
250.0, 0.08223870363658836
251.0, 0.05959760489989773
252.0, 0.06092556258468479
253.0, 0.062008300309563204
254.0, 0.053411596168105875
255.0, 0.040508624768635794
256.0, 0.03654956687183236
257.0, 0.03248682921929528
258.0, 0.03374936218526592
259.0, 0.03683936716516442
260.0, 0.0350245372085444
261.0, 0.027478643575937343
262.0, 0.02695263617165531
263.0, 0.021581573673674893
264.0, 0.00873707222885442
265.0, 0.0016787514987679642
266.0, 0.0022158754291759872
267.0, 0.0009186290025546604
268.0, 0.000886844321564249
269.0, 0.002399553644165277
270.0, 0.00828821442314598
271.0, 0.014138837481139827
272.0, 0.008050345326500036
273.0, 0.00544496242256522
274.0, 0.014688989986226033
275.0, 0.0033792007109715717
276.0, 0.011263496186074485
277.0, 0.008506877482408436
278.0, 0.004399494222061742
279.0, 0.0013811735621438901
280.0, 0.002551998364446529
281.0, 0.00800943648589221
282.0, 0.01633193511739224
283.0, 0.01699914536292013
284.0, 0.026879994493354133
285.0, 0.039342932280075044
286.0, 0.03951728554193704
287.0, 0.038248413858396654
288.0, 0.05425887591982451
289.0, 0.07467942715440899
290.0, 0.07767760835366297
291.0, 0.07473827924741543
292.0, 0.0771607969136977
293.0, 0.08248851569883532
294.0, 0.08343234448113966
295.0, 0.08427686626588556
296.0, 0.07877743106056337
297.0, 0.07125880899064117
298.0, 0.07885497025244123
299.0, 0.07725733358625085
300.0, 0.07849800342693437
301.0, 0.0782095738295122
302.0, 0.07467746389926272
303.0, 0.08590958435674996
304.0, 0.08391129893968591
305.0, 0.08491893250037763
306.0, 0.09052600722210809
307.0, 0.08787265336698204
308.0, 0.07136534702799452
309.0, 0.07188888119145904
310.0, 0.06681290950551122
311.0, 0.05149719719619298
312.0, 0.045693641097600164
313.0, 0.039903872867367074
314.0, 0.03467752944300553
315.0, 0.0340531598416388
316.0, 0.03435660701307283
317.0, 0.02396409051863012
318.0, 0.024137677303044253
319.0, 0.027090004768477918
320.0, 0.029494840021378803
321.0, 0.03164741179233487
322.0, 0.0317419712157932
323.0, 0.03233799418928616
324.0, 0.03503545396541178
325.0, 0.037527081222927965
326.0, 0.03640607676808296
327.0, 0.030771840689282137
328.0, 0.04020723889059584
329.0, 0.046511942867142095
330.0, 0.04705632733845964
331.0, 0.04774220850848484
332.0, 0.044919951536446574
333.0, 0.04565437474814765
334.0, 0.055337407468644254
335.0, 0.0639368005372232
336.0, 0.05928084446540856
337.0, 0.06101082572232983
338.0, 0.06292875217661166
339.0, 0.06445488230406869
340.0, 0.06536977410871408
341.0, 0.06427155965227249
342.0, 0.044849389738703414
343.0, 0.03879814440317754
344.0, 0.039292405946324056
345.0, 0.035020400311136575
346.0, 0.030338699158190832
347.0, 0.025263082370413976
348.0, 0.021499869055273374
349.0, 0.016878229472669024
350.0, 0.011606055399278347
351.0, 0.008322440735531652
352.0, 0.0005847972714157054
353.0, 0.0051062927555918115
354.0, 0.010146375706220534
355.0, 0.008543638240531011
356.0, 0.007882958782608883
357.0, 0.004976939055457527
358.0, 0.006233994923461041
359.0, 0.01592595805217149
360.0, 0.025056938800955907
361.0, 0.016046449770787966
362.0, 0.01386102915015969
363.0, 0.029999523046152984
364.0, 0.043616727111134526
365.0, 0.04378655999940746
366.0, 0.05217476536473939
367.0, 0.06815436037390654
368.0, 0.07325093211107503
369.0, 0.08159829175399436
370.0, 0.1054085399739889
371.0, 0.11774918569327358
372.0, 0.131383420857385
373.0, 0.14336420939763098
374.0, 0.16028466729047186
375.0, 0.18619917011746442
376.0, 0.20959526342813115
377.0, 0.22766065260479296
378.0, 0.25028103188540507
379.0, 0.2816332686889815
380.0, 0.31789037062790926
381.0, 0.35308625877880007
382.0, 0.3839202041498737
383.0, 0.4170078614194874
384.0, 0.44762010653247675
385.0, 0.467188860874296
386.0, 0.46980709785492236
387.0, 0.4696660769094441
388.0, 0.44028892727448443
389.0, 0.3908265239581852
390.0, 0.34256389776539786
391.0, 0.30639611967203884
392.0, 0.2531498867851445
393.0, 0.21447678411783005
394.0, 0.1900794204915969
395.0, 0.16976022923307119
396.0, 0.14932996750520838
397.0, 0.14143505866476183
398.0, 0.132854872918813
399.0, 0.12830575040762243
400.0, 0.12688272143637125
401.0, 0.12177166512162131
402.0, 0.1245422638981289
403.0, 0.12648396650923896
404.0, 0.13106894149987736
405.0, 0.1369463938093754
406.0, 0.13846724830133036
407.0, 0.14084867196583922
408.0, 0.13285583903385917
409.0, 0.13590132319689663
410.0, 0.1466598428856115
411.0, 0.14510646612279726
412.0, 0.14698758110190102
413.0, 0.150315524582554
414.0, 0.15683766614412398
415.0, 0.16301153095104157
416.0, 0.15974378283284468
417.0, 0.14896999800321195
418.0, 0.15513986171633784
419.0, 0.15653139272762212
420.0, 0.14617326332653813
421.0, 0.13231788164336689
422.0, 0.11988386760992371
423.0, 0.09133878344385075
424.0, 0.07316683929476321
425.0, 0.059380692821337004
426.0, 0.042125589254450736
427.0, 0.026787407983486226
428.0, 0.012803123840974548
429.0, 0.004376172519097113
430.0, 0.002678870109229183
431.0, 0.0026423298996022795
432.0, 0.00043351297705918046
433.0, 0.000655393435592007
434.0, 0.003365353111173268
435.0, 0.010954157041529636
436.0, 0.014656929884164931
437.0, 0.009657650659754312
438.0, 0.0066881032600119
439.0, 0.0021762447152750947
440.0, 0.0044194492546788654
441.0, 0.0034906838230883514
442.0, 0.010151524831629245
443.0, 0.0024596199962139418
444.0, 0.007900238646416927
445.0, 0.018546654115546363
446.0, 0.022532467999038425
447.0, 0.01995776070306603
448.0, 0.021555799177814788
449.0, 0.02873885092703038
450.0, 0.03899542562461971
451.0, 0.04416717985709683
452.0, 0.04298130948489578
453.0, 0.040719332561904714
454.0, 0.03873402679863059
455.0, 0.03170306467578019
456.0, 0.025253014153897278
457.0, 0.02544715562583958
458.0, 0.02545030598008772
459.0, 0.00993702600485391
460.0, 0.002064061852954567
461.0, 0.004841932804732815
462.0, 0.0048183647034810515
463.0, 0.004857462829030039
464.0, 0.0028428931963230667
465.0, 0.00530128813400713
466.0, 0.0028632022660619633
467.0, 0.0056640266242003155
468.0, 0.0018390034023723566
469.0, 0.001763002968674127
470.0, 0.006440055723937382
471.0, 0.007146650911947931
472.0, 0.009206121733486006
473.0, 0.006253616356916042
474.0, 0.008836573847130061
475.0, 0.010538031161431226
476.0, 0.011205168037899765
477.0, 0.019885993892701806
478.0, 0.013611120376404438
479.0, 0.005446664957104548
480.0, 0.01246655499936593
481.0, 0.009736487281547565
482.0, 0.010061708994068774
483.0, 0.008023601708841456
484.0, 0.003166434435230049
485.0, 0.002420441370194115
486.0, 0.007151374411150195
487.0, 0.0009958486071240528
488.0, 0.012853573295811611
489.0, 0.017420869228052333
490.0, 0.017021861062554128
491.0, 0.020260543428225357
492.0, 0.016575387109854477
493.0, 0.019161780927755712
494.0, 0.01990171775089405
495.0, 0.022059665774718476
496.0, 0.026185742408608763
497.0, 0.030369414044786783
498.0, 0.03969521212594032
499.0, 0.02934468565938371
500.0, 0.03381411068342962
501.0, 0.04716151872854152
502.0, 0.049324235645978785
503.0, 0.043499925406451256
504.0, 0.04594211547825648
505.0, 0.05101053306023804
506.0, 0.054539176439857846
507.0, 0.05645141786031877
508.0, 0.05503286469855375
509.0, 0.04246249634867664
510.0, 0.03196691294499927
511.0, 0.030225203368547233
512.0, 0.03328930398633755
513.0, 0.033483179042537274
514.0, 0.025262298050033168
515.0, 0.022658558397262264
516.0, 0.038880074168409086
517.0, 0.04608513447231139
518.0, 0.044829700874624505
519.0, 0.049346344968035596
520.0, 0.054027936374568104
521.0, 0.06241929897457577
522.0, 0.06786598227859139
523.0, 0.07601479919655593
524.0, 0.08614347182637595
525.0, 0.09352130227666672
526.0, 0.1015760354272474
527.0, 0.1164440105082827
528.0, 0.12496309622119345
529.0, 0.12806397512502182
530.0, 0.13208099939097803
531.0, 0.14343672387522718
532.0, 0.14772194468991234
533.0, 0.1571250346023771
534.0, 0.16161194280696256
535.0, 0.1683211426545246
536.0, 0.18322896269799024
537.0, 0.192251409388962
538.0, 0.18493013590511392
539.0, 0.1940544367006516
540.0, 0.20604806929355818
541.0, 0.21240575916781257
542.0, 0.2159702430460963
543.0, 0.21975218414330827
544.0, 0.21873859874979779
545.0, 0.23240738364338007
546.0, 0.24196057955727882
547.0, 0.24516662546077794
548.0, 0.2545518484754081
549.0, 0.2494323867259955
550.0, 0.24163850771824266
551.0, 0.2511210580851222
552.0, 0.25606737426973863
553.0, 0.2480754746687914
554.0, 0.24043336102540136
555.0, 0.2338490619220618
556.0, 0.2266523161655661
557.0, 0.2254574130117931
558.0, 0.2193175612573079
559.0, 0.2003761614536005
560.0, 0.17902662603314026
561.0, 0.16697096285134652
562.0, 0.1624670310843847
563.0, 0.16269414092563741
564.0, 0.1547092159018427
565.0, 0.14035154253548013
566.0, 0.135580247533738
567.0, 0.12319123249201608
568.0, 0.12261579996887575
569.0, 0.12236446368031781
570.0, 0.11465200199039056
571.0, 0.10476478506339107
572.0, 0.10672931758274601
573.0, 0.10455178162054868
574.0, 0.10166080936616928
575.0, 0.09730643492031618
576.0, 0.08942460935103841
577.0, 0.08508320827106768
578.0, 0.08802837912560382
579.0, 0.07243381336637904
580.0, 0.07534313996626783
581.0, 0.07326350955324645
582.0, 0.0675973493714873
583.0, 0.06633415419608546
584.0, 0.06495658010088731
585.0, 0.0612597704361205
586.0, 0.0587968987166142
587.0, 0.056219297635555464
588.0, 0.05441144189623537
589.0, 0.05142407848574135
590.0, 0.04525316796661584
591.0, 0.04439925464830748
592.0, 0.04341490308588125
593.0, 0.036545276095685975
594.0, 0.030964632468424465
595.0, 0.0332890133719942
596.0, 0.042295923014345635
597.0, 0.04177801428146589
598.0, 0.0421852370460959
599.0, 0.03901062004876531
600.0, 0.038429997221576716
601.0, 0.042247727958456965
602.0, 0.04313772037700012
603.0, 0.039257180510061995
604.0, 0.036322553635175094
605.0, 0.04380583732158862
606.0, 0.04176505140260845
607.0, 0.03494105575304938
608.0, 0.03675110163891193
609.0, 0.03467139420866512
610.0, 0.03081438360913085
611.0, 0.03327401520123578
612.0, 0.025763249034630346
613.0, 0.018124066517756828
614.0, 0.016189535277122614
615.0, 0.0007024876965441413
616.0, 0.006060672783301524
617.0, 0.004041072974009536
618.0, 0.010491007517949022
619.0, 0.005056420029355271
620.0, 0.0013001542966630164
621.0, 0.013485218526560361
622.0, 0.008066983996269702
623.0, 0.006976090054095907
624.0, 0.007253634307631528
625.0, 0.006300135715466589
626.0, 0.0052515337676161955
627.0, 0.005605146190922752
628.0, 0.003290495282082024
629.0, 0.0056391341271166545
630.0, 0.004350695756660127
631.0, 0.004736240179439253
632.0, 0.014162605162413253
633.0, 0.025623109310646375
634.0, 0.027546711215252172
635.0, 0.02135790091723916
636.0, 0.037287599118832664
637.0, 0.04566007982282646
638.0, 0.05015648708298052
639.0, 0.05789343675246198
640.0, 0.06358874685918936
641.0, 0.0714468098283128
642.0, 0.08423707104247398
643.0, 0.09081122685641539
644.0, 0.09399739826370151
645.0, 0.09945483675939361
646.0, 0.10475942362496066
647.0, 0.10300302430599291
648.0, 0.11504057762534581
649.0, 0.12198745978294158
650.0, 0.13250323054754887
651.0, 0.14182276510326672
652.0, 0.14603671339155133
653.0, 0.15227226907356156
654.0, 0.16685074987908022
655.0, 0.1853892844536497
656.0, 0.19566782723674236
657.0, 0.21535956695517056
658.0, 0.2372768819160776
659.0, 0.2537242305698573
660.0, 0.2804296132704153
661.0, 0.30332645596475305
662.0, 0.330203237952993
663.0, 0.3619030593116385
664.0, 0.3941944977838826
665.0, 0.42783911422343246
666.0, 0.46631534062888774
667.0, 0.503371186762633
668.0, 0.5480862920746669
669.0, 0.6171153219567164
670.0, 0.675928836321169
671.0, 0.7392313481369517
672.0, 0.8154506003095922
673.0, 0.8736297034260418
674.0, 0.9459914497814831
675.0, 0.9914266148928399
676.0, 0.9983293603663556
677.0, 0.965532507660805
678.0, 0.9002137307107743
679.0, 0.8158294905745648
680.0, 0.7246146282565671
681.0, 0.6249937586729423
682.0, 0.5366052280290077
683.0, 0.45561148140359264
684.0, 0.4021186530560131
685.0, 0.364315717527356
686.0, 0.31581052837417994
687.0, 0.28785448194095525
688.0, 0.2533528711854046
689.0, 0.2218854232801089
690.0, 0.1946211499112786
691.0, 0.1793185991079669
692.0, 0.16745620810568673
693.0, 0.13774482930246315
694.0, 0.13201783196432498
695.0, 0.12460208085505194
696.0, 0.10713708003267458
697.0, 0.09272736526378
698.0, 0.08149795016390952
699.0, 0.06642766394096053
700.0, 0.052766569115180656
701.0, 0.05746873299095034
702.0, 0.053388305113069794
703.0, 0.04482729304891242
704.0, 0.03653461537827735
705.0, 0.031011613096563674
706.0, 0.026428197307071355
707.0, 0.020294375434937572
708.0, 0.021191185938947473
709.0, 0.015148244266005473
710.0, 0.009192252475099786
711.0, 0.004586602431317742
712.0, 0.0036675564649749585
713.0, 0.006223337099267603
714.0, 0.007695960256432047
715.0, 0.013043160898268586
716.0, 0.013103508862356896
717.0, 0.015264693723090294
718.0, 0.008117028760847545
719.0, 0.0040845854135029835
720.0, 0.003935709867020824
721.0, 0.007506148146242146
722.0, 0.001764247355488372
723.0, 0.0009471477908375305
724.0, 0.013997163443455921
725.0, 0.0118074695810421
726.0, 0.0022060611201025577
727.0, 0.003999811128501385
728.0, 0.001190904676700197
729.0, 0.0012078262164756236
730.0, 0.0034178395160942123
731.0, 0.001361604640467457
732.0, 0.007851329326256382
733.0, 0.011069961210509268
734.0, 0.0068173012062122795
735.0, 0.013565476623786401
736.0, 0.02602290392109488
737.0, 0.02017020128461439
738.0, 0.025370741500229853
739.0, 0.0405445268185021
740.0, 0.043854364078108596
741.0, 0.04171084542759445
742.0, 0.0506430117314227
743.0, 0.0563171463941022
744.0, 0.06385082785475771
745.0, 0.06719817222237533
746.0, 0.07254236239733418
747.0, 0.09044386089181058
748.0, 0.10323107399734903
749.0, 0.10129108025870781
750.0, 0.11284182101585372
751.0, 0.10350359965447575
752.0, 0.10187192599301978
753.0, 0.09083066386396223
754.0, 0.07218867339945145
755.0, 0.053498077067174916
756.0, 0.04570563816658418
757.0, 0.049542700829698166
758.0, 0.03060503738588402
759.0, 0.0251741928107752
760.0, 0.0202946965108634
761.0, 0.02007443898323622
762.0, 0.019324768621682004
763.0, 0.01348814525111587
764.0, 0.009009531047791071
765.0, 0.011490404803498753
766.0, 0.003166614041991999
767.0, 0.0016692388145209075
768.0, 0.005927753749754053
769.0, 0.004439571434624319
770.0, 0.00585974732443916
771.0, 0.004404215511141288
772.0, 0.003251670961053995
773.0, 0.004442065221930294
774.0, 0.006880612947006721
775.0, 0.007788132345626288
776.0, 0.009006194324430767
777.0, 0.013244751089636665
778.0, 0.02118337836343055
779.0, 0.028890542242603408
780.0, 0.032811964335538284
781.0, 0.027418688908077405
782.0, 0.03403803113362151
783.0, 0.04279533078225859
784.0, 0.05533800174077869
785.0, 0.060670797787317474
786.0, 0.06203896168463492
787.0, 0.07375575439881406
788.0, 0.07194973604107183
789.0, 0.06429683671327542
790.0, 0.059974497516449184
791.0, 0.05835597555106195
792.0, 0.04885611086952353
793.0, 0.0441034720642309
794.0, 0.0452734983903426
795.0, 0.0364071117063807
796.0, 0.02969846315716366
797.0, 0.016128654567061335
798.0, 0.0213784776212222
799.0, 0.023645901935601264
800.0, 0.021579416973274455
801.0, 0.017794270044915354
802.0, 0.012385946218562805
803.0, 0.007544940241606472
804.0, 0.0009360421755904776
805.0, 0.0018897135772103126
806.0, 0.014249305102334006
807.0, 0.016721521918063115
808.0, 0.008114964603026277
809.0, 0.008149716969827319
810.0, 0.017624168032987792
811.0, 0.014913591582733792
812.0, 0.011470298236890275
813.0, 0.0027743346559978587
814.0, 0.0023222286682209703
815.0, 0.0014160110178009682
816.0, 0.0037246074053534565
817.0, 0.002825373553342537
818.0, 0.0015142732509913599
819.0, 0.004107575210089035
820.0, 0.005984167439370138
821.0, 0.0025914310410158977
822.0, 0.006292259508798486
823.0, 0.007591530763594009
824.0, 0.006689791851523507
825.0, 0.0060394165451428655
826.0, 0.0032252329516570606
827.0, 0.005157466144660387
828.0, 0.00992703157667009
829.0, 0.013073708476426001
830.0, 0.017053158970852914
831.0, 0.007906188040874618
832.0, 0.005234344293028821
833.0, 0.012355041067809752
834.0, 0.010693877274921534
835.0, 0.005546801650169519
836.0, 0.012629351790036776
837.0, 0.012741356315869482
838.0, 0.011962263546062942
839.0, 0.014205339989446217
840.0, 0.01326394530771041
841.0, 0.010863498995872824
842.0, 0.0133156563843419
843.0, 0.017440026336472195
844.0, 0.01597034248431149
845.0, 0.021722898803654262
846.0, 0.018961621174817297
847.0, 0.019554281296770802
848.0, 0.026970966333638078
849.0, 0.02489554588748528
850.0, 0.021123075729257326
851.0, 0.023144643929881987
852.0, 0.01970285072099917
853.0, 0.023847544865742344
854.0, 0.01751206938122431
855.0, 0.017832999390618443
856.0, 0.02531794298217512
857.0, 0.02940667951451534
858.0, 0.029246485350735034
859.0, 0.02805836154111236
860.0, 0.028251893240579147
861.0, 0.031531003257690066
862.0, 0.02367648291096085
863.0, 0.029436163146653326
864.0, 0.015381386247666879
865.0, 0.031096000605600003
866.0, 0.041006633805471
867.0, 0.030744177891259005
868.0, 0.025398206538449458
869.0, 0.026023113882145007
870.0, 0.029341167124084758
871.0, 0.02818446366730049
872.0, 0.024244669833226658
873.0, 0.025096937552463484
874.0, 0.02738508811284907
875.0, 0.0283802134209531
876.0, 0.02903304187379123
877.0, 0.029910416080833068
878.0, 0.03005599193428243
879.0, 0.03143460715220734
880.0, 0.033288471370611736
881.0, 0.033429616001754384
882.0, 0.02991676887295834
883.0, 0.03854056294145877
884.0, 0.03948268741084917
885.0, 0.029617152393139
886.0, 0.033816127988439665
887.0, 0.036539409386724335
888.0, 0.029886381999223933
889.0, 0.02482369752300139
890.0, 0.0316641558125587
891.0, 0.02871361418053462
892.0, 0.023284320506891845
893.0, 0.021759964830811093
894.0, 0.020882703240380225
895.0, 0.017289837080288424
896.0, 0.012642859253039509
897.0, 0.009393578147654106
898.0, 0.014603062517458826
899.0, 0.018588781896152942
900.0, 0.018857015005857427
901.0, 0.01398240786230487
902.0, 0.018331630413325254
903.0, 0.02552197755905417
904.0, 0.02110698488472457
905.0, 0.014670463064712059
906.0, 0.017886279924062064
907.0, 0.004037869766493978
908.0, 0.009044115115838304
909.0, 0.012520568440327097
910.0, 0.00631914761801782
911.0, 0.004821389650529744
912.0, 0.004365233016665531
913.0, 0.007249601407631003
914.0, 0.01772682567772831
915.0, 0.01061703076767401
916.0, 0.007950548262524575
917.0, 0.014375506787140814
918.0, 0.012735951323731341
919.0, 0.018585429090482643
920.0, 0.02313430793258738
921.0, 0.016572637562335096
922.0, 0.010628082551522177
923.0, 0.012228278787315524
924.0, 0.006492241559796426
925.0, 0.0015255528345902792
926.0, 0.007418253961985969
927.0, 0.008400328089139097
928.0, 0.007108139624741298
929.0, 0.004942985659357484
930.0, 0.002458612633420806
931.0, 0.001346436206646245
932.0, 0.0055822728815980785
933.0, 0.005112126345174571
934.0, 0.0024734300343739308
935.0, 0.0022583768191534073
936.0, 0.0015295691868397097
937.0, 0.00700030850620135
938.0, 0.0025283689471867193
939.0, 0.0013419670340898018
940.0, 0.0007303701210342288
941.0, 0.004633516388842155
942.0, 0.008651369226576656
943.0, 0.004621176325611935
944.0, 0.0007991045569916858
945.0, 0.004346267139686379
946.0, 0.003715047945653782
947.0, 0.00322885353252319
948.0, 0.0012340673689697915
949.0, 0.0006655237266460375
950.0, 0.00036532327036418
951.0, 0.0005527591599829144
952.0, 0.001723391121569592
953.0, 0.0042946412978408
954.0, 0.0007480216301685716
955.0, 0.0027723700833864
956.0, 0.0020486099857680096
957.0, 0.001828038321196019
958.0, 0.0021387331604980557
959.0, 0.0025809434155002185
960.0, 0.007803714534159326
961.0, 0.011276138599211533
962.0, 0.002415327029579353
963.0, 0.012253862512345979
964.0, 0.012584540322325399
965.0, 0.009084640825678477
966.0, 0.010249151158073266
967.0, 0.0163406726067085
968.0, 0.006805325146864037
969.0, 0.01293942795343794
970.0, 0.017544290954719426
971.0, 0.012496863405076962
972.0, 0.013696321570458218
973.0, 0.018850992903897676
974.0, 0.016259109813495248
975.0, 0.020498280353621265
976.0, 0.015431126893596879
977.0, 0.022452626637057826
978.0, 0.02128523784929845
979.0, 0.02426473000187725
980.0, 0.028068125508666032
981.0, 0.028039021831956737
982.0, 0.029334641666034965
983.0, 0.03651375657862756
984.0, 0.04282551647701601
985.0, 0.038446162601647654
986.0, 0.04396256254063947
987.0, 0.04079159143928513
988.0, 0.04073920174959652
989.0, 0.05030883647975555
990.0, 0.05044459974967393
991.0, 0.05373490458166126
992.0, 0.058438853815834864
993.0, 0.0585055052499969
994.0, 0.05397592447995094
995.0, 0.044243303472245636
996.0, 0.03847398926870853
997.0, 0.033423953202561335
998.0, 0.032025143596715794
999.0, 0.027037185853837437
1000.0, 0.0240193762890664
1001.0, 0.009153777845451197
1002.0, 0.0077787980759559784
1003.0, 0.006392405357939203
1004.0, 0.006203045427528922
1005.0, 0.010809630639999077
1006.0, 0.0061080910249709875
1007.0, 0.004325330059823259
1008.0, 0.008010809792175362
1009.0, 0.0069693470195138114
1010.0, 0.016793024225312335
1011.0, 0.018221419355046016
1012.0, 0.022182659828230963
1013.0, 0.024428047909529824
1014.0, 0.026987311755988036
1015.0, 0.029124345630033292
1016.0, 0.03349582740853685
1017.0, 0.03879393010641621
1018.0, 0.0381497033511608
1019.0, 0.045835983536826254
1020.0, 0.04510227151108496
1021.0, 0.051854996498638874
1022.0, 0.05510073484619362
1023.0, 0.05566059280416935
1024.0, 0.057161258949516895
1025.0, 0.05423517694321078
1026.0, 0.05021644684815387
1027.0, 0.048566389602670464
1028.0, 0.051348911503542906
1029.0, 0.057843477411305744
1030.0, 0.05757549744213238
1031.0, 0.06183976820001357
1032.0, 0.050212313558446214
1033.0, 0.0560799276655124
1034.0, 0.0578252417964402
1035.0, 0.05430829205259213
1036.0, 0.05711710920395745
1037.0, 0.05702341529552859
1038.0, 0.05854823143839627
1039.0, 0.06482748015136983
1040.0, 0.06992481992451897
1041.0, 0.07139550016242349
1042.0, 0.069679244544497
1043.0, 0.06928554191880194
1044.0, 0.06495325853709448
1045.0, 0.06319443986456977
1046.0, 0.0646119196457384
1047.0, 0.06543790184541891
1048.0, 0.07053501670381171
1049.0, 0.06414329927966667
1050.0, 0.059751211174877715
1051.0, 0.0551549126264846
1052.0, 0.049103187682077325
1053.0, 0.049058658688340806
1054.0, 0.049112739057911574
1055.0, 0.050935397098231326
1056.0, 0.04867132925180282
1057.0, 0.026823953058673442
1058.0, 0.03544965990949222
1059.0, 0.04035520953182159
1060.0, 0.03811409672434387
1061.0, 0.032132368623335635
1062.0, 0.02993111338541128
1063.0, 0.03200739363655351
1064.0, 0.03111861921464916
1065.0, 0.026044753976505054
1066.0, 0.016932527086474178
1067.0, 0.008496797858866237
1068.0, 0.014432905119536828
1069.0, 0.008355332760556465
1070.0, 0.004871728609146
1071.0, 0.011316776470363422
1072.0, 0.0048504260395295234
1073.0, 0.004887419678595021
1074.0, 0.008015041961105729
1075.0, 0.011291029144367793
1076.0, 0.010397957910594604
1077.0, 0.0033196776616127325
1078.0, 0.0007118157235604801
1079.0, 0.00040053945716457675
1080.0, 0.0017127840473245106
1081.0, 0.0005199757115151363
1082.0, 0.0003762138772690232
1083.0, 0.0017622447070643349
1084.0, 0.004601837771645775
1085.0, 0.002870107123503883
1086.0, 0.005616710815711627
1087.0, 0.001688657740160031
1088.0, 0.002613098774418285
1089.0, 0.000501272430763311
1090.0, 0.009343080159418541
1091.0, 0.013115185576351333
1092.0, 0.0016015750984454758
1093.0, 0.003004396394822113
1094.0, 0.008248055402250275
1095.0, 0.006168442709882461
1096.0, 0.01060797346293159
1097.0, 0.005455004818084466
1098.0, 0.0006666634430332482
1099.0, 0.004481583533481215
1100.0, 0.0038508643595467035
1101.0, 0.010626528290103732
1102.0, 0.01484019390605415
1103.0, 0.00859943572985232
1104.0, 0.003814907422706924
1105.0, 0.005820696232780689
1106.0, 0.007864417174224196
1107.0, 0.011707136811335282
1108.0, 0.018092887344219186
1109.0, 0.014387488257185674
1110.0, 0.015525883232004422
1111.0, 0.008744005848821991
1112.0, 0.017656003004583126
1113.0, 0.009940670934719046
1114.0, 0.010525507097283324
1115.0, 0.012922613366952013
1116.0, 0.012246110751929936
1117.0, 0.015932857687455244
1118.0, 0.021170634672776533
1119.0, 0.01845447528567212
1120.0, 0.016243835865245235
1121.0, 0.024386099220067188
1122.0, 0.03183359362160816
1123.0, 0.027718115793519335
1124.0, 0.029896073658457825
1125.0, 0.03326551524014004
1126.0, 0.036524846630148614
1127.0, 0.04346463475135885
1128.0, 0.04906792338929522
1129.0, 0.030190141128095628
1130.0, 0.033236168209429824
1131.0, 0.032253608784916794
1132.0, 0.029379208409410548
1133.0, 0.03256723558496328
1134.0, 0.03575685887963589
1135.0, 0.03358327995973691
1136.0, 0.034627458817875705
1137.0, 0.037371826008347965
1138.0, 0.028599496186117297
1139.0, 0.025127841468386113
1140.0, 0.023517035682963993
1141.0, 0.03270898542894341
1142.0, 0.031405408551566635
1143.0, 0.027293511193677157
1144.0, 0.026282943916472266
1145.0, 0.017890528337749706
1146.0, 0.04293034216894224
1147.0, 0.04098943114372309
1148.0, 0.029118583021514124
1149.0, 0.029112428840908346
1150.0, 0.028456011291087813
1151.0, 0.02758247616142864
1152.0, 0.029232116236797806
1153.0, 0.023200249804965083
1154.0, 0.014503517726524633
1155.0, 0.017656131599401426
1156.0, 0.022933760337851404
1157.0, 0.019351177537744065
1158.0, 0.019684104138661836
1159.0, 0.014349737673135042
1160.0, 0.010296908109889522
1161.0, 0.004809293434784609
1162.0, 0.011529654337196564
1163.0, 0.01257649131365091
1164.0, 0.013123230965713785
1165.0, 0.009197839739961149
1166.0, 0.009054152421829597
1167.0, 0.014518769457856403
1168.0, 0.013142941757277852
1169.0, 0.01076585173471438
1170.0, 0.014074351034010325
1171.0, 0.011884542059477001
1172.0, 0.006616506218072831
1173.0, 0.004374501683560144
1174.0, 0.005284153759330719
1175.0, 0.004310935473713149
1176.0, 0.011768738394116112
1177.0, 0.005979391049988339
1178.0, 0.009929151764458447
1179.0, 0.005437098867813187
1180.0, 0.0007701445528309031
1181.0, 0.0022280006938639268
1182.0, 0.002389307595717265
1183.0, 0.00605411414169169
1184.0, 0.00659821909041404
1185.0, 0.0025869881349351296
1186.0, 0.004322180062650616
1187.0, 0.0007714684200758752
1188.0, 0.0013602557951003162
1189.0, 0.007605230574034192
1190.0, 0.006786444875568249
1191.0, 0.004584115038757522
1192.0, 0.008252520166472077
1193.0, 0.00782580993230705
1194.0, 0.0061436408984539975
1195.0, 0.004859252896145949
1196.0, 0.009942928283442254
1197.0, 0.012476343189235687
1198.0, 0.011837154983988638
1199.0, 0.008019216052170021
1200.0, 0.010674972659175105
1201.0, 0.008790244065225687
1202.0, 0.008644440461070635
1203.0, 0.0012471513850267665
1204.0, 0.0012946737908690724
1205.0, 0.006975008762012027
1206.0, 0.007066343246340244
1207.0, 0.005428609219866325
1208.0, 0.006885279726118774
1209.0, 0.011672422055524583
1210.0, 0.010076810032306815
1211.0, 0.009174861550487608
1212.0, 0.010559163926038615
1213.0, 0.012852477850772013
1214.0, 0.008537484185916556
1215.0, 0.006468631074051678
1216.0, 0.003723329800302074
1217.0, 0.009886487712327831
1218.0, 0.013379610990088667
1219.0, 0.008206658088473068
1220.0, 0.01885108187655916
1221.0, 0.014193144370536013
1222.0, 0.006629648578990768
1223.0, 0.004652989686483625
1224.0, 0.0068123743247674624
1225.0, 0.005882147826664836
1226.0, 0.0025009642365453172
1227.0, 0.006186457271809104
1228.0, 0.009019155051118397
1229.0, 0.009631055614376485
1230.0, 0.012574401509510896
1231.0, 0.010780869455725366
1232.0, 0.007161610497690128
1233.0, 0.012455374200221175
1234.0, 0.014249739969529256
1235.0, 0.005973221493288979
1236.0, 0.009820369013387963
1237.0, 0.008389904956370412
1238.0, 0.007444763849223652
1239.0, 0.024932058667706453
1240.0, 0.00859187665229401
1241.0, 0.0060813493494745
1242.0, 0.010538367414177664
1243.0, 0.007707504144957822
1244.0, 0.0003688207751356788
1245.0, 0.002313116490212001
1246.0, 0.003249562502920017
1247.0, 0.0014266008563528663
1248.0, 0.0055042758681330016
1249.0, 0.004673338535190058
1250.0, 0.001509017344904784
1251.0, 0.006112520591434763
1252.0, 0.008549639589092817
1253.0, 0.0045823350399885835
1254.0, 0.0003246425471193862
1255.0, 0.0029709588625600187
1256.0, 0.007137653766721642
1257.0, 0.009716623257439426
1258.0, 0.013987125306746666
1259.0, 0.008586482407748449
1260.0, 0.004830110649662125
1261.0, 0.00533610171813478
1262.0, 0.009095665800842536
1263.0, 0.0033555713952226297
1264.0, 0.011063947251324159
1265.0, 0.006745673637812852
1266.0, 0.00368170055349952
1267.0, 0.011881083187110196
1268.0, 0.016641088045785773
1269.0, 0.02084798768136045
1270.0, 0.009660173904100199
1271.0, 0.014687261697186775
1272.0, 0.010448191697887856
1273.0, 0.01266007256124779
1274.0, 0.0128574903420453
1275.0, 0.012775146812379514
1276.0, 0.008123271579150935
1277.0, 0.005696377465415973
1278.0, 0.01607306085192592
1279.0, 0.016868715751753423
1280.0, 0.004457959332396344
1281.0, 0.0002900811287088316
1282.0, 0.01393089064282933
1283.0, 0.018432482936929933
1284, 0.0
1285, 0.0
1286, 0.0
1287, 0.0
1288, 0.0
1289, 0.0
1290, 0.0
1291, 0.0
1292, 0.0
1293, 0.0
1294, 0.0
1295, 0.0
1296, 0.0
1297, 0.0
1298, 0.0
1299, 0.0
1300, 0.0
1301, 0.0
1302, 0.0
1303, 0.0
1304, 0.0
1305, 0.0
1306, 0.0
1307, 0.0
1308, 0.0
1309, 0.0
1310, 0.0
1311, 0.0
1312, 0.0
1313, 0.0
1314, 0.0
1315, 0.0
1316, 0.0
1317, 0.0
1318, 0.0
1319, 0.0
1320, 0.0
1321, 0.0
1322, 0.0
1323, 0.0
1324, 0.0
1325, 0.0
1326, 0.0
1327, 0.0
1328, 0.0
1329, 0.0
1330, 0.0
1331, 0.0
1332, 0.0
1333, 0.0
1334, 0.0
1335, 0.0
1336, 0.0
1337, 0.0
1338, 0.0
1339, 0.0
1340, 0.0
1341, 0.0
1342, 0.0
1343, 0.0
1344, 0.0
1345, 0.0
1346, 0.0
1347, 0.0
1348, 0.0
1349, 0.0
1350, 0.0
1351, 0.0
1352, 0.0
1353, 0.0
1354, 0.0
1355, 0.0
1356, 0.0
1357, 0.0
1358, 0.0
1359, 0.0
1360, 0.0
1361, 0.0
1362, 0.0
1363, 0.0
1364, 0.0
1365, 0.0
1366, 0.0
1367, 0.0
1368, 0.0
1369, 0.0
1370, 0.0
1371, 0.0
1372, 0.0
1373, 0.0
1374, 0.0
1375, 0.0
1376, 0.0
1377, 0.0
1378, 0.0
1379, 0.0
1380, 0.0
1381, 0.0
1382, 0.0
1383, 0.0
1384, 0.0
1385, 0.0
1386, 0.0
1387, 0.0
1388, 0.0
1389, 0.0
1390, 0.0
1391, 0.0
1392, 0.0
1393, 0.0
1394, 0.0
1395, 0.0
1396, 0.0
1397, 0.0
1398, 0.0
1399, 0.0
1400, 0.0
1401, 0.0
1402, 0.0
1403, 0.0
1404, 0.0
1405, 0.0
1406, 0.0
1407, 0.0
1408, 0.0
1409, 0.0
1410, 0.0
1411, 0.0
1412, 0.0
1413, 0.0
1414, 0.0
1415, 0.0
1416, 0.0
1417, 0.0
1418, 0.0
1419, 0.0
1420, 0.0
1421, 0.0
1422, 0.0
1423, 0.0
1424, 0.0
1425, 0.0
1426, 0.0
1427, 0.0
1428, 0.0
1429, 0.0
1430, 0.0
1431, 0.0
1432, 0.0
1433, 0.0
1434, 0.0
1435, 0.0
1436, 0.0
1437, 0.0
1438, 0.0
1439, 0.0
1440, 0.0
1441, 0.0
1442, 0.0
1443, 0.0
1444, 0.0
1445, 0.0
1446, 0.0
1447, 0.0
1448, 0.0
1449, 0.0
1450, 0.0
1451, 0.0
1452, 0.0
1453, 0.0
1454, 0.0
1455, 0.0
1456, 0.0
1457, 0.0
1458, 0.0
1459, 0.0
1460, 0.0
1461, 0.0
1462, 0.0
1463, 0.0
1464, 0.0
1465, 0.0
1466, 0.0
1467, 0.0
1468, 0.0
1469, 0.0
1470, 0.0
1471, 0.0
1472, 0.0
1473, 0.0
1474, 0.0
1475, 0.0
1476, 0.0
1477, 0.0
1478, 0.0
1479, 0.0
1480, 0.0
1481, 0.0
1482, 0.0
1483, 0.0
1484, 0.0
1485, 0.0
1486, 0.0
1487, 0.0
1488, 0.0
1489, 0.0
1490, 0.0
1491, 0.0
1492, 0.0
1493, 0.0
1494, 0.0
1495, 0.0
1496, 0.0
1497, 0.0
1498, 0.0
1499, 0.0
1500, 0.0
1501, 0.0
1502, 0.0
1503, 0.0
1504, 0.0
1505, 0.0
1506, 0.0
1507, 0.0
1508, 0.0
1509, 0.0
1510, 0.0
1511, 0.0
1512, 0.0
1513, 0.0
1514, 0.0
1515, 0.0
1516, 0.0
1517, 0.0
1518, 0.0
1519, 0.0
1520, 0.0
1521, 0.0
1522, 0.0
1523, 0.0
1524, 0.0
1525, 0.0
1526, 0.0
1527, 0.0
1528, 0.0
1529, 0.0
1530, 0.0
1531, 0.0
1532, 0.0
1533, 0.0
1534, 0.0
1535, 0.0
1536, 0.0
1537, 0.0
1538, 0.0
1539, 0.0
1540, 0.0
1541, 0.0
1542, 0.0
1543, 0.0
1544, 0.0
1545, 0.0
1546, 0.0
1547, 0.0
1548, 0.0
1549, 0.0
1550, 0.0
1551, 0.0
1552, 0.0
1553, 0.0
1554, 0.0
1555, 0.0
1556, 0.0
1557, 0.0
1558, 0.0
1559, 0.0
1560, 0.0
1561, 0.0
1562, 0.0
1563, 0.0
1564, 0.0
1565, 0.0
1566, 0.0
1567, 0.0
1568, 0.0
1569, 0.0
1570, 0.0
1571, 0.0
1572, 0.0
1573, 0.0
1574, 0.0
1575, 0.0
1576, 0.0
1577, 0.0
1578, 0.0
1579, 0.0
1580, 0.0
1581, 0.0
1582, 0.0
1583, 0.0
1584, 0.0
1585, 0.0
1586, 0.0
1587, 0.0
1588, 0.0
1589, 0.0
1590, 0.0
1591, 0.0
1592, 0.0
1593, 0.0
1594, 0.0
1595, 0.0
1596, 0.0
1597, 0.0
1598, 0.0
1599, 0.0
