30, 0.0
31, 0.0
32, 0.0
33, 0.0
34, 0.0
35, 0.0
36, 0.0
37, 0.0
38, 0.0
39, 0.0
40, 0.0
41, 0.0
42, 0.0
43, 0.0
44, 0.0
45, 0.0
46, 0.0
47, 0.0
48, 0.0
49, 0.0
50, 0.0
51, 0.0
52.0, 5.622773175605541e-05
53.0, 0.00021629215203863706
54.0, 0.000484097228192195
55.0, 0.0005782822171416401
56.0, 0.0008929933499058932
57.0, 0.0008840419700651088
58.0, 0.0005747768407702347
59.0, 0.0001900906132167704
60.0, 8.764521482116898e-05
61.0, 0.00014280001383433141
62.0, 0.00015922352428592986
63.0, 0.00011002998421156895
64.0, 3.6869076158236485e-05
65.0, 7.904335375199847e-05
66.0, 0.00031165449157373866
67.0, 0.0005825985944505984
68.0, 0.0008819996213724649
69.0, 0.0011854331725407539
70.0, 0.0014388055872063925
71.0, 0.001676546345684215
72.0, 0.001708178621307127
73.0, 0.0019919955401944047
74.0, 0.002593158723844346
75.0, 0.0032593987260140247
76.0, 0.0038478635094297995
77.0, 0.004763073204705769
78.0, 0.005403625816598449
79.0, 0.006007144730357872
80.0, 0.006992389990559866
81.0, 0.007617047444403639
82.0, 0.008656189149948717
83.0, 0.010052284610509842
84.0, 0.011516354423658887
85.0, 0.012784378889566964
86.0, 0.013843801160305955
87.0, 0.016142331662333302
88.0, 0.018338998265938926
89.0, 0.02041331025150144
90.0, 0.022752462040680967
91.0, 0.026155525197491973
92.0, 0.027834889188787734
93.0, 0.02972662484878639
94.0, 0.03222736531537966
95.0, 0.034771254357210055
96.0, 0.03624214413801996
97.0, 0.03857529723667119
98.0, 0.04169420299455782
99.0, 0.0459690621778564
100.0, 0.05094216386480959
101.0, 0.05591030632065213
102.0, 0.06084999944336002
103.0, 0.06723841669649909
104.0, 0.07309403245332426
105.0, 0.07723200388398718
106.0, 0.07903811178696092
107.0, 0.07873001339701638
108.0, 0.07547490339073992
109.0, 0.06934635571708198
110.0, 0.062326356054565844
111.0, 0.05589739586021543
112.0, 0.0507219459245629
113.0, 0.04768396142658016
114.0, 0.04619798657514048
115.0, 0.04498372646684033
116.0, 0.04432037442932807
117.0, 0.04501843255406539
118.0, 0.04590337723565963
119.0, 0.046944846389338345
120.0, 0.048855982562887285
121.0, 0.051460643853472016
122.0, 0.05445920173983685
123.0, 0.05787697301206626
124.0, 0.062574935087518
125.0, 0.06766891264386202
126.0, 0.07323236653081719
127.0, 0.08012918102642316
128.0, 0.08993269892046714
129.0, 0.1009662637651066
130.0, 0.11109750761964518
131.0, 0.12192333160892833
132.0, 0.1319825457379602
133.0, 0.1390571181213631
134.0, 0.14636766946643098
135.0, 0.14971409039331404
136.0, 0.14765114778727945
137.0, 0.1430979864807929
138.0, 0.13796770350846116
139.0, 0.12919351528150977
140.0, 0.11983596880034966
141.0, 0.11204811215597095
142.0, 0.10295085493485495
143.0, 0.09332015084077425
144.0, 0.08736149877790436
145.0, 0.08156323374949294
146.0, 0.07697043142157282
147.0, 0.07219460399188475
148.0, 0.06788055572860274
149.0, 0.06478717499145477
150.0, 0.06064526377832257
151.0, 0.059286622147536924
152.0, 0.05655291306910345
153.0, 0.05355811320142376
154.0, 0.051142902414203016
155.0, 0.048520699387092726
156.0, 0.045886403430729805
157.0, 0.04290419077333835
158.0, 0.039657818659010004
159.0, 0.03697100643942939
160.0, 0.03568490041685221
161.0, 0.03360448813025579
162.0, 0.03247074334457963
163.0, 0.030445793653205593
164.0, 0.028459009178757207
165.0, 0.02741817404225197
166.0, 0.02669020178082536
167.0, 0.025528671321241498
168.0, 0.025007708650419243
169.0, 0.02395824483623837
170.0, 0.022725547838751987
171.0, 0.02279953785776076
172.0, 0.02270558270300016
173.0, 0.021985230146318015
174.0, 0.02187363831590572
175.0, 0.02161085185146612
176.0, 0.02070156704130517
177.0, 0.021318364882700076
178.0, 0.020115563003460346
179.0, 0.019420479509512104
180.0, 0.01909040588409003
181.0, 0.01894735474074041
182.0, 0.018951455643884656
183.0, 0.01851452926388058
184.0, 0.0182370844159648
185.0, 0.01816438122837777
186.0, 0.01787869165806583
187.0, 0.017056317227903472
188.0, 0.01623524916971767
189.0, 0.01570222927620146
190.0, 0.015538013324429934
191.0, 0.01533367610191654
192.0, 0.015093223499373058
193.0, 0.015258697539117414
194.0, 0.014941274573469459
195.0, 0.014454573813342746
196.0, 0.014241039090639446
197.0, 0.0141926974851747
198.0, 0.014103401037490826
199.0, 0.01415958950461534
200.0, 0.012895367170716517
201.0, 0.013182192127468836
202.0, 0.013293179967639138
203.0, 0.012751947128047529
204.0, 0.01278141876802233
205.0, 0.013275816330617501
206.0, 0.012868000354915657
207.0, 0.011957182557906171
208.0, 0.011187678362295606
209.0, 0.010938349183915643
210.0, 0.010607712570420097
211.0, 0.011031322765142357
212.0, 0.010682844042623244
213.0, 0.010177604899234608
214.0, 0.00983316607760592
215.0, 0.009556590045717336
216.0, 0.009365959601061687
217.0, 0.009146197489322314
218.0, 0.008712519006605699
219.0, 0.008508590273809666
220.0, 0.008695438801758692
221.0, 0.008462121250992535
222.0, 0.008400463710939715
223.0, 0.00864805984541165
224.0, 0.008561117448286564
225.0, 0.008328805006467392
226.0, 0.008446790894751756
227.0, 0.007615121816692915
228.0, 0.008048841329658924
229.0, 0.007653916991406102
230.0, 0.007236266724291421
231.0, 0.007391041065337487
232.0, 0.007561239896577076
233.0, 0.006823384418169558
234.0, 0.007259670220872589
235.0, 0.007357078808861384
236.0, 0.006833289088567995
237.0, 0.006212850336145796
238.0, 0.006717177136955826
239.0, 0.00590601325357011
240.0, 0.005406620762787022
241.0, 0.005637580074154917
242.0, 0.00608841798333996
243.0, 0.005722499489084128
244.0, 0.006013295789432528
245.0, 0.006114916261391602
246.0, 0.005605569316367758
247.0, 0.005295569644102411
248.0, 0.005536127871996153
249.0, 0.005139784044662846
250.0, 0.005032393506899767
251.0, 0.0054235129279536914
252.0, 0.005346859739735792
253.0, 0.004874456558221082
254.0, 0.004567257262566566
255.0, 0.004395906890979548
256.0, 0.004265595048973597
257.0, 0.003909178613631203
258.0, 0.0037384620740012584
259.0, 0.003784829925078144
260.0, 0.0036626936285975896
261.0, 0.003864426165422883
262.0, 0.0037503251722591307
263.0, 0.0036221412540651536
264.0, 0.0035451521508226133
265.0, 0.00344279339906282
266.0, 0.0031048182217289673
267.0, 0.00316978138093143
268.0, 0.0034498987635124224
269.0, 0.003200361810354106
270.0, 0.0029138743163424656
271.0, 0.0032030610964154113
272.0, 0.0026972573394553685
273.0, 0.0029296898112455426
274.0, 0.0023914508768064493
275.0, 0.002363570802841581
276.0, 0.0028005627335359095
277.0, 0.0025288740083965326
278.0, 0.002649045322164425
279.0, 0.0022328261807094273
280.0, 0.0023298992092705252
281.0, 0.0022451444785684532
282.0, 0.0017598124830582231
283.0, 0.0018116210910601458
284.0, 0.002101471143974989
285.0, 0.0018463072158977723
286.0, 0.0019839288173418715
287.0, 0.0020948735146557266
288.0, 0.00170589769340305
289.0, 0.0014079924977198248
290.0, 0.0015892797674917623
291.0, 0.0016879393121231878
292.0, 0.0017548046798250036
293.0, 0.0017614666785475022
294.0, 0.0016694229378558477
295.0, 0.0016113776549177457
296.0, 0.001468100917338495
297.0, 0.0008467891177817237
298.0, 0.0006251673835470081
299.0, 0.0011100823540391123
300.0, 0.0018077487144719272
301.0, 0.001124621159415077
302.0, 0.0010234153179677935
303.0, 0.001163417282253067
304.0, 0.001035972001699772
305.0, 0.0006367699634673569
306.0, 0.0005820230073123392
307.0, 0.000986161946954416
308.0, 0.0008998306250025769
309.0, 0.0005170013734966524
310.0, 0.0005276022502135273
311.0, 0.0009514805843489717
312.0, 0.0005258586854504987
313.0, 0.0005228737717385248
314.0, 0.00064761310297365
315.0, 0.000754934907804069
316.0, 0.0008784699207833991
317.0, 0.0009713352656351152
318.0, 0.0006422229692119053
319.0, 0.0005585046193158152
320.0, 0.0002947602127442186
321.0, 0.00015881544209252394
322.0, 0.0005813633006164209
323.0, 0.0014433489396608859
324.0, 0.0008274432690814328
325.0, 0.0007871874781949952
326.0, 0.0008024096639908398
327.0, 0.0005345919026511672
328.0, 0.00014382173088017778
329.0, 2.7882788447549235e-05
330.0, 0.0001783065195993519
331.0, 5.403597125920298e-05
332.0, 0.00011155004612853372
333.0, 0.0001120035939663556
334.0, 0.00015005879719346045
335.0, 0.00045055174784128867
336.0, 0.00013624327529139662
337.0, 0.000460222553155475
338.0, 0.000344703082895602
339.0, 0.00018307586742743892
340.0, 0.00022135216848254995
341.0, 0.0003104385153296801
342.0, 3.479297184139343e-05
343.0, 0.0002669050084291107
344.0, 0.00036776595155620394
345.0, 0.0003053333220323424
346.0, 0.0001848547839617449
347.0, 0.00012977365339749618
348.0, 0.00016683124469518844
349.0, 0.00010638452882577185
350.0, 0.00036453563919408794
351.0, 0.00042952983754263106
352.0, 0.00016295865673445848
353.0, 8.045309917385717e-05
354.0, 0.00026700617904775186
355.0, 8.93078463385369e-05
356.0, 2.2823890135720905e-05
357.0, 0.00011574542836457178
358.0, 0.00023731057323077355
359.0, 0.0001904729814475037
360.0, 8.138364672901992e-05
361.0, 0.00013294964289458643
362.0, 0.00013739183310648042
363.0, 0.0002659231133543325
364.0, 0.0004473815374850662
365.0, 0.00024462276222216104
366.0, 0.0001619028225172627
367.0, 0.00041415355690522994
368.0, 0.000335307750932599
369.0, 0.00023316758093666336
370.0, 0.00040706822428118
371.0, 0.0007257512042018199
372.0, 0.00026345860721622364
373.0, 9.026128651652559e-05
374.0, 7.820540354813523e-05
375.0, 0.00026840914798947576
376.0, 0.00043494073713414445
377.0, 0.00010663617281751761
378.0, 0.00037215762149577446
379.0, 0.00030561687364788123
380.0, 0.00022722031286876327
381.0, 0.00021810325185830934
382.0, 0.00031068869703086504
383.0, 0.0004894728018200633
384.0, 0.00018125161694752985
385.0, 0.0003286286302429298
386.0, 0.0002774921951565664
387.0, 0.0005067977085191996
388.0, 0.0008962373773043967
389.0, 0.0005839435148939027
390.0, 0.0004489906298174732
391.0, 0.00031111821981622624
392.0, 0.0002639454073909878
393.0, 0.00030967657263285037
394.0, 0.0003889079895379412
395.0, 0.0003926205147557555
396.0, 0.00013740619961181603
397.0, 0.00019425967465202363
398.0, 0.00013247626511523816
399.0, 7.427580385406388e-05
400.0, 0.000154453514831129
401.0, 0.00034112035847396415
402.0, 0.0001134360257277177
403.0, 0.00046810244696963424
404.0, 0.0005511336425501298
405.0, 0.0004009099796971251
406.0, 0.00023825403097242823
407.0, 0.00024904667837249967
408.0, 0.0002745852882949991
409.0, 0.0007080611939898612
410.0, 0.0004364488556239958
411.0, 0.00031260779445015736
412.0, 0.0003599491820310547
413.0, 0.00024083445301980482
414.0, 0.00040686385718872065
415.0, 0.0002816659804525202
416.0, 0.00012029748013212148
417.0, 3.5575735097263236e-05
418.0, 0.00016414474135594578
419.0, 0.000470900458416772
420.0, 0.0005547729712159679
421.0, 0.0004424467485064011
422.0, 0.000578545615286616
423.0, 0.0003616155658749451
424.0, 9.283386112238439e-05
425.0, 0.00011363681839978499
426.0, 0.00022858614351904715
427.0, 0.00012084162941652319
428.0, 0.0003556680791431614
429.0, 0.0003457039532282854
430.0, 0.00024958515832031875
431.0, 0.00018641611623609495
432.0, 3.2300011000520094e-05
433.0, 0.00014143425978627706
434.0, 0.000275045609104395
435.0, 0.0001924644719259338
436.0, 0.0004378348686770518
437.0, 0.0007303764530253907
438.0, 0.00034031904881686446
439.0, 0.00038792379087665543
440.0, 0.0006710886227134923
441.0, 0.0004005204706498185
442.0, 0.00018387738451499093
443.0, 0.00024756096473417045
444.0, 0.0003973922375820971
445.0, 0.0002585370045743247
446.0, 0.00028985013590485386
447.0, 0.0004925671960148561
448.0, 0.0005550679125337988
449.0, 0.00042114348690518643
450.0, 0.00033004014030140827
451.0, 0.0007293624524118106
452.0, 0.0006700052926610714
453.0, 0.0007771008813326677
454.0, 0.0006368520509056914
455.0, 0.0006139348571484515
456.0, 0.0007209345621460172
457.0, 0.00045784387307084087
458.0, 0.0003984885079197134
459.0, 0.00046174638119629514
460.0, 0.0006409555398859193
461.0, 0.0007259877091381458
462.0, 0.0006428151566717327
463.0, 0.0005478218232728315
464.0, 0.0009027681167426307
465.0, 0.0008725213209360287
466.0, 0.0007634849465583592
467.0, 0.0008661117725301063
468.0, 0.0009575042091091013
469.0, 0.0007965990923377571
470.0, 0.0006181381684062619
471.0, 0.000785247366592854
472.0, 0.00038825322855847886
473.0, 0.0007985319197144943
474.0, 0.001235754550666133
475.0, 0.001090557265020558
476.0, 0.0007864952436610353
477.0, 0.001232476544610745
478.0, 0.001714736704563138
479.0, 0.0008086915283514967
480.0, 0.0006565986208825113
481.0, 0.0010794784066235047
482.0, 0.0007706210204842772
483.0, 0.0009770322871113435
484.0, 0.0010320222898499906
485.0, 0.0011589433908312516
486.0, 0.0015294196672609
487.0, 0.001713559310595008
488.0, 0.0014774410873378645
489.0, 0.0012096428711789603
490.0, 0.000642009757803033
491.0, 0.0003560006358736005
492.0, 0.0011528051438494777
493.0, 0.0013877375505032795
494.0, 0.0011169611550174855
495.0, 0.0016594216494949924
496.0, 0.0018392217340125288
497.0, 0.0010149450871389817
498.0, 0.0009691962316753449
499.0, 0.00114878668653283
500.0, 0.0011867642457885955
501.0, 0.0012076298938720857
502.0, 0.0017529214282947765
503.0, 0.0011846309100573657
504.0, 0.0011396219196836994
505.0, 0.0008314430685010935
506.0, 0.0007072223650704112
507.0, 0.0008597267435722005
508.0, 0.0008697260584457666
509.0, 0.0006994669852680164
510.0, 0.000855665855530444
511.0, 0.0007070310274921947
512.0, 0.0006386813834383732
513.0, 0.0006848100659419806
514.0, 0.0008287408933833583
515.0, 0.001210633011244193
516.0, 0.00022908096234182732
517.0, 0.0003073578987572098
518.0, 0.0008135901930047432
519.0, 0.0014034679807788312
520.0, 0.0013452848559691595
521.0, 0.00035206337351779564
522.0, 0.0009245319814992919
523.0, 0.0008505105062032465
524.0, 0.0009037060725399604
525.0, 0.0007629153584668724
526.0, 0.0005083059543461499
527.0, 0.00043554605193700676
528.0, 0.0007600692640057975
529.0, 0.000918240295000838
530.0, 0.0006749931605212082
531.0, 0.0003005419097613594
532.0, 0.0006514724589874348
533.0, 0.0012206901024425557
534.0, 0.0010029990847534684
535.0, 0.0006232486304209989
536.0, 0.0005309404987942376
537.0, 0.0004037509368853258
538.0, 0.0003095793119118217
539.0, 0.0002741330675996537
540.0, 0.0003453576419766143
541.0, 0.0005410776106603906
542.0, 0.0004991677952771574
543.0, 0.0010128279092310646
544.0, 0.0009404845888490159
545.0, 0.0007238780670548649
546.0, 0.00045816305422879147
547.0, 0.00023660673976228294
548.0, 0.0005133007120124297
549.0, 0.00020911164775343154
550.0, 0.0005780875517216399
551.0, 0.0006409825842794536
552.0, 0.0007856906258542721
553.0, 0.0009193288172436433
554.0, 0.0006735314220214248
555.0, 0.0006368029268269246
556.0, 0.0001613198344143347
557.0, 0.00022706370196496194
558.0, 0.0004526461822297858
559.0, 0.0006148248211688207
560.0, 0.0006820355421274927
561.0, 0.0007312122951978945
562.0, 0.0006273060362572913
563.0, 0.0006140680504886321
564.0, 0.000613458556917592
565.0, 0.0005699404079409102
566.0, 0.0005550784525372572
567.0, 0.0005904109838569269
568.0, 0.0005604300978661135
569.0, 0.0006791940173979177
570.0, 0.0005939846387698464
571.0, 0.00050877307825561
572.0, 0.0004910339517914729
573.0, 0.0004390715441721372
574.0, 0.0003012633577932531
575.0, 0.00031205176128491064
576.0, 0.0002744660040338144
577.0, 0.0001638908224639777
578.0, 0.0003155488480078711
579.0, 0.00044464062753679884
580.0, 0.0006898855888064345
581.0, 0.0010675204441139645
582.0, 5.95162654953441e-05
583.0, 0.0002332554779623465
584.0, 0.0007777677043360069
585.0, 0.0008497227469518827
586.0, 0.0008289862826791917
587.0, 0.0010258837067637847
588.0, 0.0012210916898810148
589.0, 0.0009942665056235946
590.0, 0.00025444179704234564
591.0, 0.0003418113224004085
592.0, 0.0006080221102348957
593.0, 0.0009545699691676336
594.0, 0.0010652489202439828
595.0, 0.00044752836151734675
596.0, 0.00019319468095967257
597.0, 0.0005082658814117631
598.0, 0.0006121526940901163
599.0, 0.0004608423389359477
600.0, 0.000563082178566533
601.0, 0.0008816628324611341
602.0, 0.0006715379726747639
603.0, 0.0010236338939721653
604.0, 0.0004332577037001946
605.0, 0.00023659526843548942
606.0, 0.0005221376342310724
607.0, 0.0008766667696741196
608.0, 0.001004511212132718
609.0, 0.001007923655359469
610.0, 0.00042909904231382004
611.0, 0.00045424688480218703
612.0, 0.0005227927111010945
613.0, 0.0003689405520795277
614.0, 0.0002951433030226503
615.0, 0.00040133290346474216
616.0, 0.0002515244912516875
617.0, 0.0009817880917213442
618.0, 0.0010099072852369946
619.0, 0.0011377328260254848
620.0, 0.0010153626298176834
621.0, 0.00081731093001923
622.0, 0.0008261667729584356
623.0, 0.0009027800897655938
624.0, 0.0006734158736340067
625.0, 0.0013132245997318317
626.0, 0.0015948057534612998
627.0, 0.0013931068100056193
628.0, 0.001120195153510652
629.0, 0.00124624718498163
630.0, 0.0017237128608978286
631.0, 0.0008976801363943447
632.0, 0.0012050804576044607
633.0, 0.0004812349939835954
634.0, 0.0008341188212742807
635.0, 0.0014096146741364663
636.0, 0.0011356146963801973
637.0, 0.0009928092692360452
638.0, 0.0011147395763023479
639.0, 0.0010185625907200206
640.0, 0.0010374147089454288
641.0, 0.0008064482359936066
642.0, 0.0007452546200418674
643.0, 0.001105403094652248
644.0, 0.0013543790299639516
645.0, 0.0007169888824459076
646.0, 0.0006541895798056748
647.0, 0.0007978494171243933
648.0, 0.0009959907765763293
649.0, 0.0010956425738577887
650.0, 0.0009456420547133354
651.0, 0.0006713571429096905
652.0, 0.0013747551552259452
653.0, 0.0013017365667250434
654.0, 0.0006370504378276875
655.0, 0.0003812310266292812
656.0, 0.0006191108230528984
657.0, 0.0010183046784395498
658.0, 0.0012365154299544504
659.0, 0.0011686742238023698
660.0, 0.000828687153839936
661.0, 0.000412551626900337
662.0, 0.00017761566859354056
663.0, 0.00023809922428261307
664.0, 0.0003234738781801722
665.0, 0.0002768907495137934
666.0, 0.00068857599335399
667.0, 0.00038413011131159145
668.0, 0.0006053890972418817
669.0, 0.0008306010294174323
670.0, 0.0008936209302565927
671.0, 0.0009874462034550097
672.0, 0.0012607541918490117
673.0, 0.001590057935685864
674.0, 0.002880755981380945
675.0, 0.0025350922899128434
676.0, 0.003377029954240594
677.0, 0.003728713863318142
678.0, 0.0028579105058875406
679.0, 0.0017502468157660528
680.0, 0.001955930057464794
681.0, 0.0019276851270700216
682.0, 0.004621012022556739
683.0, 0.007941450520609242
684.0, 0.010391182530586279
685.0, 0.010133060887600843
686.0, 0.007534632980944856
687.0, 0.004715792209169185
688.0, 0.0024835213339328343
689.0, 0.0010869494723935935
690.0, 0.0014266647098430032
691.0, 0.0012772672649792156
692.0, 0.001024499025258889
693.0, 0.00072183294483279
694.0, 0.0004092067498504341
695.0, 0.000832106840805931
696.0, 0.00031912783408290745
697.0, 0.0004354506186480267
698.0, 0.0007041724346881795
699.0, 0.0005278837068294503
700.0, 0.00043955968181543
701.0, 0.00054013461928354
702.0, 0.0002384781491303052
703.0, 0.000624729818509376
704.0, 0.0001876407761725415
705.0, 8.463576128095262e-05
706.0, 0.00016545611489174745
707.0, 0.00027287950930113996
708.0, 0.00035558242954443996
709.0, 0.00045256538561846575
710.0, 0.0006431989984094924
711.0, 0.0014199897189593883
712.0, 0.0010820526450246507
713.0, 0.0004744502334882303
714.0, 0.000372208711158774
715.0, 0.0006340507137871462
716.0, 0.0007707641521315318
717.0, 0.0006426468698765254
718.0, 0.0007499344663793214
719.0, 0.0008572106339171805
720.0, 0.0009422518592910682
721.0, 0.0007062843964198455
722.0, 0.0005352607043627141
723.0, 0.0006608298727136159
724.0, 0.0008735166855303437
725.0, 0.0007128700624940045
726.0, 0.00012317772903227897
727.0, 0.0008007966674092736
728.0, 0.00033253936453218663
729.0, 0.00041955748896760055
730.0, 0.0008702705632321616
731.0, 0.0009615031058280594
732.0, 0.0007891676291081586
733.0, 0.0007890059757660779
734.0, 0.0008616882015283853
735.0, 0.0008470115432103541
736.0, 0.0008789257218143191
737.0, 0.0009030989278401811
738.0, 0.0008746822403153552
739.0, 0.0007808835537577566
740.0, 0.0006486683556710399
741.0, 0.0007841639153174121
742.0, 0.0004717944263127531
743.0, 0.0004881157276303643
744.0, 0.000749854334548333
745.0, 0.0007493225835594263
746.0, 0.00046331670409372887
747.0, 0.00028551662639390054
748.0, 0.00027127409783804187
749.0, 0.0010489626823037388
750.0, 0.000510233762324486
751.0, 0.0008692094372276782
752.0, 0.0011649887717817933
753.0, 0.0010944302893285919
754.0, 0.0009548601804241587
755.0, 0.0009390312404081267
756.0, 0.0006850989754462147
757.0, 0.0007826743309347835
758.0, 0.0002792523417353553
759.0, 0.0006671161919849688
760.0, 0.00106963298321989
761.0, 0.0011896234437434622
762.0, 0.0010070539194752949
763.0, 0.00027412200878583904
764.0, 0.0002030840609640727
765.0, 0.00012656976639464391
766.0, 0.0007570250427461002
767.0, 0.000591421068460542
768.0, 0.0005273748786327375
769.0, 0.0005581515857439055
770.0, 0.00028816794018053204
771.0, 0.0004370170351143198
772.0, 0.000311681896956986
773.0, 0.0006005581510956428
774.0, 0.0007319185894991648
775.0, 0.0005562152197897822
776.0, 0.00041200552522129756
777.0, 0.00039923220238705093
778.0, 0.00042595614326420113
779.0, 0.0006607373219517778
780.0, 0.0011817433564754573
781.0, 0.0011528173270710076
782.0, 0.0007622623937282165
783.0, 0.0009392547684315962
784.0, 0.001032917394646985
785.0, 0.0009062302801919644
786.0, 0.0009605183668916807
787.0, 0.0007236988700580906
788.0, 0.0007765955760612673
789.0, 0.0008687933462024025
790.0, 0.0010563758076970306
791.0, 0.0009119393137270033
792.0, 0.0007624392349865508
793.0, 0.0005930983220086896
794.0, 0.0003155915629980098
795.0, 0.0007074620900029253
796.0, 0.00013205438487566177
797.0, 0.00044554557228566796
798.0, 0.0007722255357425226
799.0, 0.0005786758800751335
800.0, 0.0004592951658706386
801.0, 0.0005675007691934612
802.0, 0.0006453429263156096
803.0, 0.001061640913955663
804.0, 0.0006728063631805995
805.0, 0.0009507201256567689
806.0, 0.0012772208867879603
807.0, 0.0012200694789521902
808.0, 0.0008747647187834742
809.0, 0.0005980161328428392
810.0, 0.0006490469875021522
811.0, 0.0009565313295860525
812.0, 0.0013138699722179308
813.0, 0.0010141311525438113
814.0, 0.0013872800786339603
815.0, 0.0015894122299185813
816.0, 0.0018304291508285796
817.0, 0.0019613341380638628
818.0, 0.001890063427084082
819.0, 0.0023274345697815372
820.0, 0.002546786131640408
821.0, 0.002138299552100422
822.0, 0.0024712591838604897
823.0, 0.002724146690417368
824.0, 0.0035503957930073603
825.0, 0.004830534109482847
826.0, 0.005394311299768535
827.0, 0.004526662461111425
828.0, 0.0044464086623652015
829.0, 0.0038208353841964193
830.0, 0.0048022013342662795
831.0, 0.005984568007355895
832.0, 0.006825856238089069
833.0, 0.008384323428978595
834.0, 0.011481681618602019
835.0, 0.015943993913732035
836.0, 0.022512580848678382
837.0, 0.03523929308436339
838.0, 0.05456069618061278
839.0, 0.07359916594705922
840.0, 0.07852134320223955
841.0, 0.06774760960508165
842.0, 0.048479314217526805
843.0, 0.030019831117789934
844.0, 0.018482663764538193
845.0, 0.010770418678038546
846.0, 0.007429975715760825
847.0, 0.005136299759137802
848.0, 0.003958376905826026
849.0, 0.0031067845570644822
850.0, 0.001986561527955033
851.0, 0.0010770429991598105
852.0, 0.0013333433442169866
853.0, 0.0014893018572993463
854.0, 0.0019043428743054146
855.0, 0.001678825802192169
856.0, 0.002186407733575729
857.0, 0.001768604998107029
858.0, 0.0007740770989795619
859.0, 0.0006284937057001042
860.0, 0.0012507513349562978
861.0, 0.00025871264187420757
862.0, 0.0009246311524458327
863.0, 0.0009542622626443493
864.0, 0.0008154604248879519
865.0, 0.000472502374826681
866.0, 0.0004099073241846125
867.0, 0.0005622628631282367
868.0, 0.0006173739721173831
869.0, 0.0007225292679008082
870.0, 0.0009472442835039332
871.0, 0.0007224469199699152
872.0, 0.0005222983783117651
873.0, 0.00016675999775725333
874.0, 0.00020042026576469945
875.0, 0.0005600567767914085
876.0, 0.000916140909566449
877.0, 0.0010600682766093781
878.0, 0.0008918139381190538
879.0, 0.0006108881903921551
880.0, 0.001156157868425679
881.0, 0.0006119596781440482
882.0, 0.0008076539889469537
883.0, 0.0005498177305918117
884.0, 0.00012179686476216992
885.0, 0.0003337001241471203
886.0, 0.0006290731480955303
887.0, 0.00037399674708196707
888.0, 0.0005256526526161325
889.0, 0.0002883451158760432
890.0, 0.0007149813271632849
891.0, 0.00045044512879020225
892.0, 0.00040909429281372177
893.0, 0.000488480046677152
894.0, 0.00012390633211419898
895.0, 0.00012290284327333867
896.0, 3.7139003414185165e-05
897.0, 0.0004124952249048751
898.0, 0.0001717437743608487
899.0, 0.00036760224087866204
900.0, 0.0002457403778329845
901.0, 0.0003755818863545227
902.0, 0.0007615671189378738
903.0, 0.0006182340296459767
904.0, 0.00011567813687000082
905.0, 0.0006278777777531238
906.0, 0.0003739685886297902
907.0, 0.0002927001834765537
908.0, 0.00012867722111040134
909.0, 0.0003085702953905535
910.0, 0.0006923101060023398
911.0, 0.0008085383208269717
912.0, 0.0005023802839178537
913.0, 0.00021590312835405892
914.0, 0.0002982343674697915
915.0, 0.00035279619255015296
916.0, 0.00048037680564862027
917.0, 0.0005876351981168841
918.0, 0.0004843765394074367
919.0, 0.0004667414080351815
920.0, 0.0006251248118384021
921.0, 0.0005980896461618572
922.0, 0.00023722161842745494
923.0, 0.0002216585640042319
924.0, 6.651862250232839e-05
925.0, 0.000122354755831501
926.0, 7.163821999912582e-05
927.0, 0.00031810780345364214
928.0, 0.000335082852088103
929.0, 0.00014940082795263462
930.0, 0.00028752933899468233
931.0, 0.00021235361370954657
932.0, 0.00011437011996984012
933.0, 0.0002702365431186736
934.0, 0.0007006748962785986
935.0, 0.0010145926149917172
936.0, 0.000520347090224314
937.0, 0.0005227474678313863
938.0, 0.0010214470216868316
939.0, 0.0008573248919572606
940.0, 0.0005681436180615903
941.0, 0.0005585532303964662
942.0, 0.00023387304068614106
943.0, 0.0002752138399542204
944.0, 0.0001823279311226429
945.0, 0.0002366278914113689
946.0, 0.00025431355470229645
947.0, 0.0001915333740266225
948.0, 0.00021958060596997869
949.0, 0.00041808402771301297
950.0, 0.000953727598187178
951.0, 0.0010508330057384635
952.0, 0.000805938308514033
953.0, 0.0013850994750763815
954.0, 0.0009660936733392102
955.0, 0.0012093764894365066
956.0, 0.0013175798985920791
957.0, 0.0007599354885406163
958.0, 0.0010774564704852958
959.0, 0.0006359096405365479
960.0, 0.0009585776614674727
961.0, 0.0007719029234844932
962.0, 0.0008150622533370255
963.0, 0.0007524596951429313
964.0, 0.0003588739503764877
965.0, 0.0005709027257769262
966.0, 0.00083301073424259
967.0, 0.00021695772289261165
968.0, 0.0004135271984161752
969.0, 0.0006987867159295333
970.0, 0.0011346569179923598
971.0, 0.0008125249495389308
972.0, 0.0006287169886424672
973.0, 0.00026860204166675105
974.0, 0.00024303693164308833
975.0, 0.0003310914722347021
976.0, 0.000399076000882903
977.0, 0.0008109027417527296
978.0, 0.0003884362710628369
979.0, 0.0006975474991022194
980.0, 0.0009654108616027988
981.0, 0.0004439793397881841
982.0, 0.0012602998923376756
983.0, 0.0011269330599475984
984.0, 0.0007499265633925776
985.0, 0.000907432189311274
986.0, 0.0009151185330796735
987.0, 0.0008382032815817977
988.0, 0.0009261237498302441
989.0, 0.0005568116217726233
990.0, 0.0010459353463857025
991.0, 0.000993361195044
992.0, 0.0007678874361133665
993.0, 0.0008095420483661414
994.0, 0.0007790481181992661
995.0, 0.0007534477514068534
996.0, 0.0010724691857712174
997.0, 0.0009010348453680723
998.0, 0.0012695291608495534
999.0, 0.0010598911758883662
1000.0, 0.0003197811820434685
1001.0, 0.0009072595081772578
1002.0, 0.0006892740857836718
1003.0, 0.001087191603347075
1004.0, 0.0018278662885134857
1005.0, 0.0017128969167970116
1006.0, 0.0013541122484858456
1007.0, 0.001358951596118957
1008.0, 0.0005516696442434041
1009.0, 0.0007012738037098518
1010.0, 0.0008040809717678533
1011.0, 0.0008569690850493736
1012.0, 0.00090926089655208
1013.0, 0.0009252556637231762
1014.0, 0.0008981291478828917
1015.0, 0.000847791383419283
1016.0, 0.0007429410347988807
1017.0, 0.0005326275109398896
1018.0, 0.00036141434104140893
1019.0, 0.0010413353520151074
1020.0, 0.0017966782774618763
1021.0, 0.0014981411458795924
1022.0, 0.0005677694636993407
1023.0, 0.00037163655128237495
1024.0, 0.0010797846974592946
1025.0, 0.0013875155650003067
1026.0, 0.0008717205507513104
1027.0, 0.00154419416321907
1028.0, 0.000527747440165942
1029.0, 0.0021600612250639805
1030.0, 0.00311243719259639
1031.0, 0.003540196501058641
1032.0, 0.004059514838295872
1033.0, 0.004322460235342479
1034.0, 0.004289916048768213
1035.0, 0.00412556741543827
1036.0, 0.0036924056230046897
1037.0, 0.002965699378074125
1038.0, 0.002398983275742107
1039.0, 0.003635260737451747
1040.0, 0.0031531764358657876
1041.0, 0.0039605590581700545
1042.0, 0.00523754657982673
1043.0, 0.005860853675115576
1044.0, 0.006418008299495205
1045.0, 0.007419850406757297
1046.0, 0.009479464957442072
1047.0, 0.014010972583091912
1048.0, 0.01880910062080579
1049.0, 0.030228409328178586
1050.0, 0.04485704395390515
1051.0, 0.063130303488749
1052.0, 0.10285834227508797
1053.0, 0.1906700127906788
1054.0, 0.4097155169113363
1055.0, 0.7487790639339639
1056.0, 0.9912975032897016
1057.0, 0.8866140011731718
1058.0, 0.5212355676983489
1059.0, 0.22482667387621647
1060.0, 0.10057487377010293
1061.0, 0.051557791266937845
1062.0, 0.027702667213529132
1063.0, 0.016795949231601492
1064.0, 0.01154121613386875
1065.0, 0.008936085138307633
1066.0, 0.007262319912529104
1067.0, 0.0051669630570228605
1068.0, 0.004010425671705559
1069.0, 0.004234576236705753
1070.0, 0.002643625931311946
1071.0, 0.002882382574454055
1072.0, 0.0022271904335069486
1073.0, 0.0022303709032733005
1074.0, 0.002178722355041614
1075.0, 0.001744439537400839
1076.0, 0.0016366106958239366
1077.0, 0.001898903480022953
1078.0, 0.0016954934192819492
1079.0, 0.00145850228546795
1080.0, 0.0021454878993625447
1081.0, 0.002260339521980187
1082.0, 0.0013467911658665897
1083.0, 0.0016151402457634534
1084.0, 0.0013015464570718337
1085.0, 0.0016704566767027163
1086.0, 0.0017099371353050403
1087.0, 0.0015145440224977188
1088.0, 0.0018337944249928653
1089.0, 0.002090262973818364
1090.0, 0.002267671026141905
1091.0, 0.0017154426502434615
1092.0, 0.0019827254964219707
1093.0, 0.0017882715808553934
1094.0, 0.001252930248535235
1095.0, 0.001979835061061313
1096.0, 0.001972673893270335
1097.0, 0.001812785845463634
1098.0, 0.0016455364853630262
1099.0, 0.0013645604824232525
1100.0, 0.0017895956610096144
1101.0, 0.0019496911810420678
1102.0, 0.0007397963088229822
1103.0, 0.0010213721325507844
1104.0, 0.0014952793439194055
1105.0, 0.0017310877899682573
1106.0, 0.001800414344357662
1107.0, 0.0008686826052030512
1108.0, 0.0009091104458572772
1109.0, 0.0014094134923449395
1110.0, 0.0011270994045065844
1111.0, 0.001030715780673496
1112.0, 0.0013825276720181442
1113.0, 0.000878529205503302
1114.0, 0.0005992687760942997
1115.0, 0.0012105787819208735
1116.0, 0.0015817680625285135
1117.0, 0.0015683061585362043
1118.0, 0.0007623688477440431
1119.0, 0.0008181796434425866
1120.0, 0.0010753291564962386
1121.0, 0.0011795283469850516
1122.0, 0.0017052825885233729
1123.0, 0.001654395971544051
1124.0, 0.001115409890871239
1125.0, 0.00051181253346987
1126.0, 0.0012825339230932336
1127.0, 0.0005116220768033933
1128.0, 0.0009866090088124352
1129.0, 0.0007570909723839597
1130.0, 0.0003131285090215123
1131.0, 0.0002973741978323375
1132.0, 0.0003634661692933394
1133.0, 0.0003251332804292247
1134.0, 0.00044016902751353124
1135.0, 0.0003330626564857929
1136.0, 0.00037460782900933194
1137.0, 0.0005194662819783546
1138.0, 0.00030874816358162255
1139.0, 0.0006816334760664285
1140.0, 0.0006102069436942602
1141.0, 0.0005691001911685173
1142.0, 0.0004740162696167084
1143.0, 0.0005966770967085888
1144.0, 0.0007086666772480903
1145.0, 0.0003856488789689964
1146.0, 0.00015135900738304277
1147.0, 0.0005942863495374941
1148.0, 0.0006395749303692364
1149.0, 0.00022723151376394268
1150.0, 0.0003441968587279454
1151.0, 0.0004468506162089729
1152.0, 0.0005408408295977174
1153.0, 0.0003185311167121374
1154.0, 0.00045256372260621815
1155.0, 0.0005043151242868969
1156.0, 0.0003015628709205882
1157.0, 0.00025239688203301005
1158.0, 0.0002792029322044154
1159.0, 0.00045118874882258954
1160.0, 0.0005537917473083959
1161.0, 0.000210059042350599
1162.0, 0.0006628384955394133
1163.0, 0.0008338612778323213
1164.0, 0.0009788156267649284
1165.0, 0.0004996394977234561
1166.0, 0.0006341347849744008
1167.0, 0.0007634883212210273
1168.0, 0.0004091211083523973
1169.0, 0.0002873132646338383
1170.0, 0.0004295570219983529
1171.0, 0.0001523646090024126
1172.0, 0.0004639876560229979
1173.0, 1.0816129961920917e-05
1174.0, 0.00040532685275041695
1175.0, 0.001066818784633904
1176.0, 0.00028766911657135673
1177.0, 0.00020402296312918696
1178.0, 0.0002505304007981567
1179.0, 0.0004291902310609714
1180.0, 0.0005014982758321781
1181.0, 0.0004539028552167367
1182.0, 0.0007657273448546619
1183.0, 0.0009353655193773687
1184.0, 0.00021006361755929935
1185.0, 0.00011553217983572512
1186.0, 8.992381106548001e-05
1187.0, 0.0003861587005761362
1188.0, 0.00030911691489114213
1189.0, 0.0010245668628728183
1190.0, 0.0005703939711899529
1191.0, 0.0004279212718748691
1192.0, 0.0004103069700314819
1193.0, 0.00022609201879328038
1194.0, 0.0003429587049334303
1195.0, 0.0004976796103673193
1196.0, 0.00041873038480953826
1197.0, 0.0002750377905594836
1198.0, 0.00023981310399960956
1199.0, 0.000297494738359856
1200.0, 0.0003717457019528328
1201.0, 0.000384097790625471
1202.0, 0.00033816464759207215
1203.0, 0.00019330119547029788
1204.0, 0.00011679005976672713
1205.0, 0.0001804776059215128
1206.0, 0.0002509368734107889
1207.0, 0.00018020187175687855
1208.0, 4.4876224377250485e-05
1209.0, 6.913231997897547e-05
1210.0, 0.0001512031204061689
1211.0, 0.00016645370743798734
1212.0, 0.00012438258966514102
1213.0, 0.00019327165682400115
1214.0, 0.00022971106260517122
1215.0, 0.0003732831869515575
1216.0, 0.00020024428960637792
1217.0, 0.0001322650797334058
1218.0, 0.000388559777150269
1219.0, 0.00042267302454781374
1220.0, 0.00022001537818421932
1221.0, 0.0006187273150386056
1222.0, 0.0012045920117893917
1223.0, 0.00022724531945423953
1224.0, 0.00035538061529091097
1225.0, 0.0012109896465478393
1226.0, 0.0004718490111467789
1227.0, 0.0010390218975022169
1228.0, 0.0005423654167745996
1229.0, 0.0004233322814385454
1230.0, 0.0003811697361924705
1231.0, 0.00045235117930775287
1232.0, 0.0005544331337613034
1233.0, 0.0003869742215433677
1234.0, 0.00020093445020567694
1235.0, 0.0003199177290287178
1236.0, 0.00021462702964015706
1237.0, 0.0001515799686764017
1238.0, 7.061422346135926e-05
1239.0, 0.0006417749805768932
1240.0, 0.0010171895770397156
1241.0, 0.0008594116104987812
1242.0, 0.001210158245469972
1243.0, 0.000702242106535602
1244.0, 0.000594937912822256
1245.0, 0.0006095686441299251
1246.0, 0.0008589129120644092
1247.0, 0.0009351883177599011
1248.0, 0.0004682275805423448
1249.0, 0.0007427981405581852
1250.0, 0.000822011418193586
1251.0, 0.00020782663061325705
1252.0, 0.0005486292516875295
1253.0, 0.0009743769555329233
1254.0, 0.000262426309046554
1255.0, 0.0011574011086216847
1256.0, 0.001550766194518157
1257.0, 0.0011917882276918342
1258.0, 0.0004472031904219598
1259.0, 0.0009608196991155176
1260.0, 0.0009002154751013578
1261.0, 0.0008734064104738508
1262.0, 0.0016044378659819402
1263.0, 0.0007970863606156949
1264.0, 0.0014956331772474657
1265.0, 0.001279237431594046
1266.0, 0.0016888290148415867
1267.0, 0.0013960262536525131
1268.0, 0.0015095110197264699
1269.0, 0.0012516624311276633
1270.0, 0.0013300879938980814
1271.0, 0.0013172560244443
1272.0, 0.001557636883303887
1273.0, 0.0015247421407882367
1274.0, 0.0014407880027013157
1275.0, 0.0016099296879167593
1276.0, 0.0017542231858402831
1277.0, 0.0019128221022509722
1278.0, 0.002349489179817907
1279.0, 0.002418531363985162
1280.0, 0.0023920964090929793
1281.0, 0.0022854560738768295
1282.0, 0.0023751733356145812
1283.0, 0.002176428292201261
1284.0, 0.0015290186431396729
1285.0, 0.002065348314891738
1286.0, 0.0020844171153531106
1287.0, 0.0018751348484833908
1288.0, 0.0020731466547575274
1289.0, 0.00202983354988894
1290.0, 0.0019154207952551522
1291.0, 0.002037722807471842
1292.0, 0.00194019502190463
1293.0, 0.0018038644198356908
1294.0, 0.00184045461439491
1295.0, 0.001848669991782266
1296.0, 0.0019333690024448138
1297.0, 0.002161765679802924
1298.0, 0.002223405972355005
1299.0, 0.002721758590453999
1300.0, 0.0029416119330408397
1301.0, 0.0028045996803954506
1302.0, 0.003271257701025946
1303.0, 0.0033934070815337634
1304.0, 0.0034997834071029384
1305.0, 0.0035874962982286227
1306.0, 0.003321247678378059
1307.0, 0.0032984309693803136
1308.0, 0.003831917579197693
1309.0, 0.0037496914728296984
1310.0, 0.0027879508863987313
1311.0, 0.0033774341671735384
1312.0, 0.004106607235888919
1313.0, 0.003621831876233118
1314.0, 0.003976416297961133
1315.0, 0.004699533714482477
1316.0, 0.003592876086011069
1317.0, 0.004230006884592156
1318.0, 0.004107713590857894
1319.0, 0.004500794241439745
1320.0, 0.0046386508257824765
1321.0, 0.0038999892091622283
1322.0, 0.003840061645061644
1323.0, 0.004470505963699743
1324.0, 0.0042731540545722395
1325.0, 0.003988798074403266
1326.0, 0.004211085079769164
1327.0, 0.004717175122003487
1328.0, 0.004409607905066249
1329.0, 0.005391990928616937
1330.0, 0.00438880923467706
1331.0, 0.0038711277918330924
1332.0, 0.004369253258384261
1333.0, 0.0048124223396525554
1334.0, 0.004352069920765976
1335.0, 0.004033795611552526
1336.0, 0.004201618016915996
1337.0, 0.004848732937457569
1338.0, 0.005451685090901876
1339.0, 0.005551881609642943
1340.0, 0.005187746323291031
1341.0, 0.004940393516679783
1342.0, 0.005510835150421571
1343.0, 0.0053090525070029855
1344.0, 0.004514148112266347
1345.0, 0.00521400315577702
1346.0, 0.005848636801486519
1347.0, 0.006671078739246166
1348.0, 0.007007353264273034
1349.0, 0.007648493573633983
1350.0, 0.008132385447533372
1351.0, 0.008555728065634352
1352.0, 0.009202369123472937
1353.0, 0.009672203193426043
1354.0, 0.010297160159878391
1355.0, 0.011265313854230902
1356.0, 0.01189810808227006
1357.0, 0.012656081385377261
1358.0, 0.01386987869268873
1359.0, 0.014077000217984479
1360.0, 0.015034915094347562
1361.0, 0.01710638027642157
1362.0, 0.017031547938931555
1363.0, 0.018589329193962893
1364.0, 0.020206105334220553
1365.0, 0.022505849049312864
1366.0, 0.023987678382027137
1367.0, 0.02697434550502487
1368.0, 0.029414145404346056
1369.0, 0.031579646958828686
1370.0, 0.03490624059099411
1371.0, 0.03934864443012716
1372.0, 0.0441189752772467
1373.0, 0.04874540290058067
1374.0, 0.05421844193719142
1375.0, 0.05975796600830119
1376.0, 0.0636354593798536
1377.0, 0.06686608260513853
1378.0, 0.06805624574571686
1379.0, 0.06703705810608027
1380.0, 0.06399787575909684
1381.0, 0.05901855471472503
1382.0, 0.05378823150241317
1383.0, 0.04912458808544183
1384.0, 0.04453199147466152
1385.0, 0.03941933966796977
1386.0, 0.03390417649397936
1387.0, 0.02975414535259367
1388.0, 0.025486164672457567
1389.0, 0.02192465522290076
1390.0, 0.019443225023771674
1391.0, 0.01708832474237678
1392.0, 0.015069170480879718
1393.0, 0.01353738239784973
1394.0, 0.012263522294712646
1395.0, 0.011405535367742883
1396.0, 0.010590354446729146
1397.0, 0.00971885797195347
1398.0, 0.00835693782543824
1399.0, 0.008717474630014784
1400.0, 0.007607654605265883
1401.0, 0.007045200549924812
1402.0, 0.007327303055344645
1403.0, 0.0065425343089858135
1404.0, 0.00640879397835906
1405.0, 0.005574586921076584
1406.0, 0.005622646529162421
1407.0, 0.005488370154784721
1408.0, 0.005682145366116857
1409.0, 0.005528854990625053
1410.0, 0.005171975987434482
1411.0, 0.005637359625021829
1412.0, 0.005808289730704762
1413.0, 0.005755659961815689
1414.0, 0.006469524299958936
1415.0, 0.0064589740595518514
1416.0, 0.005602359097457401
1417.0, 0.005721842730094573
1418.0, 0.005822777415387205
1419.0, 0.006291480721129966
1420.0, 0.006284523671191997
1421.0, 0.005961838680970604
1422.0, 0.005758592253770813
1423.0, 0.006691944886217299
1424.0, 0.005455839758254734
1425.0, 0.006573902929868542
1426.0, 0.007015300097187572
1427.0, 0.006804780328836351
1428.0, 0.005848556458219654
1429.0, 0.005688194755491611
1430.0, 0.0055431218932448945
1431.0, 0.00514568703908243
1432.0, 0.005046274242716389
1433.0, 0.004913119382335877
1434.0, 0.005212087010236819
1435.0, 0.005310251133857501
1436.0, 0.0046814306959942886
1437.0, 0.005116540993106576
1438.0, 0.005193113796344138
1439.0, 0.00442950785867994
1440.0, 0.004450304463429897
1441.0, 0.003821633745371741
1442.0, 0.0032848839927877307
1443.0, 0.0036984692638880254
1444.0, 0.002925731240940382
1445.0, 0.003540089094637544
1446.0, 0.0020879059445530843
1447.0, 0.003238339684268261
1448.0, 0.0038453818554815837
1449.0, 0.003264068892126317
1450.0, 0.0038145638741915173
1451.0, 0.0030044410573925014
1452.0, 0.0023865427181208963
1453.0, 0.0024009112636787285
1454.0, 0.0028480189467010313
1455.0, 0.0027415829654225156
1456.0, 0.0027661973343887894
1457.0, 0.002754700072600551
1458.0, 0.0021274686230892312
1459.0, 0.0023786882267963177
1460.0, 0.002904331758039189
1461.0, 0.002503359009862477
1462.0, 0.0025329820119232827
1463.0, 0.002414624819530992
1464.0, 0.002212575544763584
1465.0, 0.0025058355471924347
1466.0, 0.002492664533838753
1467.0, 0.0013802561615409552
1468.0, 0.0033816939084008396
1469.0, 0.0017095470564420343
1470.0, 0.0017193901235724003
1471.0, 0.002335705672614913
1472.0, 0.0026027075614470244
1473.0, 0.0024079710193580734
1474.0, 0.002632465998824008
1475.0, 0.002544314009467348
1476.0, 0.0024192948906672806
1477.0, 0.003033896397026035
1478.0, 0.0030614747999566233
1479.0, 0.003134799023854817
1480.0, 0.0027355361554409386
1481.0, 0.00232749466217833
1482.0, 0.0023428504237517625
1483.0, 0.0019974673749455986
1484.0, 0.0018559039747686234
1485.0, 0.0017777670049324789
1486.0, 0.0019271729429719323
1487.0, 0.0021258864762899355
1488.0, 0.002201262426954206
1489.0, 0.0016053746991193626
1490.0, 0.00166777379309032
1491.0, 0.00022267605056484451
1492.0, 0.0012571546625316742
1493.0, 0.0011957520727417016
1494.0, 0.0006290066225357789
1495.0, 0.0016003981929552328
1496.0, 0.0010050443048148742
1497.0, 0.0005927005598796656
1498.0, 0.0008426937591351953
1499.0, 0.0006700491692634848
1500.0, 0.0004168661166962485
1501.0, 0.00136706952340985
1502.0, 0.0012019724228050247
1503.0, 0.0009315242472014425
1504.0, 0.0004051219724102193
1505.0, 0.0009186276380071711
1506.0, 0.0009500744344386655
1507.0, 0.0007236120269507868
1508.0, 0.000521694097955384
1509.0, 8.905221823778234e-05
1510.0, 0.00037296930916112906
1511.0, 0.000528467615878554
1512.0, 0.0005560681951731162
1513.0, 0.0009677483256049627
1514.0, 7.896953602576885e-05
1515.0, 0.0003962175738668204
1516.0, 0.0007733864263187222
1517.0, 0.00045514157293562147
1518.0, 0.0012079817876224702
1519.0, 0.0017266910652203337
1520.0, 0.0010231363070496184
1521.0, 0.001078405360219268
1522.0, 0.0003733577279964014
1523.0, 0.0012934355406974086
1524.0, 0.0006275643245422329
1525.0, 0.0006535419567311688
1526.0, 7.875480648895293e-05
1527.0, 0.0005870808835388458
1528.0, 0.0007455694216398273
1529.0, 0.000714588198726029
1530.0, 0.0008322608472687005
1531.0, 0.0007756665898962838
1532.0, 0.0008426820136750369
1533.0, 0.0006959096270033033
1534.0, 0.0007960940415651864
1535.0, 0.0009740257556917069
1536.0, 0.0009964154252837373
1537.0, 0.00045856072965417665
1538.0, 0.0010081648356695047
1539.0, 0.001478491752904779
1540.0, 0.0007197476926375213
1541.0, 0.0008701301165417433
1542.0, 0.0011053479744521687
1543.0, 0.0006739287911391113
1544.0, 0.0008285139944875597
1545.0, 0.0005889071581873041
1546.0, 0.0006146021508188598
1547.0, 0.0007520966661573704
1548.0, 0.0010095324344293402
1549.0, 0.0005282581404091561
1550.0, 0.0007177093992151839
1551.0, 0.0005763716973740509
1552.0, 0.0012725444865660021
1553.0, 0.0015172436774255093
1554.0, 0.001221067821734014
1555.0, 6.185275378877932e-05
1556.0, 0.0005255784101229068
1557.0, 0.0006950731016876388
1558.0, 0.0013302664356392357
1559.0, 0.0009022320732935441
1560.0, 0.0015203377469793008
1561.0, 0.0006743936779877467
1562.0, 0.0002749233373222161
1563.0, 0.000488904599431113
1564.0, 0.00021510215389490962
1565.0, 0.0006629824872030235
1566.0, 0.00038194859830220163
1567.0, 0.00012987446638870997
1568.0, 3.369233104784352e-05
1569.0, 0.0010810310762824158
1570.0, 0.0006205933258362506
1571, 0.0
1572, 0.0
1573, 0.0
1574, 0.0
1575, 0.0
1576, 0.0
1577, 0.0
1578, 0.0
1579, 0.0
1580, 0.0
1581, 0.0
1582, 0.0
1583, 0.0
1584, 0.0
1585, 0.0
1586, 0.0
1587, 0.0
1588, 0.0
1589, 0.0
1590, 0.0
1591, 0.0
1592, 0.0
1593, 0.0
1594, 0.0
1595, 0.0
1596, 0.0
1597, 0.0
1598, 0.0
1599, 0.0
