30, 0.0
31, 0.0
32, 0.0
33, 0.0
34, 0.0
35, 0.0
36, 0.0
37, 0.0
38, 0.0
39, 0.0
40, 0.0
41, 0.0
42, 0.0
43, 0.0
44, 0.0
45, 0.0
46, 0.0
47, 0.0
48, 0.0
49, 0.0
50, 0.0
51, 0.0
52, 0.0
53, 0.0
54, 0.0
55, 0.0
56, 0.0
57, 0.0
58, 0.0
59, 0.0
60, 0.0
61, 0.0
62, 0.0
63, 0.0
64, 0.0
65, 0.0
66, 0.0
67, 0.0
68, 0.0
69, 0.0
70, 0.0
71, 0.0
72, 0.0
73, 0.0
74, 0.0
75, 0.0
76, 0.0
77, 0.0
78, 0.0
79, 0.0
80, 0.0
81, 0.0
82, 0.0
83, 0.0
84, 0.0
85, 0.0
86, 0.0
87, 0.0
88, 0.0
89, 0.0
90, 0.0
91, 0.0
92, 0.0
93, 0.0
94, 0.0
95.0, 3.7480173693867664e-06
96.0, 0.0051056042182140455
97.0, 0.023509386154924525
98.0, 0.04144505603199085
99.0, 0.06405224169605285
100.0, 0.09170915569630753
101.0, 0.1186990203635129
102.0, 0.13260425636270412
103.0, 0.140891470271879
104.0, 0.15009625431680285
105.0, 0.12642905057997486
106.0, 0.10552378744385682
107.0, 0.09091912447624775
108.0, 0.07061019622345086
109.0, 0.05569322879014387
110.0, 0.04534657836757211
111.0, 0.040174133309811115
112.0, 0.032448641366558596
113.0, 0.031884172897416095
114.0, 0.03723132136597014
115.0, 0.03444916302506019
116.0, 0.03554547931526897
117.0, 0.03712309812736843
118.0, 0.03664242719290359
119.0, 0.038900371384306236
120.0, 0.03843897564630916
121.0, 0.03573715438016664
122.0, 0.03451482630687044
123.0, 0.03570157513901658
124.0, 0.036609519382623426
125.0, 0.03557666066221531
126.0, 0.04148110299393657
127.0, 0.042611276651667036
128.0, 0.04207038401915716
129.0, 0.05141485247492912
130.0, 0.05415385091773975
131.0, 0.05401482277547881
132.0, 0.052234578985776006
133.0, 0.05695190437189511
134.0, 0.05452824666453019
135.0, 0.04944184851063752
136.0, 0.051529528126215376
137.0, 0.04657091904423211
138.0, 0.04400773160701396
139.0, 0.046557645043364716
140.0, 0.04875029426700808
141.0, 0.0492272690265378
142.0, 0.05071741689374421
143.0, 0.05774932300021653
144.0, 0.058488340069374006
145.0, 0.06283566414322093
146.0, 0.07101123942522783
147.0, 0.0676379810343918
148.0, 0.06898104381367125
149.0, 0.07162372245063152
150.0, 0.0726310264623024
151.0, 0.06787818429853491
152.0, 0.06600024486564926
153.0, 0.06562756682149706
154.0, 0.05633432221139928
155.0, 0.052404663614703896
156.0, 0.04776990089865523
157.0, 0.03884762810070048
158.0, 0.03502457886116976
159.0, 0.03003169364829627
160.0, 0.024477127227585146
161.0, 0.0202825254263084
162.0, 0.018897222820947863
163.0, 0.016541075323171315
164.0, 0.012254168670701702
165.0, 0.014079224482626272
166.0, 0.014787641678882125
167.0, 0.01458786789073536
168.0, 0.013526627313610252
169.0, 0.017195666815561488
170.0, 0.0184084424927303
171.0, 0.0171822423396773
172.0, 0.02227117577481547
173.0, 0.02277309409201803
174.0, 0.021798280289156154
175.0, 0.02139549319135494
176.0, 0.020834128656149337
177.0, 0.020394212644141454
178.0, 0.020668134829807786
179.0, 0.02372235036904526
180.0, 0.01920714439551352
181.0, 0.01574863523185888
182.0, 0.016410780109153627
183.0, 0.013005568384332714
184.0, 0.011681268311843618
185.0, 0.011083268266674221
186.0, 0.009298881765661758
187.0, 0.0058075745434948535
188.0, 0.003956132924329175
189.0, 0.003950912234503518
190.0, 0.0034006409386916044
191.0, 0.003117847400797094
192.0, 0.0024088045132987486
193.0, 0.000710509726859906
194.0, 0.0005056941027984197
195.0, 0.0004714607041531858
196.0, 0.0004830622264607128
197.0, 0.00034586506550275274
198.0, 0.0005525573683132244
199.0, 0.0011739402686237888
200.0, 0.0020836269608833706
201.0, 0.0005625433289882073
202.0, 0.000739526505075676
203.0, 0.0011516105932691692
204.0, 0.00018717150179523934
205.0, 0.00045822702575105696
206.0, 0.001086807104509542
207.0, 0.0022981014681239123
208.0, 0.005513588293476019
209.0, 0.0035631124504955296
210.0, 0.001683603135715957
211.0, 0.0022166434421839604
212.0, 0.005049856376719532
213.0, 0.005857090172492578
214.0, 0.006134007532381296
215.0, 0.008173321178633636
216.0, 0.0071001058469467365
217.0, 0.008119274064198139
218.0, 0.010552759813098993
219.0, 0.005506652751068668
220.0, 0.006690914009469065
221.0, 0.009316839895690189
222.0, 0.010799635080958433
223.0, 0.011583191826461137
224.0, 0.011714056226293972
225.0, 0.01155963821428547
226.0, 0.011788728691624133
227.0, 0.011835031306791834
228.0, 0.011653902499765816
229.0, 0.01135365174883491
230.0, 0.01179761305536396
231.0, 0.010419993809510903
232.0, 0.008738422766292017
233.0, 0.007704481904977206
234.0, 0.00972726119183059
235.0, 0.008918178666261326
236.0, 0.007092296885963018
237.0, 0.008132044149558013
238.0, 0.0056685506320478035
239.0, 0.005503163723611909
240.0, 0.007973598184060324
241.0, 0.006544254510247189
242.0, 0.006621279158255639
243.0, 0.006515881232348035
244.0, 0.005105044852659996
245.0, 0.003921853499958966
246.0, 0.004444290580825704
247.0, 0.005435590300416434
248.0, 0.00448320601307917
249.0, 0.0043753197905298255
250.0, 0.003837051311689004
251.0, 0.003100758041188393
252.0, 0.005117427219378668
253.0, 0.004639992260867723
254.0, 0.0031578521673353774
255.0, 0.0014088365220983506
256.0, 0.0011622676611494581
257.0, 0.000712397101268068
258.0, 0.00027625391958461333
259.0, 0.00021271793429402064
260.0, 0.0007647523782941567
261.0, 0.0009613900980158714
262.0, 0.0009541309945107889
263.0, 0.0020751373091606054
264.0, 0.00328333764169773
265.0, 0.0037367786196412732
266.0, 0.003154856497640221
267.0, 0.005000190047063875
268.0, 0.0056581622172445604
269.0, 0.00522850610585915
270.0, 0.0036268808621715562
271.0, 0.00484034758153652
272.0, 0.004815690707891565
273.0, 0.004195492933316258
274.0, 0.005889266153946103
275.0, 0.0064118424315588365
276.0, 0.005569728665780231
277.0, 0.003661080554141806
278.0, 0.004655568512429526
279.0, 0.004524466407121977
280.0, 0.004936242792671167
281.0, 0.007181295977830247
282.0, 0.004342445325147199
283.0, 0.004203248825494929
284.0, 0.004508896279253847
285.0, 0.0008619334111479525
286.0, 0.0016234711187073348
287.0, 0.0025549396935859764
288.0, 0.0027323298224671694
289.0, 0.000884966406697618
290.0, 0.0028378811663337697
291.0, 0.003397956422255736
292.0, 0.0006831720737095893
293.0, 0.0011551638635324871
294.0, 0.0011450831524241571
295.0, 0.0009038110001414229
296.0, 0.0006444366637929056
297.0, 0.0007510894222318004
298.0, 0.0011741206301847773
299.0, 0.0014777746415055824
300.0, 0.0006522419316002866
301.0, 0.0007782272208746651
302.0, 0.0007449985876841116
303.0, 0.0005754897253891316
304.0, 0.0016086757325879226
305.0, 0.0009774887128412276
306.0, 0.0002824201604639681
307.0, 0.00025070734328850886
308.0, 0.0007366674092220001
309.0, 0.0009348421574581454
310.0, 0.0013190051498515613
311.0, 0.0024002418902099283
312.0, 0.0013709250973219327
313.0, 0.000880802551060747
314.0, 0.0009658741420332901
315.0, 0.001488672515979554
316.0, 0.0016172697880377518
317.0, 0.001240218571863482
318.0, 0.0007670778799666941
319.0, 0.002316666236023979
320.0, 0.002066867027357683
321.0, 0.002076697135342786
322.0, 0.0030007252231332372
323.0, 0.002009264591675965
324.0, 0.002221856123610422
325.0, 0.0021144583331967784
326.0, 0.0003889774941915668
327.0, 0.003750886453670295
328.0, 0.003920198101115577
329.0, 0.0025463361215368966
330.0, 0.0025236657097169246
331.0, 0.0028655198772813643
332.0, 0.003868926368324117
333.0, 0.004937926787120899
334.0, 0.003955121896424772
335.0, 0.00655968521282392
336.0, 0.00669704301018679
337.0, 0.0037110294991353297
338.0, 0.0055310836648209
339.0, 0.0035799159015826084
340.0, 0.0026891534745664843
341.0, 0.005322834186521356
342.0, 0.005671438875545574
343.0, 0.00642040810792541
344.0, 0.006551050694078001
345.0, 0.0049539119100571625
346.0, 0.005953273808447626
347.0, 0.00651371018399679
348.0, 0.006727769645218544
349.0, 0.006953467128147256
350.0, 0.005471158771719308
351.0, 0.00660882640156344
352.0, 0.009384557742706068
353.0, 0.008552501410796118
354.0, 0.00925615026911878
355.0, 0.008685394595966383
356.0, 0.006673407823925143
357.0, 0.007436962439917432
358.0, 0.007547840609629375
359.0, 0.007389770913223966
360.0, 0.007242979147791858
361.0, 0.009016806071994853
362.0, 0.008778971102005172
363.0, 0.008721935581726842
364.0, 0.010686294777435209
365.0, 0.009601179550628447
366.0, 0.009163274413688232
367.0, 0.009239297879764588
368.0, 0.009627000636286033
369.0, 0.009875629115302985
370.0, 0.009929357430089797
371.0, 0.009575272721171901
372.0, 0.008272868505477454
373.0, 0.008368677743819873
374.0, 0.008806869452952877
375.0, 0.00949076618906964
376.0, 0.010774782730972819
377.0, 0.01238557524154338
378.0, 0.01179764863995687
379.0, 0.009054006402340536
380.0, 0.010119647352073042
381.0, 0.010228305542016283
382.0, 0.00954346811860192
383.0, 0.00823275511354327
384.0, 0.008253550023847374
385.0, 0.009326383508415215
386.0, 0.010367644722577932
387.0, 0.010562949117009803
388.0, 0.008898171204574801
389.0, 0.009281417943053765
390.0, 0.010368049858473208
391.0, 0.010657758457298917
392.0, 0.012029831084056343
393.0, 0.011724715001497752
394.0, 0.010770603108163069
395.0, 0.01107705619999516
396.0, 0.010102310406124627
397.0, 0.010010614548956282
398.0, 0.010488589769374786
399.0, 0.010225414719100231
400.0, 0.010009104554780887
401.0, 0.010179471448119828
402.0, 0.011073349835155847
403.0, 0.013757747691612025
404.0, 0.01243066730059252
405.0, 0.011508926648995804
406.0, 0.011762703175781083
407.0, 0.010803308142425954
408.0, 0.012494565465863208
409.0, 0.012768318430389893
410.0, 0.0104761515735676
411.0, 0.009893803353238115
412.0, 0.011079492481943261
413.0, 0.011625737003802159
414.0, 0.01047670639310259
415.0, 0.012061836491210592
416.0, 0.011493830791773376
417.0, 0.010270081593494426
418.0, 0.009484676566198945
419.0, 0.011025432094337753
420.0, 0.01119632184493239
421.0, 0.0110536406394978
422.0, 0.011613432198130639
423.0, 0.010270264149968546
424.0, 0.01045489988438368
425.0, 0.010854589892872565
426.0, 0.009718441286113369
427.0, 0.009997271903096011
428.0, 0.011943351037731571
429.0, 0.013625090699103986
430.0, 0.011801525666355726
431.0, 0.009342047438076055
432.0, 0.01047172866736123
433.0, 0.01306550181145155
434.0, 0.012049304024677434
435.0, 0.01182075775671825
436.0, 0.010862459156855596
437.0, 0.010245531169239838
438.0, 0.013285216715705688
439.0, 0.013030096024703458
440.0, 0.012723505900622867
441.0, 0.012628620702184406
442.0, 0.011825269358776171
443.0, 0.011141975574948119
444.0, 0.009460119648997841
445.0, 0.007706337057903768
446.0, 0.010488267635871695
447.0, 0.008992988306032698
448.0, 0.009447267188823858
449.0, 0.012339475973068762
450.0, 0.012124719322176026
451.0, 0.010247801661228274
452.0, 0.008384283012376223
453.0, 0.007260098699525211
454.0, 0.007989561103693347
455.0, 0.010330710386094335
456.0, 0.010256216995086663
457.0, 0.007451794747964122
458.0, 0.010260271925450213
459.0, 0.009096370557016176
460.0, 0.008825129536409073
461.0, 0.010744776581512162
462.0, 0.00861496622132263
463.0, 0.007241918802085311
464.0, 0.007732116716205698
465.0, 0.0102251330263439
466.0, 0.010542856844494353
467.0, 0.010294660144239649
468.0, 0.009919359306091067
469.0, 0.0096328780832114
470.0, 0.009362675067677188
471.0, 0.00846303680370384
472.0, 0.007645500775689462
473.0, 0.007518021963951642
474.0, 0.01068782423716906
475.0, 0.010268547305320392
476.0, 0.009204906631669228
477.0, 0.009106501863908857
478.0, 0.008376288122629444
479.0, 0.007714966524036352
480.0, 0.00789420442991418
481.0, 0.009145408392689295
482.0, 0.007284214271904921
483.0, 0.009134873209417745
484.0, 0.010279243875743473
485.0, 0.008150977740865177
486.0, 0.007022053127302691
487.0, 0.0076410359995892265
488.0, 0.007933053038031572
489.0, 0.006807911700490245
490.0, 0.008434166222715856
491.0, 0.009125314972392147
492.0, 0.008929051027636834
493.0, 0.008031949326175753
494.0, 0.009243867454071918
495.0, 0.00813805140474715
496.0, 0.007531144166892201
497.0, 0.008836669163522461
498.0, 0.006510675049805182
499.0, 0.007311488538070374
500.0, 0.008271449082660212
501.0, 0.007718201804860238
502.0, 0.00731458115989668
503.0, 0.007817683089609688
504.0, 0.00813527199288008
505.0, 0.007782514933267809
506.0, 0.008516889147325594
507.0, 0.011447185768801185
508.0, 0.010932914450934155
509.0, 0.005160341161236322
510.0, 0.007309926105265614
511.0, 0.008017563802726368
512.0, 0.007754857408102717
513.0, 0.007088982087209691
514.0, 0.009076104958253181
515.0, 0.008260801059754259
516.0, 0.007104333924166956
517.0, 0.006595340663142405
518.0, 0.005881390849228129
519.0, 0.006115022706512092
520.0, 0.005842305304480253
521.0, 0.004808985121847374
522.0, 0.0050805714802139345
523.0, 0.007284575303603937
524.0, 0.007822859195441153
525.0, 0.006267464217635633
526.0, 0.007022844173754662
527.0, 0.006185808759619944
528.0, 0.0054586561340116335
529.0, 0.005896546359182242
530.0, 0.009833059919306553
531.0, 0.008061932313182335
532.0, 0.00675018891526019
533.0, 0.0069976235399830415
534.0, 0.007244179644782721
535.0, 0.006876320218958544
536.0, 0.00756897332172131
537.0, 0.008299552812906532
538.0, 0.005131740601262218
539.0, 0.005603925134487981
540.0, 0.005098151565897469
541.0, 0.004514317261759129
542.0, 0.0077056095663729455
543.0, 0.008216459233995386
544.0, 0.006473262208933551
545.0, 0.00562212286602904
546.0, 0.011508175011082722
547.0, 0.008720985076885724
548.0, 0.006476594954146862
549.0, 0.005344370084768176
550.0, 0.005100765352992878
551.0, 0.002505473799016416
552.0, 0.0037295350977126977
553.0, 0.005309465023892086
554.0, 0.00285168177713185
555.0, 0.006601195681344536
556.0, 0.009978797333566826
557.0, 0.0099113597909271
558.0, 0.004009650095310102
559.0, 0.006698413285430363
560.0, 0.006268690627415007
561.0, 0.0053867529960954265
562.0, 0.0056648135341953836
563.0, 0.0027106201478152253
564.0, 0.0047546938562116735
565.0, 0.006847037160858164
566.0, 0.006543130727668775
567.0, 0.00578108960185575
568.0, 0.004466616677712992
569.0, 0.00580136593430325
570.0, 0.009351513682408814
571.0, 0.00613861808465625
572.0, 0.007562964509785207
573.0, 0.008528260867780208
574.0, 0.007699484555299507
575.0, 0.0054847305102689895
576.0, 0.004931448873425452
577.0, 0.00491285114984283
578.0, 0.00512620780744076
579.0, 0.005363238813337664
580.0, 0.0033456198959774786
581.0, 0.00456491927194241
582.0, 0.006247124671461245
583.0, 0.0024908569525651566
584.0, 0.0036851984666598963
585.0, 0.0049566461285203796
586.0, 0.005352132656394162
587.0, 0.004067137148965547
588.0, 0.0052723269563123626
589.0, 0.005808822400794361
590.0, 0.005567097916168592
591.0, 0.0046965557966692165
592.0, 0.007386948695309088
593.0, 0.007912076063556801
594.0, 0.008583003121429443
595.0, 0.010027622113184068
596.0, 0.006528357914987955
597.0, 0.004215792625363582
598.0, 0.003728101992756537
599.0, 0.004942654426200354
600.0, 0.00615428027960829
601.0, 0.00509502020886995
602.0, 0.003335647387834949
603.0, 0.002564180541881237
604.0, 0.006461139158511085
605.0, 0.007737668474593833
606.0, 0.006967558140998711
607.0, 0.005737688691316985
608.0, 0.0067078900591872655
609.0, 0.004614683025565112
610.0, 0.0042618886441039
611.0, 0.005211136530837821
612.0, 0.006608797968207593
613.0, 0.0053317523240152985
614.0, 0.003724667117239894
615.0, 0.003298720485993841
616.0, 0.004760014957733596
617.0, 0.0034979758312295244
618.0, 0.0044882050897302305
619.0, 0.005074215082182524
620.0, 0.004647352431286545
621.0, 0.006350272863807631
622.0, 0.003942897895678281
623.0, 0.005046908294676866
624.0, 0.008153030495746342
625.0, 0.002935260425039024
626.0, 0.004778430841307376
627.0, 0.006904784588614477
628.0, 0.007274927953875454
629.0, 0.004025391746355332
630.0, 0.005293559242372099
631.0, 0.004809077263980266
632.0, 0.0045566965276899775
633.0, 0.006681980091283195
634.0, 0.006411592120644118
635.0, 0.0045280501687512825
636.0, 0.0037587853706018766
637.0, 0.005393306033926392
638.0, 0.006353899264879795
639.0, 0.003772268312133564
640.0, 0.0047173911440453785
641.0, 0.008367097963965214
642.0, 0.0026421318977313153
643.0, 0.005968629942504125
644.0, 0.006893866250062646
645.0, 0.0054391247838398325
646.0, 0.00565801886671693
647.0, 0.006335494407674585
648.0, 0.0042958903311580135
649.0, 0.0037197280070542923
650.0, 0.009031184706217176
651.0, 0.005527888255168895
652.0, 0.005402660947908299
653.0, 0.006115648699516468
654.0, 0.005675705270643158
655.0, 0.0014157435789493701
656.0, 0.0058693783748031
657.0, 0.008133779730507319
658.0, 0.005561972671308963
659.0, 0.0016844700521368348
660.0, 0.0041403704129993335
661.0, 0.004089459299752864
662.0, 0.0027087890846772015
663.0, 0.0044089066747222145
664.0, 0.004281439287783649
665.0, 0.006000492626417811
666.0, 0.007193443833032767
667.0, 0.005593761854404829
668.0, 0.002565166126065861
669.0, 0.005694539051119153
670.0, 0.007670531198188185
671.0, 0.006196604575892084
672.0, 0.008148282262372249
673.0, 0.007592547414942203
674.0, 0.006550353722222591
675.0, 0.006892036724684587
676.0, 0.011819813037283276
677.0, 0.008658504942863953
678.0, 0.0064288017404617905
679.0, 0.008756095128443038
680.0, 0.018662408936650346
681.0, 0.02834017662133096
682.0, 0.038196677473777384
683.0, 0.03955674239567291
684.0, 0.028716016272478582
685.0, 0.015437941303808433
686.0, 0.009486152894184615
687.0, 0.006220881909817673
688.0, 0.00430220787240708
689.0, 0.0037511302302529635
690.0, 0.0050240883798120155
691.0, 0.0041757572197265325
692.0, 0.004065691680866393
693.0, 0.008668787805214477
694.0, 0.006626676758746427
695.0, 0.010269768539824871
696.0, 0.011035300969743225
697.0, 0.005226403592078089
698.0, 0.005151800751363016
699.0, 0.00570791483555977
700.0, 0.003842815335687662
701.0, 0.0016189761716088606
702.0, 0.006779914266941033
703.0, 0.003934497936071815
704.0, 0.0017788939427112655
705.0, 0.0016032698514407222
706.0, 0.003711286744613151
707.0, 0.0026501401242337223
708.0, 0.002643143421173103
709.0, 0.0036995351208717856
710.0, 0.005059240099643398
711.0, 0.002594726134977582
712.0, 0.0026675773189104774
713.0, 0.001960317963762657
714.0, 0.0010564860227160705
715.0, 0.0029838870303446783
716.0, 0.0025625019547065356
717.0, 0.001241695346724525
718.0, 0.0019543515974816588
719.0, 0.006651701208925121
720.0, 0.0031032105992424616
721.0, 0.0033730618420221474
722.0, 0.005409619043682059
723.0, 0.006686980636784948
724.0, 0.0011072402926159538
725.0, 0.005839201383032516
726.0, 0.0048057756018285306
727.0, 0.0009058870718527709
728.0, 0.0027762084029558463
729.0, 0.0029784305890738446
730.0, 0.001416345747592521
731.0, 0.0029555726499971915
732.0, 0.008568829626868791
733.0, 0.0014402636479976744
734.0, 0.00019788868480083985
735.0, 0.0040846611523525376
736.0, 0.008157002217926167
737.0, 0.0012966969652888896
738.0, 0.0036471320087855864
739.0, 0.0026870460350306748
740.0, 0.0021089990217151335
741.0, 0.005829489539847776
742.0, 0.004505487250421672
743.0, 0.004548275021456933
744.0, 0.004033417816543267
745.0, 0.0023638221120404713
746.0, 0.0002865592805141059
747.0, 0.004047240485584312
748.0, 0.004715001153230416
749.0, 0.0028269510240223
750.0, 0.0009565129153692462
751.0, 0.006121854000944155
752.0, 0.004150251323739913
753.0, 0.00221240151372576
754.0, 0.003912657755238257
755.0, 0.007110028262127178
756.0, 0.004463087771154872
757.0, 0.004320464074409598
758.0, 0.005134693652259584
759.0, 0.0017691460068004813
760.0, 0.005922481668094311
761.0, 0.009427225891686807
762.0, 0.008565519955353557
763.0, 0.003397021881939937
764.0, 0.008375887498588704
765.0, 0.0038497427876190565
766.0, 0.0024595569184832763
767.0, 0.004836215206639154
768.0, 0.006278675926860393
769.0, 0.003548301329540852
770.0, 0.004153175994769654
771.0, 0.005643367302051814
772.0, 0.005738976109524831
773.0, 0.003138053060482017
774.0, 0.0038632333166934187
775.0, 0.003134633462349381
776.0, 0.0021150189680089982
777.0, 0.00583297541357934
778.0, 0.0024585705697094153
779.0, 0.0015916484148556587
780.0, 0.003316661851597624
781.0, 0.006163562544536677
782.0, 0.0017993681680138042
783.0, 0.004474248195189481
784.0, 0.005312219696215102
785.0, 0.0036541175682163383
786.0, 0.003326466187134965
787.0, 0.005185875146567661
788.0, 0.004038066366720801
789.0, 0.004535667630547883
790.0, 0.00854150690788805
791.0, 0.002643030768635716
792.0, 0.0021851862593735717
793.0, 0.0035528101389942007
794.0, 0.004905930337184715
795.0, 0.004562514843251587
796.0, 0.0012700118135327485
797.0, 0.0006993110286970081
798.0, 0.0015797100485620036
799.0, 0.002671934056347841
800.0, 0.0031024429169288982
801.0, 0.003743971593234567
802.0, 0.00428293794027445
803.0, 0.0036865122879052616
804.0, 0.00044225368792815854
805.0, 0.0008587919057414313
806.0, 0.005276840371021081
807.0, 0.006132841975222552
808.0, 0.0015274402807940784
809.0, 0.003942753165469167
810.0, 0.0050496460853398165
811.0, 0.004928052231042473
812.0, 0.0036990226411164487
813.0, 0.001671952118724885
814.0, 0.00200637771796245
815.0, 0.0071501980429426485
816.0, 0.009962315009033917
817.0, 0.007661387813626788
818.0, 0.002679903380890661
819.0, 0.007073108661303996
820.0, 0.004990696587391294
821.0, 0.0020980025774803585
822.0, 0.005382476318495467
823.0, 0.002276082286643822
824.0, 0.0029651358001688208
825.0, 0.00595781671662427
826.0, 0.008184607707764711
827.0, 0.0038457298944960896
828.0, 0.004297474758270532
829.0, 0.005153755090716264
830.0, 0.004271776485312266
831.0, 0.0017570228004732025
832.0, 0.0072594038090607466
833.0, 0.010202152580440453
834.0, 0.0113675361825072
835.0, 0.015148532144196454
836.0, 0.027649657716604784
837.0, 0.030877239659699383
838.0, 0.044396186459854395
839.0, 0.04710879423541995
840.0, 0.03247234900804183
841.0, 0.01636312316972694
842.0, 0.017322266440532356
843.0, 0.013965770508692079
844.0, 0.008040470292633285
845.0, 0.004435334441007523
846.0, 0.007158762035609378
847.0, 0.004751562535941682
848.0, 0.004744294767820412
849.0, 0.0066042668624494245
850.0, 0.004481769044404138
851.0, 0.005103587486488555
852.0, 0.007042285452128519
853.0, 0.00609317591617941
854.0, 0.0021397446816451395
855.0, 0.006089256718770614
856.0, 0.0046748863194093476
857.0, 0.005656919609419892
858.0, 0.006900860042377978
859.0, 0.004811177954531576
860.0, 0.0034627234509589286
861.0, 0.007944643039520144
862.0, 0.00908706464737892
863.0, 0.005874638378485783
864.0, 0.003235440736633283
865.0, 0.00867356275490336
866.0, 0.007261355420259989
867.0, 0.005235486449692811
868.0, 0.006250224046929817
869.0, 0.006411731032427805
870.0, 0.0034361655844449626
871.0, 0.007218999143399058
872.0, 0.009800772877079523
873.0, 0.0026147402889596305
874.0, 0.010404888971928598
875.0, 0.008608675060163894
876.0, 0.006055477274814179
877.0, 0.0072646756501740135
878.0, 0.015081708734659499
879.0, 0.0040109418724720595
880.0, 0.0027432216732602844
881.0, 0.005404551994055538
882.0, 0.007013585074012336
883.0, 0.003591849205955325
884.0, 0.005984697028780855
885.0, 0.006001203650583828
886.0, 0.004368598311590489
887.0, 0.0034954361072408813
888.0, 0.009269749213862673
889.0, 0.003512365718744152
890.0, 0.003899249748263554
891.0, 0.007648388215695727
892.0, 0.004293125442922306
893.0, 0.0029336232336179178
894.0, 0.0072151892147249985
895.0, 0.006464537873954472
896.0, 0.0011104267475307132
897.0, 0.0034345213127111277
898.0, 0.009341194727238922
899.0, 0.008084042357688974
900.0, 0.005820231451488569
901.0, 0.00653644904480683
902.0, 0.007463720024510912
903.0, 0.004681759956205768
904.0, 0.005525338112382496
905.0, 0.0060605757954096595
906.0, 0.0030083075113904465
907.0, 0.010601041801589018
908.0, 0.009023082925995093
909.0, 0.004863071388597767
910.0, 0.004873153675597368
911.0, 0.015050627522211858
912.0, 0.005454362459999487
913.0, 0.007355807529095245
914.0, 0.00887109131549818
915.0, 0.006097949208244623
916.0, 0.0013756676880051174
917.0, 0.006713116280826454
918.0, 0.0039935561296126415
919.0, 0.004134536971997897
920.0, 0.009375470051442944
921.0, 0.00439708578240794
922.0, 0.002503339000535615
923.0, 0.004945973674103579
924.0, 0.006296491567650524
925.0, 0.0036277143179544395
926.0, 0.005839994041422559
927.0, 0.012552094389392938
928.0, 0.009204302827274578
929.0, 0.004831473822393058
930.0, 0.010320687453593777
931.0, 0.007076704876930726
932.0, 0.007700642624137468
933.0, 0.009724284742773915
934.0, 0.009622108513434492
935.0, 0.0040377208085464935
936.0, 0.00857578498321849
937.0, 0.009688196241237018
938.0, 0.008100319267177206
939.0, 0.006991616840935193
940.0, 0.011782989975166802
941.0, 0.003178430434056787
942.0, 0.006967206081471396
943.0, 0.009665119938420768
944.0, 0.006692839580370533
945.0, 0.004527249722325974
946.0, 0.006082468283455607
947.0, 0.005977914628526361
948.0, 0.005334791257577669
949.0, 0.006022657696163241
950.0, 0.011330101010516208
951.0, 0.005180305257226165
952.0, 0.007759793539001657
953.0, 0.0107170543255913
954.0, 0.007534951374295279
955.0, 0.005885964310045992
956.0, 0.009756108365126168
957.0, 0.0059293978491074
958.0, 0.002964003063747776
959.0, 0.008596692593543863
960.0, 0.008964845729173184
961.0, 0.004911673813144283
962.0, 0.006901444664147756
963.0, 0.008101047802099887
964.0, 0.0011875834296138934
965.0, 0.008319378833590055
966.0, 0.008530613288993287
967.0, 0.006364603384741691
968.0, 0.006302305658490916
969.0, 0.011100726117197146
970.0, 0.0021877161855338887
971.0, 0.0022823669564576406
972.0, 0.004889071443538355
973.0, 0.005505733119563072
974.0, 0.0012798314680986874
975.0, 0.007651073426578798
976.0, 0.007436546459368241
977.0, 0.004459192585032972
978.0, 0.002716953343645641
979.0, 0.006070426860018106
980.0, 0.002081889792358161
981.0, 0.0005087308792161183
982.0, 0.005273786458829092
983.0, 0.009917543231333219
984.0, 0.0008037465964541423
985.0, 0.009011752457972227
986.0, 0.006902519594612737
987.0, 0.0033424444099729687
988.0, 0.003265801405334656
989.0, 0.00836659325307162
990.0, 0.0028153729570432103
991.0, 0.004311955119466453
992.0, 0.0065436136462475114
993.0, 0.005950881219895737
994.0, 0.0015058880710394908
995.0, 0.008878551492544118
996.0, 0.004382158880530815
997.0, 0.002933897495086734
998.0, 0.007233888574075591
999.0, 0.00729303823369221
1000.0, 0.007702291226297121
1001.0, 0.011016164871117035
1002.0, 0.009681733269380488
1003.0, 0.0049705314905375015
1004.0, 0.007718777220184573
1005.0, 0.010045658902786001
1006.0, 0.006310611159156205
1007.0, 0.006649546771683588
1008.0, 0.010757022330924534
1009.0, 0.007037141268820379
1010.0, 0.0014807765632306137
1011.0, 0.007355785095499147
1012.0, 0.008333602270097822
1013.0, 0.004325525299155196
1014.0, 0.012011469544565896
1015.0, 0.006991790630709628
1016.0, 0.0052733639672209185
1017.0, 0.008706686828823633
1018.0, 0.012955692164335267
1019.0, 0.008007881085940739
1020.0, 0.008937878896170074
1021.0, 0.014371318146391279
1022.0, 0.01337547845214356
1023.0, 0.010145150325368064
1024.0, 0.02070069260157966
1025.0, 0.00969646226524492
1026.0, 0.008526841151659836
1027.0, 0.012300579742803535
1028.0, 0.014997594584324037
1029.0, 0.010645915392909667
1030.0, 0.018052049545356018
1031.0, 0.020973763165137268
1032.0, 0.015336140308124963
1033.0, 0.010566649769057714
1034.0, 0.021279443809678437
1035.0, 0.01093668192195697
1036.0, 0.013476854184600845
1037.0, 0.01631549621877584
1038.0, 0.015415092762175297
1039.0, 0.011925130780873205
1040.0, 0.018320307781197854
1041.0, 0.017819299767508904
1042.0, 0.01636180618506468
1043.0, 0.017411776452305853
1044.0, 0.022127029527294437
1045.0, 0.021799978143374803
1046.0, 0.024320649395638536
1047.0, 0.0284618131094843
1048.0, 0.03361076041041824
1049.0, 0.0424227096546802
1050.0, 0.07366375683727366
1051.0, 0.11228127464119146
1052.0, 0.3031833333211044
1053.0, 0.6393024536253671
1054.0, 0.9897396944412503
1055.0, 0.92354417470737
1056.0, 0.5691166517294701
1057.0, 0.295234374647639
1058.0, 0.1368539679355703
1059.0, 0.07277165204990464
1060.0, 0.05643151223491742
1061.0, 0.039150295597001984
1062.0, 0.028994636542453753
1063.0, 0.026321584734293142
1064.0, 0.024467995539280276
1065.0, 0.0076299239105311265
1066.0, 0.019852204937717773
1067.0, 0.01853238030956636
1068.0, 0.014108757885195427
1069.0, 0.014623674877286262
1070.0, 0.02376676843170394
1071.0, 0.016330500474100118
1072.0, 0.015870720107938916
1073.0, 0.019602387494224213
1074.0, 0.020176070792009594
1075.0, 0.010637889604758862
1076.0, 0.018893430286436273
1077.0, 0.01758578659503393
1078.0, 0.013710301672622797
1079.0, 0.014309902780633453
1080.0, 0.02147064359201236
1081.0, 0.01008100863049419
1082.0, 0.013880539128820141
1083.0, 0.017268178668373817
1084.0, 0.015960979840784505
1085.0, 0.012483877516378274
1086.0, 0.022584699517704213
1087.0, 0.013442519360354907
1088.0, 0.013916585028121804
1089.0, 0.017884279414230615
1090.0, 0.01885162450872955
1091.0, 0.015316971730270816
1092.0, 0.021309453425043028
1093.0, 0.016898436065214004
1094.0, 0.010632976361515663
1095.0, 0.01138928824980906
1096.0, 0.024930219912251892
1097.0, 0.006397447994000477
1098.0, 0.011343606739718523
1099.0, 0.014816579262297132
1100.0, 0.010648627637559345
1101.0, 0.003954251606561294
1102.0, 0.013814869975403309
1103.0, 0.012293923656562422
1104.0, 0.011996439883411467
1105.0, 0.014384422769185048
1106.0, 0.016169964819293087
1107.0, 0.007598824939180819
1108.0, 0.013010976245906492
1109.0, 0.015063634371835272
1110.0, 0.013112995193209014
1111.0, 0.010446829854988564
1112.0, 0.01348404841759839
1113.0, 0.00782830843243605
1114.0, 0.00497300699752
1115.0, 0.007063718294897436
1116.0, 0.008662474899075005
1117.0, 0.0017007735875322156
1118.0, 0.008959382325049784
1119.0, 0.008691414446806994
1120.0, 0.006474007064863062
1121.0, 0.008753154033065456
1122.0, 0.016690136235952533
1123.0, 0.009383210785226692
1124.0, 0.007395187411257886
1125.0, 0.014151223485469466
1126.0, 0.0139462317519017
1127.0, 0.005108906087544362
1128.0, 0.013606233548543168
1129.0, 0.010957445786006065
1130.0, 0.005538832529385291
1131.0, 0.0068962718895102144
1132.0, 0.009897813423371211
1133.0, 0.0014037223043830635
1134.0, 0.0057681380258313465
1135.0, 0.01210670251502324
1136.0, 0.008128793187319667
1137.0, 0.006932930050006251
1138.0, 0.018066221705568798
1139.0, 0.00917398348972424
1140.0, 0.0029644250495003913
1141.0, 0.012959765763219836
1142.0, 0.013875887800729944
1143.0, 0.0034899962452506787
1144.0, 0.016439741369301313
1145.0, 0.01601281161424033
1146.0, 0.007356940010148548
1147.0, 0.010169326111836165
1148.0, 0.016554794806899878
1149.0, 0.008523292281881123
1150.0, 0.010726573526252255
1151.0, 0.015024213656198292
1152.0, 0.008289545008473028
1153.0, 0.005178206043427014
1154.0, 0.013852987067894632
1155.0, 0.01477256608523049
1156.0, 0.006178392258097916
1157.0, 0.010240434743067432
1158.0, 0.01446411877156463
1159.0, 0.012333736379149963
1160.0, 0.006066347561946924
1161.0, 0.019264990219771082
1162.0, 0.008136387323530857
1163.0, 0.006802251138671431
1164.0, 0.011913775448380634
1165.0, 0.011061754103265563
1166.0, 0.001067150601795682
1167.0, 0.014018759458523048
1168.0, 0.010776125766679776
1169.0, 0.004691714112370451
1170.0, 0.0068261752453037065
1171.0, 0.018451169214890956
1172.0, 0.004209775600195639
1173.0, 0.006943796824416861
1174.0, 0.01085794885850166
1175.0, 0.009980354260682913
1176.0, 0.006241510385959153
1177.0, 0.015337052238367673
1178.0, 0.010334689401110733
1179.0, 0.008601065462563838
1180.0, 0.012401793120284775
1181.0, 0.014708210591933241
1182.0, 0.0026615576508704887
1183.0, 0.013140345743260652
1184.0, 0.012311434222261579
1185.0, 0.009099724337756186
1186.0, 0.010664925522338298
1187.0, 0.017123582797292876
1188.0, 0.0077478783317279755
1189.0, 0.004194112424237384
1190.0, 0.012095139198582548
1191.0, 0.011423329167453696
1192.0, 0.002465437406750981
1193.0, 0.006788228003901572
1194.0, 0.006721164270381744
1195.0, 0.009183828627664831
1196.0, 0.013783608059647482
1197.0, 0.012931222254525294
1198.0, 0.0040581428739883685
1199.0, 0.004630396102307961
1200.0, 0.016897722450754216
1201.0, 0.010518825352510655
1202.0, 0.007984400122046166
1203.0, 0.01428515248207083
1204.0, 0.016568412316888145
1205.0, 0.004877603628806715
1206.0, 0.01362754751765569
1207.0, 0.009690500530034202
1208.0, 0.004535700273170865
1209.0, 0.010515473771011235
1210.0, 0.01987684575996069
1211.0, 0.009688989291503372
1212.0, 0.012508999242146435
1213.0, 0.015790143230341076
1214.0, 0.01390431496729759
1215.0, 0.009616887210467547
1216.0, 0.022172079130776606
1217.0, 0.011038474283810164
1218.0, 0.010705480332286077
1219.0, 0.017720202655296887
1220.0, 0.020631842461126412
1221.0, 0.008245507041361639
1222.0, 0.01734259247803348
1223.0, 0.013851424433378908
1224.0, 0.008375854988296332
1225.0, 0.01124624689582301
1226.0, 0.021091100131529112
1227.0, 0.007745682634080498
1228.0, 0.00988307281237196
1229.0, 0.01838808847375937
1230.0, 0.0194861411396453
1231.0, 0.015132395811549185
1232.0, 0.016440415655453122
1233.0, 0.019652928396901352
1234.0, 0.0075412975060503646
1235.0, 0.018799368348970565
1236.0, 0.022016767577520954
1237.0, 0.00903072120049022
1238.0, 0.014595612478712165
1239.0, 0.025029421488987787
1240.0, 0.014391141575600844
1241.0, 0.009293913225127242
1242.0, 0.01371118208333788
1243.0, 0.018619901549120084
1244.0, 0.0046727208137818735
1245.0, 0.0203651317482959
1246.0, 0.012653109144030974
1247.0, 0.00746086606499323
1248.0, 0.012239453586785794
1249.0, 0.018544023205849594
1250.0, 0.008357840557915209
1251.0, 0.016674794280330016
1252.0, 0.017823957442882104
1253.0, 0.010981906613136298
1254.0, 0.008476828808331898
1255.0, 0.025237292172562438
1256.0, 0.015571242601847429
1257.0, 0.00878075228648677
1258.0, 0.015947741604862307
1259.0, 0.018959419898208856
1260.0, 0.00941168248133394
1261.0, 0.004360566120966492
1262.0, 0.019903391779891404
1263.0, 0.010550443207836175
1264.0, 0.009362946324925922
1265.0, 0.013504696179057014
1266.0, 0.011853626407967104
1267.0, 0.006809640730421957
1268.0, 0.018607111208701354
1269.0, 0.013548932446465961
1270.0, 0.012908419715067784
1271.0, 0.01750868648392675
1272.0, 0.016564624455697848
1273.0, 0.0031780094076586775
1274.0, 0.017649796726308488
1275.0, 0.012910304922984141
1276.0, 0.0044017690346115895
1277.0, 0.007318270032463276
1278.0, 0.02296886852765662
1279.0, 0.0048744045497542115
1280.0, 0.006128022730869288
1281.0, 0.011759556627524903
1282.0, 0.009291414140577993
1283.0, 0.00460195900404946
1284.0, 0.015737406882770207
1285.0, 0.012980687974071084
1286.0, 0.006349263927659474
1287.0, 0.008739008507664833
1288.0, 0.00963154426275293
1289.0, 0.005173212987681369
1290.0, 0.005737957239450647
1291.0, 0.016439210704071353
1292.0, 0.009023156107738902
1293.0, 0.007417139086271165
1294.0, 0.01190893442649625
1295.0, 0.013906324394172411
1296.0, 0.003791425258348023
1297.0, 0.015950319890822264
1298.0, 0.007035758441354007
1299.0, 0.002121563600989839
1300.0, 0.009507597907297318
1301.0, 0.019191798846761518
1302.0, 0.0021718390619399983
1303.0, 0.0026238277816313616
1304.0, 0.010127898091466197
1305.0, 0.007067251562361389
1306.0, 0.002542959182337139
1307.0, 0.008562351583099497
1308.0, 0.020906520239560925
1309.0, 0.003801656998773247
1310.0, 0.014963559241794423
1311.0, 0.013359273226650863
1312.0, 0.004996288436133192
1313.0, 0.008093624408106953
1314.0, 0.02067383103734625
1315.0, 0.005951844628066509
1316.0, 0.007444481217002321
1317.0, 0.014284061812005833
1318.0, 0.013938028286658792
1319.0, 0.00612616319440914
1320.0, 0.01764728875400598
1321.0, 0.012425923207562188
1322.0, 0.005629623810660833
1323.0, 0.010271938071131448
1324.0, 0.014933217244973065
1325.0, 0.008946038188607473
1326.0, 0.008828309546846793
1327.0, 0.017148683149919464
1328.0, 0.006616925930290349
1329.0, 0.008063221180134259
1330.0, 0.013487273392290876
1331.0, 0.007859905567874097
1332.0, 0.001034816374489796
1333.0, 0.019891900329259898
1334.0, 0.008571919459861861
1335.0, 0.004339901214803768
1336.0, 0.014236374686836703
1337.0, 0.0237700530161021
1338.0, 0.0065287402507234115
1339.0, 0.014367677630286256
1340.0, 0.016784261088664428
1341.0, 0.010213269789977487
1342.0, 0.009975018495031934
1343.0, 0.0193958213550203
1344.0, 0.010751176523058943
1345.0, 0.008437871898303022
1346.0, 0.021050361532875775
1347.0, 0.02120058245917555
1348.0, 0.01649037214055654
1349.0, 0.018147836791010133
1350.0, 0.023700983543752406
1351.0, 0.014863043562550245
1352.0, 0.0294639076882896
1353.0, 0.02792170027915608
1354.0, 0.02114797435030101
1355.0, 0.02459400613064107
1356.0, 0.03829476137147044
1357.0, 0.032436237693607206
1358.0, 0.03496820086878577
1359.0, 0.04702511223634401
1360.0, 0.04571414335163161
1361.0, 0.03764604010115453
1362.0, 0.053458945032334164
1363.0, 0.05739129234947594
1364.0, 0.049163849822798124
1365.0, 0.0591134704197026
1366.0, 0.06075277993661448
1367.0, 0.049082860378161404
1368.0, 0.0443941805243908
1369.0, 0.07035463686072571
1370.0, 0.0540338859466907
1371.0, 0.05817935504922926
1372.0, 0.07309865857934257
1373.0, 0.07540693618178984
1374.0, 0.061091282819465964
1375.0, 0.08899470636039615
1376.0, 0.08461219185691439
1377.0, 0.07441855738192504
1378.0, 0.08280540147616335
1379.0, 0.08832571414542956
1380.0, 0.07425146954340199
1381.0, 0.0706110866098326
1382.0, 0.07593245029292735
1383.0, 0.0592442347643423
1384.0, 0.05011943889762828
1385.0, 0.05167688716240469
1386.0, 0.048611173358343876
1387.0, 0.02315025947017761
1388.0, 0.04159468834550256
1389.0, 0.03497608594341266
1390.0, 0.02527042938758117
1391.0, 0.028586773777663787
1392.0, 0.03243337992189375
1393.0, 0.015183855095553186
1394.0, 0.02104916379079505
1395.0, 0.02589292800932718
1396.0, 0.012253527862745346
1397.0, 0.011374310815626607
1398.0, 0.02111526857316583
1399.0, 0.02056087189348377
1400.0, 0.0009326925815738487
1401.0, 0.019415398347304973
1402.0, 0.01842729393516324
1403.0, 0.010944946043890574
1404.0, 0.014578858518256292
1405.0, 0.02527490811455225
1406.0, 0.011853282040823261
1407.0, 0.006774797777194273
1408.0, 0.02188486196394539
1409.0, 0.012211786830999853
1410.0, 0.008068602762190886
1411.0, 0.018982788710472334
1412.0, 0.022314225760762613
1413.0, 0.001602025641963158
1414.0, 0.021771381001212113
1415.0, 0.01906119151294934
1416.0, 0.008256281454411943
1417.0, 0.01086798336314227
1418.0, 0.024589247409417946
1419.0, 0.002195364418348191
1420.0, 0.010517954026732699
1421.0, 0.020844212392605168
1422.0, 0.015206121200679813
1423.0, 0.01211927478918084
1424.0, 0.020117105059545334
1425.0, 0.022440076827495534
1426.0, 0.0038555911424337733
1427.0, 0.017603463943114336
1428.0, 0.016661809774447832
1429.0, 0.008798875698114264
1430.0, 0.011912353933624255
1431.0, 0.026510556106094076
1432.0, 0.006400298834483377
1433.0, 0.012238594447878538
1434.0, 0.026205155383923946
1435.0, 0.014721194215555008
1436.0, 0.005343647449934879
1437.0, 0.016358461226087573
1438.0, 0.024240292266520802
1439.0, 0.009197872382620475
1440.0, 0.019958110977358418
1441.0, 0.017367135363022434
1442.0, 0.013593243729534773
1443.0, 0.017300760254183402
1444.0, 0.02314825163275864
1445.0, 0.011231423816223909
1446.0, 0.017613772653031365
1447.0, 0.02853653246477595
1448.0, 0.018777877607833723
1449.0, 0.014753598154000094
1450.0, 0.028210259283072494
1451.0, 0.03172549496398598
1452.0, 0.010867492979437196
1453.0, 0.03325580778483125
1454.0, 0.03127354488447385
1455.0, 0.023954039017271646
1456.0, 0.029870650252222537
1457.0, 0.043965179022030974
1458.0, 0.029309282362753274
1459.0, 0.03128658146077364
1460.0, 0.047766030234706915
1461.0, 0.03753472941070814
1462.0, 0.035761803528690066
1463.0, 0.05031268868806086
1464.0, 0.047206143688625656
1465.0, 0.027956584581952534
1466.0, 0.05408526703750109
1467.0, 0.05195760590154176
1468.0, 0.044306872568174685
1469.0, 0.05091581937277528
1470.0, 0.06261818075535687
1471.0, 0.041774879890999005
1472.0, 0.04251510132749467
1473.0, 0.06691256736167384
1474.0, 0.04799341187843973
1475.0, 0.04233663057448286
1476.0, 0.0571227187048364
1477.0, 0.05737780175601028
1478.0, 0.03635616686171661
1479.0, 0.056002196394537664
1480.0, 0.05938144287155795
1481.0, 0.04533736971918199
1482.0, 0.048307268362465454
1483.0, 0.06110461490261225
1484.0, 0.04283368360963303
1485.0, 0.034041915730175384
1486.0, 0.054648243832694746
1487.0, 0.03723721558250396
1488.0, 0.03257554463025136
1489.0, 0.04351052041060122
1490.0, 0.043782870868205884
1491.0, 0.0156929073099513
1492.0, 0.0368083536810211
1493.0, 0.04233672050028518
1494.0, 0.02397252598651373
1495.0, 0.024749104329269973
1496.0, 0.03379727510284535
1497.0, 0.02312722406655583
1498.0, 0.0052300780206742115
1499.0, 0.035006334156223506
1500.0, 0.018938722482078042
1501.0, 0.009442097480444639
1502.0, 0.02191283425362285
1503.0, 0.026708685457201873
1504.0, 0.0022465088811239667
1505.0, 0.011167100534514193
1506.0, 0.021735216593257087
1507.0, 0.010543268114014136
1508.0, 0.015597134618502711
1509.0, 0.019650565613381993
1510.0, 0.011324038086688117
1511.0, 0.004606526226300037
1512.0, 0.030375161819133745
1513.0, 0.022168060736418842
1514.0, 0.006084938193642433
1515.0, 0.01736442641469733
1516.0, 0.01778615934401169
1517, 0.0
1518, 0.0
1519, 0.0
1520, 0.0
1521, 0.0
1522, 0.0
1523, 0.0
1524, 0.0
1525, 0.0
1526, 0.0
1527, 0.0
1528, 0.0
1529, 0.0
1530, 0.0
1531, 0.0
1532, 0.0
1533, 0.0
1534, 0.0
1535, 0.0
1536, 0.0
1537, 0.0
1538, 0.0
1539, 0.0
1540, 0.0
1541, 0.0
1542, 0.0
1543, 0.0
1544, 0.0
1545, 0.0
1546, 0.0
1547, 0.0
1548, 0.0
1549, 0.0
1550, 0.0
1551, 0.0
1552, 0.0
1553, 0.0
1554, 0.0
1555, 0.0
1556, 0.0
1557, 0.0
1558, 0.0
1559, 0.0
1560, 0.0
1561, 0.0
1562, 0.0
1563, 0.0
1564, 0.0
1565, 0.0
1566, 0.0
1567, 0.0
1568, 0.0
1569, 0.0
1570, 0.0
1571, 0.0
1572, 0.0
1573, 0.0
1574, 0.0
1575, 0.0
1576, 0.0
1577, 0.0
1578, 0.0
1579, 0.0
1580, 0.0
1581, 0.0
1582, 0.0
1583, 0.0
1584, 0.0
1585, 0.0
1586, 0.0
1587, 0.0
1588, 0.0
1589, 0.0
1590, 0.0
1591, 0.0
1592, 0.0
1593, 0.0
1594, 0.0
1595, 0.0
1596, 0.0
1597, 0.0
1598, 0.0
1599, 0.0
