30, 0.0
31, 0.0
32, 0.0
33, 0.0
34, 0.0
35, 0.0
36, 0.0
37, 0.0
38, 0.0
39, 0.0
40, 0.0
41, 0.0
42, 0.0
43, 0.0
44, 0.0
45, 0.0
46, 0.0
47, 0.0
48, 0.0
49, 0.0
50, 0.0
51, 0.0
52, 0.0
53.0, 0.00022076982522554025
54.0, 0.0018683058343713587
55.0, 0.003543105167121571
56.0, 0.005480435137453805
57.0, 0.007921553167803677
58.0, 0.008612073113707033
59.0, 0.007704522840103464
60.0, 0.005414503788128299
61.0, 0.002466737831844622
62.0, 0.0012411797485489514
63.0, 0.0007995847465558256
64.0, 0.0006944483968040101
65.0, 0.0005351791998956621
66.0, 0.00035322049994515007
67.0, 0.00023484202857108907
68.0, 0.0005913367454366965
69.0, 0.0013914194394445585
70.0, 0.0032883304048901395
71.0, 0.006950944209643594
72.0, 0.006393247109930047
73.0, 0.008508118107160276
74.0, 0.012918677724888479
75.0, 0.01723440188945511
76.0, 0.017453739236946136
77.0, 0.017320687266896923
78.0, 0.018812754708695662
79.0, 0.020066808833860396
80.0, 0.02264796238055577
81.0, 0.02579597269568166
82.0, 0.02695495963939736
83.0, 0.03314822506649664
84.0, 0.036907226697027624
85.0, 0.034561729642929785
86.0, 0.03735907726604177
87.0, 0.0419132019022929
88.0, 0.047937135361851124
89.0, 0.05518822350348363
90.0, 0.06568370078153984
91.0, 0.0775044213914014
92.0, 0.09016450571148693
93.0, 0.10585049705363836
94.0, 0.12303290675516726
95.0, 0.14093151870126133
96.0, 0.15822881057763513
97.0, 0.17773461020235354
98.0, 0.1927240323042139
99.0, 0.20091990726350126
100.0, 0.19737492701795056
101.0, 0.18700986589042132
102.0, 0.17474166647525471
103.0, 0.16687157628885052
104.0, 0.1631803436564411
105.0, 0.1631101066966892
106.0, 0.1659597153144412
107.0, 0.16575057086856418
108.0, 0.16410702522268897
109.0, 0.16418723785936595
110.0, 0.1694969153597975
111.0, 0.17127529112475834
112.0, 0.16960159535848326
113.0, 0.16485607267479785
114.0, 0.15848045553054144
115.0, 0.14726827188779473
116.0, 0.13592248306042862
117.0, 0.12731398624868692
118.0, 0.12471878633493089
119.0, 0.10848693203370136
120.0, 0.0868542800879127
121.0, 0.0860600428996974
122.0, 0.08629263489955694
123.0, 0.08663505772575505
124.0, 0.0868665892951893
125.0, 0.0927380374882113
126.0, 0.10097173355502127
127.0, 0.11030999122019693
128.0, 0.1187810968413972
129.0, 0.12544288935888503
130.0, 0.13029822289919782
131.0, 0.1324320458561111
132.0, 0.12267554929724518
133.0, 0.1134320377124072
134.0, 0.10380522370957297
135.0, 0.09277565372686704
136.0, 0.08850622656192986
137.0, 0.08629940674573414
138.0, 0.0855718661300678
139.0, 0.08599967597966805
140.0, 0.08572650372771466
141.0, 0.08340443557049013
142.0, 0.07797684563006733
143.0, 0.07049232591692302
144.0, 0.062082548260443245
145.0, 0.05371689073579155
146.0, 0.04772015054207238
147.0, 0.03973528612728811
148.0, 0.032907419916015215
149.0, 0.02812461993144028
150.0, 0.0244959404917181
151.0, 0.022159271079293455
152.0, 0.020646471040235297
153.0, 0.019616123231532345
154.0, 0.019309447627219367
155.0, 0.018963595818223745
156.0, 0.01894418634635221
157.0, 0.021655784995598684
158.0, 0.024164454292044845
159.0, 0.026615494639459232
160.0, 0.029081750662757744
161.0, 0.032030307257113845
162.0, 0.03386494518820187
163.0, 0.03484924539134184
164.0, 0.03542516871018899
165.0, 0.036594758306711474
166.0, 0.03867785676824362
167.0, 0.04180034960644643
168.0, 0.045992758687348506
169.0, 0.05243944433493897
170.0, 0.05900914196509001
171.0, 0.06362851200370824
172.0, 0.07201395752791435
173.0, 0.07785242041505648
174.0, 0.08098001719920256
175.0, 0.08223081613067576
176.0, 0.08265242850151333
177.0, 0.08398943841275906
178.0, 0.08668766657319794
179.0, 0.07790793315534514
180.0, 0.07189208555361787
181.0, 0.06766164647456412
182.0, 0.06417854446007268
183.0, 0.06467236809393505
184.0, 0.06576502916691943
185.0, 0.06697526482873248
186.0, 0.06840927040372972
187.0, 0.06713331357278678
188.0, 0.0634129852106165
189.0, 0.057076919688308816
190.0, 0.05205009427902134
191.0, 0.0470331284232404
192.0, 0.04300221394874156
193.0, 0.04218264762907042
194.0, 0.04196430638746114
195.0, 0.042691662132969724
196.0, 0.04436549116063926
197.0, 0.04630915517974897
198.0, 0.05048361713746289
199.0, 0.05499595505825209
200.0, 0.05855598183101892
201.0, 0.05752621879691819
202.0, 0.055490785951390835
203.0, 0.052387783486585196
204.0, 0.047576060522201986
205.0, 0.04491032368890598
206.0, 0.04362726624381741
207.0, 0.042934485945120886
208.0, 0.03692042107164837
209.0, 0.03312160961352506
210.0, 0.02869766451266208
211.0, 0.02134615983369948
212.0, 0.01870994995179134
213.0, 0.01604448114490413
214.0, 0.01399299443886438
215.0, 0.014675198546330013
216.0, 0.015645744714465684
217.0, 0.01684060084458056
218.0, 0.018520108983840197
219.0, 0.02303627758436455
220.0, 0.027753641287801768
221.0, 0.033336803739669255
222.0, 0.040407849384461465
223.0, 0.050479412052554545
224.0, 0.060645464957802556
225.0, 0.071650091388929
226.0, 0.08548481063254268
227.0, 0.09471021779186281
228.0, 0.10266520065628178
229.0, 0.10931249288948487
230.0, 0.10950825712929427
231.0, 0.11077913138406789
232.0, 0.11102396574621241
233.0, 0.10882686914371215
234.0, 0.10114267187634247
235.0, 0.09290484597657818
236.0, 0.08384876607946158
237.0, 0.07329883500718934
238.0, 0.06380362476566119
239.0, 0.05698216498314655
240.0, 0.05217039043385033
241.0, 0.04476427842407899
242.0, 0.04194606138072349
243.0, 0.041332619055569696
244.0, 0.04199826750597516
245.0, 0.04376282430967259
246.0, 0.04747324746931715
247.0, 0.05131787244955746
248.0, 0.053047157724314856
249.0, 0.05411303207763513
250.0, 0.052320301499659744
251.0, 0.04870225934233676
252.0, 0.047073358567418004
253.0, 0.042697759755276225
254.0, 0.037156293940084587
255.0, 0.03133693571929494
256.0, 0.030100542003655945
257.0, 0.029139469364351744
258.0, 0.029067677593578554
259.0, 0.03048490291591262
260.0, 0.02988285522711622
261.0, 0.029245903850025474
262.0, 0.028572580362098678
263.0, 0.02775566753369136
264.0, 0.026328128545396116
265.0, 0.02471828370740657
266.0, 0.02296836446387263
267.0, 0.02092844540975873
268.0, 0.018286266208915745
269.0, 0.015501883893214989
270.0, 0.012753672501486051
271.0, 0.009801936214983823
272.0, 0.007063662807762066
273.0, 0.004486726127908111
274.0, 0.0020424074158716665
275.0, 0.0012245986434615721
276.0, 0.0016359641633405433
277.0, 0.0028414448136315413
278.0, 0.003983059490590203
279.0, 0.003972212363919587
280.0, 0.004283759317292576
281.0, 0.004862625035289147
282.0, 0.0035457349244058843
283.0, 0.002671461680116598
284.0, 0.002826092041505338
285.0, 0.0042142742879699826
286.0, 0.0026793127443288244
287.0, 0.0013129257521767852
288.0, 0.0009244869765467783
289.0, 0.0025304609759435764
290.0, 0.0052900307553172266
291.0, 0.008119267377238485
292.0, 0.010997632068814139
293.0, 0.014035423735400244
294.0, 0.01811232725656726
295.0, 0.021775527290145986
296.0, 0.024803925695506244
297.0, 0.027534628278892893
298.0, 0.028662500258234993
299.0, 0.028781412025293458
300.0, 0.02814472256254045
301.0, 0.027755929219719838
302.0, 0.025300796902599818
303.0, 0.022997299911605474
304.0, 0.02284938123926932
305.0, 0.022511698109122482
306.0, 0.02274731199437026
307.0, 0.023226947816660824
308.0, 0.02333482202447173
309.0, 0.02591460697520767
310.0, 0.028190000199442875
311.0, 0.03018739249994931
312.0, 0.033394485608247475
313.0, 0.0378796885300822
314.0, 0.04310936742348191
315.0, 0.04871608594177175
316.0, 0.052787912965660655
317.0, 0.057815292835454765
318.0, 0.06355024233835177
319.0, 0.06985876440807992
320.0, 0.07494942050566941
321.0, 0.08137238325163187
322.0, 0.08954436494912231
323.0, 0.10014261342442318
324.0, 0.11403733628211399
325.0, 0.1273460007809092
326.0, 0.14274226389954972
327.0, 0.16664661966432728
328.0, 0.18798377604257305
329.0, 0.2038847306605761
330.0, 0.215110022390146
331.0, 0.22622835744186376
332.0, 0.2300655847769247
333.0, 0.22966368465513523
334.0, 0.22592082290324578
335.0, 0.2194460494787442
336.0, 0.20523954104242814
337.0, 0.18812518486364208
338.0, 0.1706504327861262
339.0, 0.1534064498682552
340.0, 0.1388808246837338
341.0, 0.12707141286806584
342.0, 0.11824917219800081
343.0, 0.11206118056844504
344.0, 0.10721823837815889
345.0, 0.10400354490050955
346.0, 0.10316436246524303
347.0, 0.10136683460934624
348.0, 0.09984247980770186
349.0, 0.0983358832551629
350.0, 0.09571120627677615
351.0, 0.09363319831039806
352.0, 0.09034147733262196
353.0, 0.08618581748823033
354.0, 0.08490045450379843
355.0, 0.0857479805131033
356.0, 0.08868296637652005
357.0, 0.09392940337399608
358.0, 0.10297104297659398
359.0, 0.11238297172735756
360.0, 0.1226072614597978
361.0, 0.13425942191035117
362.0, 0.15628430960744877
363.0, 0.17741137655487496
364.0, 0.20126207611632102
365.0, 0.23156250262440314
366.0, 0.26368125341610826
367.0, 0.3005757376040231
368.0, 0.34059885981633936
369.0, 0.3814360873120024
370.0, 0.42532230731500037
371.0, 0.4675650490123872
372.0, 0.5032261993335041
373.0, 0.5211773649040582
374.0, 0.5381038525997398
375.0, 0.547353945232897
376.0, 0.5472063034196293
377.0, 0.5347218471433054
378.0, 0.5303042911692669
379.0, 0.5253451085969144
380.0, 0.5188480407252751
381.0, 0.5175682170825983
382.0, 0.5236858756121285
383.0, 0.529067562417654
384.0, 0.5298363144651222
385.0, 0.5199426452219856
386.0, 0.5115089668094199
387.0, 0.4999193107865249
388.0, 0.4814656866914433
389.0, 0.43816910058630776
390.0, 0.40531284061251516
391.0, 0.3736702271045581
392.0, 0.3361750073437631
393.0, 0.305999319409226
394.0, 0.2787784848798304
395.0, 0.2552465333615616
396.0, 0.23644099257603596
397.0, 0.22103180683557233
398.0, 0.20460245245522224
399.0, 0.19117122312805862
400.0, 0.18729302473596848
401.0, 0.1758212364371729
402.0, 0.1670217903468265
403.0, 0.16185393073440618
404.0, 0.16097587434877964
405.0, 0.15475262369685888
406.0, 0.14712054409512101
407.0, 0.14026145819604394
408.0, 0.1387583042192447
409.0, 0.13266609197278817
410.0, 0.12650885915548352
411.0, 0.12004504563254328
412.0, 0.10946581092547017
413.0, 0.09960751321344376
414.0, 0.09014912675473155
415.0, 0.0809006629663138
416.0, 0.07133292934766997
417.0, 0.06245643141428892
418.0, 0.05450006769517629
419.0, 0.04753793345592312
420.0, 0.041455829546527816
421.0, 0.037139805436676415
422.0, 0.03291505548521361
423.0, 0.02838154197931835
424.0, 0.025856310576835368
425.0, 0.02269156802308191
426.0, 0.020145626021690212
427.0, 0.01881074180331682
428.0, 0.01800196230964001
429.0, 0.014787622560749026
430.0, 0.01189317995425704
431.0, 0.01087327502190824
432.0, 0.00993740543083648
433.0, 0.010056008941724837
434.0, 0.009552830096182723
435.0, 0.007302612164793028
436.0, 0.006109455243242973
437.0, 0.004685690610072486
438.0, 0.003950051676517445
439.0, 0.0046392071471235575
440.0, 0.002912341472400418
441.0, 0.0020840010732440816
442.0, 0.0017055120124249673
443.0, 0.0013573014133002586
444.0, 0.0026121603253773397
445.0, 0.002041965872150331
446.0, 0.00123790903963569
447.0, 0.0019579632565510253
448.0, 0.0030952878729988815
449.0, 0.004519957730880998
450.0, 0.00548904765697331
451.0, 0.005082246970808831
452.0, 0.006116418915954662
453.0, 0.005896366671154025
454.0, 0.0053695126995626724
455.0, 0.0059039135794816625
456.0, 0.005995070709315924
457.0, 0.005991726384427193
458.0, 0.005878905821317629
459.0, 0.005607691774978356
460.0, 0.004630604097238182
461.0, 0.0034560889409110387
462.0, 0.002039936025858604
463.0, 0.00025988971408340126
464.0, 0.0018453400831734
465.0, 0.0024845619551691015
466.0, 0.0021270394926983308
467.0, 0.0010778293818136681
468.0, 0.0013523004218845757
469.0, 0.0024145880194943255
470.0, 0.003870726574811716
471.0, 0.005152837393638746
472.0, 0.005002002433498957
473.0, 0.006705329700041721
474.0, 0.009227970271634248
475.0, 0.010469852341016024
476.0, 0.011406512571071588
477.0, 0.013693997424212076
478.0, 0.016358605293547223
479.0, 0.01758301993231935
480.0, 0.019403053634850547
481.0, 0.02129179198945271
482.0, 0.023584698712730404
483.0, 0.026915281759476984
484.0, 0.028110949870852095
485.0, 0.0317854810793604
486.0, 0.03627536114521143
487.0, 0.038423969836402144
488.0, 0.04506704125664022
489.0, 0.04773425080955908
490.0, 0.04846530292877782
491.0, 0.05117142062042714
492.0, 0.05581463540432073
493.0, 0.060049303270423876
494.0, 0.06378965692363578
495.0, 0.06709135259639959
496.0, 0.07017661437351871
497.0, 0.07312458125978036
498.0, 0.07575636461424212
499.0, 0.07781937465219038
500.0, 0.08023797775918128
501.0, 0.08269820871559778
502.0, 0.08472926961486442
503.0, 0.08576269697261708
504.0, 0.08589149015564493
505.0, 0.08600848624217836
506.0, 0.08558757432654727
507.0, 0.08402652539044923
508.0, 0.08333866803311434
509.0, 0.08259915555631975
510.0, 0.08195683465535977
511.0, 0.08158420104823523
512.0, 0.08354393469260252
513.0, 0.08421675331107747
514.0, 0.08506599768296315
515.0, 0.08721670069967882
516.0, 0.0850224376661702
517.0, 0.08746483612298869
518.0, 0.09043950280798144
519.0, 0.09097230722457571
520.0, 0.09158241773922013
521.0, 0.09415292274179932
522.0, 0.0964572832575124
523.0, 0.09728968917199891
524.0, 0.0997461392551235
525.0, 0.10558471990647633
526.0, 0.11136706415690839
527.0, 0.11568821927817917
528.0, 0.12281331019737671
529.0, 0.12911646456364506
530.0, 0.13728339212097138
531.0, 0.14770396039838435
532.0, 0.15474009198550606
533.0, 0.16407756013819766
534.0, 0.177189029188016
535.0, 0.19315934477213262
536.0, 0.20448273519290924
537.0, 0.21958238935477417
538.0, 0.23424540594666743
539.0, 0.24823865728674105
540.0, 0.26532531053348285
541.0, 0.2801995708814222
542.0, 0.2948182832674915
543.0, 0.30799449173159
544.0, 0.31492737093134376
545.0, 0.3302586418670104
546.0, 0.3419158772374258
547.0, 0.3511218651081628
548.0, 0.3649300896986665
549.0, 0.3795045898863649
550.0, 0.39703475299859536
551.0, 0.41723515576537384
552.0, 0.4392592372558087
553.0, 0.4760177871212947
554.0, 0.5157669473864315
555.0, 0.5581474199321812
556.0, 0.6035768428353967
557.0, 0.6633089523941793
558.0, 0.715426146453362
559.0, 0.763767841001999
560.0, 0.8119817067040438
561.0, 0.8356232967779813
562.0, 0.8670902478135025
563.0, 0.886129320565186
564.0, 0.8800958065770279
565.0, 0.8802256129517257
566.0, 0.8747636157571392
567.0, 0.8731920641458063
568.0, 0.8797038989956664
569.0, 0.887670676698158
570.0, 0.8981017461663627
571.0, 0.9133095876706226
572.0, 0.9337422800541331
573.0, 0.9572519986854983
574.0, 0.9855764523111055
575.0, 0.9999266680723211
576.0, 0.9961387512105754
577.0, 0.9763374753673774
578.0, 0.9319865614022739
579.0, 0.8808637061976645
580.0, 0.8223299874861788
581.0, 0.7487761182948365
582.0, 0.6602715820024733
583.0, 0.5876895167503392
584.0, 0.5234258414892877
585.0, 0.45265754173523853
586.0, 0.39810562558776763
587.0, 0.35328317499402756
588.0, 0.31374323204789717
589.0, 0.2753054675963272
590.0, 0.24491906258076926
591.0, 0.2173938163359531
592.0, 0.19228660058575148
593.0, 0.16985717081928928
594.0, 0.155968581495472
595.0, 0.14456672318106534
596.0, 0.13398071301263137
597.0, 0.12332997914824723
598.0, 0.11181004513286463
599.0, 0.1044050443689361
600.0, 0.0970101646994156
601.0, 0.08989684875808258
602.0, 0.08742978658323926
603.0, 0.0822126777795124
604.0, 0.07939614166020427
605.0, 0.07780606741987822
606.0, 0.07362601024405123
607.0, 0.07118091177778141
608.0, 0.0674574198932203
609.0, 0.06462791289851193
610.0, 0.0655156233867668
611.0, 0.06184362714437287
612.0, 0.06111193726217176
613.0, 0.06066395323100609
614.0, 0.05873340130671164
615.0, 0.05968497090785903
616.0, 0.059562760787709244
617.0, 0.05954187277345739
618.0, 0.05986987406484766
619.0, 0.05877343924144611
620.0, 0.05743745684959885
621.0, 0.0546883033750426
622.0, 0.051801003567357125
623.0, 0.05362079287987659
624.0, 0.04953996230785027
625.0, 0.04728999136646288
626.0, 0.04562527895919424
627.0, 0.040477611902681565
628.0, 0.04005411727739833
629.0, 0.03683616137713971
630.0, 0.03297658471733488
631.0, 0.031118322942379845
632.0, 0.032525963025668715
633.0, 0.03144118480626304
634.0, 0.029989199543775064
635.0, 0.029477855134219577
636.0, 0.02972667026271495
637.0, 0.029925379281772246
638.0, 0.03028192896571728
639.0, 0.031074748017175743
640.0, 0.03304353100448651
641.0, 0.03575137107964273
642.0, 0.038180157406417246
643.0, 0.040210228541306674
644.0, 0.04195795054542325
645.0, 0.04449032987412271
646.0, 0.04755265921683482
647.0, 0.05145583469418932
648.0, 0.05636938385198854
649.0, 0.05715809856825575
650.0, 0.06154648806769582
651.0, 0.06465180852133309
652.0, 0.06444543551095841
653.0, 0.06776105991713326
654.0, 0.06624167321653854
655.0, 0.06451202139504143
656.0, 0.06311149692577515
657.0, 0.05900534692740075
658.0, 0.05745662199407196
659.0, 0.05573803989720028
660.0, 0.053029531969102144
661.0, 0.048674617846922605
662.0, 0.04483947628446487
663.0, 0.04364061766455904
664.0, 0.042715883056865835
665.0, 0.03994513348784409
666.0, 0.03625914054911785
667.0, 0.03520468564557618
668.0, 0.03367785631480539
669.0, 0.031035346713362562
670.0, 0.031135958481218216
671.0, 0.027596325568623955
672.0, 0.025267822250680843
673.0, 0.024119472041481873
674.0, 0.02171441670853255
675.0, 0.019116901207496532
676.0, 0.01747009358297156
677.0, 0.017072972186523455
678.0, 0.018099302370545578
679.0, 0.02004941814714397
680.0, 0.018329996881298497
681.0, 0.01792794242474994
682.0, 0.020582235733509268
683.0, 0.01957874566025208
684.0, 0.007880237633776108
685.0, 0.0008080039724842134
686.0, 0.0002844808920279123
687.0, 0.0007553480162631953
688.0, 0.0006838073200318149
689.0, 0.0006558517153921789
690.0, 0.0006309690886524797
691.0, 0.0005050112233026439
692.0, 0.0006514483160769715
693.0, 0.0010458389239837611
694.0, 0.0010480462976231117
695.0, 0.0006566856678821249
696.0, 0.002202044564929772
697.0, 0.0025435741632645666
698.0, 0.003116571048532864
699.0, 0.003520471376943813
700.0, 0.001831285659625677
701.0, 0.002102745079347799
702.0, 0.0015442269540395374
703.0, 0.0007826999503671645
704.0, 0.0007676078383141847
705.0, 0.00034125119083172346
706.0, 0.000542641546305424
707.0, 0.0009523851047828164
708.0, 0.0012953558301264747
709.0, 0.0013698468029220419
710.0, 0.0015149333366266493
711.0, 0.0011890359384599271
712.0, 0.0011527602611223343
713.0, 0.0032041380643839704
714.0, 0.001223202644741966
715.0, 0.0019746485459737834
716.0, 0.00327165370543923
717.0, 0.0028605081650465995
718.0, 0.0032481646129157563
719.0, 0.004234894721067695
720.0, 0.005764458836911975
721.0, 0.007583149172830109
722.0, 0.00887154029469393
723.0, 0.009698379230821433
724.0, 0.010414222112915709
725.0, 0.01081115183888493
726.0, 0.01051883758314596
727.0, 0.012941530556926819
728.0, 0.012515424999075604
729.0, 0.012832047368228574
730.0, 0.015912377488492713
731.0, 0.01859286875246544
732.0, 0.01989819113180179
733.0, 0.020433784645854682
734.0, 0.021071657356628668
735.0, 0.0234194318166128
736.0, 0.025947801301723573
737.0, 0.028420564165374012
738.0, 0.030803663800219393
739.0, 0.03314780564693756
740.0, 0.03635301344365399
741.0, 0.03766543723202894
742.0, 0.03913382252800254
743.0, 0.041517925645063965
744.0, 0.04446211287426734
745.0, 0.047991857182803854
746.0, 0.05196244499312224
747.0, 0.05489472564779673
748.0, 0.055054577308806064
749.0, 0.05862545715554863
750.0, 0.06096675110523383
751.0, 0.06359683218818818
752.0, 0.06643671510599027
753.0, 0.06494059942730114
754.0, 0.07056040650560047
755.0, 0.07244039765957574
756.0, 0.07098416972270152
757.0, 0.07064120001151446
758.0, 0.07235020674283449
759.0, 0.06962869953660016
760.0, 0.06732635044940895
761.0, 0.06800554944451462
762.0, 0.0654396507245911
763.0, 0.06452232143275402
764.0, 0.06303829024309429
765.0, 0.06050401202548291
766.0, 0.05712983270094665
767.0, 0.05764747701782868
768.0, 0.053144445022589124
769.0, 0.04890767667745638
770.0, 0.048536423920218605
771.0, 0.04364983347044171
772.0, 0.04066060555206807
773.0, 0.039065215008750875
774.0, 0.03795495398551736
775.0, 0.03561495058739353
776.0, 0.03390039247195808
777.0, 0.032425448390463164
778.0, 0.030733722736954298
779.0, 0.028645567678541952
780.0, 0.027949661753261953
781.0, 0.025439711826748992
782.0, 0.02339267617866064
783.0, 0.022194057312388677
784.0, 0.021015891827587754
785.0, 0.020470484830123724
786.0, 0.019581199857281423
787.0, 0.018473000206853597
788.0, 0.017447075186959857
789.0, 0.01765797941742352
790.0, 0.01627427328271151
791.0, 0.015240074911046817
792.0, 0.014677623571326797
793.0, 0.01345243945558599
794.0, 0.011774572969308767
795.0, 0.01242502355517485
796.0, 0.013048212333449664
797.0, 0.011821124749151762
798.0, 0.01120581363152076
799.0, 0.010071038535850528
800.0, 0.009484104465699878
801.0, 0.009632504635759489
802.0, 0.010241056843636204
803.0, 0.00869237724674779
804.0, 0.008034621042056255
805.0, 0.007153859511285127
806.0, 0.005541624167891886
807.0, 0.005858997081808669
808.0, 0.007939457064873432
809.0, 0.008114487524456693
810.0, 0.006830547467174829
811.0, 0.006458358036698872
812.0, 0.007468713505285955
813.0, 0.007264193826295003
814.0, 0.007888355117636869
815.0, 0.009544366949446654
816.0, 0.007046891214360023
817.0, 0.00528083559590723
818.0, 0.0038524628571017286
819.0, 0.0036196021667699676
820.0, 0.005614257416564766
821.0, 0.003591001996778742
822.0, 0.0036459722575472187
823.0, 0.004127505496334915
824.0, 0.004296700966233751
825.0, 0.004483985520627861
826.0, 0.004546237408962537
827.0, 0.0040497301894951675
828.0, 0.0037342125581666273
829.0, 0.004213559636295795
830.0, 0.002868393574902206
831.0, 0.003982491496058913
832.0, 0.0035226771337762406
833.0, 0.0014382291011566894
834.0, 0.0008889810439444929
835.0, 0.0028118427244098803
836.0, 0.003040424591304841
837.0, 0.0031094884771822114
838.0, 0.003995467545313538
839.0, 0.0034274980222162104
840.0, 0.003281545974039209
841.0, 0.003416718399203106
842.0, 0.0034897996443271923
843.0, 0.003030110581030197
844.0, 0.0018218662168491312
845.0, 0.0038378630105305516
846.0, 0.004111109489613098
847.0, 0.0020358035430885213
848.0, 0.004134780031665668
849.0, 0.002615285622113183
850.0, 0.001795945539050727
851.0, 0.0017706145908616923
852.0, 0.0019508621287909248
853.0, 0.0006277652104714503
854.0, 0.00016139238206540194
855.0, 8.540777586762986e-05
856.0, 0.0004944853536756853
857.0, 0.00180947651262238
858.0, 0.0006363310246967442
859.0, 0.0008749118055129948
860.0, 0.0011017516535796628
861.0, 0.0006523598306011201
862.0, 0.0006543078637934669
863.0, 0.001395884250639398
864.0, 0.0011042527221343213
865.0, 0.00048422691921268506
866.0, 0.0005428606708015864
867.0, 0.0002511601048139012
868.0, 0.0004574148637327283
869.0, 0.0006785473978114932
870.0, 0.0007586440225677209
871.0, 0.0007207698034257286
872.0, 0.00016551079673195307
873.0, 0.0005585304210647716
874.0, 0.0010217936380848257
875.0, 0.0010198586097977535
876.0, 0.0007910065098912903
877.0, 0.001309572125567583
878.0, 0.0008924438300210583
879.0, 0.00016363301590095324
880.0, 3.097339044810923e-05
881.0, 3.876707514759844e-05
882.0, 7.632842350394446e-05
883.0, 9.380915718491752e-05
884.0, 0.00017400636549152226
885.0, 0.0004906542337998587
886.0, 0.00035036378522297303
887.0, 0.000543157841920323
888.0, 0.0005382406114135176
889.0, 0.0002194312616847766
890.0, 0.00021699429832741418
891.0, 0.0005786337950283051
892.0, 0.0009704834471533563
893.0, 0.0011226081300771116
894.0, 0.0008939922302869228
895.0, 0.000743149571909342
896.0, 0.0004980529157296521
897.0, 0.0004888209311154979
898.0, 0.0004747389123454265
899.0, 5.954556276243446e-05
900.0, 0.0007346590040503821
901.0, 0.0010098108122792572
902.0, 0.0007253094922694218
903.0, 0.0004597912968173245
904.0, 0.0016955610042600708
905.0, 0.000699829693613985
906.0, 0.0008558862872362272
907.0, 0.001180931720932311
908.0, 0.0010466556922687344
909.0, 0.0009886753363913276
910.0, 0.001219875255040287
911.0, 0.000667200216321979
912.0, 0.0007190853304770084
913.0, 0.002351340745684813
914.0, 0.001367686734561773
915.0, 0.0018836254059911828
916.0, 0.0019638532018058383
917.0, 0.0013175987703249747
918.0, 0.0004048245830741465
919.0, 0.002533178126877256
920.0, 0.002288034715611275
921.0, 0.002037287192420846
922.0, 0.0023101108081935618
923.0, 0.0021279493250618256
924.0, 0.00244255539615986
925.0, 0.0018264025595095734
926.0, 0.0013540768111291398
927.0, 0.0014771263308089653
928.0, 0.0014303963434420487
929.0, 0.002043861865856494
930.0, 0.0017220052473159277
931.0, 0.001848577565072829
932.0, 0.0029979375678937134
933.0, 0.0012604850670154188
934.0, 0.0010508066813678333
935.0, 0.0034703628684487025
936.0, 0.004978614508665163
937.0, 0.0021561446559850454
938.0, 0.0032598455645681647
939.0, 0.0027124390652188343
940.0, 0.002564051440938572
941.0, 0.003039112393046989
942.0, 0.0035224738544421515
943.0, 0.002910713936000748
944.0, 0.003213833649122014
945.0, 0.003188784138165976
946.0, 0.0030039716374115916
947.0, 0.004035573113330165
948.0, 0.0035963336824878676
949.0, 0.003718078908139102
950.0, 0.0037798359798949517
951.0, 0.0037860453589259433
952.0, 0.004744652885225408
953.0, 0.00492465146948578
954.0, 0.0051461793618462585
955.0, 0.005453508206518796
956.0, 0.005715271315517008
957.0, 0.00544282241317379
958.0, 0.005190887906683773
959.0, 0.0045020370815884335
960.0, 0.004517403566099852
961.0, 0.005609151660016324
962.0, 0.0042894117670937044
963.0, 0.004270186150109089
964.0, 0.006885045213064658
965.0, 0.008922282603591986
966.0, 0.007446289379803607
967.0, 0.008049334382193863
968.0, 0.0074510419462873395
969.0, 0.007110577023622617
970.0, 0.006891400802968841
971.0, 0.006330942178043435
972.0, 0.007095375235152414
973.0, 0.007614900409406517
974.0, 0.007819466086774989
975.0, 0.007951256944821516
976.0, 0.00840874117736866
977.0, 0.009239547153622605
978.0, 0.0072104165567944585
979.0, 0.006935135331528317
980.0, 0.007801120827322162
981.0, 0.0059439649953801875
982.0, 0.007871447300398057
983.0, 0.009689346262352436
984.0, 0.00924842589513146
985.0, 0.007710472923211719
986.0, 0.009213997062840259
987.0, 0.009079907060972175
988.0, 0.00801925896655417
989.0, 0.008579111405453829
990.0, 0.010727810760715944
991.0, 0.01153046480384816
992.0, 0.010878008140700442
993.0, 0.013866589920264712
994.0, 0.013753854432237934
995.0, 0.009821832559734168
996.0, 0.009819455741582163
997.0, 0.009835936132605376
998.0, 0.011461079135949225
999.0, 0.01169657283371711
1000.0, 0.010399401374654726
1001.0, 0.012251059225758821
1002.0, 0.0076828740166869375
1003.0, 0.008375969898430178
1004.0, 0.009473362056399941
1005.0, 0.00862630108615871
1006.0, 0.009371095900531028
1007.0, 0.008654436639020484
1008.0, 0.008428040434302484
1009.0, 0.008504596804751456
1010.0, 0.008758130604139911
1011.0, 0.009471102362082222
1012.0, 0.008226246857612361
1013.0, 0.00777812586224103
1014.0, 0.008249013688003183
1015.0, 0.00885372065051966
1016.0, 0.007279317070943085
1017.0, 0.009494641163787638
1018.0, 0.009648702077063228
1019.0, 0.007706390304955112
1020.0, 0.005285190806476352
1021.0, 0.006582591106522363
1022.0, 0.007270327917920644
1023.0, 0.007103987645778249
1024.0, 0.0070905674656068455
1025.0, 0.007331436559023777
1026.0, 0.005904144777456372
1027.0, 0.007865630056506564
1028.0, 0.00788995634816582
1029.0, 0.0073717996959462885
1030.0, 0.007578864323313001
1031.0, 0.008733806412061972
1032.0, 0.007832462827516736
1033.0, 0.007038356175064252
1034.0, 0.007737522287729248
1035.0, 0.009086531644654828
1036.0, 0.006486167554599288
1037.0, 0.0056941334459336135
1038.0, 0.006104800263030129
1039.0, 0.006689986493812536
1040.0, 0.007084686106221834
1041.0, 0.007941328101799863
1042.0, 0.006721285269181766
1043.0, 0.006788892196936706
1044.0, 0.008037731269644442
1045.0, 0.0095117239409569
1046.0, 0.009334288889105874
1047.0, 0.007853722835061618
1048.0, 0.007926077568466534
1049.0, 0.00781373540097759
1050.0, 0.007410094173655916
1051.0, 0.008324491878158853
1052.0, 0.00892082606319163
1053.0, 0.008599179473007191
1054.0, 0.008026976870882892
1055.0, 0.007692349252459146
1056.0, 0.007909399946317681
1057.0, 0.008427217266025334
1058.0, 0.00788071755521797
1059.0, 0.007507737930875861
1060.0, 0.007310443452867103
1061.0, 0.006634786777114923
1062.0, 0.006729849211260858
1063.0, 0.008152586439157821
1064.0, 0.008465791438550509
1065.0, 0.007484126334865672
1066.0, 0.0060833820019446285
1067.0, 0.004892505973693699
1068.0, 0.0064120973894571855
1069.0, 0.0063908009286083
1070.0, 0.005923889358528503
1071.0, 0.00719809355898475
1072.0, 0.0084730075286282
1073.0, 0.008109990162985595
1074.0, 0.007476340930366051
1075.0, 0.007022818559460763
1076.0, 0.006849025304276071
1077.0, 0.006499077840413175
1078.0, 0.00555775068942053
1079.0, 0.005258356141169487
1080.0, 0.005818595432639189
1081.0, 0.006545254648167078
1082.0, 0.004933152979222229
1083.0, 0.005943306372595804
1084.0, 0.006305577416641725
1085.0, 0.006157641662084701
1086.0, 0.005988412975172921
1087.0, 0.006418929993927227
1088.0, 0.006180192389333605
1089.0, 0.006331467147088182
1090.0, 0.006284938034661841
1091.0, 0.005561497886753294
1092.0, 0.003931606411439251
1093.0, 0.004271718123057061
1094.0, 0.004458368192292103
1095.0, 0.003583692507440485
1096.0, 0.002797316778033905
1097.0, 0.004142183343076456
1098.0, 0.006292403498399457
1099.0, 0.004587076678356695
1100.0, 0.003589369715054148
1101.0, 0.0028576873053146037
1102.0, 0.0014473699655381744
1103.0, 0.004666963727832324
1104.0, 0.003669320898209682
1105.0, 0.0034021134515646693
1106.0, 0.0040258667550607434
1107.0, 0.004662418443555367
1108.0, 0.004049623606316162
1109.0, 0.004437990324773584
1110.0, 0.00491239112531267
1111.0, 0.004285491165881104
1112.0, 0.002891347251346446
1113.0, 0.003228324174102595
1114.0, 0.003682845521703653
1115.0, 0.003994763156122664
1116.0, 0.004172943290304998
1117.0, 0.00408717233789397
1118.0, 0.003647256870622998
1119.0, 0.005068623427724471
1120.0, 0.004678734289944515
1121.0, 0.003703376024798185
1122.0, 0.003337028359149978
1123.0, 0.004294581067199198
1124.0, 0.004793471643445228
1125.0, 0.00490612130118799
1126.0, 0.0036805910284921635
1127.0, 0.0027866859534692967
1128.0, 0.003232278894543715
1129.0, 0.0030395843319187712
1130.0, 0.003658426278603746
1131.0, 0.002562150123450001
1132.0, 0.0018259914749786312
1133.0, 0.0019458216072614114
1134.0, 0.00113557881868891
1135.0, 0.0016108926672476374
1136.0, 0.0015089258548686938
1137.0, 0.0010356762183268099
1138.0, 0.0013207546099495524
1139.0, 0.0032405286166014464
1140.0, 0.0013261200918345208
1141.0, 0.0015095395928902149
1142.0, 0.0009110681758339253
1143.0, 0.0010469619084296027
1144.0, 0.002680079558326284
1145.0, 0.0005249613616434257
1146.0, 0.000964035033106003
1147.0, 0.0007793414929516389
1148.0, 0.0009236315408021982
1149.0, 0.0016039465454297272
1150.0, 0.0015101382820596968
1151.0, 0.0008398757905328264
1152.0, 0.001727302047469474
1153.0, 0.002885483634179422
1154.0, 0.002831111804142882
1155.0, 0.0007544327258627163
1156.0, 0.0014505419912132238
1157.0, 0.0012663739206380832
1158.0, 0.0007680249476331129
1159.0, 0.000644822279038496
1160.0, 0.001369776069374386
1161.0, 0.002770927030629713
1162.0, 0.0007214527884156862
1163.0, 0.0003749237451705039
1164.0, 0.0005506290743262282
1165.0, 0.0007268011251940253
1166.0, 0.0015677633603998346
1167.0, 0.0014713019748608235
1168.0, 0.0019428206219137378
1169.0, 0.0018736625288890945
1170.0, 0.0012042351678851334
1171.0, 0.0004013330713405626
1172.0, 3.800658018590628e-05
1173.0, 8.096895801788865e-05
1174.0, 0.001142788325687817
1175.0, 0.0017333760807748742
1176.0, 0.0012173073566027412
1177.0, 0.0010184494514414025
1178.0, 0.0002684142565214114
1179.0, 0.0013040730139674888
1180.0, 0.0016481508267557317
1181.0, 0.0014910132815189187
1182.0, 0.002529815058012538
1183.0, 0.0032662852781859294
1184.0, 0.001714698046083613
1185.0, 0.0005087699739735301
1186.0, 4.719979616226873e-05
1187.0, 0.0003400373507121267
1188.0, 0.001783398855066047
1189.0, 0.0008443006914386568
1190.0, 0.0008690041339960402
1191.0, 0.0009713041525094601
1192.0, 0.001166805422153553
1193.0, 0.0020826169122410317
1194.0, 0.0006624160700687665
1195.0, 0.0006951976946217954
1196.0, 0.0008304277857915972
1197.0, 0.0013917089699780232
1198.0, 0.002233440198517722
1199.0, 0.0006482648814865485
1200.0, 0.00029364306861855865
1201.0, 0.0002121007773225616
1202.0, 0.0012415114147673845
1203.0, 0.0021282468376725323
1204.0, 0.00031206225202873186
1205.0, 0.000927505183056125
1206.0, 0.0020802472648216745
1207.0, 0.001599709690690581
1208.0, 0.00048537765002056737
1209.0, 9.579338559974928e-05
1210.0, 5.5356770102316806e-05
1211.0, 0.001273148943266618
1212.0, 0.001020289412727392
1213.0, 0.0008793522882843726
1214.0, 0.000993725653568175
1215.0, 0.0003686406497206777
1216.0, 0.0017400174697449662
1217.0, 0.001927115657138341
1218.0, 0.0023189863561021025
1219.0, 0.0027642999940972073
1220.0, 0.0026767333409166245
1221.0, 0.0014521820556179829
1222.0, 0.0023106194632201917
1223.0, 0.0016374275592696515
1224.0, 0.0006249538134226386
1225.0, 0.00026021534656670584
1226.0, 0.0008509817071540514
1227.0, 0.00042464430354952884
1228.0, 0.00103692823992619
1229.0, 0.0012100206309207402
1230.0, 0.0016627103126139356
1231.0, 0.002416215180294457
1232.0, 0.0016755336116107654
1233.0, 0.0006246364827595616
1234.0, 0.0013499447301736597
1235.0, 0.0011008725800668736
1236.0, 0.0008896360187439182
1237.0, 0.0023179467056483145
1238.0, 0.0010743265339288315
1239.0, 0.000468408273542399
1240.0, 0.0019427294467266633
1241.0, 0.0022891657511662097
1242.0, 0.001089074358664609
1243.0, 0.0013945180969105377
1244.0, 0.0019963340025859195
1245.0, 0.001179067050769215
1246.0, 0.0025231471363353544
1247.0, 0.003899434466082756
1248.0, 0.003003520073924013
1249.0, 0.001460013445435191
1250.0, 0.001983421517558155
1251.0, 0.001244654018953181
1252.0, 0.0007680821090812743
1253.0, 0.0006893454881402178
1254.0, 0.0003558477411105621
1255.0, 0.000683514815117411
1256.0, 0.0006059584430130351
1257.0, 0.0006638768692422923
1258.0, 0.0008243149008746519
1259.0, 0.0010485994294743544
1260.0, 0.0013789728837531985
1261.0, 0.0014717648625765037
1262.0, 0.0019243567381782077
1263.0, 0.002404809921282886
1264.0, 0.0024889151988668774
1265.0, 0.0018688387097007065
1266.0, 0.0005646239785507358
1267.0, 0.0017812949852497565
1268.0, 0.0018140719450476476
1269.0, 0.0026582625324160303
1270.0, 0.002953463699848704
1271.0, 0.0007517614108311533
1272.0, 0.001217886800659498
1273.0, 0.000739701750375946
1274.0, 0.0009083026170882958
1275.0, 0.0011795926173864275
1276.0, 0.0009425489491561995
1277.0, 5.382968048401178e-05
1278.0, 0.0005946479410642001
1279.0, 0.0014700350689043605
1280.0, 0.0016122614991512867
1281.0, 0.0019223766201452157
1282.0, 0.00257490486286741
1283.0, 0.0018663697742209578
1284.0, 0.0014700065952313887
1285.0, 0.0006425923300119357
1286.0, 0.0014312742031010975
1287.0, 0.0022408686471694387
1288.0, 0.0014913950629313305
1289.0, 0.001684813935553138
1290.0, 0.0006464323184967339
1291.0, 0.001439565518821427
1292.0, 0.0011670365478602409
1293.0, 0.0008074387120763846
1294.0, 0.002424709610451915
1295.0, 0.0013858993585712989
1296.0, 0.0023060962926292807
1297.0, 0.0012051590640894656
1298.0, 0.0011138977743235983
1299.0, 0.0024778891107450443
1300.0, 0.0029793705650072583
1301.0, 0.002646610077530747
1302.0, 0.0007675500671797698
1303.0, 0.0014033613724241437
1304.0, 0.0015244592977245413
1305.0, 0.0002526259032240866
1306.0, 0.000669281645108934
1307.0, 0.0010113484823124068
1308.0, 0.001248083183176767
1309.0, 0.0006999886623618205
1310.0, 0.0012389581918044955
1311.0, 0.002685996543722654
1312.0, 0.0008719750454229839
1313.0, 0.00256720202594672
1314.0, 0.0018414172645600747
1315.0, 0.003087039102781242
1316.0, 0.0037457298960474564
1317.0, 0.0016897689843795494
1318.0, 0.0010761352004445975
1319.0, 0.00133547270841916
1320.0, 0.002775370621739226
1321.0, 0.002787628653749636
1322.0, 0.0014464808893249175
1323.0, 0.0002387381584566336
1324.0, 0.0007126168194224355
1325.0, 0.0007353386961661863
1326.0, 0.0007294626347208862
1327.0, 0.0005186234318762148
1328.0, 0.00025969530340381563
1329.0, 0.00029344805549521045
1330.0, 0.0009167666304305363
1331.0, 0.002079379552948646
1332.0, 0.003093305923773569
1333.0, 0.001988825188566909
1334.0, 0.0006851729505966033
1335.0, 0.0016990260538923656
1336.0, 0.00035567040386139646
1337.0, 0.0014205982153734792
1338.0, 0.0022860256558403
1339.0, 0.0021764002330759446
1340.0, 0.002336550476342901
1341.0, 0.0037121010165545912
1342.0, 0.0005321639321661823
1343.0, 0.0004944419791619406
1344.0, 0.0004254856099434246
1345.0, 0.001097412505237434
1346.0, 0.002296258326685555
1347.0, 0.0029453779851532436
1348.0, 0.0025749823534693596
1349.0, 0.0015517826901653101
1350.0, 0.00130879986248329
1351.0, 0.0022647341499038715
1352.0, 0.002687522551480839
1353.0, 0.0009038634695084215
1354.0, 0.0022217205672483017
1355.0, 0.0030001613499172986
1356.0, 0.00208695979440708
1357.0, 0.0020694276619530154
1358.0, 0.0029590155067354532
1359.0, 0.0029038777644429083
1360.0, 0.0020863698803184846
1361.0, 0.0018685902977641374
1362.0, 0.003199434905432374
1363.0, 0.003727790917066223
1364.0, 0.0037002267443983017
1365.0, 0.004382888437186073
1366.0, 0.0023781991777637986
1367.0, 0.0036878678816645097
1368.0, 0.004925269811782702
1369.0, 0.004481752856122522
1370.0, 0.00328569103346418
1371.0, 0.003210080619684741
1372.0, 0.003671436530493748
1373.0, 0.002096451799555878
1374.0, 0.0013634025718055817
1375.0, 0.0025344729411307123
1376.0, 0.0034901177909331645
1377.0, 0.0022582057875906525
1378.0, 0.0026253482652902013
1379.0, 0.0029402207277625693
1380.0, 0.0033804284157297757
1381.0, 0.0024053750170034338
1382.0, 0.0014322203815402522
1383.0, 0.002168024413217031
1384.0, 0.0031638695675520255
1385.0, 0.003240776025128085
1386.0, 0.004737330585638908
1387.0, 0.003578354623935305
1388.0, 0.0017063805497873098
1389.0, 0.0014533319363997743
1390.0, 0.0007472335846477128
1391.0, 0.002838430767085749
1392.0, 0.002441926556797168
1393.0, 0.002834069739286507
1394.0, 0.0036851623433256293
1395.0, 0.0034529381475185716
1396.0, 0.0012864628279466545
1397.0, 0.003504720835248892
1398.0, 0.004222023962371899
1399.0, 0.0037125455040813477
1400.0, 0.0025497558269761563
1401.0, 0.0021570637029068944
1402.0, 0.003960626130917171
1403.0, 0.0033429247748612743
1404.0, 0.0021388573462383063
1405.0, 0.001700073176934188
1406.0, 0.0013838479065882091
1407.0, 0.0008431097075944145
1408.0, 0.00040134657400596897
1409.0, 0.0007405140947382425
1410.0, 0.0011801718846867577
1411.0, 0.0012296824045872478
1412.0, 0.0017228722826886228
1413.0, 0.002276546332551935
1414.0, 0.0019488899721261696
1415.0, 0.0008088839616547419
1416.0, 0.0012043609689418246
1417.0, 0.0028163911668336035
1418.0, 0.0030850925193747062
1419.0, 0.0025019660362140795
1420.0, 0.0026171092195287444
1421.0, 0.003846731239147784
1422.0, 0.0022091150464158263
1423.0, 0.0006936120097718688
1424.0, 0.0002301768247039056
1425.0, 0.0011390561077982333
1426.0, 0.002412675904835403
1427.0, 0.0022020456934096827
1428.0, 0.0028398495129074086
1429.0, 0.001870455090079071
1430.0, 0.0011179365988764792
1431.0, 0.0009650841962381562
1432.0, 0.000901072705104198
1433.0, 0.0004308035319529562
1434.0, 0.0013046418749520106
1435.0, 0.0006421312155915175
1436.0, 0.001717389815100093
1437.0, 0.0032272113515021627
1438.0, 0.00380512613599266
1439.0, 0.0033285683786580607
1440.0, 0.0038352301199007744
1441.0, 0.002677682596690908
1442.0, 0.0014370623885135315
1443.0, 0.0004569108362233696
1444.0, 0.0009136228496504994
1445.0, 0.001855717574040069
1446.0, 0.0002326063357288391
1447.0, 0.000769241112726289
1448.0, 0.0019426145446101582
1449.0, 0.0009765076419272523
1450.0, 0.0007222355484330112
1451.0, 0.002039902295199838
1452.0, 0.003256195857832852
1453.0, 0.002460617245427278
1454.0, 0.002648334153308557
1455.0, 0.00346491511464367
1456.0, 0.002846172290950831
1457.0, 0.002522561549588047
1458.0, 0.004032743638151461
1459.0, 0.005200043892169543
1460.0, 0.0019389405524633128
1461.0, 0.0017367582117905316
1462.0, 0.001790072719892693
1463.0, 0.0013604605425176133
1464.0, 0.0015347236193702211
1465.0, 0.003483591536006516
1466.0, 0.0029914284423954735
1467.0, 0.005520710161992694
1468.0, 0.00350479216281995
1469.0, 0.001201795068334356
1470.0, 0.0013221821683434484
1471.0, 0.003212734991207032
1472.0, 0.0027830856203098593
1473.0, 0.0006909135218700716
1474.0, 0.003282962761389949
1475.0, 0.004551610277439471
1476.0, 0.004485301931734006
1477.0, 0.003715480271143978
1478.0, 0.0021592514878867467
1479.0, 0.0013964585389060194
1480.0, 0.001165778544613189
1481.0, 0.0007964815724626424
1482.0, 0.0009401002394707745
1483.0, 0.0012512160280863474
1484.0, 0.0014013188416170125
1485.0, 0.0022103289966173916
1486.0, 0.0030699007985897893
1487.0, 0.003931242914161857
1488.0, 0.005503365469928334
1489.0, 0.004974875220257978
1490.0, 0.002708883380107514
1491.0, 0.0018226154720313158
1492.0, 0.0006870770530753966
1493.0, 0.0014624423615870361
1494.0, 0.002236730282214497
1495.0, 0.003352743755144284
1496.0, 0.0038418954330896953
1497.0, 0.0034561053175690857
1498.0, 0.003983635084460027
1499.0, 0.0050356650306683055
1500.0, 0.0031477962883759663
1501.0, 0.0026760165881962333
1502.0, 0.0015295288772512418
1503.0, 1.1004783663561291e-05
1504, 0.0
1505, 0.0
1506, 0.0
1507, 0.0
1508, 0.0
1509, 0.0
1510, 0.0
1511, 0.0
1512, 0.0
1513, 0.0
1514, 0.0
1515, 0.0
1516, 0.0
1517, 0.0
1518, 0.0
1519, 0.0
1520, 0.0
1521, 0.0
1522, 0.0
1523, 0.0
1524, 0.0
1525, 0.0
1526, 0.0
1527, 0.0
1528, 0.0
1529, 0.0
1530, 0.0
1531, 0.0
1532, 0.0
1533, 0.0
1534, 0.0
1535, 0.0
1536, 0.0
1537, 0.0
1538, 0.0
1539, 0.0
1540, 0.0
1541, 0.0
1542, 0.0
1543, 0.0
1544, 0.0
1545, 0.0
1546, 0.0
1547, 0.0
1548, 0.0
1549, 0.0
1550, 0.0
1551, 0.0
1552, 0.0
1553, 0.0
1554, 0.0
1555, 0.0
1556, 0.0
1557, 0.0
1558, 0.0
1559, 0.0
1560, 0.0
1561, 0.0
1562, 0.0
1563, 0.0
1564, 0.0
1565, 0.0
1566, 0.0
1567, 0.0
1568, 0.0
1569, 0.0
1570, 0.0
1571, 0.0
1572, 0.0
1573, 0.0
1574, 0.0
1575, 0.0
1576, 0.0
1577, 0.0
1578, 0.0
1579, 0.0
1580, 0.0
1581, 0.0
1582, 0.0
1583, 0.0
1584, 0.0
1585, 0.0
1586, 0.0
1587, 0.0
1588, 0.0
1589, 0.0
1590, 0.0
1591, 0.0
1592, 0.0
1593, 0.0
1594, 0.0
1595, 0.0
1596, 0.0
1597, 0.0
1598, 0.0
1599, 0.0
