30, 0.0
31, 0.0
32, 0.0
33, 0.0
34, 0.0
35, 0.0
36, 0.0
37, 0.0
38, 0.0
39, 0.0
40, 0.0
41, 0.0
42, 0.0
43, 0.0
44, 0.0
45, 0.0
46, 0.0
47, 0.0
48, 0.0
49, 0.0
50, 0.0
51, 0.0
52, 0.0
53, 0.0
54, 0.0
55, 0.0
56, 0.0
57, 0.0
58, 0.0
59, 0.0
60, 0.0
61, 0.0
62, 0.0
63, 0.0
64, 0.0
65, 0.0
66, 0.0
67, 0.0
68, 0.0
69, 0.0
70, 0.0
71, 0.0
72, 0.0
73, 0.0
74, 0.0
75, 0.0
76, 0.0
77, 0.0
78, 0.0
79, 0.0
80, 0.0
81, 0.0
82, 0.0
83, 0.0
84, 0.0
85, 0.0
86, 0.0
87, 0.0
88, 0.0
89, 0.0
90, 0.0
91, 0.0
92, 0.0
93, 0.0
94, 0.0
95, 0.0
96, 0.0
97, 0.0
98, 0.0
99, 0.0
100, 0.0
101, 0.0
102, 0.0
103, 0.0
104.0, 3.044616234742748e-05
105.0, 0.0013147846096209026
106.0, 0.00301184813014292
107.0, 0.006068265757736815
108.0, 0.011430569928797246
109.0, 0.01749699937996358
110.0, 0.030220097586629937
111.0, 0.04459250001464922
112.0, 0.05597479874321287
113.0, 0.05491562582004149
114.0, 0.0425249520516866
115.0, 0.027405753369286204
116.0, 0.014878014944718942
117.0, 0.006603151422475964
118.0, 0.0014467899988851397
119.0, 0.0011349972159172908
120.0, 0.00037415359153992957
121.0, 0.0038821147202887972
122.0, 0.011207449375151259
123.0, 0.01526304140117438
124.0, 0.01952522176315462
125.0, 0.027578377817755965
126.0, 0.03735706688558493
127.0, 0.045355035262699406
128.0, 0.05212553820378194
129.0, 0.05517492845199044
130.0, 0.050525469504498245
131.0, 0.041516379326239986
132.0, 0.03157516152174155
133.0, 0.022975431812131575
134.0, 0.016965840439253668
135.0, 0.011975061485614055
136.0, 0.009287918109118496
137.0, 0.010806754602780376
138.0, 0.01617372342683899
139.0, 0.018126099382898494
140.0, 0.022531542027506617
141.0, 0.023655007230482184
142.0, 0.019766845816758024
143.0, 0.015958110272179523
144.0, 0.00865983358370311
145.0, 0.002123395647849979
146.0, 0.0016134806371713144
147.0, 0.0029588044299929156
148.0, 0.0033450540226959797
149.0, 0.0014218171670670465
150.0, 0.003448688592310549
151.0, 0.011402728119460718
152.0, 0.017312848069478685
153.0, 0.0254746836537871
154.0, 0.03523236493156576
155.0, 0.046515741085996536
156.0, 0.06466418663588037
157.0, 0.08624886537724928
158.0, 0.10978488614913055
159.0, 0.13460383046640026
160.0, 0.15933742737071324
161.0, 0.1726262427459707
162.0, 0.16563532421811944
163.0, 0.1453008135806478
164.0, 0.1242001838768546
165.0, 0.10591643909041155
166.0, 0.09865051420147372
167.0, 0.09649418355212253
168.0, 0.09380124648768273
169.0, 0.09794704536053916
170.0, 0.10902551982840906
171.0, 0.12449713536281529
172.0, 0.14273825105518734
173.0, 0.16446371434451496
174.0, 0.19069106619124
175.0, 0.2164184742764245
176.0, 0.23678021048684328
177.0, 0.24616230939949077
178.0, 0.23314098709057185
179.0, 0.2009570437995472
180.0, 0.1613486387405434
181.0, 0.1227332423501645
182.0, 0.08962520607297554
183.0, 0.0704858989763897
184.0, 0.057117733643771484
185.0, 0.045836364481246915
186.0, 0.039422151731807645
187.0, 0.036110360340470174
188.0, 0.029492083798948448
189.0, 0.02200760034132931
190.0, 0.01820424085289199
191.0, 0.014681998060758435
192.0, 0.010735937549499896
193.0, 0.008235903046370988
194.0, 0.007495170940159649
195.0, 0.007133233087035963
196.0, 0.014639128678274991
197.0, 0.018923178880351093
198.0, 0.019887869351033524
199.0, 0.02302564336216067
200.0, 0.02726529306930113
201.0, 0.027309885473378575
202.0, 0.025694524605281696
203.0, 0.024396132854928847
204.0, 0.016353162256671265
205.0, 0.013140858736919635
206.0, 0.010535450615588627
207.0, 0.0063755786506013105
208.0, 0.002688764643413719
209.0, 0.0024139624277441994
210.0, 0.001077355674409062
211.0, 0.0013386846473428004
212.0, 0.0026447595368690223
213.0, 0.0022649101994143233
214.0, 0.0022554698255628208
215.0, 0.004738086347615296
216.0, 0.008061338174650108
217.0, 0.009242032948472412
218.0, 0.011013910919426701
219.0, 0.015518527780112637
220.0, 0.02241870852191833
221.0, 0.030697215089996024
222.0, 0.04022845657291633
223.0, 0.05036660844292698
224.0, 0.06110674124358296
225.0, 0.07360780297786078
226.0, 0.0877551850124019
227.0, 0.09292388953277998
228.0, 0.09503493432184917
229.0, 0.0951889231579703
230.0, 0.09273504543057424
231.0, 0.09286113876216251
232.0, 0.09222075789302178
233.0, 0.08982699023035325
234.0, 0.08677032853978386
235.0, 0.083496173768859
236.0, 0.07314066779252892
237.0, 0.06279655499022885
238.0, 0.053951356735242484
239.0, 0.04532182155818168
240.0, 0.03724927733197051
241.0, 0.028567814198902895
242.0, 0.022361116188770618
243.0, 0.019000328415586208
244.0, 0.01601603909921126
245.0, 0.014742295845030456
246.0, 0.01611597671992402
247.0, 0.019044443504881103
248.0, 0.021375910635151273
249.0, 0.01960467219426372
250.0, 0.017796531360688782
251.0, 0.014469359275427904
252.0, 0.010464964814166464
253.0, 0.008215371727220082
254.0, 0.0016627602787915702
255.0, 0.0030136480985730237
256.0, 0.004327964921743839
257.0, 0.00471927347217548
258.0, 0.006197959268700988
259.0, 0.0038222725949626866
260.0, 0.00203322708019989
261.0, 0.001582070260306628
262.0, 0.0008093295771082493
263.0, 0.00042719933520041193
264.0, 0.0014593957074622039
265.0, 0.0014008278112495989
266.0, 0.0005816389011369908
267.0, 0.0005476506046616902
268.0, 0.0011605239019552992
269.0, 0.0031348799187154597
270.0, 0.005998804589033362
271.0, 0.007772691159136095
272.0, 0.007528624333771583
273.0, 0.0074002503328686985
274.0, 0.008768856559865843
275.0, 0.012224038815090498
276.0, 0.01714334045167411
277.0, 0.02126948111269579
278.0, 0.029362207693719493
279.0, 0.03767232054619947
280.0, 0.044231725254908226
281.0, 0.0517460039804241
282.0, 0.05812684665483024
283.0, 0.06766521966955773
284.0, 0.07808446586246114
285.0, 0.0864321106306751
286.0, 0.09455385411812817
287.0, 0.10858315548275674
288.0, 0.1260308900843627
289.0, 0.14380279707535007
290.0, 0.1611225559894163
291.0, 0.18683481769887572
292.0, 0.20799831601844146
293.0, 0.23153928418626848
294.0, 0.26027614780367975
295.0, 0.2850150315248227
296.0, 0.3098590333940059
297.0, 0.33201291467500954
298.0, 0.34426543453736774
299.0, 0.3439528495421806
300.0, 0.3348955114466307
301.0, 0.3115096243137115
302.0, 0.28267350051737283
303.0, 0.2575632672678927
304.0, 0.238362972348161
305.0, 0.21859305268434853
306.0, 0.20266859825924355
307.0, 0.196809458953822
308.0, 0.19792605170450842
309.0, 0.20005672033292465
310.0, 0.20659926824819397
311.0, 0.21654965922852082
312.0, 0.22792321371990923
313.0, 0.24131699338468465
314.0, 0.26121108626871387
315.0, 0.2798507098171324
316.0, 0.28800707531953024
317.0, 0.288271428081012
318.0, 0.2807647854572077
319.0, 0.255174451446856
320.0, 0.2216168947939094
321.0, 0.18920099638985394
322.0, 0.15832566882558607
323.0, 0.12974864691792054
324.0, 0.11122355609387616
325.0, 0.0973445558221426
326.0, 0.0840855196993885
327.0, 0.0732199522301955
328.0, 0.0679909875020048
329.0, 0.06995668437539808
330.0, 0.0674508989315471
331.0, 0.07227757047172773
332.0, 0.07352909256591879
333.0, 0.07606018679110767
334.0, 0.07841641470290542
335.0, 0.08088569740180658
336.0, 0.08273677311324017
337.0, 0.07648618687610423
338.0, 0.06342718733617587
339.0, 0.045605023631192385
340.0, 0.0372746071115842
341.0, 0.031159258087978824
342.0, 0.022485748168325603
343.0, 0.016481098893659146
344.0, 0.01669371745394194
345.0, 0.017660812270786898
346.0, 0.018335329391925538
347.0, 0.01998271356607063
348.0, 0.022164360436635062
349.0, 0.01830567418282856
350.0, 0.0143951724984378
351.0, 0.010348261761892807
352.0, 0.005520722109698471
353.0, 0.0023974144936737304
354.0, 0.0017745908783240766
355.0, 0.005640603756315503
356.0, 0.006658321828254871
357.0, 0.004627625228188358
358.0, 0.001984299199533205
359.0, 0.0010949953603837728
360.0, 0.004489718360037477
361.0, 0.007933258908907233
362.0, 0.011865642437114477
363.0, 0.017890640226733933
364.0, 0.02763120444931238
365.0, 0.037097371051870186
366.0, 0.047344216459586565
367.0, 0.05996668534769433
368.0, 0.07333320472949334
369.0, 0.08626901548168218
370.0, 0.09866698463263426
371.0, 0.11194467229382549
372.0, 0.12619571367703708
373.0, 0.13850717406902355
374.0, 0.14892330767392517
375.0, 0.15440137133355922
376.0, 0.16082356378138848
377.0, 0.17188209107877242
378.0, 0.18229202937939282
379.0, 0.19187200997942033
380.0, 0.2020059859272882
381.0, 0.2121645359383823
382.0, 0.22252469582845416
383.0, 0.23595434217778025
384.0, 0.24084225880728385
385.0, 0.24261398512611057
386.0, 0.2417631969116876
387.0, 0.23493724142309735
388.0, 0.22068193090256427
389.0, 0.20200762185886206
390.0, 0.18583040045419608
391.0, 0.17011754941424712
392.0, 0.1535083746462859
393.0, 0.13924724864123078
394.0, 0.12484082915455645
395.0, 0.11213192849620947
396.0, 0.10277010177646027
397.0, 0.0952311608016337
398.0, 0.0873576761921904
399.0, 0.08145885445088448
400.0, 0.0809515187805
401.0, 0.08045258777591782
402.0, 0.07832492409236244
403.0, 0.07697262752949918
404.0, 0.07595581501110907
405.0, 0.07574558778824149
406.0, 0.07658381566794459
407.0, 0.07771183926875033
408.0, 0.07801465075962764
409.0, 0.07856736968367131
410.0, 0.07679740735933274
411.0, 0.07227533303153247
412.0, 0.06406958104466823
413.0, 0.052831014299977885
414.0, 0.04431517997209037
415.0, 0.0365285787323866
416.0, 0.030384032466749707
417.0, 0.025507069303903025
418.0, 0.021031841981114466
419.0, 0.017491340841741095
420.0, 0.015298331987036418
421.0, 0.015129860146255074
422.0, 0.014922900692289631
423.0, 0.01382321081520891
424.0, 0.014860065498165436
425.0, 0.015306359345182624
426.0, 0.019263665561762046
427.0, 0.02258157529121411
428.0, 0.02253046384591662
429.0, 0.023373700877719738
430.0, 0.023527497029425033
431.0, 0.027335879605211475
432.0, 0.02912954604709323
433.0, 0.026640845633151545
434.0, 0.0238805215144879
435.0, 0.023665776372486524
436.0, 0.021957104720049907
437.0, 0.01490411307950528
438.0, 0.008661839503655806
439.0, 0.006843582935487521
440.0, 0.0030668336976081207
441.0, 0.0034918493323121153
442.0, 0.0011105882219871047
443.0, 0.0023099382224727183
444.0, 0.002116627196269127
445.0, 0.001979386664909999
446.0, 0.004772164771213587
447.0, 0.006057256682554713
448.0, 0.006016448245245778
449.0, 0.005569040763393307
450.0, 0.005083648536846742
451.0, 0.005352132583029051
452.0, 0.00569384304155012
453.0, 0.005926472084775779
454.0, 0.004765071666056647
455.0, 0.00292752311451345
456.0, 0.00459516782793463
457.0, 0.0020968100630951057
458.0, 0.000400108796974812
459.0, 0.0012025245034186765
460.0, 0.0018437083850223281
461.0, 0.0031454401062154403
462.0, 0.004683732939084372
463.0, 0.0060931460765089275
464.0, 0.007858018670188135
465.0, 0.009318129395103647
466.0, 0.010156844212818934
467.0, 0.014764915867789382
468.0, 0.017552881239028553
469.0, 0.018670116537246397
470.0, 0.020381781063973762
471.0, 0.022463634118638085
472.0, 0.022621020601638325
473.0, 0.028186325921351892
474.0, 0.031262399557542966
475.0, 0.035009340686719626
476.0, 0.03961916067106757
477.0, 0.040292055328276226
478.0, 0.046149410605015255
479.0, 0.04980260147383695
480.0, 0.052587170063005645
481.0, 0.05709332248305473
482.0, 0.06294081575707228
483.0, 0.06673941505054856
484.0, 0.0702181394964773
485.0, 0.07505996351542978
486.0, 0.08011108847429466
487.0, 0.08449473460492311
488.0, 0.0888676208042606
489.0, 0.09363293853054999
490.0, 0.09663596610319786
491.0, 0.10008263045321335
492.0, 0.10334274345833872
493.0, 0.10494572514623181
494.0, 0.10621878174639819
495.0, 0.11241152938239908
496.0, 0.1135732956302526
497.0, 0.11199902639335046
498.0, 0.11168680450219887
499.0, 0.11077363441504616
500.0, 0.10599760570284926
501.0, 0.10554520178267977
502.0, 0.102018960444361
503.0, 0.095636244894524
504.0, 0.09091334656456772
505.0, 0.08864279098826876
506.0, 0.0791571851973425
507.0, 0.07164650833646106
508.0, 0.06698563502934905
509.0, 0.061287560300151665
510.0, 0.05321955024058927
511.0, 0.046841561594557636
512.0, 0.04294503006259965
513.0, 0.03884397074496619
514.0, 0.03331421464676902
515.0, 0.02811597875565906
516.0, 0.0245720146114674
517.0, 0.020612471232469506
518.0, 0.017774836193655774
519.0, 0.015595544729459624
520.0, 0.014970094533604582
521.0, 0.014126747009898051
522.0, 0.014684514097459854
523.0, 0.015176447969141749
524.0, 0.015660839949035978
525.0, 0.018077201536470085
526.0, 0.020962564572933527
527.0, 0.023849968559067607
528.0, 0.02986227013653767
529.0, 0.03410392220105357
530.0, 0.03715469938275813
531.0, 0.04099042222141867
532.0, 0.04796916706382904
533.0, 0.05793434289748612
534.0, 0.06495218967345727
535.0, 0.07454754978732626
536.0, 0.08459547272146754
537.0, 0.09639185024674946
538.0, 0.11011998321830559
539.0, 0.1240894159534661
540.0, 0.14490281505782243
541.0, 0.16366665381437176
542.0, 0.18002834322831004
543.0, 0.19898254551583267
544.0, 0.22263374862770555
545.0, 0.24546121072519722
546.0, 0.270424028482872
547.0, 0.2966172745535908
548.0, 0.32797092686809054
549.0, 0.3626855382325562
550.0, 0.3993364754183778
551.0, 0.4433579203279234
552.0, 0.4900603237065689
553.0, 0.5430370875074607
554.0, 0.597840399733872
555.0, 0.6567264209304482
556.0, 0.7234751738618105
557.0, 0.785194543267663
558.0, 0.8466687254229077
559.0, 0.9019948928833327
560.0, 0.9481768295963874
561.0, 0.9817962372232198
562.0, 0.9984737678464074
563.0, 0.9967079856830792
564.0, 0.9890197238670847
565.0, 0.9711737177880998
566.0, 0.9508235597978282
567.0, 0.9341724342792209
568.0, 0.9220391514272575
569.0, 0.9137430470490787
570.0, 0.9197527953740036
571.0, 0.9353489749385874
572.0, 0.9488876982966652
573.0, 0.9584629065942927
574.0, 0.9688139083469635
575.0, 0.9647824138629292
576.0, 0.9431666306597175
577.0, 0.9080186233897856
578.0, 0.8538511057779831
579.0, 0.7821595554167492
580.0, 0.7027421833412192
581.0, 0.6211544024781972
582.0, 0.5413673353403006
583.0, 0.4679884696575585
584.0, 0.4051424447397067
585.0, 0.3508146594804897
586.0, 0.3014366443971379
587.0, 0.2646509148210565
588.0, 0.2316299167355996
589.0, 0.20219164165150663
590.0, 0.17869229199110004
591.0, 0.16050281110240391
592.0, 0.14500011604775576
593.0, 0.13175641922640854
594.0, 0.11850453779878718
595.0, 0.10613095317060404
596.0, 0.09418450651948543
597.0, 0.08622235322710838
598.0, 0.08306211639254045
599.0, 0.06933320955190256
600.0, 0.05912823656319127
601.0, 0.048729944855238856
602.0, 0.03967109421705931
603.0, 0.0336965103622359
604.0, 0.028646795322772273
605.0, 0.021143151438052538
606.0, 0.015217252262320596
607.0, 0.009035342299217904
608.0, 0.005586001327314901
609.0, 0.0029009318524881216
610.0, 0.0008465118691206922
611.0, 0.0029919154661358686
612.0, 0.005263853294975888
613.0, 0.004774822378289899
614.0, 0.004365283268200265
615.0, 0.003643491100816005
616.0, 0.0036779517335849836
617.0, 0.0059794992443418385
618.0, 0.004984462272735959
619.0, 0.0039486914994953754
620.0, 0.0055509919796617735
621.0, 0.004819176100518492
622.0, 0.002711352276270688
623.0, 0.003025950727080671
624.0, 0.0008121633605656025
625.0, 0.0007728826471044228
626.0, 0.0017403900442644726
627.0, 0.0028378426949692637
628.0, 0.004791931656921519
629.0, 0.008328125883277195
630.0, 0.011730374219365026
631.0, 0.01595772918913929
632.0, 0.02093094673849279
633.0, 0.026568921838670156
634.0, 0.032925293173042436
635.0, 0.04000424241429972
636.0, 0.04755112710191753
637.0, 0.055426752130268535
638.0, 0.0660781321980479
639.0, 0.07607181609826176
640.0, 0.08668640903213035
641.0, 0.09892765450414925
642.0, 0.11120278830010609
643.0, 0.12302001739407117
644.0, 0.13997176045458185
645.0, 0.15636581355170953
646.0, 0.1711866317078994
647.0, 0.18239515997364342
648.0, 0.19283278719549987
649.0, 0.20733842907359404
650.0, 0.21639022397813054
651.0, 0.22072676178548845
652.0, 0.22175071310930386
653.0, 0.21946409120140306
654.0, 0.2152013145979829
655.0, 0.20912717718892035
656.0, 0.19958075863488223
657.0, 0.1866444859912634
658.0, 0.1764135413512159
659.0, 0.16261059630293506
660.0, 0.14719395537910296
661.0, 0.13493709174332175
662.0, 0.12481297380319098
663.0, 0.11330936312087188
664.0, 0.10073017058796577
665.0, 0.09110408886165468
666.0, 0.08393970141889054
667.0, 0.07761993938550735
668.0, 0.07078637652622359
669.0, 0.062462509673701296
670.0, 0.05567545988457471
671.0, 0.0503350340489168
672.0, 0.04485028296829864
673.0, 0.04015885200983953
674.0, 0.0358602474046467
675.0, 0.03129285826003967
676.0, 0.02914422785541417
677.0, 0.024184244739608826
678.0, 0.022897469469153397
679.0, 0.019297513470695374
680.0, 0.0158346934163797
681.0, 0.014717550250449756
682.0, 0.011297600434595954
683.0, 0.00942064523694105
684.0, 0.00980225939620115
685.0, 0.007630634166912604
686.0, 0.006771873260649207
687.0, 0.0061695526532892795
688.0, 0.003486991405017142
689.0, 0.0030292960283633116
690.0, 0.003957761790248379
691.0, 0.003911886289719689
692.0, 0.0019521967985307994
693.0, 0.001209441734369237
694.0, 0.0016907124203555468
695.0, 0.0015647326355903628
696.0, 0.003043992410883119
697.0, 0.001956633093003983
698.0, 0.0006951922002176066
699.0, 0.00038278030338969866
700.0, 0.00035642252634766485
701.0, 0.00016744895199459419
702.0, 0.00062306011502011
703.0, 0.0012958675508872905
704.0, 0.0002768358721508688
705.0, 0.001338463302605925
706.0, 0.000592853703771255
707.0, 0.000992337551314344
708.0, 0.0014940990101180794
709.0, 0.00047905121715899096
710.0, 0.0011223196726975503
711.0, 0.0009172250782139202
712.0, 0.0005780657519755013
713.0, 0.0007758995420182244
714.0, 0.0013275990897307602
715.0, 0.0023881597275091583
716.0, 0.001906843730016864
717.0, 0.0008072643084589035
718.0, 0.000152068710404389
719.0, 0.0011488479219889309
720.0, 0.0006830777947643158
721.0, 0.0012774742735499787
722.0, 0.0027663386070676138
723.0, 0.002737516674328389
724.0, 0.0019186328404542676
725.0, 0.0007082851869737812
726.0, 0.0020916237607703702
727.0, 0.004069769703805567
728.0, 0.0033077271988672247
729.0, 0.0022769645993988706
730.0, 0.003601824650625732
731.0, 0.004253899151061744
732.0, 0.0035538708880192053
733.0, 0.003126977658650411
734.0, 0.004290426250571885
735.0, 0.005675624117856785
736.0, 0.005730500852555966
737.0, 0.0051719856533055265
738.0, 0.006253423265299048
739.0, 0.006865965489535896
740.0, 0.008369300864058923
741.0, 0.007526454691222106
742.0, 0.006663880270831742
743.0, 0.007537826525531357
744.0, 0.009177288175627496
745.0, 0.010301291307813721
746.0, 0.010480822999803876
747.0, 0.009854475036933222
748.0, 0.009950517226289372
749.0, 0.010834996303321793
750.0, 0.012043078317541782
751.0, 0.011332607096669134
752.0, 0.009516247726672878
753.0, 0.012605051556654355
754.0, 0.012073287198843725
755.0, 0.011725855754325788
756.0, 0.01151640787331026
757.0, 0.011456511052256518
758.0, 0.012092676074615144
759.0, 0.013097649931043976
760.0, 0.012670899955843657
761.0, 0.009601325092133533
762.0, 0.010393589553329424
763.0, 0.010207403796200276
764.0, 0.008695872691968365
765.0, 0.00813999997938432
766.0, 0.008239055804857105
767.0, 0.007759876943202089
768.0, 0.008468046770591603
769.0, 0.007099087853669158
770.0, 0.006948767028908426
771.0, 0.005060211255491741
772.0, 0.005975281411109571
773.0, 0.008116318466860936
774.0, 0.0063689087872533775
775.0, 0.0041174914887821676
776.0, 0.006828453250365173
777.0, 0.0061704551149236965
778.0, 0.005560018443881655
779.0, 0.00503395620455311
780.0, 0.004308293891663796
781.0, 0.004727761140620883
782.0, 0.005848790356198248
783.0, 0.0049549521378345115
784.0, 0.0049262995763107945
785.0, 0.0055350839803994375
786.0, 0.0038646766004957413
787.0, 0.0030996937644533706
788.0, 0.003658567125447231
789.0, 0.00297243871143544
790.0, 0.001973036932936178
791.0, 0.0032929679258857708
792.0, 0.004970960732363045
793.0, 0.0039119947707185
794.0, 0.0005619846386279879
795.0, 0.001326753965778935
796.0, 0.0036437598252665243
797.0, 0.0030579203563348223
798.0, 0.0028680330392413292
799.0, 0.0021339949386579306
800.0, 0.0032690711819843062
801.0, 0.0035173128961361825
802.0, 0.003405666016768688
803.0, 0.0013529961070453118
804.0, 0.0007247641113377628
805.0, 0.0020875574790159873
806.0, 0.0014957486049452472
807.0, 0.0026338641427942296
808.0, 0.0032650810318119454
809.0, 0.002856617396454438
810.0, 0.0028237294127101166
811.0, 0.002076992588118595
812.0, 0.0011090514197636323
813.0, 0.0014154912831553256
814.0, 0.00042094145144956727
815.0, 0.0032425437005276715
816.0, 0.002101673823719136
817.0, 0.0011269108356694332
818.0, 0.0006009669230085407
819.0, 0.0006377407940490921
820.0, 0.001527340979841229
821.0, 0.0023993140561411725
822.0, 0.002402068849338671
823.0, 0.0017967218537390884
824.0, 0.001630972016844314
825.0, 0.0012856649237972223
826.0, 0.0009665986382025821
827.0, 0.0024142960767613683
828.0, 0.0024610009058290607
829.0, 0.00038389157174946605
830.0, 0.0009999777153269069
831.0, 0.0012442447382531876
832.0, 0.002848362649955194
833.0, 0.002949991716718952
834.0, 0.002203005428970211
835.0, 0.0022817293974314056
836.0, 0.002154639274786498
837.0, 0.0016590448650913268
838.0, 0.002155923650283978
839.0, 0.0007080882550156428
840.0, 0.0030119396147025097
841.0, 0.003312306506940173
842.0, 0.0011518783696599962
843.0, 0.0013850133469547861
844.0, 0.001515306218686139
845.0, 0.0007910290863276881
846.0, 0.003363001712068569
847.0, 0.003179941012123756
848.0, 0.00263417185070303
849.0, 0.002258636366392093
850.0, 0.0008038689083821533
851.0, 0.0017001001369737515
852.0, 0.001917467957962616
853.0, 0.00039364081664337316
854.0, 0.0005137910547977041
855.0, 0.001858946740508293
856.0, 0.00040625676254263344
857.0, 0.00205605969188104
858.0, 0.0028401263038288524
859.0, 0.0018317407147831115
860.0, 0.0009608997113339682
861.0, 0.0020700381676598584
862.0, 0.001955575929662301
863.0, 0.0002531968785219679
864.0, 0.002406490526347461
865.0, 0.0031439404134358875
866.0, 0.0020236383671760052
867.0, 0.0011131719331880189
868.0, 6.189578381343393e-05
869.0, 0.0010512506619105519
870.0, 0.0020633402171236514
871.0, 0.0009066504334257191
872.0, 0.0020887285121042143
873.0, 0.0020445734389410762
874.0, 0.0018860222524420586
875.0, 0.0031198189611334193
876.0, 0.0015527169227874957
877.0, 0.0008052949807395734
878.0, 0.0009112808827142269
879.0, 0.0004306134753028312
880.0, 6.738547039090282e-05
881.0, 0.00016097663298387054
882.0, 0.0005477913929419504
883.0, 0.0018956589606862824
884.0, 0.002465560123195264
885.0, 0.0009224081760393326
886.0, 0.0008555851774847316
887.0, 0.000541612252931932
888.0, 0.0014584213138195438
889.0, 0.002207848844155637
890.0, 0.0010671622081858741
891.0, 0.0011204202137115467
892.0, 0.00011492660522001728
893.0, 0.0004115194334689665
894.0, 0.00031570017151575546
895.0, 0.0006704581568950374
896.0, 0.0003822983078700333
897.0, 0.0005640001149590393
898.0, 0.0011320254527248295
899.0, 0.001296397061512019
900.0, 0.0020669446050482826
901.0, 0.00032547338008032686
902.0, 0.001460762593692847
903.0, 0.001472495001887342
904.0, 0.001201791135849788
905.0, 0.002212518700151751
906.0, 0.001857034938317708
907.0, 0.0006864138891171338
908.0, 0.0021154637409793123
909.0, 0.00039942184639974636
910.0, 9.1068221688122e-05
911.0, 0.0007453006129416503
912.0, 0.0008198566213637754
913.0, 0.0016644310916129953
914.0, 0.0015921704113313873
915.0, 0.0016053468402827504
916.0, 0.0018502252860610909
917.0, 0.00035918057281874465
918.0, 0.00012458532271628412
919.0, 0.001687182559790183
920.0, 1.9656833356821243e-05
921.0, 4.2780414219498674e-05
922.0, 0.0009013899834610374
923.0, 0.0007932946927120774
924.0, 0.0002876753052722808
925.0, 0.00012749939420558367
926.0, 0.00036668168350034746
927.0, 9.645738304526394e-05
928.0, 0.00018555260862532748
929.0, 0.001207304196065566
930.0, 0.00041869500766130135
931.0, 0.0008734698113299242
932.0, 0.0021386039201133013
933.0, 0.0022211612571610643
934.0, 0.0022373790329240028
935.0, 0.0022898099736247905
936.0, 0.0007560565441990254
937.0, 0.00013524613287998655
938.0, 0.00021065454335655778
939.0, 0.0016742831967499496
940.0, 0.0008809656648768097
941.0, 0.0007660306932479437
942.0, 0.0003270732357288926
943.0, 0.0006513501600410031
944.0, 0.0019428639070799263
945.0, 0.0012700415349437128
946.0, 0.0004055711381256458
947.0, 0.003530591762712943
948.0, 0.0030839885655795205
949.0, 0.003061572624369541
950.0, 0.0015236701195605045
951.0, 0.003061606555798334
952.0, 0.0025706141179226323
953.0, 0.0020343981784998496
954.0, 0.0024661572264250277
955.0, 0.0025379579017510857
956.0, 0.0028483054529808045
957.0, 0.002124490045305064
958.0, 0.002938793205266345
959.0, 0.0024902683972173375
960.0, 0.0020948434566995773
961.0, 0.0027351748489587552
962.0, 0.0019937622238079345
963.0, 0.0029773845935437615
964.0, 0.0028054837375264654
965.0, 0.0007882138064338681
966.0, 0.0010666741460278288
967.0, 0.0004590978693666414
968.0, 0.0027253644002868563
969.0, 0.0034220838333344676
970.0, 0.002030081292130202
971.0, 0.003487294700886254
972.0, 0.003753758524701582
973.0, 0.0028786101786879596
974.0, 0.0024232104758444765
975.0, 0.0019414233968276203
976.0, 0.0017944812131518314
977.0, 0.003094737680295402
978.0, 0.003613482806465236
979.0, 0.002424296225132573
980.0, 0.00392016863395658
981.0, 0.0034815632252032983
982.0, 0.0045592312093387065
983.0, 0.0032381158788500654
984.0, 0.0022681898080111184
985.0, 0.001938847862556597
986.0, 0.0013946235359633987
987.0, 0.001900243045405385
988.0, 0.0012900433139993136
989.0, 0.0009309773967934116
990.0, 0.0015783259682264632
991.0, 0.0018223356806833628
992.0, 0.0030572991304011962
993.0, 0.002907397953574173
994.0, 0.0031493396572030864
995.0, 0.002409756965933109
996.0, 0.0019432154045047818
997.0, 0.0017157424786186928
998.0, 0.0006022484336295703
999.0, 0.001817826877732125
1000.0, 0.002731584331792592
1001.0, 0.0016167867512336986
1002.0, 0.0017269032086229788
1003.0, 0.0017240521991532289
1004.0, 0.00037196233555126385
1005.0, 0.0002241553284985358
1006.0, 0.0015144288532739684
1007.0, 0.0021339941160803057
1008.0, 0.0010488908280196982
1009.0, 0.0009976630658616369
1010.0, 0.0016837312364449835
1011.0, 0.0012502554557442824
1012.0, 0.0015043286624420059
1013.0, 0.00020854984095652207
1014.0, 0.001768758232253276
1015.0, 0.0020099604469269723
1016.0, 0.0024099295441934346
1017.0, 0.0021572156699311354
1018.0, 0.002752789739414418
1019.0, 0.0027937980134956335
1020.0, 0.0012704572046304272
1021.0, 0.0016927488319008683
1022.0, 0.001708460610586595
1023.0, 0.0013379861208810601
1024.0, 0.001454073444519099
1025.0, 0.002792632669819
1026.0, 0.0034772600132975395
1027.0, 0.002631399939298219
1028.0, 0.0027489039685300886
1029.0, 0.0023817024519450078
1030.0, 0.0008705844326573318
1031.0, 0.0005989740312036851
1032.0, 0.0021734634498868787
1033.0, 0.002588777132607398
1034.0, 0.002874716832763034
1035.0, 0.0024933786213515393
1036.0, 0.0018983991994440043
1037.0, 0.0038584736348832665
1038.0, 0.002183738877833485
1039.0, 0.00121878412712792
1040.0, 0.00208479081256605
1041.0, 0.003055557536355273
1042.0, 0.0021282341173841602
1043.0, 0.001427086015135021
1044.0, 0.0023300461385934294
1045.0, 0.001894298586526728
1046.0, 0.0016744894460002365
1047.0, 0.0020985480028893146
1048.0, 0.0019117549469926955
1049.0, 0.0041699501981290925
1050.0, 0.002485227311669914
1051.0, 0.0017336173420077678
1052.0, 0.00018328071227548146
1053.0, 0.0006308295107024158
1054.0, 0.0007554417854434766
1055.0, 0.0009020092831450377
1056.0, 0.0015709523019993342
1057.0, 0.001381292306613103
1058.0, 0.0020495838754541443
1059.0, 0.001596281265785887
1060.0, 0.001900554782010946
1061.0, 0.002302179811123825
1062.0, 0.0018093473962897697
1063.0, 0.0018599694123296612
1064.0, 0.0007209523389393258
1065.0, 0.0018947681646306793
1066.0, 0.0030779702591218427
1067.0, 0.0038565677717594367
1068.0, 0.00441988683647467
1069.0, 0.0030298278196770013
1070.0, 0.0009320686789018812
1071.0, 0.000656031582924387
1072.0, 0.000783963056241675
1073.0, 0.0009350668842646955
1074.0, 0.0018568604619697833
1075.0, 0.0004635472234620214
1076.0, 0.00041851286347295054
1077.0, 0.0013239971299523069
1078.0, 0.0005014017871928736
1079.0, 0.0015691249651259343
1080.0, 0.0021803411419293412
1081.0, 0.0006585496592099835
1082.0, 0.0011343418383119252
1083.0, 0.001592254639658177
1084.0, 0.0008791155678506893
1085.0, 0.000699813202453609
1086.0, 0.0011657496349983857
1087.0, 0.0013412275412730246
1088.0, 0.0017709642732578156
1089.0, 0.0017267996384066366
1090.0, 0.0011941615092066992
1091.0, 0.0007887422754658979
1092.0, 0.0019260533842918996
1093.0, 0.002269030637476142
1094.0, 0.0006497587215971792
1095.0, 3.8256363133329824e-05
1096.0, 0.00021688970808154617
1097.0, 0.00045276919859444677
1098.0, 0.0012745501849358051
1099.0, 0.001054893911793085
1100.0, 0.0009162743654637072
1101.0, 0.001588380722213849
1102.0, 0.0011720224441136402
1103.0, 0.000809122114449221
1104.0, 0.0006073235881022378
1105.0, 0.00018535096335736356
1106.0, 0.0008304839450879256
1107.0, 0.0017681651212345753
1108.0, 0.0020218504005880124
1109.0, 0.0014913197189536749
1110.0, 0.0008389050992730052
1111.0, 0.0015380511035717327
1112.0, 0.0022089111309930498
1113.0, 0.00014896272058856854
1114.0, 0.0015274103017985671
1115.0, 0.0033908961719593873
1116.0, 0.0018867327113502167
1117.0, 0.001519738929369822
1118.0, 0.0005011093521651363
1119.0, 0.0005505201736537718
1120.0, 0.001738675712880892
1121.0, 0.00041894923340265045
1122.0, 0.0009200938320321874
1123.0, 0.0018646389652826156
1124.0, 0.002060891254487587
1125.0, 0.002660994021680506
1126.0, 0.0021984783351420415
1127.0, 0.0015365527785763465
1128.0, 0.0013930729703025293
1129.0, 0.0005373107716278384
1130.0, 0.0012288644054349147
1131.0, 0.003050754597707601
1132.0, 0.0006424789282556311
1133.0, 0.00031259261216579434
1134.0, 0.0012300183346877532
1135.0, 0.0018794861703575548
1136.0, 0.0010802610135526173
1137.0, 0.0013890587759711503
1138.0, 0.0022878856725095623
1139.0, 0.0014612917128622664
1140.0, 0.0009906236943617412
1141.0, 0.001666041752053041
1142.0, 0.0011229484434424402
1143.0, 0.0010100483404984818
1144.0, 0.000508236229858388
1145.0, 0.000915981422119675
1146.0, 0.001984282083521049
1147.0, 0.0017165600097266318
1148.0, 0.0007711743358719111
1149.0, 0.0016333306225958428
1150.0, 0.0012489758612118712
1151.0, 0.0010986870544028734
1152.0, 0.002091549537463253
1153.0, 0.0016409342719887747
1154.0, 0.0016043392907757338
1155.0, 0.0007565469399857457
1156.0, 0.0007405436168480866
1157.0, 0.0011255071119591785
1158.0, 0.00014605468841246918
1159.0, 0.0009669861161233507
1160.0, 0.0011793169319578372
1161.0, 0.00019313046235917982
1162.0, 0.0031760256781985774
1163.0, 0.002488326453151453
1164.0, 0.0026313654765185105
1165.0, 0.00020022587110068296
1166.0, 8.775041660864612e-05
1167.0, 0.00011308869700149145
1168.0, 0.0011412502113220843
1169.0, 0.0009091352702624904
1170.0, 0.0016934191972447516
1171.0, 0.0020833019326925266
1172.0, 0.0013611462500801763
1173.0, 0.0017960743280532147
1174.0, 0.00208000594884642
1175.0, 0.0013437190826657347
1176.0, 0.0016147334155625626
1177.0, 0.0021553048577653768
1178.0, 0.0020524116860484547
1179.0, 0.002041237824414607
1180.0, 0.00040014969602819177
1181.0, 0.0016676994148780233
1182.0, 0.002179185349993015
1183.0, 0.0017740830421178356
1184.0, 0.0018986547006578389
1185.0, 0.002382730998143239
1186.0, 0.003523667965064833
1187.0, 0.0017936707269098373
1188.0, 0.0025562129230904075
1189.0, 0.001465356915979624
1190.0, 0.0018939346984604844
1191.0, 0.0019708539614540737
1192.0, 0.0006076337719319702
1193.0, 0.0011038332034490513
1194.0, 0.0024556720320566745
1195.0, 0.0011481303820600323
1196.0, 0.0009606948244218338
1197.0, 0.0018177229492246478
1198.0, 0.0008477838338738289
1199.0, 0.0024028890021909944
1200.0, 0.002562690351430361
1201.0, 0.0036504794094978066
1202.0, 0.0016301100115761911
1203.0, 0.002602716339087877
1204.0, 0.0030552236080156306
1205.0, 0.0024220457668545615
1206.0, 0.0037513878951492947
1207.0, 0.0023301733780600525
1208.0, 0.003639266582031732
1209.0, 0.0033707684663077503
1210.0, 0.0017740730450895893
1211.0, 0.0012429216445831019
1212.0, 0.0011011699048051236
1213.0, 0.0015661909444667202
1214.0, 0.002641544345342908
1215.0, 0.002885852123679278
1216.0, 0.0008517057520176792
1217.0, 0.0010127342735683853
1218.0, 0.0029518276372041065
1219.0, 0.0028968044514176457
1220.0, 0.003974086234953956
1221.0, 0.00281491553156464
1222.0, 0.002202949139145288
1223.0, 0.0019922203878574326
1224.0, 0.001218668333482433
1225.0, 0.0023180664939027517
1226.0, 0.002041857891033824
1227.0, 0.0006807193989990198
1228.0, 0.0028370110086108234
1229.0, 0.0002624526104324373
1230.0, 0.00017222254104398303
1231.0, 0.0017632355828298757
1232.0, 0.0016768291727263175
1233.0, 0.0004773102220490299
1234.0, 0.0010234706930911507
1235.0, 0.002401460612491938
1236.0, 0.0016493050020160915
1237.0, 0.0023521959658572246
1238.0, 0.002675839545950238
1239.0, 0.0011804493243255283
1240.0, 0.0028611066313679614
1241.0, 0.002221687822316468
1242.0, 0.0022602734225866295
1243.0, 0.0026671881841618347
1244.0, 0.0018380782346535678
1245.0, 0.001648889573436563
1246.0, 0.0008658216965133824
1247.0, 0.002297041495382773
1248.0, 0.00247778455547865
1249.0, 0.002213264510121604
1250.0, 0.0021113270084555952
1251.0, 0.0005538115949855037
1252.0, 0.001358482029501861
1253.0, 0.002586640357493493
1254.0, 0.0017351845110304743
1255.0, 0.0015333257453756096
1256.0, 0.0016311578556766698
1257.0, 0.0013100879024806394
1258.0, 0.0015949215821373659
1259.0, 0.0018488356140687883
1260.0, 0.0014189141908489923
1261.0, 0.00244932234491604
1262.0, 0.0036677593669436344
1263.0, 0.0028438123996206988
1264.0, 0.002669789750842743
1265.0, 0.002968296323889432
1266.0, 0.0018217904728563786
1267.0, 0.0014004944718334117
1268.0, 0.002430834753980613
1269.0, 0.002743522832874526
1270.0, 0.002893052166574469
1271.0, 0.002032417974442378
1272.0, 0.00015269501123708524
1273.0, 0.0026813419755372437
1274.0, 0.0034900137972410754
1275.0, 0.0023579172952423954
1276.0, 0.002983795806836658
1277.0, 0.002902643035784027
1278.0, 0.0004886264996619563
1279.0, 0.002019503018071933
1280.0, 0.0025991606708297833
1281, 0.0
1282, 0.0
1283, 0.0
1284, 0.0
1285, 0.0
1286, 0.0
1287, 0.0
1288, 0.0
1289, 0.0
1290, 0.0
1291, 0.0
1292, 0.0
1293, 0.0
1294, 0.0
1295, 0.0
1296, 0.0
1297, 0.0
1298, 0.0
1299, 0.0
1300, 0.0
1301, 0.0
1302, 0.0
1303, 0.0
1304, 0.0
1305, 0.0
1306, 0.0
1307, 0.0
1308, 0.0
1309, 0.0
1310, 0.0
1311, 0.0
1312, 0.0
1313, 0.0
1314, 0.0
1315, 0.0
1316, 0.0
1317, 0.0
1318, 0.0
1319, 0.0
1320, 0.0
1321, 0.0
1322, 0.0
1323, 0.0
1324, 0.0
1325, 0.0
1326, 0.0
1327, 0.0
1328, 0.0
1329, 0.0
1330, 0.0
1331, 0.0
1332, 0.0
1333, 0.0
1334, 0.0
1335, 0.0
1336, 0.0
1337, 0.0
1338, 0.0
1339, 0.0
1340, 0.0
1341, 0.0
1342, 0.0
1343, 0.0
1344, 0.0
1345, 0.0
1346, 0.0
1347, 0.0
1348, 0.0
1349, 0.0
1350, 0.0
1351, 0.0
1352, 0.0
1353, 0.0
1354, 0.0
1355, 0.0
1356, 0.0
1357, 0.0
1358, 0.0
1359, 0.0
1360, 0.0
1361, 0.0
1362, 0.0
1363, 0.0
1364, 0.0
1365, 0.0
1366, 0.0
1367, 0.0
1368, 0.0
1369, 0.0
1370, 0.0
1371, 0.0
1372, 0.0
1373, 0.0
1374, 0.0
1375, 0.0
1376, 0.0
1377, 0.0
1378, 0.0
1379, 0.0
1380, 0.0
1381, 0.0
1382, 0.0
1383, 0.0
1384, 0.0
1385, 0.0
1386, 0.0
1387, 0.0
1388, 0.0
1389, 0.0
1390, 0.0
1391, 0.0
1392, 0.0
1393, 0.0
1394, 0.0
1395, 0.0
1396, 0.0
1397, 0.0
1398, 0.0
1399, 0.0
1400, 0.0
1401, 0.0
1402, 0.0
1403, 0.0
1404, 0.0
1405, 0.0
1406, 0.0
1407, 0.0
1408, 0.0
1409, 0.0
1410, 0.0
1411, 0.0
1412, 0.0
1413, 0.0
1414, 0.0
1415, 0.0
1416, 0.0
1417, 0.0
1418, 0.0
1419, 0.0
1420, 0.0
1421, 0.0
1422, 0.0
1423, 0.0
1424, 0.0
1425, 0.0
1426, 0.0
1427, 0.0
1428, 0.0
1429, 0.0
1430, 0.0
1431, 0.0
1432, 0.0
1433, 0.0
1434, 0.0
1435, 0.0
1436, 0.0
1437, 0.0
1438, 0.0
1439, 0.0
1440, 0.0
1441, 0.0
1442, 0.0
1443, 0.0
1444, 0.0
1445, 0.0
1446, 0.0
1447, 0.0
1448, 0.0
1449, 0.0
1450, 0.0
1451, 0.0
1452, 0.0
1453, 0.0
1454, 0.0
1455, 0.0
1456, 0.0
1457, 0.0
1458, 0.0
1459, 0.0
1460, 0.0
1461, 0.0
1462, 0.0
1463, 0.0
1464, 0.0
1465, 0.0
1466, 0.0
1467, 0.0
1468, 0.0
1469, 0.0
1470, 0.0
1471, 0.0
1472, 0.0
1473, 0.0
1474, 0.0
1475, 0.0
1476, 0.0
1477, 0.0
1478, 0.0
1479, 0.0
1480, 0.0
1481, 0.0
1482, 0.0
1483, 0.0
1484, 0.0
1485, 0.0
1486, 0.0
1487, 0.0
1488, 0.0
1489, 0.0
1490, 0.0
1491, 0.0
1492, 0.0
1493, 0.0
1494, 0.0
1495, 0.0
1496, 0.0
1497, 0.0
1498, 0.0
1499, 0.0
1500, 0.0
1501, 0.0
1502, 0.0
1503, 0.0
1504, 0.0
1505, 0.0
1506, 0.0
1507, 0.0
1508, 0.0
1509, 0.0
1510, 0.0
1511, 0.0
1512, 0.0
1513, 0.0
1514, 0.0
1515, 0.0
1516, 0.0
1517, 0.0
1518, 0.0
1519, 0.0
1520, 0.0
1521, 0.0
1522, 0.0
1523, 0.0
1524, 0.0
1525, 0.0
1526, 0.0
1527, 0.0
1528, 0.0
1529, 0.0
1530, 0.0
1531, 0.0
1532, 0.0
1533, 0.0
1534, 0.0
1535, 0.0
1536, 0.0
1537, 0.0
1538, 0.0
1539, 0.0
1540, 0.0
1541, 0.0
1542, 0.0
1543, 0.0
1544, 0.0
1545, 0.0
1546, 0.0
1547, 0.0
1548, 0.0
1549, 0.0
1550, 0.0
1551, 0.0
1552, 0.0
1553, 0.0
1554, 0.0
1555, 0.0
1556, 0.0
1557, 0.0
1558, 0.0
1559, 0.0
1560, 0.0
1561, 0.0
1562, 0.0
1563, 0.0
1564, 0.0
1565, 0.0
1566, 0.0
1567, 0.0
1568, 0.0
1569, 0.0
1570, 0.0
1571, 0.0
1572, 0.0
1573, 0.0
1574, 0.0
1575, 0.0
1576, 0.0
1577, 0.0
1578, 0.0
1579, 0.0
1580, 0.0
1581, 0.0
1582, 0.0
1583, 0.0
1584, 0.0
1585, 0.0
1586, 0.0
1587, 0.0
1588, 0.0
1589, 0.0
1590, 0.0
1591, 0.0
1592, 0.0
1593, 0.0
1594, 0.0
1595, 0.0
1596, 0.0
1597, 0.0
1598, 0.0
1599, 0.0
