30, 0.0
31, 0.0
32, 0.0
33, 0.0
34, 0.0
35, 0.0
36, 0.0
37, 0.0
38, 0.0
39, 0.0
40, 0.0
41, 0.0
42, 0.0
43, 0.0
44, 0.0
45, 0.0
46, 0.0
47, 0.0
48, 0.0
49, 0.0
50, 0.0
51, 0.0
52, 0.0
53, 0.0
54, 0.0
55, 0.0
56, 0.0
57, 0.0
58, 0.0
59, 0.0
60, 0.0
61, 0.0
62, 0.0
63, 0.0
64, 0.0
65, 0.0
66, 0.0
67, 0.0
68, 0.0
69, 0.0
70, 0.0
71, 0.0
72, 0.0
73, 0.0
74, 0.0
75, 0.0
76, 0.0
77, 0.0
78, 0.0
79, 0.0
80, 0.0
81, 0.0
82, 0.0
83, 0.0
84, 0.0
85, 0.0
86, 0.0
87, 0.0
88, 0.0
89, 0.0
90, 0.0
91, 0.0
92, 0.0
93, 0.0
94, 0.0
95, 0.0
96, 0.0
97, 0.0
98, 0.0
99, 0.0
100, 0.0
101, 0.0
102, 0.0
103, 0.0
104, 0.0
105, 0.0
106, 0.0
107, 0.0
108, 0.0
109, 0.0
110, 0.0
111, 0.0
112, 0.0
113, 0.0
114, 0.0
115, 0.0
116, 0.0
117, 0.0
118, 0.0
119, 0.0
120, 0.0
121, 0.0
122, 0.0
123, 0.0
124, 0.0
125, 0.0
126, 0.0
127, 0.0
128, 0.0
129, 0.0
130, 0.0
131, 0.0
132, 0.0
133, 0.0
134, 0.0
135, 0.0
136, 0.0
137, 0.0
138, 0.0
139, 0.0
140, 0.0
141, 0.0
142, 0.0
143, 0.0
144, 0.0
145, 0.0
146, 0.0
147, 0.0
148, 0.0
149, 0.0
150, 0.0
151, 0.0
152, 0.0
153, 0.0
154, 0.0
155, 0.0
156, 0.0
157, 0.0
158, 0.0
159, 0.0
160, 0.0
161, 0.0
162, 0.0
163, 0.0
164, 0.0
165, 0.0
166, 0.0
167, 0.0
168, 0.0
169, 0.0
170, 0.0
171, 0.0
172, 0.0
173.0, 0.01015237023294964
174.0, 0.0038254395688348875
175.0, 0.0029395347692862932
176.0, 0.013568372518764901
177.0, 0.031057591561753854
178.0, 0.056838268922966284
179.0, 0.07478143814223505
180.0, 0.07806225216898724
181.0, 0.077656188988543
182.0, 0.09564293988509256
183.0, 0.1415554789883681
184.0, 0.16826597337827204
185.0, 0.17135121159869682
186.0, 0.17487623869292654
187.0, 0.2006657870142992
188.0, 0.23648054724362044
189.0, 0.2501611211218605
190.0, 0.23978768790819197
191.0, 0.2582527658329603
192.0, 0.27538752890698315
193.0, 0.2895864397493581
194.0, 0.3047785818155679
195.0, 0.3204972893954989
196.0, 0.3367703357373766
197.0, 0.3721009088739595
198.0, 0.41394166141019717
199.0, 0.44045436058850074
200.0, 0.4644923480773862
201.0, 0.487634236404338
202.0, 0.5188468601743527
203.0, 0.560501658062443
204.0, 0.5982265058302458
205.0, 0.6288583945230423
206.0, 0.6693915690662662
207.0, 0.7082438402450691
208.0, 0.7137274048989899
209.0, 0.758353421900927
210.0, 0.7929579940696676
211.0, 0.8225248684815637
212.0, 0.8678549936218102
213.0, 0.8909777266163135
214.0, 0.9067419658758943
215.0, 0.9323709140735991
216.0, 0.9606818364860946
217.0, 0.9527665489007453
218.0, 0.9562521234691411
219.0, 0.9813729433272762
220.0, 0.9998426727358919
221.0, 0.9742915208663478
222.0, 0.9641934587847828
223.0, 0.9617090000088845
224.0, 0.9591534183975489
225.0, 0.9573759603134808
226.0, 0.9840230076963615
227.0, 0.9877596697485241
228.0, 0.9885504616577754
229.0, 0.9928745682821748
230.0, 0.9732513855593864
231.0, 0.9819462499858703
232.0, 0.9891980484536976
233.0, 0.9885046545598278
234.0, 0.9903473156792836
235.0, 0.9816181569483764
236.0, 0.9588210900560942
237.0, 0.9517350234249227
238.0, 0.9551713520959029
239.0, 0.922124280314971
240.0, 0.9063482796839961
241.0, 0.8851033417118167
242.0, 0.8509948369897891
243.0, 0.811857149374796
244.0, 0.7694528822386425
245.0, 0.7366441709784326
246.0, 0.7065824749160224
247.0, 0.6685601473900952
248.0, 0.622895582620176
249.0, 0.5972821495845232
250.0, 0.5652902564260859
251.0, 0.5115750629187442
252.0, 0.43867212387151544
253.0, 0.41064910191242926
254.0, 0.376306044578821
255.0, 0.34670858611008853
256.0, 0.32975844039601915
257.0, 0.2870706707834644
258.0, 0.2434242401046899
259.0, 0.21060039316310455
260.0, 0.187120726711547
261.0, 0.16741860178002504
262.0, 0.16650288407956956
263.0, 0.15096417942636317
264.0, 0.14237810130806702
265.0, 0.15091679200519753
266.0, 0.1265024357746843
267.0, 0.12113733848868265
268.0, 0.10775693701912374
269.0, 0.08597297519868824
270.0, 0.08045339517073528
271.0, 0.07225118514213164
272.0, 0.07848789377270474
273.0, 0.0598331404032326
274.0, 0.0170381240242201
275.0, 0.03219074803228564
276.0, 0.04313520930878938
277.0, 0.023447886864138342
278.0, 0.004734855508744964
279.0, 0.02431636034459773
280.0, 0.012711302752116582
281.0, 0.00266510807290209
282.0, 0.0054673048094327934
283.0, 0.0055929157590032625
284.0, 0.028236077307770828
285.0, 0.022212544509714206
286.0, 0.023378670293361613
287.0, 0.027639298662091243
288.0, 0.011597548736528105
289.0, 0.021534592014740495
290.0, 0.014566398525915623
291.0, 0.005684830569601389
292.0, 0.00354223113332338
293.0, 0.003780614101150017
294.0, 0.014904100332332741
295.0, 0.009716225551759428
296.0, 0.027832597054365197
297.0, 0.040628468743170304
298.0, 0.055942011879943264
299.0, 0.06751416799404493
300.0, 0.05552783289701151
301.0, 0.03449144064024754
302.0, 0.02819492056806001
303.0, 0.00978842729624702
304.0, 0.010907744510166332
305.0, 0.00868869944500928
306.0, 0.01989631242203624
307.0, 0.012262923484219227
308.0, 0.0175695557463761
309.0, 0.02521526492416021
310.0, 0.026163939069879048
311.0, 0.027856899479348184
312.0, 0.06033535918114384
313.0, 0.05865129886037704
314.0, 0.044125788997876045
315.0, 0.049811494262294136
316.0, 0.08271531682375009
317.0, 0.06221951502663872
318.0, 0.05407337645541804
319.0, 0.06223623596241987
320.0, 0.0685978644395587
321.0, 0.05883207843065623
322.0, 0.07001210599780361
323.0, 0.08401254647357285
324.0, 0.07537604800815985
325.0, 0.0461017870179694
326.0, 0.0747756483009502
327.0, 0.07836831250480919
328.0, 0.07067265642138218
329.0, 0.06414090019082869
330.0, 0.050553398101257065
331.0, 0.06967809467735389
332.0, 0.06778670351854538
333.0, 0.06863123840511227
334.0, 0.0872384987412336
335.0, 0.07915205825964963
336.0, 0.08109453102233449
337.0, 0.08167149736751703
338.0, 0.06952223854658922
339.0, 0.053821452157786186
340.0, 0.07064014176138447
341.0, 0.08914911465514463
342.0, 0.09274043410445738
343.0, 0.08437687510247778
344.0, 0.07151261905146554
345.0, 0.06331684404883334
346.0, 0.05924527570326737
347.0, 0.0675782631519126
348.0, 0.07777869376780061
349.0, 0.062217289794028505
350.0, 0.08083764188023221
351.0, 0.08039837194061893
352.0, 0.0614753297332036
353.0, 0.051485256329584006
354.0, 0.050577155054271725
355.0, 0.05294801079705228
356.0, 0.05254312653167462
357.0, 0.043941015064178704
358.0, 0.029724037501211872
359.0, 0.030085523588880957
360.0, 0.04202748415081392
361.0, 0.039195522444973666
362.0, 0.0203022167777853
363.0, 0.005494525976967748
364.0, 0.01014085826346876
365.0, 0.012453601854656372
366.0, 0.015606486186033457
367.0, 0.0200861499006076
368.0, 0.016873246730346656
369.0, 0.008470782149635724
370.0, 0.0033459356311448755
371.0, 0.0034633142635530647
372.0, 0.008526370491172863
373.0, 0.008880661575725205
374.0, 0.011615095593458717
375.0, 0.00915841162283718
376.0, 0.004541046042187815
377.0, 0.0021190610865485376
378.0, 0.006337252725492115
379.0, 0.007559892890461649
380.0, 0.0021691837088727703
381.0, 0.0070815647212753175
382.0, 0.01394927783105093
383.0, 0.01384979238081356
384.0, 0.020876431594627185
385.0, 0.019926565531999254
386.0, 0.00731315598101627
387.0, 0.003424548035474751
388.0, 0.02177450791831488
389.0, 0.04312443975881889
390.0, 0.05215723219516207
391.0, 0.04783491387934033
392.0, 0.03617844027202614
393.0, 0.04106673967116008
394.0, 0.030314394585948007
395.0, 0.025224687525054027
396.0, 0.03482430125709546
397.0, 0.04412663086133471
398.0, 0.026263498225838813
399.0, 0.04565325853828734
400.0, 0.08221524029107766
401.0, 0.09022250318367432
402.0, 0.03336936635376876
403.0, 0.05825172868433032
404.0, 0.04363815868047115
405.0, 0.025819403864211034
406.0, 0.033933510427144375
407.0, 0.006439017418138196
408.0, 0.006750729089658689
409.0, 0.005980742490866362
410.0, 0.009902560055346923
411.0, 0.026543453634512996
412.0, 0.008265301984826532
413.0, 0.013057827478123183
414.0, 0.015578079391986622
415.0, 0.009402350587134338
416.0, 0.005874071339040591
417.0, 0.01707114063562025
418.0, 0.02807399275766203
419.0, 0.007476044738303605
420.0, 0.0037612648588587405
421.0, 0.01641700021477316
422.0, 0.013992066138869292
423.0, 0.01264978025904228
424.0, 0.02274465377623189
425.0, 0.030646862629998512
426.0, 0.028218489072320944
427.0, 0.030604587410820155
428.0, 0.02690462904186928
429.0, 0.02530826153896475
430.0, 0.02997858155817004
431.0, 0.046340682683704754
432.0, 0.0744491008366214
433.0, 0.06090675244442101
434.0, 0.037325649428777107
435.0, 0.046110614627415274
436.0, 0.07277007531994253
437.0, 0.04344681264187687
438.0, 0.04670027014539267
439.0, 0.05437883085883044
440.0, 0.05920166401649983
441.0, 0.06167991277757178
442.0, 0.05037635460303439
443.0, 0.056718734796871624
444.0, 0.06437262738716883
445.0, 0.06786589343869424
446.0, 0.06712917634960215
447.0, 0.055979390345145597
448.0, 0.051980302491089155
449.0, 0.07445416094304125
450.0, 0.09367736831416895
451.0, 0.0885194765752156
452.0, 0.07428437619638482
453.0, 0.04249594192781648
454.0, 0.0480989135572281
455.0, 0.06003190635977739
456.0, 0.0510292002510972
457.0, 0.0444061340876524
458.0, 0.05526310213130874
459.0, 0.0666390241025144
460.0, 0.06589220212040076
461.0, 0.06323813749224284
462.0, 0.07519628209631753
463.0, 0.08009945300067488
464.0, 0.06810194750855506
465.0, 0.06636601265992999
466.0, 0.07065554434064764
467.0, 0.05142972683551189
468.0, 0.07696489908294753
469.0, 0.08130741645611722
470.0, 0.07342829943193666
471.0, 0.06038989602792634
472.0, 0.04662097649745478
473.0, 0.06646300378468865
474.0, 0.05610933046071871
475.0, 0.07103697216596228
476.0, 0.08862620889997834
477.0, 0.05937942107901081
478.0, 0.04719395458411381
479.0, 0.06417832149924241
480.0, 0.07626113160006669
481.0, 0.06609872587334092
482.0, 0.0459473556568261
483.0, 0.05469864494546356
484.0, 0.06305173889331998
485.0, 0.07956952059194011
486.0, 0.08889308942398187
487.0, 0.08386476474291495
488.0, 0.08472696782552054
489.0, 0.08047250746240889
490.0, 0.074848507457721
491.0, 0.06616162605083842
492.0, 0.059086869455940876
493.0, 0.06256843429298611
494.0, 0.048175949454363876
495.0, 0.06616060621730076
496.0, 0.07564588922457814
497.0, 0.06446696102627039
498.0, 0.0579354645644371
499.0, 0.03997320533701036
500.0, 0.028167069676675486
501.0, 0.03740737400878512
502.0, 0.05534617042353614
503.0, 0.05896626204813234
504.0, 0.03510326743402118
505.0, 0.044513055331636686
506.0, 0.034963848115407085
507.0, 0.02343229627455953
508.0, 0.0304071729268676
509.0, 0.021627265932388246
510.0, 0.03208301162055808
511.0, 0.02143643390849898
512.0, 0.018614600840201872
513.0, 0.03392274950931912
514.0, 0.03426463949595148
515.0, 0.03675816373873341
516.0, 0.025255153180950923
517.0, 0.01059694742126099
518.0, 0.009443986861142924
519.0, 0.025391094618624564
520.0, 0.020366039108839152
521.0, 0.025694401267872934
522.0, 0.023796089984064354
523.0, 0.014176037469927322
524.0, 0.01127663080596401
525.0, 0.02228425669346818
526.0, 0.0053346346591875765
527.0, 0.003992497019108006
528.0, 0.004802868111014341
529.0, 0.008613985568786906
530.0, 0.01576210461741184
531.0, 0.0018708117702265982
532.0, 0.004896844186595566
533.0, 0.01467965437239758
534.0, 0.013936621904785663
535.0, 0.0022189516522517485
536.0, 0.004755940707370465
537.0, 0.014528768849346427
538.0, 0.009533733381910216
539.0, 0.003705131705773394
540.0, 0.009190271592419941
541.0, 0.011215735791830399
542.0, 0.027471843488239524
543.0, 0.01672039762220038
544.0, 0.014483836090575585
545.0, 0.030083398387789676
546.0, 0.03327854366997537
547.0, 0.022051608005968518
548.0, 0.022351902886118713
549.0, 0.028859549188383557
550.0, 0.02554947815100552
551.0, 0.013740581527228167
552.0, 0.026539096316221842
553.0, 0.019286020586502584
554.0, 0.03226920075484288
555.0, 0.03694207122223685
556.0, 0.025738731341875445
557.0, 0.034084176819022975
558.0, 0.05553503406184989
559.0, 0.0439380128119009
560.0, 0.040864862995479964
561.0, 0.043664793099202424
562.0, 0.037158746071536485
563.0, 0.04770730727938936
564.0, 0.04203363488165346
565.0, 0.04185958945867391
566.0, 0.05789851512404188
567.0, 0.07573027825128331
568.0, 0.06967303171330762
569.0, 0.05079659783822504
570.0, 0.05428143454554791
571.0, 0.05249050091406072
572.0, 0.05682439436910953
573.0, 0.07680552716290279
574.0, 0.06712910723034983
575.0, 0.07403291637084539
576.0, 0.07282613027838157
577.0, 0.06773694525623261
578.0, 0.06642061803327076
579.0, 0.06843823301185978
580.0, 0.06990775756753834
581.0, 0.08955416965834027
582.0, 0.07839615942954149
583.0, 0.0701296368439188
584.0, 0.08566142997770328
585.0, 0.06774598529378002
586.0, 0.06598744456195095
587.0, 0.07644355503145021
588.0, 0.07437889980053616
589.0, 0.07605596525440532
590.0, 0.0981834252104119
591.0, 0.0828814865192204
592.0, 0.06683385997056168
593.0, 0.06189237803110555
594.0, 0.06405594681602077
595.0, 0.06756616015022499
596.0, 0.0677945502014894
597.0, 0.054996550742232565
598.0, 0.06461565790615814
599.0, 0.06798754779419253
600.0, 0.06334785134325602
601.0, 0.0587289997445497
602.0, 0.04056565382524435
603.0, 0.059673613240049446
604.0, 0.054740993413690736
605.0, 0.04425203370301722
606.0, 0.036866701844174586
607.0, 0.019738980319356274
608.0, 0.016190762158832275
609.0, 0.034243643096906716
610.0, 0.05001245011938804
611.0, 0.04308469685919443
612.0, 0.02222688464145786
613.0, 0.01253551381797224
614.0, 0.012056302257329317
615.0, 0.023363723684101372
616.0, 0.026286380248276415
617.0, 0.01734197542221913
618.0, 0.00847932282316472
619.0, 0.010328499778385706
620.0, 0.008233652616262662
621.0, 0.013545796278661279
622.0, 0.012291051298542282
623.0, 0.004258705018997835
624.0, 0.006872474522385949
625.0, 0.010753481771633398
626.0, 0.026206101901830883
627.0, 0.012122135077340366
628.0, 0.014728862083921702
629.0, 0.024726150054276457
630.0, 0.0005747731127829698
631.0, 0.0035324103118355857
632.0, 0.0010705629090712173
633.0, 0.011045163085525793
634.0, 0.02870211016465501
635.0, 0.045036114955997006
636.0, 0.060335636914096547
637.0, 0.06404870807021121
638.0, 0.1024537885569525
639.0, 0.1289407478115247
640.0, 0.1477143549453224
641.0, 0.15921423296017972
642.0, 0.13076218973689574
643.0, 0.09670350052846818
644.0, 0.05967708348372268
645.0, 0.03991695897624196
646.0, 0.02177910703050936
647.0, 0.003454613351689584
648.0, 0.02312369812956449
649.0, 0.04799104984570405
650.0, 0.0471121779456462
651.0, 0.024842888003260198
652.0, 0.018672151394327395
653.0, 0.03193402633645927
654.0, 0.019623561552540563
655.0, 0.02577247555112467
656.0, 0.03208508318578719
657.0, 0.01590024044034286
658.0, 0.0016040734864547213
659.0, 0.008888954607449278
660.0, 0.007498428178570316
661.0, 0.014733645652243013
662.0, 0.014742441879023575
663.0, 0.015091830191088526
664.0, 0.02646118175435426
665.0, 0.04373530886429094
666.0, 0.04736119101798364
667.0, 0.018462952389770654
668.0, 0.037702777460020806
669.0, 0.03774273881345426
670.0, 0.03602184153970838
671.0, 0.05698398761752534
672.0, 0.029549013266177166
673.0, 0.036487759261813545
674.0, 0.03531260020437189
675.0, 0.038419342426043744
676.0, 0.041827963844702755
677.0, 0.03373785440865179
678.0, 0.03686876313606461
679.0, 0.031939308831744374
680.0, 0.032120031177199755
681.0, 0.040195905875840016
682.0, 0.04273413800455178
683.0, 0.03206437456070884
684.0, 0.015857258702599665
685.0, 0.027538234995863355
686.0, 0.015317168062996692
687.0, 0.0038121277406628438
688.0, 0.005508595451206648
689.0, 0.015294989556321678
690.0, 0.024226521029283885
691.0, 0.004072299032937278
692.0, 0.01086029099309217
693.0, 0.021921477090637333
694.0, 0.02409285939446175
695.0, 0.02417949850499165
696.0, 0.02489619580023243
697.0, 0.018485140031644497
698.0, 0.01909059457862012
699.0, 0.02518867853407198
700.0, 0.018144789116115587
701.0, 0.010906934023574018
702.0, 0.03389469835978918
703.0, 0.04700823697040813
704.0, 0.0199291073508642
705.0, 0.020332071393669077
706.0, 0.029261975742216763
707.0, 0.023675295603067505
708.0, 0.013595282909933603
709.0, 0.008762534842544745
710.0, 0.00725303065897146
711.0, 0.011230373840890862
712.0, 0.019342086044944567
713.0, 0.0256588843366766
714.0, 0.023447878614420548
715.0, 0.013341326289421125
716.0, 0.017092537141472013
717.0, 0.01977355416859573
718.0, 0.025427471845895736
719.0, 0.014957522283498368
720.0, 0.013735049455419278
721.0, 0.018721958007880256
722.0, 0.008841758622128208
723.0, 0.01113390634244605
724.0, 0.010675933775350034
725.0, 0.0010854043899226657
726.0, 0.0035752780259557197
727.0, 0.005805901993374673
728.0, 0.0022828282087844474
729.0, 0.0014536788157966205
730.0, 0.005874363734785358
731.0, 0.009890288926511696
732.0, 0.010472055008603704
733.0, 0.016858857052493556
734.0, 0.004633064335903343
735.0, 0.012697237445071232
736.0, 0.016056792943338283
737.0, 0.02979097572264494
738.0, 0.03413487739773156
739.0, 0.018029121726730088
740.0, 0.013532255173688517
741.0, 0.011628778309744165
742.0, 0.006531670870817136
743.0, 0.0066261414233312905
744.0, 0.005985695972585475
745.0, 0.006216816152166212
746.0, 0.004189038831579395
747.0, 0.0005037587611267633
748.0, 0.005391469774795165
749.0, 0.008973160744296297
750.0, 0.01983500418664862
751.0, 0.009468686399874334
752.0, 0.014342414925337539
753.0, 0.003927172529424825
754.0, 0.005511860557974694
755.0, 0.0016580061053148884
756.0, 0.0010337132097015598
757.0, 0.002566399661352631
758.0, 0.003645577171302268
759.0, 0.011949083032734776
760.0, 0.03420575080982544
761.0, 0.006671652965214395
762.0, 0.015145594316946532
763.0, 0.03582823204447572
764.0, 0.039456826520012166
765.0, 0.03674954027239119
766.0, 0.04956409018314933
767.0, 0.04939327350214669
768.0, 0.03113374117241163
769.0, 0.0479470576361462
770.0, 0.067824613741946
771.0, 0.07252996704033031
772.0, 0.09209078885868399
773.0, 0.10047685731841774
774.0, 0.11685505872027846
775.0, 0.1322740477247551
776.0, 0.14715846294437648
777.0, 0.1629409610084163
778.0, 0.18295589213811198
779.0, 0.21204424483915452
780.0, 0.2268641391663345
781.0, 0.2583824624294693
782.0, 0.28629367365445935
783.0, 0.3076571934474008
784.0, 0.3361546439303617
785.0, 0.3846485889997406
786.0, 0.4477455546594967
787.0, 0.4873784986996684
788.0, 0.5197111219000703
789.0, 0.5744290892044175
790.0, 0.6296642754626474
791.0, 0.6792636374414313
792.0, 0.7479191352998937
793.0, 0.8004216848017172
794.0, 0.8368080266112995
795.0, 0.8686229871466346
796.0, 0.8885339665627708
797.0, 0.8917594149076198
798.0, 0.8898022489555277
799.0, 0.892567959937299
800.0, 0.8694188040695532
801.0, 0.8247084924032644
802.0, 0.7764914568313408
803.0, 0.7512908172198731
804.0, 0.7243101923957841
805.0, 0.6718773293347444
806.0, 0.6249800384203338
807.0, 0.5627788096727284
808.0, 0.5590599193837238
809.0, 0.5212136994358981
810.0, 0.48855954435508087
811.0, 0.47448283813401226
812.0, 0.43904352103054656
813.0, 0.41366309015073244
814.0, 0.4249651248903532
815.0, 0.3846502603224472
816.0, 0.3588062960948251
817.0, 0.34619937265578876
818.0, 0.34475197178551037
819.0, 0.36376374730177413
820.0, 0.3514214864038496
821.0, 0.3385916073656418
822.0, 0.33986953995891367
823.0, 0.3211721240082234
824.0, 0.31369059306520725
825.0, 0.32556408001282566
826.0, 0.3251176994936323
827.0, 0.3249711652892706
828.0, 0.3285203598213211
829.0, 0.3399708310970518
830.0, 0.35826492893740547
831.0, 0.3860879921342684
832.0, 0.40712581852702345
833.0, 0.4123754763816986
834.0, 0.4473307803957205
835.0, 0.49397065401530543
836.0, 0.5204408398660426
837.0, 0.5599233324249813
838.0, 0.5899895561663903
839.0, 0.6165330644478695
840.0, 0.6592201992676138
841.0, 0.6596345007748933
842.0, 0.6786352931319335
843.0, 0.7123003716042129
844.0, 0.7257296083795718
845.0, 0.704247651771048
846.0, 0.6677517781729314
847.0, 0.6363419947111898
848.0, 0.594924508266539
849.0, 0.561830231338597
850.0, 0.4840286213777123
851.0, 0.42409011817191655
852.0, 0.3937647546711274
853.0, 0.3624375529104515
854.0, 0.3188253150866294
855.0, 0.27424276064200814
856.0, 0.20722767896056243
857.0, 0.1967213360825653
858.0, 0.17495570601992222
859.0, 0.14961042030413532
860.0, 0.12490559656957528
861.0, 0.09597870445412675
862.0, 0.08277362809959488
863.0, 0.0786417274597601
864.0, 0.07257894010483533
865.0, 0.06378007939924482
866.0, 0.0557756129605925
867.0, 0.04961524034886514
868.0, 0.04119149591338748
869.0, 0.037042656193192365
870.0, 0.07814609121502218
871.0, 0.06075029758118735
872.0, 0.048580490966994815
873.0, 0.05255277148274954
874.0, 0.06694598163545366
875.0, 0.07400031498015669
876.0, 0.0646079216613896
877.0, 0.06615264871876277
878.0, 0.06091397271091995
879.0, 0.05854982800688191
880.0, 0.058639316774143566
881.0, 0.0641600629742712
882.0, 0.06289886869217844
883.0, 0.055867730670059804
884.0, 0.0681222538360128
885.0, 0.0625859155434089
886.0, 0.08937040486559232
887.0, 0.07441378344598829
888.0, 0.056805180924558274
889.0, 0.04200882133889822
890.0, 0.02032736836269567
891.0, 0.01585328647012757
892.0, 0.02323503929726717
893.0, 0.02223439741501078
894.0, 0.004211077213689737
895.0, 0.001876161269768471
896.0, 0.0004070070185777845
897.0, 0.010429614840944788
898.0, 0.01663716379058444
899.0, 0.012458000976460425
900.0, 0.02247221197760625
901.0, 0.012962508035214416
902.0, 0.005615768625696186
903.0, 0.01019243579586245
904.0, 0.007294519029974958
905.0, 0.0251329829954786
906.0, 0.021515911018450237
907.0, 0.007818321596852987
908.0, 0.0009285045930040849
909.0, 0.006654038882718394
910.0, 0.028255937390584705
911.0, 0.031298401305109386
912.0, 0.02289725641737461
913.0, 0.025571496504337734
914.0, 0.027670925972997786
915.0, 0.039145167219803864
916.0, 0.05660084973222945
917.0, 0.04759223174723642
918.0, 0.053010073147046456
919.0, 0.05744940184722481
920.0, 0.04456936540348522
921.0, 0.039180118566280085
922.0, 0.05656085879778796
923.0, 0.04593766590818847
924.0, 0.0464436937524028
925.0, 0.0422021588566826
926.0, 0.02616681185114037
927.0, 0.018212343524810548
928.0, 0.03477187675914752
929.0, 0.05353190832995122
930.0, 0.03843506451172309
931.0, 0.0432478463975535
932.0, 0.031036813289368827
933.0, 0.030083470877628353
934.0, 0.03586561103181173
935.0, 0.04031083708027734
936.0, 0.0477099592614716
937.0, 0.05608998809846048
938.0, 0.045161695360150224
939.0, 0.0425768249082547
940.0, 0.051449701099858955
941.0, 0.04573606125923277
942.0, 0.03417023511122086
943.0, 0.032939562572992284
944.0, 0.03528422691613364
945.0, 0.03260581947136637
946.0, 0.04056500015581295
947.0, 0.035235444642102876
948.0, 0.055319092888434285
949.0, 0.02848912047925832
950.0, 0.02923335570610787
951.0, 0.048542630826123145
952.0, 0.047416610184557006
953.0, 0.04222604190289826
954.0, 0.03814019939457063
955.0, 0.03755589662218581
956.0, 0.03709927048626605
957.0, 0.0278955857808509
958.0, 0.02036329499409573
959.0, 0.01345599046141321
960.0, 0.012380280367986198
961.0, 0.028488533025592927
962.0, 0.043092113271680735
963.0, 0.017643592479714924
964.0, 0.02963605849129754
965.0, 0.040905255175787865
966.0, 0.03017351969886058
967.0, 0.011044196211088432
968.0, 0.008153529223664364
969.0, 0.023570528101704468
970.0, 0.023110153972098813
971.0, 0.0157388152375197
972.0, 0.008129728582156298
973.0, 0.01655669170964889
974.0, 0.01461711035802278
975.0, 0.013305071276947925
976.0, 0.008809886656061668
977.0, 0.0013428073440347403
978.0, 0.01802579007435406
979.0, 0.010645584834042047
980.0, 0.015546639834821532
981.0, 0.018628566011824367
982.0, 0.023054740970482296
983.0, 0.023620722752324373
984.0, 0.01804533191720137
985.0, 0.015666611865528236
986.0, 0.014952526489875072
987.0, 0.004172727716980703
988.0, 0.0010215830093642253
989.0, 0.021373057204701458
990.0, 0.016255670929376718
991.0, 0.011227186138741622
992.0, 0.005662944818120372
993.0, 0.004603610996675937
994.0, 0.021166948844637202
995.0, 0.029202742709291386
996.0, 0.011856138831010467
997.0, 0.009120479268716565
998.0, 0.009065600531757452
999.0, 0.004802628819653884
1000.0, 0.009535671101259397
1001.0, 0.003261017215273406
1002.0, 0.006194325889359404
1003.0, 0.03266177316668608
1004.0, 0.027762474345463358
1005.0, 0.03117080590876065
1006.0, 0.00950949040278447
1007.0, 0.025673117886119427
1008.0, 0.01905790105566077
1009.0, 0.003906754296200033
1010.0, 0.00796816120022809
1011.0, 0.021181555328402102
1012.0, 0.03182854863501277
1013.0, 0.024431015892659506
1014.0, 0.026637016706807123
1015.0, 0.03079026535788894
1016.0, 0.027355410694787547
1017.0, 0.02097842472366489
1018.0, 0.017171841818756
1019.0, 0.012206671881421362
1020.0, 0.0018036255240803253
1021.0, 0.01078856609145672
1022.0, 0.019721666859461383
1023.0, 0.020807902906795846
1024.0, 0.003003974909135698
1025.0, 0.013877582523489253
1026.0, 0.018937686793816317
1027.0, 0.019886338686299427
1028.0, 0.016320335728701722
1029.0, 0.009527697718069179
1030.0, 0.0045668487361032835
1031.0, 0.006582116038814414
1032.0, 0.011432137012842953
1033.0, 0.013054808429480737
1034.0, 0.02800963376183089
1035.0, 0.02290347551067768
1036.0, 0.012623728462559115
1037.0, 0.024835784978926422
1038.0, 0.043989800804991125
1039.0, 0.04915726906304996
1040.0, 0.04561601527510726
1041.0, 0.03101038512033446
1042.0, 0.04569258129299936
1043.0, 0.04854612401520491
1044.0, 0.04676204549982591
1045.0, 0.02182744921964535
1046.0, 0.003759371640292661
1047.0, 0.015187615858843574
1048.0, 0.027269840880455955
1049.0, 0.02548611664297862
1050.0, 0.025420986751043984
1051.0, 0.02696701094739208
1052.0, 0.012704407519857902
1053.0, 0.016454723379426908
1054.0, 0.012295266809101703
1055.0, 0.010506106724184373
1056.0, 0.02884240010349441
1057.0, 0.01564582160655147
1058.0, 0.009783135472771726
1059.0, 0.017736977945840712
1060.0, 0.001418457242111678
1061.0, 0.014613127042158471
1062.0, 0.02463857354212621
1063.0, 0.010546872535249148
1064.0, 0.0018609777351655688
1065.0, 0.014977627611621828
1066.0, 0.02739402609747199
1067.0, 0.016935381714996024
1068.0, 0.02452504553864831
1069.0, 0.026710019916981322
1070.0, 0.046106240970104385
1071.0, 0.029256300788370736
1072.0, 0.028439005268668993
1073.0, 0.035244459719954005
1074.0, 0.03159187906973688
1075.0, 0.03478812172957679
1076.0, 0.031152732908556073
1077.0, 0.02747413372225027
1078.0, 0.022382468662478776
1079.0, 0.022808792031411715
1080.0, 0.051578273965543875
1081.0, 0.04359697097474976
1082.0, 0.035197849677104986
1083.0, 0.04230374374053411
1084.0, 0.04531551294785898
1085.0, 0.05237443415485054
1086.0, 0.06091601078029481
1087.0, 0.06994188627892699
1088.0, 0.05648951842362546
1089.0, 0.05133231363872595
1090.0, 0.05699896327135353
1091.0, 0.05659750373955468
1092.0, 0.048232356521173456
1093.0, 0.0460348535494547
1094.0, 0.0506624842207834
1095.0, 0.04964887383065079
1096.0, 0.04466290228282271
1097.0, 0.030631160591893334
1098.0, 0.054999780128925604
1099.0, 0.05704267794056426
1100.0, 0.05710317679794774
1101.0, 0.0639804952230602
1102.0, 0.05075493981428771
1103.0, 0.05080097265233328
1104.0, 0.07922220399449612
1105.0, 0.07431648688039383
1106.0, 0.07794547568523229
1107.0, 0.1030277708778659
1108.0, 0.12991104065623796
1109.0, 0.11304241659929574
1110.0, 0.1379572684109504
1111.0, 0.140487481593869
1112.0, 0.1503473038201743
1113.0, 0.17879331267008589
1114.0, 0.17169944448872201
1115.0, 0.13771611941799117
1116.0, 0.14665357974857376
1117.0, 0.142100522219037
1118.0, 0.11162689987788141
1119.0, 0.1001125476672267
1120.0, 0.09230074872682514
1121.0, 0.08323469782526226
1122.0, 0.06773534873327494
1123.0, 0.04995133160254331
1124.0, 0.046033429168798976
1125.0, 0.05261165906132467
1126.0, 0.044880866962909556
1127.0, 0.03769531900018604
1128.0, 0.03182608752698186
1129.0, 0.01991537795668659
1130.0, 0.033534760325670314
1131.0, 0.01659144719650639
1132.0, 0.01092416357581015
1133.0, 0.029752782812645276
1134.0, 0.02387772256304306
1135.0, 0.008049086473611234
1136.0, 0.02389671167508669
1137.0, 0.016686072303655673
1138.0, 0.030712692541482532
1139.0, 0.004185341218278207
1140.0, 0.0006025448924975789
1141.0, 0.006967524650349475
1142.0, 0.01401197224299056
1143.0, 0.034973674858266156
1144.0, 0.030342787173275352
1145.0, 0.019172155234067047
1146.0, 0.017973527409496606
1147.0, 0.02400589398453958
1148.0, 0.04435593501902427
1149.0, 0.04136575937813292
1150.0, 0.03445476791822703
1151.0, 0.028862903400703292
1152.0, 0.030721469416575473
1153.0, 0.027001037980321097
1154.0, 0.02909916356328219
1155.0, 0.02263161727163563
1156.0, 0.005727149317048565
1157.0, 0.012608092993123583
1158.0, 0.02217737111583471
1159.0, 0.009189782303498352
1160.0, 0.011597460788652817
1161.0, 0.018284625772406013
1162.0, 0.02464476958392943
1163.0, 0.02560229928616593
1164.0, 0.012357596187171657
1165.0, 0.006363905481393908
1166.0, 0.014521881851100343
1167.0, 0.019083812264243664
1168.0, 0.013461727905213655
1169.0, 0.01312397466099982
1170.0, 0.01889549537555998
1171.0, 0.019450606352627815
1172.0, 0.0252311589277752
1173.0, 0.016055519878014197
1174.0, 0.01850526091860786
1175.0, 0.019813599335532985
1176.0, 0.003181090385234555
1177.0, 0.012844120803740982
1178.0, 0.05102216119075384
1179.0, 0.06861857412841282
1180.0, 0.05908229814259643
1181.0, 0.06274260031497143
1182.0, 0.0850050635980691
1183.0, 0.09850765197571014
1184.0, 0.09458297690588616
1185.0, 0.08444716920064903
1186.0, 0.10967802497381018
1187.0, 0.10272293718568645
1188.0, 0.08821128411391824
1189.0, 0.06974705087112634
1190.0, 0.06048773777490171
1191.0, 0.08272744103173121
1192.0, 0.050768743596403265
1193.0, 0.022565779981298852
1194.0, 0.013980020307181849
1195.0, 0.033128881947961944
1196.0, 0.012078708298253861
1197.0, 0.020376836681267926
1198.0, 0.01623075958882806
1199.0, 0.007088954801208504
1200.0, 0.01381587401843947
1201.0, 0.006820473067846678
1202.0, 0.00312723863318945
1203.0, 0.006036686246723851
1204.0, 0.0041678698666412755
1205.0, 0.0028696903067024276
1206.0, 0.004806011147488303
1207.0, 0.006588129523275503
1208.0, 0.003935529410772088
1209.0, 0.0017464238302900145
1210.0, 0.0031677926368814434
1211.0, 0.0013159892970811406
1212.0, 0.002921535667954598
1213.0, 0.004513736112914692
1214.0, 0.010775769703498951
1215.0, 0.017327585553120403
1216.0, 0.020291778544440076
1217.0, 0.025824248548164484
1218.0, 0.02289407070270441
1219.0, 0.024892048128752196
1220.0, 0.04107301997132978
1221.0, 0.036634114761466496
1222.0, 0.03613450514819117
1223.0, 0.04438821171192797
1224.0, 0.06739982332428106
1225.0, 0.04962582551955528
1226.0, 0.025063671431438967
1227.0, 0.0503343711535131
1228.0, 0.04636997652019676
1229.0, 0.04702951903464986
1230.0, 0.05008046011073289
1231.0, 0.033494046511593316
1232.0, 0.047114180726036584
1233.0, 0.04258564045466432
1234.0, 0.027513959759662115
1235.0, 0.03723178073489441
1236.0, 0.03660621947503607
1237.0, 0.026989705679257743
1238.0, 0.027269472502011376
1239.0, 0.0405249832506667
1240.0, 0.04497569650065089
1241.0, 0.024621831643146585
1242.0, 0.03692970243556864
1243.0, 0.041008900187796155
1244.0, 0.008083524085285034
1245.0, 0.034489051618853565
1246.0, 0.03189825960133779
1247.0, 0.027799389418267834
1248.0, 0.03238967902937287
1249.0, 0.016560745233586853
1250.0, 0.022238657134880366
1251.0, 0.04297398634052594
1252.0, 0.03710171554274948
1253.0, 0.023260713037304176
1254.0, 0.022470761667071383
1255.0, 0.029719361498346364
1256.0, 0.036594298724289744
1257.0, 0.03142706877810711
1258.0, 0.04689915034208273
1259.0, 0.029245949994887565
1260.0, 0.018957279766194265
1261.0, 0.021042719563022973
1262.0, 0.020516487638351285
1263.0, 0.0062579303806228805
1264.0, 0.007561189457145243
1265.0, 0.01754817619170072
1266.0, 0.016485458010718598
1267.0, 0.021217316358585644
1268.0, 0.021348529107666957
1269.0, 0.01282408923602613
1270.0, 0.010599381567696027
1271.0, 0.025832837500707886
1272.0, 0.0157706155599014
1273.0, 0.03296119161527576
1274.0, 0.0018715697742615225
1275.0, 0.006829267713292151
1276.0, 0.02143124273637674
1277.0, 0.012984365229237677
1278.0, 0.00245324680559039
1279.0, 0.003761764213052334
1280.0, 0.004763290285580902
1281.0, 0.010754388326393726
1282.0, 0.0011183993548815735
1283.0, 0.004576232947262129
1284.0, 0.027079305376494122
1285.0, 0.038497760635494246
1286.0, 0.04407881460985326
1287.0, 0.025609864813126736
1288.0, 0.019903510282136792
1289.0, 0.01357938745675427
1290.0, 0.021782266278051698
1291.0, 0.032173080436405294
1292.0, 0.026342780899309824
1293.0, 0.023329264166985626
1294.0, 0.03136686434409098
1295.0, 0.041820960185845246
1296.0, 0.054196042556341445
1297.0, 0.03983212986235687
1298.0, 0.019798702105023682
1299.0, 0.038783977623806955
1300.0, 0.024638313596819575
1301.0, 0.0482593794562847
1302.0, 0.053906473231025515
1303.0, 0.06428107878016308
1304.0, 0.05130380937031514
1305.0, 0.03456461288967568
1306.0, 0.029439728666035756
1307.0, 0.0352512034251946
1308.0, 0.04111624977955558
1309.0, 0.03676846915100206
1310.0, 0.02687174054538346
1311.0, 0.022280824851075867
1312.0, 0.032104578955074195
1313.0, 0.049407525185858926
1314.0, 0.044525767799784476
1315.0, 0.031608858772069634
1316.0, 0.0230164648608245
1317.0, 0.0008309195784717046
1318, 0.0
1319, 0.0
1320, 0.0
1321, 0.0
1322, 0.0
1323, 0.0
1324, 0.0
1325, 0.0
1326, 0.0
1327, 0.0
1328, 0.0
1329, 0.0
1330, 0.0
1331, 0.0
1332, 0.0
1333, 0.0
1334, 0.0
1335, 0.0
1336, 0.0
1337, 0.0
1338, 0.0
1339, 0.0
1340, 0.0
1341, 0.0
1342, 0.0
1343, 0.0
1344, 0.0
1345, 0.0
1346, 0.0
1347, 0.0
1348, 0.0
1349, 0.0
1350, 0.0
1351, 0.0
1352, 0.0
1353, 0.0
1354, 0.0
1355, 0.0
1356, 0.0
1357, 0.0
1358, 0.0
1359, 0.0
1360, 0.0
1361, 0.0
1362, 0.0
1363, 0.0
1364, 0.0
1365, 0.0
1366, 0.0
1367, 0.0
1368, 0.0
1369, 0.0
1370, 0.0
1371, 0.0
1372, 0.0
1373, 0.0
1374, 0.0
1375, 0.0
1376, 0.0
1377, 0.0
1378, 0.0
1379, 0.0
1380, 0.0
1381, 0.0
1382, 0.0
1383, 0.0
1384, 0.0
1385, 0.0
1386, 0.0
1387, 0.0
1388, 0.0
1389, 0.0
1390, 0.0
1391, 0.0
1392, 0.0
1393, 0.0
1394, 0.0
1395, 0.0
1396, 0.0
1397, 0.0
1398, 0.0
1399, 0.0
1400, 0.0
1401, 0.0
1402, 0.0
1403, 0.0
1404, 0.0
1405, 0.0
1406, 0.0
1407, 0.0
1408, 0.0
1409, 0.0
1410, 0.0
1411, 0.0
1412, 0.0
1413, 0.0
1414, 0.0
1415, 0.0
1416, 0.0
1417, 0.0
1418, 0.0
1419, 0.0
1420, 0.0
1421, 0.0
1422, 0.0
1423, 0.0
1424, 0.0
1425, 0.0
1426, 0.0
1427, 0.0
1428, 0.0
1429, 0.0
1430, 0.0
1431, 0.0
1432, 0.0
1433, 0.0
1434, 0.0
1435, 0.0
1436, 0.0
1437, 0.0
1438, 0.0
1439, 0.0
1440, 0.0
1441, 0.0
1442, 0.0
1443, 0.0
1444, 0.0
1445, 0.0
1446, 0.0
1447, 0.0
1448, 0.0
1449, 0.0
1450, 0.0
1451, 0.0
1452, 0.0
1453, 0.0
1454, 0.0
1455, 0.0
1456, 0.0
1457, 0.0
1458, 0.0
1459, 0.0
1460, 0.0
1461, 0.0
1462, 0.0
1463, 0.0
1464, 0.0
1465, 0.0
1466, 0.0
1467, 0.0
1468, 0.0
1469, 0.0
1470, 0.0
1471, 0.0
1472, 0.0
1473, 0.0
1474, 0.0
1475, 0.0
1476, 0.0
1477, 0.0
1478, 0.0
1479, 0.0
1480, 0.0
1481, 0.0
1482, 0.0
1483, 0.0
1484, 0.0
1485, 0.0
1486, 0.0
1487, 0.0
1488, 0.0
1489, 0.0
1490, 0.0
1491, 0.0
1492, 0.0
1493, 0.0
1494, 0.0
1495, 0.0
1496, 0.0
1497, 0.0
1498, 0.0
1499, 0.0
1500, 0.0
1501, 0.0
1502, 0.0
1503, 0.0
1504, 0.0
1505, 0.0
1506, 0.0
1507, 0.0
1508, 0.0
1509, 0.0
1510, 0.0
1511, 0.0
1512, 0.0
1513, 0.0
1514, 0.0
1515, 0.0
1516, 0.0
1517, 0.0
1518, 0.0
1519, 0.0
1520, 0.0
1521, 0.0
1522, 0.0
1523, 0.0
1524, 0.0
1525, 0.0
1526, 0.0
1527, 0.0
1528, 0.0
1529, 0.0
1530, 0.0
1531, 0.0
1532, 0.0
1533, 0.0
1534, 0.0
1535, 0.0
1536, 0.0
1537, 0.0
1538, 0.0
1539, 0.0
1540, 0.0
1541, 0.0
1542, 0.0
1543, 0.0
1544, 0.0
1545, 0.0
1546, 0.0
1547, 0.0
1548, 0.0
1549, 0.0
1550, 0.0
1551, 0.0
1552, 0.0
1553, 0.0
1554, 0.0
1555, 0.0
1556, 0.0
1557, 0.0
1558, 0.0
1559, 0.0
1560, 0.0
1561, 0.0
1562, 0.0
1563, 0.0
1564, 0.0
1565, 0.0
1566, 0.0
1567, 0.0
1568, 0.0
1569, 0.0
1570, 0.0
1571, 0.0
1572, 0.0
1573, 0.0
1574, 0.0
1575, 0.0
1576, 0.0
1577, 0.0
1578, 0.0
1579, 0.0
1580, 0.0
1581, 0.0
1582, 0.0
1583, 0.0
1584, 0.0
1585, 0.0
1586, 0.0
1587, 0.0
1588, 0.0
1589, 0.0
1590, 0.0
1591, 0.0
1592, 0.0
1593, 0.0
1594, 0.0
1595, 0.0
1596, 0.0
1597, 0.0
1598, 0.0
1599, 0.0
