30, 0.0
31, 0.0
32, 0.0
33, 0.0
34, 0.0
35, 0.0
36, 0.0
37, 0.0
38, 0.0
39, 0.0
40, 0.0
41, 0.0
42, 0.0
43, 0.0
44, 0.0
45, 0.0
46, 0.0
47, 0.0
48, 0.0
49, 0.0
50, 0.0
51, 0.0
52, 0.0
53, 0.0
54, 0.0
55, 0.0
56, 0.0
57, 0.0
58, 0.0
59, 0.0
60, 0.0
61, 0.0
62, 0.0
63, 0.0
64, 0.0
65, 0.0
66, 0.0
67, 0.0
68, 0.0
69, 0.0
70, 0.0
71, 0.0
72, 0.0
73, 0.0
74, 0.0
75, 0.0
76, 0.0
77, 0.0
78, 0.0
79, 0.0
80, 0.0
81, 0.0
82, 0.0
83, 0.0
84, 0.0
85, 0.0
86, 0.0
87, 0.0
88, 0.0
89, 0.0
90, 0.0
91, 0.0
92, 0.0
93, 0.0
94, 0.0
95, 0.0
96, 0.0
97, 0.0
98, 0.0
99, 0.0
100, 0.0
101, 0.0
102, 0.0
103, 0.0
104, 0.0
105, 0.0
106, 0.0
107, 0.0
108, 0.0
109, 0.0
110, 0.0
111, 0.0
112, 0.0
113, 0.0
114, 0.0
115, 0.0
116, 0.0
117, 0.0
118, 0.0
119, 0.0
120, 0.0
121, 0.0
122, 0.0
123, 0.0
124, 0.0
125, 0.0
126, 0.0
127, 0.0
128, 0.0
129, 0.0
130, 0.0
131, 0.0
132, 0.0
133, 0.0
134, 0.0
135, 0.0
136, 0.0
137, 0.0
138, 0.0
139, 0.0
140, 0.0
141, 0.0
142, 0.0
143, 0.0
144, 0.0
145, 0.0
146, 0.0
147, 0.0
148, 0.0
149, 0.0
150, 0.0
151, 0.0
152, 0.0
153, 0.0
154.0, 0.0020730760267340413
155.0, 0.007669538459422552
156.0, 0.009653938976237378
157.0, 0.004254660301672128
158.0, 0.00017647333543422848
159.0, 0.0009945856460473797
160.0, 0.0071454799413397255
161.0, 0.0037939112218580797
162.0, 0.009123052375923415
163.0, 0.014404047626753413
164.0, 0.009957413103984602
165.0, 0.0052037904886447104
166.0, 0.004795549526064492
167.0, 0.0030875533226580147
168.0, 0.0014531740072534795
169.0, 0.007913424499486532
170.0, 0.007364311999606831
171.0, 0.009526093392489582
172.0, 0.010349272833490162
173.0, 0.001458849793624792
174.0, 0.0028597477844364057
175.0, 0.005904725750022459
176.0, 0.007845217441589761
177.0, 0.009090535148907116
178.0, 0.009825581807525616
179.0, 0.007866300450976561
180.0, 0.006699299038439694
181.0, 0.006932367800546744
182.0, 0.005972525546044499
183.0, 0.008610839943919481
184.0, 0.01278711602033452
185.0, 0.01526015367680853
186.0, 0.014365026479984635
187.0, 0.014495154553267999
188.0, 0.01072388997420336
189.0, 0.008189596117297
190.0, 0.008550511786122494
191.0, 0.0036641396904257186
192.0, 0.005403358210153037
193.0, 0.009990665129181644
194.0, 0.011708340173076657
195.0, 0.008606522007429219
196.0, 0.008285381449605311
197.0, 0.006413222100778717
198.0, 0.005941804507907862
199.0, 0.00984269871992879
200.0, 0.008993269969051405
201.0, 0.009617848481222683
202.0, 0.012364123554808279
203.0, 0.013189966045660863
204.0, 0.005027257692752361
205.0, 0.0005384007641213122
206.0, 0.0007952224902052905
207.0, 0.0033474597550432416
208.0, 0.004656838660628865
209.0, 0.003333513045952035
210.0, 0.0006981008645193972
211.0, 0.0010659796065595134
212.0, 0.0048669983947004156
213.0, 0.006623398850820044
214.0, 0.004478134992684071
215.0, 0.0008155008608879274
216.0, 0.0015666492218661737
217.0, 0.005627685884326073
218.0, 0.004643717114200545
219.0, 0.006980803882886838
220.0, 0.005479921451442705
221.0, 0.004706243826676787
222.0, 0.005631872396326874
223.0, 0.004540427221336309
224.0, 0.006557011172748314
225.0, 0.004729335673081983
226.0, 0.007798417211187439
227.0, 0.007180683812712104
228.0, 0.00427555512181537
229.0, 0.005593013399633778
230.0, 0.005620466693972707
231.0, 0.006532806121132154
232.0, 0.004473670546143013
233.0, 0.002931709850703404
234.0, 0.003417167681766263
235.0, 0.005197382840761179
236.0, 0.004176911317915275
237.0, 0.003671046924284171
238.0, 0.004052147648141004
239.0, 0.0034864813694624923
240.0, 0.0005723424205094339
241.0, 0.0019118450853889222
242.0, 0.0006357752560218095
243.0, 0.003944505061834308
244.0, 0.0038310774997920433
245.0, 0.002658969950461742
246.0, 0.006085399905712258
247.0, 0.002037708029207434
248.0, 0.0028120274785038268
249.0, 0.000907768039380783
250.0, 0.000717835524213526
251.0, 0.0005092896820544018
252.0, 0.0026941524670614026
253.0, 0.0007713637618097408
254.0, 0.005946471911196379
255.0, 0.007183837950295571
256.0, 0.006476383764698963
257.0, 0.0068557654295855535
258.0, 0.006599214339457324
259.0, 0.005695113301405717
260.0, 0.00542501991102479
261.0, 0.006325921495968128
262.0, 0.006928677019439387
263.0, 0.003858749401056941
264.0, 0.003602031902798221
265.0, 0.004635437670467716
266.0, 0.005621662506556529
267.0, 0.007857205127509844
268.0, 0.006683642752605417
269.0, 0.0074773251442326735
270.0, 0.007092332640663309
271.0, 0.0029387534818136993
272.0, 0.0015373189785603157
273.0, 0.0034496560192089024
274.0, 0.004783570128883288
275.0, 0.004608337384297822
276.0, 0.0048859415227830135
277.0, 0.008877947733970744
278.0, 0.009593394997609974
279.0, 0.007975123859356848
280.0, 0.006010418341863553
281.0, 0.003162865635773943
282.0, 0.011097992301797317
283.0, 0.01463615806099383
284.0, 0.014194918997490539
285.0, 0.01582808228953031
286.0, 0.01373489814163546
287.0, 0.014122681250370528
288.0, 0.015191286720373683
289.0, 0.0171419510979523
290.0, 0.021216285788859587
291.0, 0.015835217076177962
292.0, 0.01334968480423264
293.0, 0.017470287773459964
294.0, 0.022642191198475034
295.0, 0.017087486998829896
296.0, 0.019277175219183477
297.0, 0.020416478397278278
298.0, 0.021871295017078702
299.0, 0.02740018971942846
300.0, 0.02712321764494027
301.0, 0.026845974222887637
302.0, 0.0281293600308452
303.0, 0.028593044540748316
304.0, 0.026199261525312743
305.0, 0.02522890969115536
306.0, 0.018791434193890195
307.0, 0.01520462710871498
308.0, 0.01602553521186112
309.0, 0.010001765508178478
310.0, 0.010414858819716627
311.0, 0.009893731904274257
312.0, 0.006624509905927756
313.0, 0.0033740909886983087
314.0, 0.0029102036474747323
315.0, 0.001503446876907637
316.0, 0.0051615462659744225
317.0, 0.00699014118222659
318.0, 0.00121564210706418
319.0, 0.0013387798058547761
320.0, 0.0025282714786802885
321.0, 0.002847032525611013
322.0, 0.001655493879419245
323.0, 0.0006143523967689763
324.0, 0.002033604223951954
325.0, 0.0007122780121127838
326.0, 0.0017237468716421395
327.0, 0.0015490405268149922
328.0, 0.0025667939113902206
329.0, 0.0018976971301864645
330.0, 0.0021698477456028303
331.0, 0.002629141041754048
332.0, 0.002118771057904442
333.0, 0.0030045464159628625
334.0, 0.0031904930581127984
335.0, 0.0009071519167691266
336.0, 0.0006733257716014391
337.0, 0.001588268827251548
338.0, 0.0026923085007627295
339.0, 0.0013446551220216792
340.0, 0.0049839933994778405
341.0, 0.006017420509850176
342.0, 0.007402039778038253
343.0, 0.009083664595134794
344.0, 0.005989199084153364
345.0, 0.003424842666787868
346.0, 0.00492036391719592
347.0, 0.007647276194793504
348.0, 0.01277807059218724
349.0, 0.011878214480582907
350.0, 0.011793678809997035
351.0, 0.015752708994070726
352.0, 0.013506404418566266
353.0, 0.011188788068496297
354.0, 0.010481510857805713
355.0, 0.014618600686271601
356.0, 0.020642891632159755
357.0, 0.015847725260544555
358.0, 0.01605718773427831
359.0, 0.01934728990523958
360.0, 0.022443907015191316
361.0, 0.02365487894625781
362.0, 0.019610968222827135
363.0, 0.021209724431572624
364.0, 0.025435118234253876
365.0, 0.026115159919101
366.0, 0.020783755121809636
367.0, 0.023527943789014193
368.0, 0.027575749307082162
369.0, 0.027570619073372344
370.0, 0.028344433849004817
371.0, 0.03740411515786554
372.0, 0.040429918304231344
373.0, 0.04068094028505013
374.0, 0.03871650663212247
375.0, 0.0365361852926894
376.0, 0.03645344226960877
377.0, 0.02462146401745911
378.0, 0.01906104113324773
379.0, 0.01718945094459751
380.0, 0.014477658171642718
381.0, 0.012482929310114965
382.0, 0.0075526635443128156
383.0, 0.00649494740463397
384.0, 0.00861463454967196
385.0, 0.010770869582660337
386.0, 0.011260404432595185
387.0, 0.005155030937848524
388.0, 0.0074278063832861
389.0, 0.008409336855602807
390.0, 0.0035582620134745266
391.0, 0.0040116445504484975
392.0, 0.0066061436924061525
393.0, 0.009370839484044593
394.0, 0.007946208474078363
395.0, 0.0034014143080741527
396.0, 0.0032352179376912834
397.0, 0.0035809557280249496
398.0, 0.003425977262431907
399.0, 0.0026991957674100267
400.0, 0.0030154748982126243
401.0, 0.008575776755071313
402.0, 0.005076996810768901
403.0, 0.003965314602187962
404.0, 0.00375373166959804
405.0, 0.001972170875389731
406.0, 0.0030683824344586914
407.0, 0.006275879663787796
408.0, 0.00392391971604282
409.0, 0.0031199660566415734
410.0, 0.005819651128314164
411.0, 0.001933768112539246
412.0, 0.00900692378515245
413.0, 0.007013335369426436
414.0, 0.0043913847896405265
415.0, 0.007453887555395985
416.0, 0.00417122127502006
417.0, 0.006425646778765504
418.0, 0.0039579307240501386
419.0, 0.0019673988331967113
420.0, 0.005565834291736304
421.0, 0.009973094732286846
422.0, 0.004480715226055115
423.0, 0.003247072281924635
424.0, 0.007025752150643542
425.0, 0.00958553040703769
426.0, 0.005535375328969771
427.0, 0.003084844208175753
428.0, 0.0036615849356525488
429.0, 0.005564086285373687
430.0, 0.007036928427240349
431.0, 0.007191393734806949
432.0, 0.006930363682504682
433.0, 0.00565059752513027
434.0, 0.003573752781948745
435.0, 0.0026716058100874395
436.0, 0.0033695391036113096
437.0, 0.0014687672649053448
438.0, 0.0017382656569111335
439.0, 0.0037259168291038326
440.0, 0.008324813817386052
441.0, 0.006534883559813815
442.0, 0.005272335739786105
443.0, 0.0012660533655557658
444.0, 0.0012428504114353014
445.0, 0.004311199513489472
446.0, 0.0056717373017915445
447.0, 0.006804865810777989
448.0, 0.007727365087422567
449.0, 0.005976592597901349
450.0, 0.002871652558799169
451.0, 0.0006528635341052512
452.0, 0.0017259655129767668
453.0, 0.002203791509989356
454.0, 0.004620525792521463
455.0, 0.0036542907531197707
456.0, 0.0020512012201965653
457.0, 0.003451221772980988
458.0, 0.0011221643562342606
459.0, 0.001199680581422136
460.0, 0.0007936951054472851
461.0, 0.0022529322153417293
462.0, 0.0045156062942623525
463.0, 0.003972935900167031
464.0, 0.0019852385505789586
465.0, 0.005692094256824879
466.0, 0.0114493645271639
467.0, 0.00983326158784478
468.0, 0.0049240914600000955
469.0, 0.008299477572517545
470.0, 0.009758648827213591
471.0, 0.0057027370190765045
472.0, 0.0015507969474468602
473.0, 0.0077407675205488176
474.0, 0.01163359869981913
475.0, 0.008728235944377485
476.0, 0.006485600916661651
477.0, 0.009415110462369666
478.0, 0.009444592485745437
479.0, 0.01181677835857071
480.0, 0.009937101203507112
481.0, 0.010108544704379979
482.0, 0.015121750197741922
483.0, 0.017137783236299463
484.0, 0.019906268626170228
485.0, 0.01697458263287005
486.0, 0.013740271815832197
487.0, 0.010411235766914275
488.0, 0.003589659247838174
489.0, 0.008446024798816974
490.0, 0.011948559718297105
491.0, 0.011316643899165691
492.0, 0.009043056417898692
493.0, 0.007556387769387217
494.0, 0.00597427165365179
495.0, 0.005341991708411542
496.0, 0.006349595589592441
497.0, 0.007884502242945223
498.0, 0.008410462364454658
499.0, 0.00862210807855276
500.0, 0.009872521627793045
501.0, 0.0035071934117149686
502.0, 0.0014717677368387269
503.0, 0.0062096375831298435
504.0, 0.008084738373128257
505.0, 0.00842569156992617
506.0, 0.007054784170324105
507.0, 0.005780537310295583
508.0, 0.005777452058978666
509.0, 0.006582882139097436
510.0, 0.0052296887793947715
511.0, 0.004842738031166448
512.0, 0.004590451611296088
513.0, 0.005788265936224985
514.0, 0.006942518440403024
515.0, 0.003983421653348296
516.0, 0.002997007965042381
517.0, 0.0007979888763733652
518.0, 0.0006936044797384803
519.0, 0.002278372575288691
520.0, 0.002986271886971956
521.0, 0.00429960847777262
522.0, 0.002770731641826963
523.0, 0.0003290935806730844
524.0, 0.0054801802060658435
525.0, 0.00414123066196725
526.0, 0.00411562447148299
527.0, 0.0023278959296086986
528.0, 0.003977558654674881
529.0, 0.005213037688767221
530.0, 0.0027262902719376652
531.0, 0.0005952295410648369
532.0, 0.0008209543122249623
533.0, 0.001745534066666482
534.0, 0.001397897274050684
535.0, 0.000800952510418674
536.0, 0.0014189006575825557
537.0, 0.0032476757104109347
538.0, 0.00518087739906837
539.0, 0.001965046784610595
540.0, 0.0004322543461120139
541.0, 0.0015842102926358734
542.0, 0.002929505646708459
543.0, 0.011760168431426583
544.0, 0.007605527646438749
545.0, 0.005933275614734882
546.0, 0.004982967565845995
547.0, 0.0012804009933995374
548.0, 0.0019273424400597376
549.0, 0.0031068018138693254
550.0, 0.00463021995672153
551.0, 0.005947943851801202
552.0, 0.0060804161929915515
553.0, 0.0017979973073897787
554.0, 0.004205370709305191
555.0, 0.0030363965526320736
556.0, 0.004185261012197127
557.0, 0.00417176981512491
558.0, 0.0012270125930534505
559.0, 0.0034972263585565633
560.0, 0.009095229745004924
561.0, 0.006829462311697465
562.0, 0.004857898601954655
563.0, 0.00714811026522914
564.0, 0.010846981611587127
565.0, 0.01192226479327007
566.0, 0.015891466698863384
567.0, 0.008740500059487849
568.0, 0.004514937039621119
569.0, 0.010722910230082632
570.0, 0.01324458955346991
571.0, 0.014840911425993291
572.0, 0.014658964028940452
573.0, 0.015318981080752182
574.0, 0.018664036284457165
575.0, 0.021698769831895646
576.0, 0.01604806893512086
577.0, 0.01782237899536619
578.0, 0.017182370909918733
579.0, 0.01840395190052183
580.0, 0.020511165220257137
581.0, 0.020831733830073418
582.0, 0.028686550715398263
583.0, 0.024908264936770206
584.0, 0.025315644729194432
585.0, 0.029349269659317546
586.0, 0.03079125968368335
587.0, 0.030700592804992207
588.0, 0.029977948761232054
589.0, 0.03278744870269446
590.0, 0.03614862701294577
591.0, 0.03843694893891146
592.0, 0.03989484026511066
593.0, 0.04098185161192583
594.0, 0.03978546915373047
595.0, 0.04321152176325098
596.0, 0.04809257454793197
597.0, 0.046902810038914354
598.0, 0.041542223504814194
599.0, 0.04721020571316342
600.0, 0.04900912939982414
601.0, 0.0457956276905077
602.0, 0.04167917220639273
603.0, 0.0390979833203154
604.0, 0.03742631399411217
605.0, 0.030859404685023975
606.0, 0.025421144261163726
607.0, 0.018413907053833486
608.0, 0.017217932329650226
609.0, 0.017355510462741468
610.0, 0.007282749400725685
611.0, 0.009091272744403675
612.0, 0.005306717914642049
613.0, 0.004319562376179721
614.0, 0.005252985108235184
615.0, 0.005618349560767005
616.0, 0.007551298269899027
617.0, 0.0035442694221762463
618.0, 0.0013687514710487218
619.0, 0.0033159495012999637
620.0, 0.005431985196615033
621.0, 0.004386364050061484
622.0, 0.0028552760722227472
623.0, 0.002059989932034832
624.0, 0.00200789106900347
625.0, 0.0021160931441500347
626.0, 0.003032591726265626
627.0, 0.0006564731160737193
628.0, 0.0007159841304149595
629.0, 0.0011342769230348545
630.0, 0.0025856535734517156
631.0, 0.0024705540525702526
632.0, 0.002526064043331186
633.0, 0.003985913762800512
634.0, 0.004730295634919173
635.0, 0.006111128913795849
636.0, 0.00839260272743765
637.0, 0.011486190962204965
638.0, 0.011778372429242208
639.0, 0.008726953973794797
640.0, 0.009711368223807575
641.0, 0.0065334071852105715
642.0, 0.00812011579201136
643.0, 0.009123247705181439
644.0, 0.00807644786991939
645.0, 0.007877345425511334
646.0, 0.005381013853214924
647.0, 0.004734396995253765
648.0, 0.003906361528547359
649.0, 0.007025788085548315
650.0, 0.008264361980438902
651.0, 0.003956083997242715
652.0, 0.008532603668055538
653.0, 0.005285701095395102
654.0, 0.003358906721101736
655.0, 0.00496282363198892
656.0, 0.008435546936370567
657.0, 0.010969475672389126
658.0, 0.00724944058137091
659.0, 0.004832903795823438
660.0, 0.005195278194681189
661.0, 0.005686819846337771
662.0, 0.004577440775423895
663.0, 0.0032548826886073137
664.0, 0.004138898884674721
665.0, 0.004804270851705697
666.0, 0.00574036335507084
667.0, 0.003458388321722322
668.0, 0.003117183023865591
669.0, 0.006910494241741191
670.0, 0.005708703140695831
671.0, 0.007861716752593034
672.0, 0.000674320812884967
673.0, 0.0013884025975826123
674.0, 0.0020844371243049923
675.0, 0.0020934861340892764
676.0, 0.005570088076400967
677.0, 0.004342873129191855
678.0, 0.004026152754352353
679.0, 0.0017326621352629669
680.0, 0.002683057985171968
681.0, 0.00706899095405307
682.0, 0.007374284133520404
683.0, 0.011610602483048234
684.0, 0.004939425364811463
685.0, 0.007784401506822887
686.0, 0.009439941046515155
687.0, 0.005963406712563119
688.0, 0.00875371815313131
689.0, 0.011554030734681559
690.0, 0.01290724881884087
691.0, 0.011307431063344519
692.0, 0.012311728891058735
693.0, 0.015169109137059647
694.0, 0.015061340969631711
695.0, 0.015162808945369897
696.0, 0.016597504644649465
697.0, 0.019599635304204163
698.0, 0.021154452881318776
699.0, 0.019550425697120958
700.0, 0.017074237779122106
701.0, 0.01877084370663221
702.0, 0.016443689099873874
703.0, 0.018124316202206475
704.0, 0.01679397993547923
705.0, 0.017942047881557736
706.0, 0.022369512816889477
707.0, 0.019928411254132212
708.0, 0.02138045134392233
709.0, 0.020834413058783547
710.0, 0.02255271376552109
711.0, 0.023147594500023475
712.0, 0.019687011489581793
713.0, 0.016591853932483774
714.0, 0.022881053264267343
715.0, 0.022562720409272513
716.0, 0.01968744446348399
717.0, 0.01817240447813695
718.0, 0.018046510104148636
719.0, 0.02087687771639001
720.0, 0.016174059333167155
721.0, 0.014325070439549456
722.0, 0.01263307899107897
723.0, 0.013836254884037462
724.0, 0.012842634467609713
725.0, 0.013462730815673256
726.0, 0.00831691267613062
727.0, 0.007677045491111375
728.0, 0.00853301521627409
729.0, 0.007622723166428931
730.0, 0.003335452141622902
731.0, 0.0003305493326222822
732.0, 0.00019048013953636953
733.0, 0.001549722687635812
734.0, 0.0050944742435206445
735.0, 0.0013062442434921041
736.0, 0.0011237254087630062
737.0, 0.0002291231741734961
738.0, 0.0003046312028041209
739.0, 0.0005754271833701954
740.0, 0.0015672446739963405
741.0, 0.003757489229632686
742.0, 0.001101148558543561
743.0, 0.000984180038894277
744.0, 0.00705885204808159
745.0, 0.01095008810898688
746.0, 0.005298256763730082
747.0, 0.006262933517231477
748.0, 0.007085095333303152
749.0, 0.006883489763124213
750.0, 0.008820922792737345
751.0, 0.009756784644867149
752.0, 0.0050774969517730206
753.0, 0.005780364930930634
754.0, 0.006470847878567791
755.0, 0.002156517434763885
756.0, 0.0027360764971375608
757.0, 0.002432156655570115
758.0, 0.0007501403458553197
759.0, 0.0014892576024013887
760.0, 0.0006800434816124888
761.0, 0.0031510115192108857
762.0, 0.011642508891361595
763.0, 0.016675223989493573
764.0, 0.017655199224122196
765.0, 0.021191662705366984
766.0, 0.027369446858053932
767.0, 0.036329403956771186
768.0, 0.044620439001944186
769.0, 0.05461193247817482
770.0, 0.0715057547392095
771.0, 0.08669945654686241
772.0, 0.09057047619871746
773.0, 0.10185119265026973
774.0, 0.11975533947714008
775.0, 0.1428521166260564
776.0, 0.16187439633086895
777.0, 0.18189468648358917
778.0, 0.2093517141433566
779.0, 0.24076381748578532
780.0, 0.2751066146385467
781.0, 0.3166102565528675
782.0, 0.3533394062450785
783.0, 0.4000732003183313
784.0, 0.45562515709261664
785.0, 0.5065858623564132
786.0, 0.5518530296374927
787.0, 0.6014792893377237
788.0, 0.6680107655465709
789.0, 0.7240263564281001
790.0, 0.7804056622954239
791.0, 0.8404185424784174
792.0, 0.8942498742910875
793.0, 0.9391485314283833
794.0, 0.9674370396874923
795.0, 0.9944609360753396
796.0, 0.9928491061824516
797.0, 0.9672567563106415
798.0, 0.927874337600869
799.0, 0.8762472562149549
800.0, 0.8169789866157126
801.0, 0.7533975951569322
802.0, 0.6827391215573814
803.0, 0.634708406070973
804.0, 0.5959055237432114
805.0, 0.5550691476610309
806.0, 0.5220042515161919
807.0, 0.5021326904648673
808.0, 0.4807829244612808
809.0, 0.4690445646790672
810.0, 0.4603796293147714
811.0, 0.44474348223728855
812.0, 0.43875964432926823
813.0, 0.4520933530805325
814.0, 0.4507535770937224
815.0, 0.46305469092463314
816.0, 0.4758722911859977
817.0, 0.49297796954011647
818.0, 0.5098663992155932
819.0, 0.5313510987960883
820.0, 0.563453687609152
821.0, 0.5905835351924852
822.0, 0.6254182692613445
823.0, 0.662474800923035
824.0, 0.6941585050920894
825.0, 0.734037054101075
826.0, 0.7778560147034084
827.0, 0.8145069460033739
828.0, 0.8539838283060662
829.0, 0.8827597378297979
830.0, 0.9164172011415739
831.0, 0.9463777824688061
832.0, 0.9672160001745814
833.0, 0.9772678546307755
834.0, 0.9782241504069278
835.0, 0.9755629871271259
836.0, 0.9636489214995451
837.0, 0.9440850262100884
838.0, 0.9143517934927681
839.0, 0.8805907356401838
840.0, 0.8426076085965505
841.0, 0.7992629303085833
842.0, 0.7565011444921025
843.0, 0.715954958068766
844.0, 0.6741471794135707
845.0, 0.6304564597362708
846.0, 0.5994393742771323
847.0, 0.5644077230166422
848.0, 0.5243336450001626
849.0, 0.49713223608286405
850.0, 0.4605824452207617
851.0, 0.4399634775887132
852.0, 0.4205396528013041
853.0, 0.396793159834779
854.0, 0.37413223728865136
855.0, 0.355818363705505
856.0, 0.33941628846579863
857.0, 0.3214168949406476
858.0, 0.3022077755409042
859.0, 0.28749105770686195
860.0, 0.2736493831392192
861.0, 0.2602660770832664
862.0, 0.24866831593919084
863.0, 0.23772278525125265
864.0, 0.22555128828283827
865.0, 0.2116998540068001
866.0, 0.19425314555893664
867.0, 0.18142951095990384
868.0, 0.1729324823095185
869.0, 0.1567061069268771
870.0, 0.14178020599840374
871.0, 0.13912437687424775
872.0, 0.12659530372934036
873.0, 0.12066507795983294
874.0, 0.10931369973969497
875.0, 0.10207577546901721
876.0, 0.0953531938593169
877.0, 0.08612542025601379
878.0, 0.07821589322057419
879.0, 0.06933211619105038
880.0, 0.06433049931494368
881.0, 0.05559168965719011
882.0, 0.05046841492110052
883.0, 0.04234397265998018
884.0, 0.03355168377658016
885.0, 0.030168198779170305
886.0, 0.027654119757877137
887.0, 0.025875113526854374
888.0, 0.021797843264930665
889.0, 0.012161451687595623
890.0, 0.012857587386844309
891.0, 0.010847679904283423
892.0, 0.006087552525725365
893.0, 0.0038775460775525928
894.0, 0.0013609713939068157
895.0, 0.0038195620886883647
896.0, 0.0007227182841844564
897.0, 0.0002559068771581431
898.0, 0.0006089760707903159
899.0, 0.0018261971539103917
900.0, 0.0034814539261534354
901.0, 0.0013819059507339498
902.0, 0.0006342922969152134
903.0, 0.007391255592510846
904.0, 0.005765648038211286
905.0, 0.00337196539385615
906.0, 0.0011197372525624317
907.0, 0.004099974313032676
908.0, 0.008392793319059112
909.0, 0.004511850397241551
910.0, 0.002170344301025134
911.0, 0.0042608606822000655
912.0, 0.0007866130980848751
913.0, 0.00016774134381087897
914.0, 0.007710755767822759
915.0, 0.0059212380206709325
916.0, 0.0016228722950645087
917.0, 0.0009639040110422602
918.0, 0.0006187599197174422
919.0, 0.0019536171863804865
920.0, 0.0015513805242472268
921.0, 0.0013629643004668252
922.0, 0.0037287103370942346
923.0, 0.001985080408860772
924.0, 0.000465600924820966
925.0, 0.0023911799410329974
926.0, 0.0006724764135765228
927.0, 0.004276375400037291
928.0, 0.0029729291620583303
929.0, 0.003781733869029198
930.0, 0.0010130693262493343
931.0, 0.0008445134632826374
932.0, 0.003077867536089261
933.0, 0.0040405050796548485
934.0, 0.0024648721251771706
935.0, 0.0020123218580677302
936.0, 0.007851451162136008
937.0, 0.003976841260710767
938.0, 0.004148700321038901
939.0, 0.0074281193640802394
940.0, 0.00704707582759881
941.0, 0.005027630681604733
942.0, 0.006358264028827727
943.0, 0.006866007039204781
944.0, 0.01173629479650612
945.0, 0.01171994541031487
946.0, 0.009412760160939122
947.0, 0.01136024642509495
948.0, 0.011955347289600928
949.0, 0.009748642404493166
950.0, 0.013751602532819329
951.0, 0.007404868168583704
952.0, 0.008189236634349945
953.0, 0.01515224835807285
954.0, 0.015587488557005778
955.0, 0.013305784083584593
956.0, 0.015184598564785523
957.0, 0.018269093967575308
958.0, 0.016605862392610603
959.0, 0.01911583434504013
960.0, 0.024622354519490932
961.0, 0.01675429836248878
962.0, 0.019863575425588025
963.0, 0.028158896190452667
964.0, 0.028424760339491695
965.0, 0.02546501587209102
966.0, 0.027016795791730018
967.0, 0.025918705363704383
968.0, 0.025571700810597727
969.0, 0.025454562711567614
970.0, 0.02382373362639776
971.0, 0.022884463238561574
972.0, 0.02694286625773564
973.0, 0.029632137040561314
974.0, 0.02804759503644246
975.0, 0.03223426650769471
976.0, 0.03379368070794908
977.0, 0.031964171932949155
978.0, 0.028580635387573796
979.0, 0.026620274227708463
980.0, 0.030901218703847416
981.0, 0.033167778620427656
982.0, 0.03216228379915978
983.0, 0.03535763665566399
984.0, 0.035652051279123666
985.0, 0.031242665147013054
986.0, 0.03173490114958392
987.0, 0.03415749880275369
988.0, 0.0310841119073173
989.0, 0.03132867739094301
990.0, 0.034693805325948034
991.0, 0.032950910466063535
992.0, 0.02833216293328011
993.0, 0.025479868207841396
994.0, 0.025392771732042553
995.0, 0.02533608103387258
996.0, 0.020273770196740187
997.0, 0.01916153083023342
998.0, 0.021543111895950928
999.0, 0.023865864017673568
1000.0, 0.023373472263613027
1001.0, 0.018402234761794492
1002.0, 0.018950988759379006
1003.0, 0.016686947666549642
1004.0, 0.012700578371126765
1005.0, 0.013862961969505521
1006.0, 0.013864402512250433
1007.0, 0.018400542561035908
1008.0, 0.021753420582685864
1009.0, 0.01442290991217454
1010.0, 0.016281300860527405
1011.0, 0.019577883834743452
1012.0, 0.015413169615246733
1013.0, 0.013474949516284212
1014.0, 0.015068574115095221
1015.0, 0.01643674394094604
1016.0, 0.015563761131624812
1017.0, 0.013658334490881231
1018.0, 0.011870575367257037
1019.0, 0.0108565960267886
1020.0, 0.01552717410974577
1021.0, 0.014103252934217814
1022.0, 0.012103954002453359
1023.0, 0.009974076998717383
1024.0, 0.012923722859687155
1025.0, 0.01392753172443761
1026.0, 0.010007191776828343
1027.0, 0.009452589991873424
1028.0, 0.011439524067098583
1029.0, 0.008879883965773805
1030.0, 0.014959989669322406
1031.0, 0.015071967525687117
1032.0, 0.00880430255396363
1033.0, 0.0031729465370062123
1034.0, 0.0035532384735211466
1035.0, 0.006992612195062683
1036.0, 0.008765622184475507
1037.0, 0.008527135807596927
1038.0, 0.007929674360822935
1039.0, 0.010106791885128922
1040.0, 0.007383038196591117
1041.0, 0.010932327991321218
1042.0, 0.010632178014221252
1043.0, 0.006740041925668329
1044.0, 0.010601468070522731
1045.0, 0.01645247209522861
1046.0, 0.011353770736444828
1047.0, 0.007831245353007806
1048.0, 0.006945818265039698
1049.0, 0.010875674930600831
1050.0, 0.008372991048776864
1051.0, 0.006050819469056515
1052.0, 0.007243473364477798
1053.0, 0.0077329537901710925
1054.0, 0.006830875215852539
1055.0, 0.007086728010276224
1056.0, 0.005698619117701937
1057.0, 0.005617445687140722
1058.0, 0.0057294785863861945
1059.0, 0.0014850739672496059
1060.0, 0.003633756791937345
1061.0, 0.006476385871801442
1062.0, 0.0064867347003818784
1063.0, 0.006337881886376854
1064.0, 0.006394063321282303
1065.0, 0.003748438555321815
1066.0, 0.00257658778135744
1067.0, 0.0022764494315476174
1068.0, 0.003405279746045033
1069.0, 0.005615572465400573
1070.0, 0.0033926298167821574
1071.0, 0.0004240581974765808
1072.0, 0.0008437758041327768
1073.0, 0.003122847325363045
1074.0, 0.005491247232719831
1075.0, 0.007744717993084529
1076.0, 0.003125318426273556
1077.0, 0.0073991715020079365
1078.0, 0.004849461096920135
1079.0, 0.005708916746624592
1080.0, 0.00810872411812064
1081.0, 0.008604377622123615
1082.0, 0.005870567864222004
1083.0, 0.004784295581083069
1084.0, 0.006358421724076375
1085.0, 0.003871499656067814
1086.0, 0.002199156143061366
1087.0, 0.0024976136213635393
1088.0, 0.003203713157139505
1089.0, 0.0005917502366745725
1090.0, 0.00019197181288146595
1091.0, 0.003294996312527057
1092.0, 0.0024115226243492877
1093.0, 0.0030336978493488817
1094.0, 0.0036476184818393744
1095.0, 0.0006342338941225284
1096.0, 0.004525519858771196
1097.0, 0.007172803656401054
1098.0, 0.00582662764910708
1099.0, 0.0058411053378317635
1100.0, 0.005732838261992357
1101.0, 0.006564763428157264
1102.0, 0.005527312203619751
1103.0, 0.005464665173105938
1104.0, 0.006613832794663857
1105.0, 0.003919583970045232
1106.0, 0.005525269278979289
1107.0, 0.0026180376588013153
1108.0, 0.00040333227534295244
1109.0, 0.004811816832961548
1110.0, 0.008149047499053087
1111.0, 0.006531441116880664
1112.0, 0.0023991017021436287
1113.0, 0.0037318965058381697
1114.0, 0.008291968063726621
1115.0, 0.007294021880745482
1116.0, 0.0041176684949890624
1117.0, 0.0009044988539370468
1118.0, 0.0032450716271839176
1119.0, 0.0018491384740271632
1120.0, 0.0031677705519598553
1121.0, 0.004802122902587746
1122.0, 0.006017370596880371
1123.0, 0.0042191180858881325
1124.0, 0.00024245454116729836
1125.0, 0.0013283731626590497
1126.0, 0.0020611996841821884
1127.0, 0.00227428138469706
1128.0, 0.0027975623769318126
1129.0, 0.0031420781988347932
1130.0, 0.001269186990072721
1131.0, 0.004241502249762128
1132.0, 0.004818520127799969
1133.0, 0.003136080407352968
1134.0, 0.002590562010647277
1135.0, 0.0038690597436080586
1136.0, 0.005863854632238494
1137.0, 0.0075324921672960945
1138.0, 0.00875827094174353
1139.0, 0.0064036357838259785
1140.0, 0.0043387506071543985
1141.0, 0.0024267469495242813
1142.0, 0.0007415031960755512
1143.0, 0.0051189580724828945
1144.0, 0.002502856751933672
1145.0, 0.001360021159283558
1146.0, 0.006672755629129542
1147.0, 0.008006263904005346
1148.0, 0.006268050505458096
1149.0, 0.003977717937032132
1150.0, 0.006196220245576268
1151.0, 0.008800885547676756
1152.0, 0.0026113751255810278
1153.0, 0.006708963711519068
1154.0, 0.008423467879482756
1155.0, 0.008917738698014698
1156.0, 0.00883432512450231
1157.0, 0.007354564205795157
1158.0, 0.007388199993635379
1159.0, 0.007833274707446124
1160.0, 0.004566582598988641
1161.0, 0.0009485360105759982
1162.0, 0.009874023263887772
1163.0, 0.01095371327861913
1164.0, 0.013298437454614863
1165.0, 0.01077278893584458
1166.0, 0.01139149221888811
1167.0, 0.00974759933360525
1168.0, 0.011281626975449825
1169.0, 0.01565242377429442
1170.0, 0.011640532821093891
1171.0, 0.00952949636927315
1172.0, 0.01473431027178254
1173.0, 0.017626838815526784
1174.0, 0.016111337339825463
1175.0, 0.0145500425412431
1176.0, 0.015411002929008676
1177.0, 0.014112137710675753
1178.0, 0.01992432040354298
1179.0, 0.021659069456326025
1180.0, 0.019185743742004022
1181.0, 0.019743310204124006
1182.0, 0.01608377442286214
1183.0, 0.011671690905896424
1184.0, 0.01617126632344723
1185.0, 0.01423019340364662
1186.0, 0.016133323979086886
1187.0, 0.018074451304191764
1188.0, 0.018267495689467096
1189.0, 0.018696096205904414
1190.0, 0.016396303359044
1191.0, 0.020404499531503844
1192.0, 0.024712718641037856
1193.0, 0.02122963591470974
1194.0, 0.02056265661453952
1195.0, 0.02150820816192362
1196.0, 0.015536649807735203
1197.0, 0.022511571373851774
1198.0, 0.019958699941808346
1199.0, 0.02080727276131704
1200.0, 0.02058035446643539
1201.0, 0.01688559500946437
1202.0, 0.019033018576434045
1203.0, 0.02099162581908936
1204.0, 0.017062756243285335
1205.0, 0.01595057282005799
1206.0, 0.01989615020807355
1207.0, 0.019368067494381847
1208.0, 0.014690400461790622
1209.0, 0.015936267907173177
1210.0, 0.017925117769111733
1211.0, 0.013294569505726474
1212.0, 0.013023095945341769
1213.0, 0.010641287848707383
1214.0, 0.00951088625047521
1215.0, 0.012698157118166383
1216.0, 0.014253979333949328
1217.0, 0.01054444120111039
1218.0, 0.007587264943675296
1219.0, 0.007932523688192448
1220.0, 0.0064392557977334475
1221.0, 0.006515780847560831
1222.0, 0.014705484029605214
1223.0, 0.012413308058467437
1224.0, 0.008696999213636002
1225.0, 0.007916378109676063
1226.0, 0.008748393120124029
1227.0, 0.00687273215407632
1228.0, 0.00639837828702665
1229.0, 0.005263569421533622
1230.0, 0.0037612064372471807
1231.0, 0.0058197083025194885
1232.0, 0.006384858431249325
1233.0, 0.004896404129392808
1234.0, 0.007419089575566762
1235.0, 0.009668089439250455
1236.0, 0.0013013758971265016
1237.0, 0.0013703838965019323
1238.0, 0.004383764871431968
1239.0, 0.0007286241428034531
1240.0, 0.0017214539485196907
1241.0, 0.0014060995356255136
1242.0, 0.0027981936799195088
1243.0, 0.004187306820237684
1244.0, 0.0007558373922258014
1245.0, 0.0011029133683090175
1246.0, 0.0017640378489006169
1247.0, 0.0029752945738243043
1248.0, 0.0018747429999217589
1249.0, 0.0020886744042657433
1250.0, 0.006264587887619029
1251.0, 0.0001601352987486527
1252.0, 0.00016660786673507047
1253.0, 0.0024340938499425196
1254.0, 0.0018308012041158446
1255.0, 0.0031874531963431187
1256.0, 0.0033114934675425338
1257.0, 0.0022605512366389306
1258.0, 0.003570777987534119
1259.0, 0.004001532376833113
1260.0, 0.0035404722336334527
1261.0, 0.002182590457961159
1262.0, 0.0009339042926728746
1263.0, 0.003926201799398279
1264.0, 0.0039002398719711067
1265.0, 0.0031868542847570064
1266.0, 0.006735290551743822
1267.0, 0.007340728289192552
1268.0, 0.003877761336476378
1269.0, 0.002774126642340798
1270.0, 0.0016897597143660068
1271.0, 0.001891332418727418
1272.0, 0.0065708203407487745
1273.0, 0.010161434997893369
1274.0, 0.00811235123648489
1275.0, 0.0035920517781010386
1276.0, 0.00683901308989246
1277.0, 0.005426990939261354
1278.0, 0.0059131968137488096
1279.0, 0.008646692031200892
1280.0, 0.007269312775818419
1281.0, 0.006382052300657589
1282.0, 0.0033377704711348376
1283.0, 0.0022088194244729298
1284.0, 0.0014021935142725203
1285.0, 0.0014421751378366878
1286.0, 0.0015501690893159233
1287.0, 0.00282507438206001
1288.0, 0.006747347884131521
1289.0, 0.0056541172162529775
1290.0, 0.0015350343040813877
1291.0, 0.0033366728202615064
1292.0, 0.00841557091037371
1293.0, 0.006798452831158541
1294.0, 0.00016248567837053788
1295.0, 0.0055455641136094485
1296.0, 0.008314699392801037
1297.0, 0.004369643803278502
1298.0, 0.0036280551492634296
1299.0, 0.0012657693073813109
1300.0, 0.0012530135801706991
1301.0, 0.0033360179495657465
1302.0, 0.003510317423232877
1303.0, 0.00361652551805766
1304, 0.0
1305, 0.0
1306, 0.0
1307, 0.0
1308, 0.0
1309, 0.0
1310, 0.0
1311, 0.0
1312, 0.0
1313, 0.0
1314, 0.0
1315, 0.0
1316, 0.0
1317, 0.0
1318, 0.0
1319, 0.0
1320, 0.0
1321, 0.0
1322, 0.0
1323, 0.0
1324, 0.0
1325, 0.0
1326, 0.0
1327, 0.0
1328, 0.0
1329, 0.0
1330, 0.0
1331, 0.0
1332, 0.0
1333, 0.0
1334, 0.0
1335, 0.0
1336, 0.0
1337, 0.0
1338, 0.0
1339, 0.0
1340, 0.0
1341, 0.0
1342, 0.0
1343, 0.0
1344, 0.0
1345, 0.0
1346, 0.0
1347, 0.0
1348, 0.0
1349, 0.0
1350, 0.0
1351, 0.0
1352, 0.0
1353, 0.0
1354, 0.0
1355, 0.0
1356, 0.0
1357, 0.0
1358, 0.0
1359, 0.0
1360, 0.0
1361, 0.0
1362, 0.0
1363, 0.0
1364, 0.0
1365, 0.0
1366, 0.0
1367, 0.0
1368, 0.0
1369, 0.0
1370, 0.0
1371, 0.0
1372, 0.0
1373, 0.0
1374, 0.0
1375, 0.0
1376, 0.0
1377, 0.0
1378, 0.0
1379, 0.0
1380, 0.0
1381, 0.0
1382, 0.0
1383, 0.0
1384, 0.0
1385, 0.0
1386, 0.0
1387, 0.0
1388, 0.0
1389, 0.0
1390, 0.0
1391, 0.0
1392, 0.0
1393, 0.0
1394, 0.0
1395, 0.0
1396, 0.0
1397, 0.0
1398, 0.0
1399, 0.0
1400, 0.0
1401, 0.0
1402, 0.0
1403, 0.0
1404, 0.0
1405, 0.0
1406, 0.0
1407, 0.0
1408, 0.0
1409, 0.0
1410, 0.0
1411, 0.0
1412, 0.0
1413, 0.0
1414, 0.0
1415, 0.0
1416, 0.0
1417, 0.0
1418, 0.0
1419, 0.0
1420, 0.0
1421, 0.0
1422, 0.0
1423, 0.0
1424, 0.0
1425, 0.0
1426, 0.0
1427, 0.0
1428, 0.0
1429, 0.0
1430, 0.0
1431, 0.0
1432, 0.0
1433, 0.0
1434, 0.0
1435, 0.0
1436, 0.0
1437, 0.0
1438, 0.0
1439, 0.0
1440, 0.0
1441, 0.0
1442, 0.0
1443, 0.0
1444, 0.0
1445, 0.0
1446, 0.0
1447, 0.0
1448, 0.0
1449, 0.0
1450, 0.0
1451, 0.0
1452, 0.0
1453, 0.0
1454, 0.0
1455, 0.0
1456, 0.0
1457, 0.0
1458, 0.0
1459, 0.0
1460, 0.0
1461, 0.0
1462, 0.0
1463, 0.0
1464, 0.0
1465, 0.0
1466, 0.0
1467, 0.0
1468, 0.0
1469, 0.0
1470, 0.0
1471, 0.0
1472, 0.0
1473, 0.0
1474, 0.0
1475, 0.0
1476, 0.0
1477, 0.0
1478, 0.0
1479, 0.0
1480, 0.0
1481, 0.0
1482, 0.0
1483, 0.0
1484, 0.0
1485, 0.0
1486, 0.0
1487, 0.0
1488, 0.0
1489, 0.0
1490, 0.0
1491, 0.0
1492, 0.0
1493, 0.0
1494, 0.0
1495, 0.0
1496, 0.0
1497, 0.0
1498, 0.0
1499, 0.0
1500, 0.0
1501, 0.0
1502, 0.0
1503, 0.0
1504, 0.0
1505, 0.0
1506, 0.0
1507, 0.0
1508, 0.0
1509, 0.0
1510, 0.0
1511, 0.0
1512, 0.0
1513, 0.0
1514, 0.0
1515, 0.0
1516, 0.0
1517, 0.0
1518, 0.0
1519, 0.0
1520, 0.0
1521, 0.0
1522, 0.0
1523, 0.0
1524, 0.0
1525, 0.0
1526, 0.0
1527, 0.0
1528, 0.0
1529, 0.0
1530, 0.0
1531, 0.0
1532, 0.0
1533, 0.0
1534, 0.0
1535, 0.0
1536, 0.0
1537, 0.0
1538, 0.0
1539, 0.0
1540, 0.0
1541, 0.0
1542, 0.0
1543, 0.0
1544, 0.0
1545, 0.0
1546, 0.0
1547, 0.0
1548, 0.0
1549, 0.0
1550, 0.0
1551, 0.0
1552, 0.0
1553, 0.0
1554, 0.0
1555, 0.0
1556, 0.0
1557, 0.0
1558, 0.0
1559, 0.0
1560, 0.0
1561, 0.0
1562, 0.0
1563, 0.0
1564, 0.0
1565, 0.0
1566, 0.0
1567, 0.0
1568, 0.0
1569, 0.0
1570, 0.0
1571, 0.0
1572, 0.0
1573, 0.0
1574, 0.0
1575, 0.0
1576, 0.0
1577, 0.0
1578, 0.0
1579, 0.0
1580, 0.0
1581, 0.0
1582, 0.0
1583, 0.0
1584, 0.0
1585, 0.0
1586, 0.0
1587, 0.0
1588, 0.0
1589, 0.0
1590, 0.0
1591, 0.0
1592, 0.0
1593, 0.0
1594, 0.0
1595, 0.0
1596, 0.0
1597, 0.0
1598, 0.0
1599, 0.0
