30, 0.0
31, 0.0
32, 0.0
33, 0.0
34, 0.0
35, 0.0
36, 0.0
37, 0.0
38, 0.0
39, 0.0
40, 0.0
41, 0.0
42, 0.0
43, 0.0
44, 0.0
45, 0.0
46, 0.0
47, 0.0
48, 0.0
49, 0.0
50, 0.0
51, 0.0
52, 0.0
53, 0.0
54, 0.0
55, 0.0
56, 0.0
57, 0.0
58, 0.0
59, 0.0
60, 0.0
61, 0.0
62, 0.0
63, 0.0
64, 0.0
65, 0.0
66, 0.0
67, 0.0
68, 0.0
69, 0.0
70, 0.0
71, 0.0
72, 0.0
73, 0.0
74, 0.0
75, 0.0
76, 0.0
77, 0.0
78, 0.0
79, 0.0
80, 0.0
81, 0.0
82, 0.0
83, 0.0
84, 0.0
85, 0.0
86, 0.0
87, 0.0
88, 0.0
89, 0.0
90, 0.0
91, 0.0
92, 0.0
93, 0.0
94, 0.0
95, 0.0
96, 0.0
97, 0.0
98, 0.0
99, 0.0
100, 0.0
101, 0.0
102, 0.0
103, 0.0
104.0, 0.0029484316996076106
105.0, 0.012875583633326207
106.0, 0.025935288968494157
107.0, 0.035782981566153914
108.0, 0.03701115026764808
109.0, 0.027955868164870782
110.0, 0.015693309979908025
111.0, 0.007029954058862146
112.0, 0.0037751795078350163
113.0, 0.005840200374669683
114.0, 0.016339213767135773
115.0, 0.037489263657053025
116.0, 0.05946938124999704
117.0, 0.08452650624866262
118.0, 0.10519156396628528
119.0, 0.1172988609119368
120.0, 0.12355868313051084
121.0, 0.11093168320828413
122.0, 0.09466322703723946
123.0, 0.07028119802824294
124.0, 0.03765890094975418
125.0, 0.01932577008263522
126.0, 0.003951613977316226
127.0, 0.0035798956139440315
128.0, 0.00042472319030905785
129.0, 0.0034744987117531095
130.0, 0.00465377130553062
131.0, 0.005370332220897427
132.0, 0.005269784525793774
133.0, 0.0011043243269302045
134.0, 0.00307449686350983
135.0, 0.0040873858911209225
136.0, 0.0061823996261296315
137.0, 0.017670818673023326
138.0, 0.03298741513985503
139.0, 0.04709143787628361
140.0, 0.05286761362332943
141.0, 0.049482523906248035
142.0, 0.05206641622590798
143.0, 0.06002877326034359
144.0, 0.06503622831881303
145.0, 0.06549336226369828
146.0, 0.0694957229921322
147.0, 0.07213143401721296
148.0, 0.07061377532340016
149.0, 0.06815541205366728
150.0, 0.07283233196828934
151.0, 0.0712439519148863
152.0, 0.06845172174933647
153.0, 0.06679915518055897
154.0, 0.06878231935204482
155.0, 0.08214145450548913
156.0, 0.08994460435542512
157.0, 0.0935443432956246
158.0, 0.1010643821694909
159.0, 0.11220491833502115
160.0, 0.11304729283328879
161.0, 0.10630234620269896
162.0, 0.10102045025085594
163.0, 0.10413141812399071
164.0, 0.10457042610053184
165.0, 0.11135314769842503
166.0, 0.1276238392041238
167.0, 0.15082042442526522
168.0, 0.17431265762575832
169.0, 0.2017718201317679
170.0, 0.22774643189816135
171.0, 0.24987999753944776
172.0, 0.27720228197393665
173.0, 0.305901543558884
174.0, 0.3336006051100715
175.0, 0.3617741999717757
176.0, 0.3936468169202918
177.0, 0.4312293805869399
178.0, 0.47457038278623365
179.0, 0.5198308843932461
180.0, 0.5666350509598483
181.0, 0.6257643477083815
182.0, 0.6834716279971205
183.0, 0.7486702065289736
184.0, 0.8219166568663836
185.0, 0.8842504782489959
186.0, 0.946301144400826
187.0, 0.9890298670420652
188.0, 0.999994673698426
189.0, 0.9757722451821921
190.0, 0.9135834694596434
191.0, 0.8316862346476158
192.0, 0.7381587724728811
193.0, 0.6408059121894643
194.0, 0.5536025270375222
195.0, 0.4744124154777453
196.0, 0.4096306499126721
197.0, 0.35934810704980097
198.0, 0.317418816174539
199.0, 0.28421973750056656
200.0, 0.2589108043215698
201.0, 0.23788931705858885
202.0, 0.21754761280830806
203.0, 0.20230826842470373
204.0, 0.19387214651019355
205.0, 0.18468036683504613
206.0, 0.17130267853140252
207.0, 0.16241658514058083
208.0, 0.15800824721614123
209.0, 0.1567004010153489
210.0, 0.155144901251629
211.0, 0.14956928917245987
212.0, 0.13750366806688571
213.0, 0.13013008105650092
214.0, 0.12403871710821732
215.0, 0.11256645619904142
216.0, 0.09733621002036484
217.0, 0.0888279478050163
218.0, 0.08348484827085402
219.0, 0.07885823159614015
220.0, 0.07448571634604043
221.0, 0.0681786751409922
222.0, 0.06221691700781545
223.0, 0.06241431732164115
224.0, 0.0666068939542587
225.0, 0.06088534004432999
226.0, 0.06350647656288541
227.0, 0.06457434886603369
228.0, 0.06088569436381841
229.0, 0.058403537230135284
230.0, 0.057755647466437895
231.0, 0.06170398978168927
232.0, 0.06359338037570486
233.0, 0.06059918483933969
234.0, 0.059486588570558496
235.0, 0.06524211468176593
236.0, 0.06814069913762498
237.0, 0.06676399739183378
238.0, 0.06571240025901778
239.0, 0.06636485526871028
240.0, 0.07229160297993664
241.0, 0.07568380023532259
242.0, 0.07227589382893222
243.0, 0.06798332984239845
244.0, 0.07052783041743382
245.0, 0.07349165995927188
246.0, 0.0731430934024473
247.0, 0.07119229919734367
248.0, 0.08028109411057789
249.0, 0.07806132196005187
250.0, 0.06732443729044874
251.0, 0.05957150792379606
252.0, 0.05694422228530893
253.0, 0.048220186437172255
254.0, 0.03999762524916916
255.0, 0.031235239530082285
256.0, 0.02071560559966499
257.0, 0.017555528710095802
258.0, 0.00596931609566685
259.0, 0.0017518371371588646
260.0, 0.004703108339371242
261.0, 0.003155302338876439
262.0, 0.007000727445923679
263.0, 0.004707025794783339
264.0, 0.015484121284870946
265.0, 0.014337606686123286
266.0, 0.01709497189676294
267.0, 0.01690805533122586
268.0, 0.01596130831087508
269.0, 0.014504799158585855
270.0, 0.011316318212013385
271.0, 0.010130881494605852
272.0, 0.004471082835299019
273.0, 0.0028501823568643763
274.0, 0.006547738317545475
275.0, 0.00401139210596316
276.0, 0.005826517401126518
277.0, 0.012850439548092514
278.0, 0.022889021205472496
279.0, 0.03192692793480663
280.0, 0.0354403147097235
281.0, 0.040409785709906366
282.0, 0.049148192057009876
283.0, 0.059975809987188454
284.0, 0.07027029454181347
285.0, 0.07850773753702531
286.0, 0.08395327403899552
287.0, 0.0953103847828071
288.0, 0.10929209218084322
289.0, 0.1134114880539046
290.0, 0.1229932515165681
291.0, 0.1323804995706037
292.0, 0.13814194544382502
293.0, 0.14279205619178004
294.0, 0.15123179539131373
295.0, 0.14936793490146288
296.0, 0.14972763054478894
297.0, 0.15076603862309224
298.0, 0.14766371531713862
299.0, 0.15247290745731776
300.0, 0.15623988161295838
301.0, 0.15415704661048507
302.0, 0.15380289659418733
303.0, 0.16262048790771128
304.0, 0.16059051484681577
305.0, 0.1637577237585893
306.0, 0.16663940212840345
307.0, 0.16283523534770367
308.0, 0.15429067285135825
309.0, 0.14808549636676502
310.0, 0.13960050438807836
311.0, 0.12972066821984485
312.0, 0.11909595333427393
313.0, 0.10483050349142735
314.0, 0.09889708980794672
315.0, 0.0940846136703477
316.0, 0.0887759407926381
317.0, 0.08559544640798267
318.0, 0.08417083102470858
319.0, 0.07826523464585997
320.0, 0.07459279074713589
321.0, 0.07119025936077027
322.0, 0.06294214770538258
323.0, 0.05829051257571805
324.0, 0.06136488145705983
325.0, 0.06433167416069148
326.0, 0.06334905724695414
327.0, 0.061570967130374486
328.0, 0.06612136247379703
329.0, 0.07494207498232894
330.0, 0.08159569346999763
331.0, 0.08657935326751987
332.0, 0.09557214988559241
333.0, 0.1055697278653191
334.0, 0.11191095554721786
335.0, 0.11242784627052947
336.0, 0.1100507631206336
337.0, 0.11186793363232878
338.0, 0.10395148819446602
339.0, 0.09437935182149665
340.0, 0.08379215679387839
341.0, 0.0741950126869046
342.0, 0.07174562148648495
343.0, 0.06076126436418094
344.0, 0.050596162511625145
345.0, 0.04138573379294537
346.0, 0.03231744630775753
347.0, 0.030285768676917284
348.0, 0.027404744459505578
349.0, 0.02125346177287516
350.0, 0.017253883921993937
351.0, 0.019701591015803512
352.0, 0.023497378266741933
353.0, 0.020040892006656243
354.0, 0.015907299614030472
355.0, 0.015487985845905316
356.0, 0.01771767255601529
357.0, 0.01778933476508813
358.0, 0.02082773670224325
359.0, 0.027389485334953348
360.0, 0.03287459110486782
361.0, 0.03552573473011794
362.0, 0.04171779215143597
363.0, 0.045875841776895555
364.0, 0.05596475532827887
365.0, 0.06745911745861356
366.0, 0.07617197842492136
367.0, 0.09380365081799304
368.0, 0.10950414157617276
369.0, 0.1288236784528141
370.0, 0.14648115089591948
371.0, 0.15837576780899404
372.0, 0.17824313436940437
373.0, 0.19568195712479025
374.0, 0.21517368803818931
375.0, 0.23640704597129752
376.0, 0.2575166599699204
377.0, 0.2858928538966449
378.0, 0.3120922227934409
379.0, 0.3463820386536975
380.0, 0.38870497933526343
381.0, 0.43179827035755286
382.0, 0.4708741366251423
383.0, 0.5092551447451652
384.0, 0.5454914828012731
385.0, 0.5743264833501911
386.0, 0.5839060422777527
387.0, 0.5630672137865158
388.0, 0.5268864380672518
389.0, 0.4821323796386263
390.0, 0.42919461485788146
391.0, 0.37286700192442856
392.0, 0.3242142662215835
393.0, 0.279608803742546
394.0, 0.25153483498780904
395.0, 0.23449229803207555
396.0, 0.22206054162489614
397.0, 0.21781442420062677
398.0, 0.20650845431013937
399.0, 0.2040880747272566
400.0, 0.2074534030200031
401.0, 0.20694585772897328
402.0, 0.19966028609714584
403.0, 0.20043735104788707
404.0, 0.20360137861982966
405.0, 0.19940456543813972
406.0, 0.19189340868665952
407.0, 0.1918849121235589
408.0, 0.17815975061884515
409.0, 0.16934348547442782
410.0, 0.16250010422926975
411.0, 0.1526940916999807
412.0, 0.14089865937712842
413.0, 0.13034666063847442
414.0, 0.11976004774239012
415.0, 0.10502425609856862
416.0, 0.09026599678064243
417.0, 0.08248039681411443
418.0, 0.07677144826147948
419.0, 0.06787020380709838
420.0, 0.05611226143953989
421.0, 0.04515212009888681
422.0, 0.03869398887509629
423.0, 0.03336975389658039
424.0, 0.030063454880538795
425.0, 0.022400152283930736
426.0, 0.01302188597952231
427.0, 0.00850589059379077
428.0, 0.00683398964167116
429.0, 0.0009364481228531277
430.0, 0.0025297852569802826
431.0, 0.0036197077106936404
432.0, 0.005568152276395719
433.0, 0.008749933699750169
434.0, 0.008234036335403329
435.0, 0.007270422067985417
436.0, 0.0033808996451485007
437.0, 0.001605143972877315
438.0, 0.007057664516053496
439.0, 0.006712598374604243
440.0, 0.0023667117655953914
441.0, 0.0005956672122758551
442.0, 0.004534652693170084
443.0, 0.010972395698380261
444.0, 0.012115183071739966
445.0, 0.0031442713181395543
446.0, 0.0046987304350774636
447.0, 0.012245419352669375
448.0, 0.015323781111497514
449.0, 0.011716322333252637
450.0, 0.010298527491438936
451.0, 0.010800985104028299
452.0, 0.010182945338459372
453.0, 0.007960207481140028
454.0, 0.005053559908731494
455.0, 0.00075361229217373
456.0, 0.0045549223158128215
457.0, 0.005512927077162257
458.0, 0.002834118272045944
459.0, 0.00012935793106592865
460.0, 0.0058698688519584485
461.0, 0.012173538875165637
462.0, 0.005756749502557419
463.0, 0.002297165512044106
464.0, 0.007181540342655239
465.0, 0.002742981200065502
466.0, 0.003962517926398129
467.0, 0.0012372505686751806
468.0, 0.0022784857498457877
469.0, 0.0033386535558689525
470.0, 0.006904603600190265
471.0, 0.008423854360015378
472.0, 0.007412187065391608
473.0, 0.01123290570961544
474.0, 0.01658424805603186
475.0, 0.019115278968259784
476.0, 0.022538920552996097
477.0, 0.029240847885189852
478.0, 0.031124700589133626
479.0, 0.0367815578362442
480.0, 0.049341855067348284
481.0, 0.058754701749125095
482.0, 0.06176958967674134
483.0, 0.0744596027441738
484.0, 0.08447215940626598
485.0, 0.09315297028191297
486.0, 0.10374374733271018
487.0, 0.1088219340425743
488.0, 0.10855203859990706
489.0, 0.10744983035670284
490.0, 0.09759403523868554
491.0, 0.08356127750128205
492.0, 0.07576761641392929
493.0, 0.060129166515802475
494.0, 0.048578343495207815
495.0, 0.03970313631208307
496.0, 0.03437237687098799
497.0, 0.030799825105712938
498.0, 0.023279054495099583
499.0, 0.018408245470262354
500.0, 0.021159563558420153
501.0, 0.02088210049164061
502.0, 0.01906791786611822
503.0, 0.02050301031713471
504.0, 0.020469565192818458
505.0, 0.018849403854732414
506.0, 0.02190792681614441
507.0, 0.02692419673488897
508.0, 0.027857363147873456
509.0, 0.02487102809777399
510.0, 0.03063675879358847
511.0, 0.03958305386770923
512.0, 0.046151466230650064
513.0, 0.048328612153317525
514.0, 0.05162934899989786
515.0, 0.06376825202810059
516.0, 0.06767712948301363
517.0, 0.07258247092121828
518.0, 0.07983611668433475
519.0, 0.09066637018876418
520.0, 0.10350423063502699
521.0, 0.10636542033092541
522.0, 0.11109786699481419
523.0, 0.12306267133013107
524.0, 0.12936880505451426
525.0, 0.13403179367616336
526.0, 0.1522843109683145
527.0, 0.16133358471749248
528.0, 0.1653747126179135
529.0, 0.1718318476818749
530.0, 0.18151868765923562
531.0, 0.19130969344095206
532.0, 0.19892949480976532
533.0, 0.20789635742224194
534.0, 0.21840578797941695
535.0, 0.22688508183806025
536.0, 0.23340012075313682
537.0, 0.24294260750963775
538.0, 0.2629435557056343
539.0, 0.2654093795466323
540.0, 0.2893561287365325
541.0, 0.3017018849986693
542.0, 0.3024042067065247
543.0, 0.3177306536336813
544.0, 0.3301697057380235
545.0, 0.34607507773636026
546.0, 0.35419037256947045
547.0, 0.36368502278539255
548.0, 0.37872671807468644
549.0, 0.3918628161345481
550.0, 0.3963299858403678
551.0, 0.4019927214332637
552.0, 0.39975977856547257
553.0, 0.40314282809548935
554.0, 0.41099833883376136
555.0, 0.400169375694231
556.0, 0.3985007017481255
557.0, 0.3888083152330964
558.0, 0.3723969533600183
559.0, 0.35229526479593537
560.0, 0.32968251713168445
561.0, 0.3065721693887366
562.0, 0.2905640551093965
563.0, 0.26697964158147147
564.0, 0.24494009669591613
565.0, 0.22749484702366696
566.0, 0.2106029389519865
567.0, 0.19177560154501982
568.0, 0.17965823189052854
569.0, 0.16773526406533773
570.0, 0.15119203524218533
571.0, 0.1385710513882671
572.0, 0.13474053189269936
573.0, 0.12799811665793046
574.0, 0.12045924065393115
575.0, 0.11536831180173261
576.0, 0.10716714908020636
577.0, 0.09892790814183526
578.0, 0.09478167154474493
579.0, 0.09332232116712341
580.0, 0.08842064434320465
581.0, 0.0797532310946335
582.0, 0.07676980668335531
583.0, 0.07544795897292624
584.0, 0.07007655636482735
585.0, 0.06576211147964876
586.0, 0.06345955452041743
587.0, 0.06120940455841456
588.0, 0.059175275834564174
589.0, 0.05798455668256391
590.0, 0.05639217269316536
591.0, 0.05238872534771374
592.0, 0.04909940772735158
593.0, 0.05060440928459329
594.0, 0.05071321617543699
595.0, 0.04777690834109791
596.0, 0.044587079693366526
597.0, 0.04433686358816475
598.0, 0.04309820838399726
599.0, 0.04415529408369339
600.0, 0.04446316081378726
601.0, 0.04503548567035876
602.0, 0.04564595845130359
603.0, 0.04472483034555351
604.0, 0.045217292368459464
605.0, 0.04650064907674257
606.0, 0.04479219463466088
607.0, 0.045854699339001305
608.0, 0.04751162053142405
609.0, 0.044301725656951986
610.0, 0.04617539480618482
611.0, 0.043672246512930876
612.0, 0.03781244836912896
613.0, 0.03442803913794183
614.0, 0.029482834238414465
615.0, 0.021264891059858244
616.0, 0.018289424439260578
617.0, 0.009278329839800138
618.0, 0.006172260954739587
619.0, 0.0018421837977579394
620.0, 0.0019602622805600083
621.0, 0.004840769426296551
622.0, 0.012877100803128708
623.0, 0.00871357205249486
624.0, 0.005342847914486171
625.0, 0.0050195949676408785
626.0, 0.0074416698596117955
627.0, 0.008803128613586819
628.0, 0.00745616190716568
629.0, 0.010845766751747667
630.0, 0.003401555905254104
631.0, 0.001934871218610394
632.0, 0.0006539002990765207
633.0, 0.001432645372728429
634.0, 0.0018283521755327438
635.0, 0.006453617497906423
636.0, 0.0072913028039947965
637.0, 0.011291187722024067
638.0, 0.016566909138481408
639.0, 0.02037897449577115
640.0, 0.02238402200200608
641.0, 0.023454233214227464
642.0, 0.024241298187811913
643.0, 0.03155512940259884
644.0, 0.03717386194475139
645.0, 0.040371293248309695
646.0, 0.04386197888363559
647.0, 0.048184796021029756
648.0, 0.05290714429518187
649.0, 0.06511260581791674
650.0, 0.0705903573173428
651.0, 0.07828533010035893
652.0, 0.0914337286739335
653.0, 0.10909966312960151
654.0, 0.13050204169786597
655.0, 0.1460616492849598
656.0, 0.16505526484970176
657.0, 0.1929301478057004
658.0, 0.22195996786100924
659.0, 0.2569545924805193
660.0, 0.29780348325331696
661.0, 0.3265483979289622
662.0, 0.37710093932763944
663.0, 0.40839230999790493
664.0, 0.4516330744861309
665.0, 0.508860906071824
666.0, 0.5659422770187253
667.0, 0.6266281445659336
668.0, 0.6884635919132097
669.0, 0.7490080585473021
670.0, 0.7912419496284095
671.0, 0.8326931623634417
672.0, 0.8567056020839148
673.0, 0.8442087683970134
674.0, 0.8204521023205319
675.0, 0.7837811718460975
676.0, 0.7344106185108393
677.0, 0.6771220977488193
678.0, 0.617924908761419
679.0, 0.5621319769123744
680.0, 0.5130429942082505
681.0, 0.47001341917451994
682.0, 0.4235772358567383
683.0, 0.39574585363218956
684.0, 0.3601761897994539
685.0, 0.32828197081189114
686.0, 0.3058608943691802
687.0, 0.2697685125694923
688.0, 0.24875991552789678
689.0, 0.21931780811769655
690.0, 0.19412653494763957
691.0, 0.1689942209615435
692.0, 0.1432960338733516
693.0, 0.12398802429651341
694.0, 0.11246016300680046
695.0, 0.10127294713419788
696.0, 0.08792807208421041
697.0, 0.07671935643495735
698.0, 0.06867648487604486
699.0, 0.05923609822476483
700.0, 0.0481226118775983
701.0, 0.04326059072387885
702.0, 0.03461127068243221
703.0, 0.03319309388688884
704.0, 0.029103429637719558
705.0, 0.023222312287129437
706.0, 0.02038713889870099
707.0, 0.02186301943542195
708.0, 0.023110281195770098
709.0, 0.013704510443542992
710.0, 0.010790303161576533
711.0, 0.006692240247076319
712.0, 0.007437005555035434
713.0, 0.00837667955076852
714.0, 0.003900642344220432
715.0, 0.0038731425516882302
716.0, 0.0008518682949532402
717.0, 0.0033611929774614822
718.0, 0.0047157440980969256
719.0, 0.004398394077837398
720.0, 0.0021147051895238885
721.0, 0.0004062914093493964
722.0, 0.002368100894190107
723.0, 0.0031126263803951818
724.0, 0.000772581300044844
725.0, 0.002841891113248459
726.0, 0.004834331063098585
727.0, 0.006976538861335992
728.0, 0.009935201894666618
729.0, 0.013398127936313307
730.0, 0.014436436086610015
731.0, 0.023139666761474907
732.0, 0.028745016267266874
733.0, 0.033344577417454974
734.0, 0.035195165913926546
735.0, 0.035434479949418216
736.0, 0.046462990199877284
737.0, 0.055824511159985414
738.0, 0.05835760061280774
739.0, 0.06484329500101631
740.0, 0.07482618948380976
741.0, 0.08291510297717772
742.0, 0.08926970538758759
743.0, 0.09928335444794181
744.0, 0.10759677153887387
745.0, 0.10794793394321323
746.0, 0.10594153681748004
747.0, 0.10520152271305308
748.0, 0.09666589233606611
749.0, 0.08353956087989554
750.0, 0.07458537630141913
751.0, 0.06186098855312267
752.0, 0.05531788649809467
753.0, 0.04807434407519716
754.0, 0.040598521955839885
755.0, 0.033975792822370225
756.0, 0.026177790705082273
757.0, 0.018479234233996125
758.0, 0.01517533094921241
759.0, 0.015041187293577611
760.0, 0.010946920974398224
761.0, 0.010181153563452009
762.0, 0.008793582663773846
763.0, 0.009185306345881652
764.0, 0.0102091205840449
765.0, 0.006938197616430402
766.0, 0.006117769513776082
767.0, 0.004110078539436326
768.0, 0.0017209395943709868
769.0, 0.0027942945513436505
770.0, 0.004957863511984323
771.0, 0.0049495007069988856
772.0, 0.0030657916263990294
773.0, 0.004036465536027027
774.0, 0.007656591998966778
775.0, 0.0053000453683682315
776.0, 0.005111537749729723
777.0, 0.005982313739609842
778.0, 0.007092148262328313
779.0, 0.008334316416038687
780.0, 0.008033032490794375
781.0, 0.010606953086834332
782.0, 0.017216032290945087
783.0, 0.01671165343296771
784.0, 0.018168316859700447
785.0, 0.021280431179119118
786.0, 0.024689587813867472
787.0, 0.0288506790153753
788.0, 0.031200538512996753
789.0, 0.028347323201198
790.0, 0.025357371349272063
791.0, 0.02614974834609331
792.0, 0.020113319976263422
793.0, 0.016443010920458218
794.0, 0.016125750237095227
795.0, 0.012694545339371045
796.0, 0.013137028435140368
797.0, 0.01888290529219098
798.0, 0.015976855129670973
799.0, 0.01734739423906292
800.0, 0.017992487547608682
801.0, 0.016334308140393723
802.0, 0.013926532943480834
803.0, 0.010659485172465634
804.0, 0.011095648977990131
805.0, 0.013216138896431827
806.0, 0.01511140759931791
807.0, 0.010603094625919122
808.0, 0.009500352649543046
809.0, 0.007870231772509909
810.0, 0.0033999967836366336
811.0, 0.005285760207829832
812.0, 0.007899054323011044
813.0, 0.0033357707181067247
814.0, 0.0045046814583417005
815.0, 0.003530002831268096
816.0, 0.00702731348336233
817.0, 0.006915872544282031
818.0, 0.0004556416108385076
819.0, 0.0003883183091800195
820.0, 0.0052086803381564606
821.0, 0.0006207088709656006
822.0, 0.003846158986470015
823.0, 0.002521853241721993
824.0, 0.002869170371696023
825.0, 0.0024332381910521263
826.0, 0.00023622813010767724
827.0, 0.0012978532804632285
828.0, 0.0024290846663240937
829.0, 0.002382852387471792
830.0, 0.0028975225065182323
831.0, 0.0061268003497637075
832.0, 0.004888342265223238
833.0, 0.006937389936129203
834.0, 0.011786327237303978
835.0, 0.011917028327807246
836.0, 0.007667477782182838
837.0, 0.00974297916013745
838.0, 0.011831217079142246
839.0, 0.006333357396111024
840.0, 0.008474985337114814
841.0, 0.011042074957536101
842.0, 0.009624794148929708
843.0, 0.008655377721360411
844.0, 0.007443237800388592
845.0, 0.014895764787500428
846.0, 0.017554363319769017
847.0, 0.01658346061739349
848.0, 0.01594936637505738
849.0, 0.016271296126261492
850.0, 0.01994763686436366
851.0, 0.023990359642947903
852.0, 0.02291219154535516
853.0, 0.021229280262021904
854.0, 0.028400354406200794
855.0, 0.027772647586805695
856.0, 0.026229204011879732
857.0, 0.02570659106375465
858.0, 0.029023233799450508
859.0, 0.0333791209338291
860.0, 0.03338736496064852
861.0, 0.032895376694709114
862.0, 0.03639512885929212
863.0, 0.0413536494985538
864.0, 0.04480633132237443
865.0, 0.04098645142766101
866.0, 0.03568872938616834
867.0, 0.03621116862234572
868.0, 0.041664428490767146
869.0, 0.04524467027291967
870.0, 0.04481356120837242
871.0, 0.0467847351239623
872.0, 0.050439977519279
873.0, 0.05239188062944435
874.0, 0.045881283400100475
875.0, 0.044704737424065034
876.0, 0.05412042251383739
877.0, 0.059392566334745545
878.0, 0.05301373614069554
879.0, 0.054461721169914164
880.0, 0.059387248797731086
881.0, 0.05608932012989457
882.0, 0.05264735941899052
883.0, 0.057333731968191595
884.0, 0.056180166999184114
885.0, 0.0529927029561725
886.0, 0.056294901709223556
887.0, 0.054404201418973445
888.0, 0.05359249018219602
889.0, 0.04811580705665238
890.0, 0.04574712180538279
891.0, 0.04340787238705186
892.0, 0.05010017396353788
893.0, 0.04889665223155466
894.0, 0.037291286581574254
895.0, 0.030105322597391546
896.0, 0.028914989900801172
897.0, 0.026511484755410326
898.0, 0.025630722595964286
899.0, 0.019310056864257952
900.0, 0.0195008016821307
901.0, 0.014726557160836467
902.0, 0.013364676283912967
903.0, 0.016926681977487503
904.0, 0.017058847571050736
905.0, 0.01546242549241708
906.0, 0.011075019009488728
907.0, 0.009079724458416103
908.0, 0.010838465082299313
909.0, 0.015686344565957053
910.0, 0.014219000069484677
911.0, 0.009923498309520447
912.0, 0.008223320761485065
913.0, 0.011490267500528449
914.0, 0.015674986050536573
915.0, 0.010974776740627457
916.0, 0.01007833436380217
917.0, 0.01067815226458937
918.0, 0.008222056713376351
919.0, 0.0040436463331993255
920.0, 0.0014238007391634735
921.0, 0.005103932057952369
922.0, 0.010798984908596172
923.0, 0.008424348331604423
924.0, 0.0013351026571765943
925.0, 0.0004706171848289785
926.0, 0.004866450570532971
927.0, 0.003897713698001823
928.0, 0.0022826095666761527
929.0, 0.0013804485043699053
930.0, 0.0011266274451443127
931.0, 0.001734162864735834
932.0, 0.002558166799408036
933.0, 0.0011367611554582867
934.0, 0.0030965740632208755
935.0, 0.0035397085909462857
936.0, 0.0017143084480732806
937.0, 0.000523944470194813
938.0, 0.0002225094012922233
939.0, 0.001731555666777927
940.0, 0.0010381884769730507
941.0, 0.0005768062644060266
942.0, 0.0027322238004887167
943.0, 0.0006138711582056502
944.0, 0.00027644252268882994
945.0, 0.00470124984739699
946.0, 0.0025826828803228157
947.0, 0.0007895953950863015
948.0, 0.001621506349392973
949.0, 0.005183857414280272
950.0, 0.0038333896277240676
951.0, 0.0014980218758443209
952.0, 0.0014763324586266455
953.0, 0.0006593343856066547
954.0, 0.0041962593718734165
955.0, 0.00976020780042794
956.0, 0.005597138953690298
957.0, 0.0010684052344360063
958.0, 0.005869953405603164
959.0, 0.009598579697860281
960.0, 0.009775439893912908
961.0, 0.011705578802962148
962.0, 0.016426208979706612
963.0, 0.017483781024594414
964.0, 0.014367263623396293
965.0, 0.015414143010044722
966.0, 0.012859509236205867
967.0, 0.014450968641320361
968.0, 0.018691358938960546
969.0, 0.019300726142353005
970.0, 0.016560766756155858
971.0, 0.014731353923094095
972.0, 0.017552481916730773
973.0, 0.020779253627467683
974.0, 0.018729762262297042
975.0, 0.021438156166178075
976.0, 0.020382031005203537
977.0, 0.025847860464203076
978.0, 0.03087836765443422
979.0, 0.034717380648726245
980.0, 0.04104285877548756
981.0, 0.04442626016928683
982.0, 0.04805713665217657
983.0, 0.05411210289633997
984.0, 0.055970855027393025
985.0, 0.06267958074284224
986.0, 0.06524792465195171
987.0, 0.07221354988630488
988.0, 0.07980702489884894
989.0, 0.08130026304414384
990.0, 0.07903893538166565
991.0, 0.07771781641053292
992.0, 0.07464466738683785
993.0, 0.0729501028488677
994.0, 0.07155474501645111
995.0, 0.05977516349644317
996.0, 0.04643545933649152
997.0, 0.03679752412963947
998.0, 0.029054676332895546
999.0, 0.02012005866609659
1000.0, 0.01033794559235326
1001.0, 0.008391100301730594
1002.0, 0.0046003162303050885
1003.0, 0.002458305849047007
1004.0, 0.004328108149107949
1005.0, 0.0021861700815451615
1006.0, 0.0017749763600875292
1007.0, 0.0029661010755397273
1008.0, 0.0008979758357745815
1009.0, 0.0024825671765940573
1010.0, 0.009497520931506959
1011.0, 0.015691242660420886
1012.0, 0.01782009171898256
1013.0, 0.019676789976882027
1014.0, 0.024334390111660435
1015.0, 0.030463709385135904
1016.0, 0.03394831900469815
1017.0, 0.0371518797398453
1018.0, 0.04587398528650889
1019.0, 0.05112989573642389
1020.0, 0.06015720704762425
1021.0, 0.069458345066849
1022.0, 0.07620965618894898
1023.0, 0.07682507623016663
1024.0, 0.07988254406523934
1025.0, 0.08813809671459423
1026.0, 0.09437181555591616
1027.0, 0.09992395604236612
1028.0, 0.10846353654734901
1029.0, 0.11020560761498666
1030.0, 0.11496625584723165
1031.0, 0.11351786899604598
1032.0, 0.1132682084697216
1033.0, 0.11525802286791831
1034.0, 0.11435031946748955
1035.0, 0.10644400408068863
1036.0, 0.1000241278532302
1037.0, 0.09647163841662353
1038.0, 0.09573347800105357
1039.0, 0.09341284743325726
1040.0, 0.084803758409218
1041.0, 0.07981301532662202
1042.0, 0.08134624419892524
1043.0, 0.0765322958478636
1044.0, 0.07440608711865164
1045.0, 0.06743194129327323
1046.0, 0.06449086130783899
1047.0, 0.05656462214096093
1048.0, 0.056611284283059206
1049.0, 0.05752119884856277
1050.0, 0.05238594882183966
1051.0, 0.04997270975823931
1052.0, 0.05177266322596276
1053.0, 0.04837851941192063
1054.0, 0.03910993726014711
1055.0, 0.03534856179262895
1056.0, 0.03224300401039183
1057.0, 0.025451176356504436
1058.0, 0.024227549685076975
1059.0, 0.021368247150397802
1060.0, 0.014105339391259953
1061.0, 0.00966987665445265
1062.0, 0.009772855252605302
1063.0, 0.011396028941173846
1064.0, 0.010213384054466887
1065.0, 0.006641322617849786
1066.0, 0.005865767366822325
1067.0, 0.004269834538259269
1068.0, 0.0027348939801417212
1069.0, 0.0014155633706111057
1070.0, 0.0017684531190025753
1071.0, 0.0007757059167352712
1072.0, 0.002675408921741343
1073.0, 0.005365355164785913
1074.0, 0.002208264011406473
1075.0, 0.003958790912356135
1076.0, 0.005119235001258159
1077.0, 0.0007671820270360845
1078.0, 0.0026419301959073006
1079.0, 0.006565188559883541
1080.0, 0.01505758399233657
1081.0, 0.014164831189514466
1082.0, 0.02133775408920564
1083.0, 0.022764896648589425
1084.0, 0.02811241758858674
1085.0, 0.029189444583426982
1086.0, 0.035609520540686605
1087.0, 0.04249502659326661
1088.0, 0.05256753030222189
1089.0, 0.05824624030388061
1090.0, 0.06069748799762378
1091.0, 0.0676128961650281
1092.0, 0.07008937606163862
1093.0, 0.07540132773500893
1094.0, 0.08799422779886172
1095.0, 0.08925104212558492
1096.0, 0.09520379152524108
1097.0, 0.10526227928260287
1098.0, 0.11242806338711162
1099.0, 0.11360694980279001
1100.0, 0.1210261214643217
1101.0, 0.1265092803170241
1102.0, 0.1320983168980017
1103.0, 0.13914674100380808
1104.0, 0.1439489859702508
1105.0, 0.14629286668201594
1106.0, 0.1475649018169302
1107.0, 0.15425695880452164
1108.0, 0.15859704293337776
1109.0, 0.16287030067605454
1110.0, 0.15750312050691687
1111.0, 0.16120351684826997
1112.0, 0.16384401385997538
1113.0, 0.16484644278847413
1114.0, 0.1635467140891081
1115.0, 0.1635529062883206
1116.0, 0.1654347634275792
1117.0, 0.16835100167545014
1118.0, 0.16977705273466948
1119.0, 0.1708527288985028
1120.0, 0.17266556371269653
1121.0, 0.16892476547738988
1122.0, 0.1710572954493496
1123.0, 0.1726985250407836
1124.0, 0.1722920319067882
1125.0, 0.17206986455756643
1126.0, 0.17345322226201787
1127.0, 0.17016778800922805
1128.0, 0.1675473228162283
1129.0, 0.16737241929409147
1130.0, 0.16592877710553097
1131.0, 0.16536888137389022
1132.0, 0.16446128498918242
1133.0, 0.15930873232814843
1134.0, 0.15129741479262437
1135.0, 0.14363053894446987
1136.0, 0.13605144212503373
1137.0, 0.12844746595871484
1138.0, 0.12084894307353304
1139.0, 0.11622503500560653
1140.0, 0.11079923972875576
1141.0, 0.10506583067807353
1142.0, 0.10682618746760528
1143.0, 0.09682509983609099
1144.0, 0.09345759488163823
1145.0, 0.08926005454945439
1146.0, 0.08316979125640009
1147.0, 0.07980181599168883
1148.0, 0.0771557272733579
1149.0, 0.07574890302367239
1150.0, 0.07370309887461741
1151.0, 0.06770375760816265
1152.0, 0.0619827466427118
1153.0, 0.056359064913857164
1154.0, 0.053079924369047536
1155.0, 0.05145222404698924
1156.0, 0.04414219869604954
1157.0, 0.03967191462173307
1158.0, 0.03886638550914982
1159.0, 0.038570533018692205
1160.0, 0.03244977232339572
1161.0, 0.03362776579069276
1162.0, 0.0273436078705162
1163.0, 0.02487940197024373
1164.0, 0.025994563129582305
1165.0, 0.023238515100354958
1166.0, 0.020224144953717955
1167.0, 0.01899375206877526
1168.0, 0.01750200999277963
1169.0, 0.016615500258623805
1170.0, 0.014773070427249275
1171.0, 0.010470732427447067
1172.0, 0.012887812080959337
1173.0, 0.007774963246962991
1174.0, 0.010436875998584418
1175.0, 0.010915215854728672
1176.0, 0.008363552170164849
1177.0, 0.004635407457845248
1178.0, 0.0039619372483581375
1179.0, 0.005363249979796431
1180.0, 0.003876535900189856
1181.0, 0.0028593265919533784
1182.0, 0.0024092655250185567
1183.0, 0.0030678235869412186
1184.0, 0.0027991434244696765
1185.0, 0.001990761446230808
1186.0, 0.0035308115365255315
1187.0, 0.0013014439591784277
1188.0, 0.0008638238561211517
1189.0, 0.00207525113059506
1190.0, 0.003483393889738008
1191.0, 0.002061267792364289
1192.0, 0.002044564183547541
1193.0, 0.00047314339826993177
1194.0, 0.0007995883106855798
1195.0, 0.001968363236646332
1196.0, 0.001111662953503349
1197.0, 0.002878200384248264
1198.0, 0.0037815217950165968
1199.0, 0.0006563983478336044
1200.0, 0.0005789841142921277
1201.0, 0.0029825345066483667
1202.0, 0.004678834141539655
1203.0, 0.0015980770142893503
1204.0, 0.0016233637442148304
1205.0, 0.0008083143906604092
1206.0, 0.006114159304788222
1207.0, 0.01250054528290751
1208.0, 0.0050657773115577575
1209.0, 0.0008054589942002369
1210.0, 0.0005948098489846298
1211.0, 0.004542371951707618
1212.0, 0.002949003135982876
1213.0, 0.003078125567930252
1214.0, 0.0005733356897395074
1215.0, 0.00033565011917368676
1216.0, 0.0013241396264391666
1217.0, 0.00040063018484072787
1218.0, 0.0013729642258428175
1219.0, 0.0005593457119967847
1220.0, 0.001152158532490675
1221.0, 0.0006294958857526365
1222.0, 0.0016196575152702302
1223.0, 0.0007794283324404467
1224.0, 0.002260720767122483
1225.0, 0.0002667651598867412
1226.0, 0.0027083635828778004
1227.0, 0.0023778871840828926
1228.0, 0.000831753406601745
1229.0, 5.5231807885925286e-05
1230.0, 0.0012693061600544257
1231.0, 0.0059262779596715165
1232.0, 0.004806887953292135
1233.0, 0.0015742989841083304
1234.0, 0.007445612444782122
1235.0, 0.004182188416162296
1236.0, 0.007483764050706332
1237.0, 0.005076141060838077
1238.0, 0.009712206985921477
1239.0, 0.009526139203843636
1240.0, 0.009990222880984435
1241.0, 0.005755386141102889
1242.0, 0.00683147629632129
1243.0, 0.008271343348142723
1244.0, 0.008579724173209072
1245.0, 0.01059473870243458
1246.0, 0.008837753805638669
1247.0, 0.009251157409954516
1248.0, 0.01318408372376077
1249.0, 0.015136581887985154
1250.0, 0.01381119002966215
1251.0, 0.010047295967775786
1252.0, 0.011799499892028376
1253.0, 0.011576601211177536
1254.0, 0.009047453798703494
1255.0, 0.009766286238052709
1256.0, 0.006566458487992938
1257.0, 0.012331397894565324
1258.0, 0.010871252070472829
1259.0, 0.008191898246782799
1260.0, 0.009621887237955831
1261.0, 0.012001166842873024
1262.0, 0.0037510243447006503
1263.0, 0.0034310855834033195
1264.0, 0.007167565760095948
1265.0, 0.008787504877948334
1266.0, 0.006699612593390957
1267.0, 0.009276068664292144
1268.0, 0.008808294531107198
1269.0, 0.005685655308272333
1270.0, 0.003819515836318595
1271.0, 0.0031321482546087017
1272.0, 0.006683697259744911
1273.0, 0.007520373422004804
1274.0, 0.0066391719224111745
1275.0, 0.008999085659981004
1276.0, 0.006180841589614002
1277.0, 0.0028067575519239137
1278.0, 0.004199145164009468
1279.0, 0.006335938101462522
1280.0, 0.007720108969226461
1281.0, 0.006024213207770424
1282.0, 0.0003781074141022479
1283.0, 0.0030319935399591054
1284.0, 0.005186303857771827
1285.0, 0.0021400888490550047
1286, 0.0
1287, 0.0
1288, 0.0
1289, 0.0
1290, 0.0
1291, 0.0
1292, 0.0
1293, 0.0
1294, 0.0
1295, 0.0
1296, 0.0
1297, 0.0
1298, 0.0
1299, 0.0
1300, 0.0
1301, 0.0
1302, 0.0
1303, 0.0
1304, 0.0
1305, 0.0
1306, 0.0
1307, 0.0
1308, 0.0
1309, 0.0
1310, 0.0
1311, 0.0
1312, 0.0
1313, 0.0
1314, 0.0
1315, 0.0
1316, 0.0
1317, 0.0
1318, 0.0
1319, 0.0
1320, 0.0
1321, 0.0
1322, 0.0
1323, 0.0
1324, 0.0
1325, 0.0
1326, 0.0
1327, 0.0
1328, 0.0
1329, 0.0
1330, 0.0
1331, 0.0
1332, 0.0
1333, 0.0
1334, 0.0
1335, 0.0
1336, 0.0
1337, 0.0
1338, 0.0
1339, 0.0
1340, 0.0
1341, 0.0
1342, 0.0
1343, 0.0
1344, 0.0
1345, 0.0
1346, 0.0
1347, 0.0
1348, 0.0
1349, 0.0
1350, 0.0
1351, 0.0
1352, 0.0
1353, 0.0
1354, 0.0
1355, 0.0
1356, 0.0
1357, 0.0
1358, 0.0
1359, 0.0
1360, 0.0
1361, 0.0
1362, 0.0
1363, 0.0
1364, 0.0
1365, 0.0
1366, 0.0
1367, 0.0
1368, 0.0
1369, 0.0
1370, 0.0
1371, 0.0
1372, 0.0
1373, 0.0
1374, 0.0
1375, 0.0
1376, 0.0
1377, 0.0
1378, 0.0
1379, 0.0
1380, 0.0
1381, 0.0
1382, 0.0
1383, 0.0
1384, 0.0
1385, 0.0
1386, 0.0
1387, 0.0
1388, 0.0
1389, 0.0
1390, 0.0
1391, 0.0
1392, 0.0
1393, 0.0
1394, 0.0
1395, 0.0
1396, 0.0
1397, 0.0
1398, 0.0
1399, 0.0
1400, 0.0
1401, 0.0
1402, 0.0
1403, 0.0
1404, 0.0
1405, 0.0
1406, 0.0
1407, 0.0
1408, 0.0
1409, 0.0
1410, 0.0
1411, 0.0
1412, 0.0
1413, 0.0
1414, 0.0
1415, 0.0
1416, 0.0
1417, 0.0
1418, 0.0
1419, 0.0
1420, 0.0
1421, 0.0
1422, 0.0
1423, 0.0
1424, 0.0
1425, 0.0
1426, 0.0
1427, 0.0
1428, 0.0
1429, 0.0
1430, 0.0
1431, 0.0
1432, 0.0
1433, 0.0
1434, 0.0
1435, 0.0
1436, 0.0
1437, 0.0
1438, 0.0
1439, 0.0
1440, 0.0
1441, 0.0
1442, 0.0
1443, 0.0
1444, 0.0
1445, 0.0
1446, 0.0
1447, 0.0
1448, 0.0
1449, 0.0
1450, 0.0
1451, 0.0
1452, 0.0
1453, 0.0
1454, 0.0
1455, 0.0
1456, 0.0
1457, 0.0
1458, 0.0
1459, 0.0
1460, 0.0
1461, 0.0
1462, 0.0
1463, 0.0
1464, 0.0
1465, 0.0
1466, 0.0
1467, 0.0
1468, 0.0
1469, 0.0
1470, 0.0
1471, 0.0
1472, 0.0
1473, 0.0
1474, 0.0
1475, 0.0
1476, 0.0
1477, 0.0
1478, 0.0
1479, 0.0
1480, 0.0
1481, 0.0
1482, 0.0
1483, 0.0
1484, 0.0
1485, 0.0
1486, 0.0
1487, 0.0
1488, 0.0
1489, 0.0
1490, 0.0
1491, 0.0
1492, 0.0
1493, 0.0
1494, 0.0
1495, 0.0
1496, 0.0
1497, 0.0
1498, 0.0
1499, 0.0
1500, 0.0
1501, 0.0
1502, 0.0
1503, 0.0
1504, 0.0
1505, 0.0
1506, 0.0
1507, 0.0
1508, 0.0
1509, 0.0
1510, 0.0
1511, 0.0
1512, 0.0
1513, 0.0
1514, 0.0
1515, 0.0
1516, 0.0
1517, 0.0
1518, 0.0
1519, 0.0
1520, 0.0
1521, 0.0
1522, 0.0
1523, 0.0
1524, 0.0
1525, 0.0
1526, 0.0
1527, 0.0
1528, 0.0
1529, 0.0
1530, 0.0
1531, 0.0
1532, 0.0
1533, 0.0
1534, 0.0
1535, 0.0
1536, 0.0
1537, 0.0
1538, 0.0
1539, 0.0
1540, 0.0
1541, 0.0
1542, 0.0
1543, 0.0
1544, 0.0
1545, 0.0
1546, 0.0
1547, 0.0
1548, 0.0
1549, 0.0
1550, 0.0
1551, 0.0
1552, 0.0
1553, 0.0
1554, 0.0
1555, 0.0
1556, 0.0
1557, 0.0
1558, 0.0
1559, 0.0
1560, 0.0
1561, 0.0
1562, 0.0
1563, 0.0
1564, 0.0
1565, 0.0
1566, 0.0
1567, 0.0
1568, 0.0
1569, 0.0
1570, 0.0
1571, 0.0
1572, 0.0
1573, 0.0
1574, 0.0
1575, 0.0
1576, 0.0
1577, 0.0
1578, 0.0
1579, 0.0
1580, 0.0
1581, 0.0
1582, 0.0
1583, 0.0
1584, 0.0
1585, 0.0
1586, 0.0
1587, 0.0
1588, 0.0
1589, 0.0
1590, 0.0
1591, 0.0
1592, 0.0
1593, 0.0
1594, 0.0
1595, 0.0
1596, 0.0
1597, 0.0
1598, 0.0
1599, 0.0
